9.800000000000000000e+01,1.570000000000000000e+02,4.250000000000000000e+02,1.010000000000000000e+02,5.400000000000000000e+01,3.390000000000000000e+02,2.330000000000000000e+02,5.150000000000000000e+02,3.599999999999999867e-01,5.731742000000000000e+08
8.900000000000000000e+01,1.480000000000000000e+02,4.260000000000000000e+02,1.050000000000000000e+02,5.700000000000000000e+01,3.310000000000000000e+02,2.310000000000000000e+02,4.770000000000000000e+02,3.499999999999999778e-01,6.019194000000000000e+08
8.400000000000000000e+01,1.170000000000000000e+02,4.070000000000000000e+02,8.400000000000000000e+01,5.500000000000000000e+01,3.230000000000000000e+02,2.540000000000000000e+02,4.090000000000000000e+02,3.499999999999999778e-01,9.425005000000000000e+08
7.400000000000000000e+01,1.420000000000000000e+02,3.950000000000000000e+02,8.300000000000000000e+01,4.800000000000000000e+01,2.280000000000000000e+02,2.090000000000000000e+02,3.360000000000000000e+02,3.400000000000000244e-01,9.596613000000000000e+08
7.400000000000000000e+01,1.260000000000000000e+02,4.020000000000000000e+02,8.200000000000000000e+01,4.500000000000000000e+01,2.020000000000000000e+02,1.730000000000000000e+02,2.970000000000000000e+02,3.400000000000000244e-01,9.780111000000000000e+08
8.100000000000000000e+01,1.190000000000000000e+02,4.230000000000000000e+02,8.700000000000000000e+01,5.500000000000000000e+01,2.810000000000000000e+02,1.870000000000000000e+02,3.150000000000000000e+02,3.400000000000000244e-01,9.963476000000000000e+08
7.800000000000000000e+01,1.190000000000000000e+02,5.010000000000000000e+02,8.900000000000000000e+01,5.400000000000000000e+01,3.140000000000000000e+02,1.990000000000000000e+02,4.090000000000000000e+02,3.400000000000000244e-01,1.014909400000000000e+09
6.800000000000000000e+01,1.290000000000000000e+02,5.010000000000000000e+02,8.700000000000000000e+01,5.200000000000000000e+01,3.090000000000000000e+02,1.500000000000000000e+02,4.020000000000000000e+02,3.400000000000000244e-01,1.034142500000000000e+09
6.800000000000000000e+01,1.020000000000000000e+02,4.940000000000000000e+02,8.800000000000000000e+01,5.700000000000000000e+01,3.530000000000000000e+02,1.620000000000000000e+02,4.100000000000000000e+02,3.400000000000000244e-01,1.054825500000000000e+09
6.700000000000000000e+01,1.020000000000000000e+02,4.800000000000000000e+02,8.600000000000000000e+01,5.600000000000000000e+01,4.040000000000000000e+02,1.800000000000000000e+02,4.080000000000000000e+02,3.400000000000000244e-01,1.073003400000000000e+09
8.500000000000000000e+01,1.110000000000000000e+02,4.730000000000000000e+02,1.000000000000000000e+02,5.800000000000000000e+01,3.670000000000000000e+02,1.620000000000000000e+02,4.910000000000000000e+02,3.300000000000000155e-01,1.091800700000000000e+09
8.400000000000000000e+01,1.210000000000000000e+02,4.450000000000000000e+02,9.400000000000000000e+01,5.700000000000000000e+01,3.600000000000000000e+02,1.550000000000000000e+02,4.200000000000000000e+02,3.300000000000000155e-01,1.110249100000000000e+09
8.500000000000000000e+01,1.130000000000000000e+02,4.570000000000000000e+02,9.000000000000000000e+01,5.800000000000000000e+01,3.640000000000000000e+02,1.560000000000000000e+02,4.290000000000000000e+02,3.300000000000000155e-01,1.128532700000000000e+09
8.900000000000000000e+01,1.090000000000000000e+02,4.880000000000000000e+02,9.600000000000000000e+01,5.400000000000000000e+01,3.240000000000000000e+02,1.420000000000000000e+02,4.620000000000000000e+02,3.300000000000000155e-01,1.147043400000000000e+09
9.400000000000000000e+01,1.360000000000000000e+02,5.390000000000000000e+02,1.060000000000000000e+02,6.400000000000000000e+01,3.230000000000000000e+02,1.160000000000000000e+02,4.600000000000000000e+02,3.200000000000000067e-01,1.165360900000000000e+09
7.500000000000000000e+01,1.290000000000000000e+02,5.970000000000000000e+02,9.200000000000000000e+01,5.800000000000000000e+01,3.330000000000000000e+02,1.450000000000000000e+02,3.490000000000000000e+02,3.200000000000000067e-01,1.182988900000000000e+09
7.200000000000000000e+01,1.280000000000000000e+02,5.470000000000000000e+02,9.400000000000000000e+01,5.500000000000000000e+01,3.170000000000000000e+02,1.480000000000000000e+02,3.540000000000000000e+02,3.099999999999999978e-01,1.200138200000000000e+09
7.800000000000000000e+01,1.470000000000000000e+02,5.970000000000000000e+02,1.160000000000000000e+02,5.600000000000000000e+01,3.160000000000000000e+02,1.500000000000000000e+02,3.750000000000000000e+02,3.099999999999999978e-01,1.219011900000000000e+09
7.900000000000000000e+01,1.530000000000000000e+02,5.880000000000000000e+02,1.190000000000000000e+02,5.700000000000000000e+01,3.150000000000000000e+02,1.530000000000000000e+02,3.100000000000000000e+02,3.099999999999999978e-01,1.240224000000000000e+09
7.400000000000000000e+01,1.480000000000000000e+02,5.390000000000000000e+02,1.080000000000000000e+02,4.700000000000000000e+01,2.390000000000000000e+02,2.030000000000000000e+02,3.570000000000000000e+02,3.200000000000000067e-01,1.261027600000000000e+09
7.400000000000000000e+01,1.480000000000000000e+02,4.660000000000000000e+02,1.130000000000000000e+02,4.700000000000000000e+01,2.110000000000000000e+02,1.820000000000000000e+02,4.010000000000000000e+02,3.200000000000000067e-01,1.278108500000000000e+09
7.600000000000000000e+01,1.360000000000000000e+02,4.940000000000000000e+02,1.130000000000000000e+02,5.100000000000000000e+01,1.970000000000000000e+02,1.870000000000000000e+02,4.470000000000000000e+02,3.200000000000000067e-01,1.295125900000000000e+09
6.700000000000000000e+01,1.150000000000000000e+02,4.040000000000000000e+02,9.400000000000000000e+01,4.700000000000000000e+01,1.790000000000000000e+02,2.070000000000000000e+02,4.340000000000000000e+02,3.200000000000000067e-01,1.313136400000000000e+09
7.100000000000000000e+01,1.340000000000000000e+02,4.210000000000000000e+02,8.300000000000000000e+01,4.600000000000000000e+01,2.120000000000000000e+02,2.080000000000000000e+02,4.780000000000000000e+02,3.200000000000000067e-01,1.330634100000000000e+09
7.100000000000000000e+01,1.390000000000000000e+02,4.710000000000000000e+02,8.600000000000000000e+01,5.000000000000000000e+01,2.470000000000000000e+02,1.750000000000000000e+02,4.650000000000000000e+02,3.200000000000000067e-01,1.349325200000000000e+09
7.000000000000000000e+01,1.440000000000000000e+02,5.200000000000000000e+02,7.800000000000000000e+01,4.700000000000000000e+01,2.330000000000000000e+02,1.790000000000000000e+02,4.390000000000000000e+02,3.200000000000000067e-01,1.366604600000000000e+09
7.000000000000000000e+01,1.560000000000000000e+02,4.700000000000000000e+02,7.500000000000000000e+01,4.400000000000000000e+01,2.450000000000000000e+02,1.690000000000000000e+02,3.570000000000000000e+02,3.200000000000000067e-01,1.382653100000000000e+09
7.400000000000000000e+01,1.640000000000000000e+02,4.660000000000000000e+02,8.800000000000000000e+01,4.600000000000000000e+01,2.450000000000000000e+02,1.530000000000000000e+02,3.570000000000000000e+02,3.300000000000000155e-01,1.399138200000000000e+09
7.400000000000000000e+01,1.580000000000000000e+02,4.310000000000000000e+02,9.900000000000000000e+01,4.900000000000000000e+01,2.360000000000000000e+02,1.490000000000000000e+02,3.280000000000000000e+02,3.300000000000000155e-01,1.416487400000000000e+09
7.200000000000000000e+01,1.610000000000000000e+02,3.740000000000000000e+02,9.700000000000000000e+01,4.600000000000000000e+01,2.190000000000000000e+02,1.330000000000000000e+02,3.150000000000000000e+02,3.300000000000000155e-01,1.435274600000000000e+09
7.800000000000000000e+01,1.600000000000000000e+02,2.880000000000000000e+02,9.600000000000000000e+01,4.400000000000000000e+01,2.410000000000000000e+02,1.340000000000000000e+02,2.950000000000000000e+02,3.400000000000000244e-01,1.454359300000000000e+09
7.400000000000000000e+01,1.660000000000000000e+02,3.800000000000000000e+02,1.000000000000000000e+02,4.500000000000000000e+01,2.300000000000000000e+02,1.320000000000000000e+02,3.040000000000000000e+02,3.400000000000000244e-01,1.472158300000000000e+09
8.000000000000000000e+01,1.690000000000000000e+02,4.190000000000000000e+02,1.020000000000000000e+02,4.700000000000000000e+01,2.360000000000000000e+02,1.210000000000000000e+02,3.200000000000000000e+02,3.499999999999999778e-01,1.488346000000000000e+09
7.300000000000000000e+01,1.780000000000000000e+02,4.530000000000000000e+02,9.700000000000000000e+01,4.500000000000000000e+01,2.080000000000000000e+02,1.160000000000000000e+02,2.690000000000000000e+02,3.499999999999999778e-01,1.506062300000000000e+09
7.100000000000000000e+01,1.720000000000000000e+02,4.910000000000000000e+02,1.150000000000000000e+02,4.300000000000000000e+01,1.780000000000000000e+02,1.080000000000000000e+02,2.360000000000000000e+02,3.599999999999999867e-01,1.525860700000000000e+09
6.500000000000000000e+01,1.990000000000000000e+02,5.620000000000000000e+02,1.270000000000000000e+02,4.600000000000000000e+01,1.360000000000000000e+02,8.800000000000000000e+01,2.220000000000000000e+02,3.699999999999999956e-01,1.544545900000000000e+09
6.500000000000000000e+01,1.950000000000000000e+02,5.060000000000000000e+02,1.560000000000000000e+02,5.100000000000000000e+01,1.220000000000000000e+02,7.400000000000000000e+01,1.960000000000000000e+02,3.900000000000000133e-01,1.562606000000000000e+09
5.400000000000000000e+01,1.860000000000000000e+02,4.850000000000000000e+02,1.490000000000000000e+02,4.600000000000000000e+01,9.500000000000000000e+01,5.300000000000000000e+01,7.100000000000000000e+01,4.000000000000000222e-01,1.579009100000000000e+09
6.400000000000000000e+01,2.000000000000000000e+02,4.780000000000000000e+02,1.500000000000000000e+02,4.400000000000000000e+01,1.370000000000000000e+02,9.500000000000000000e+01,1.710000000000000000e+02,4.199999999999999845e-01,1.596491800000000000e+09
6.500000000000000000e+01,1.870000000000000000e+02,5.250000000000000000e+02,1.390000000000000000e+02,4.800000000000000000e+01,2.100000000000000000e+02,1.140000000000000000e+02,1.970000000000000000e+02,4.299999999999999933e-01,1.613485000000000000e+09
6.000000000000000000e+01,1.620000000000000000e+02,5.620000000000000000e+02,1.390000000000000000e+02,4.800000000000000000e+01,2.120000000000000000e+02,1.200000000000000000e+02,2.070000000000000000e+02,4.400000000000000022e-01,1.631424200000000000e+09
6.400000000000000000e+01,1.620000000000000000e+02,5.740000000000000000e+02,1.000000000000000000e+02,4.500000000000000000e+01,2.150000000000000000e+02,1.220000000000000000e+02,2.100000000000000000e+02,4.400000000000000022e-01,1.651089800000000000e+09
6.200000000000000000e+01,1.670000000000000000e+02,6.300000000000000000e+02,1.090000000000000000e+02,4.800000000000000000e+01,2.170000000000000000e+02,1.230000000000000000e+02,2.120000000000000000e+02,4.500000000000000111e-01,1.667790700000000000e+09
5.100000000000000000e+01,1.260000000000000000e+02,6.140000000000000000e+02,1.020000000000000000e+02,5.200000000000000000e+01,2.360000000000000000e+02,1.120000000000000000e+02,2.270000000000000000e+02,4.600000000000000200e-01,1.684903400000000000e+09
6.000000000000000000e+01,1.260000000000000000e+02,5.550000000000000000e+02,9.700000000000000000e+01,5.700000000000000000e+01,2.770000000000000000e+02,1.170000000000000000e+02,2.510000000000000000e+02,4.600000000000000200e-01,1.702019400000000000e+09
6.900000000000000000e+01,1.220000000000000000e+02,4.460000000000000000e+02,8.200000000000000000e+01,5.600000000000000000e+01,3.100000000000000000e+02,1.120000000000000000e+02,2.590000000000000000e+02,4.600000000000000200e-01,1.719372700000000000e+09
7.100000000000000000e+01,1.420000000000000000e+02,4.370000000000000000e+02,7.900000000000000000e+01,5.600000000000000000e+01,3.280000000000000000e+02,1.150000000000000000e+02,2.720000000000000000e+02,4.500000000000000111e-01,1.737870300000000000e+09
7.400000000000000000e+01,1.530000000000000000e+02,3.600000000000000000e+02,7.500000000000000000e+01,5.500000000000000000e+01,3.400000000000000000e+02,1.210000000000000000e+02,3.330000000000000000e+02,4.500000000000000111e-01,1.757108100000000000e+09
7.800000000000000000e+01,1.540000000000000000e+02,3.500000000000000000e+02,9.700000000000000000e+01,6.500000000000000000e+01,5.040000000000000000e+02,1.270000000000000000e+02,3.710000000000000000e+02,4.400000000000000022e-01,1.773758500000000000e+09
9.100000000000000000e+01,1.570000000000000000e+02,3.830000000000000000e+02,1.110000000000000000e+02,6.500000000000000000e+01,5.050000000000000000e+02,1.440000000000000000e+02,5.240000000000000000e+02,4.299999999999999933e-01,1.790624200000000000e+09
9.500000000000000000e+01,1.720000000000000000e+02,4.460000000000000000e+02,1.250000000000000000e+02,7.400000000000000000e+01,5.770000000000000000e+02,1.650000000000000000e+02,5.490000000000000000e+02,4.099999999999999756e-01,1.807074900000000000e+09
9.700000000000000000e+01,1.450000000000000000e+02,4.530000000000000000e+02,1.240000000000000000e+02,7.500000000000000000e+01,5.800000000000000000e+02,1.790000000000000000e+02,5.540000000000000000e+02,4.000000000000000222e-01,1.823799600000000000e+09
9.700000000000000000e+01,1.340000000000000000e+02,4.620000000000000000e+02,1.240000000000000000e+02,7.700000000000000000e+01,6.160000000000000000e+02,1.810000000000000000e+02,5.320000000000000000e+02,3.900000000000000133e-01,1.842885600000000000e+09
9.600000000000000000e+01,1.280000000000000000e+02,5.860000000000000000e+02,1.130000000000000000e+02,6.800000000000000000e+01,4.880000000000000000e+02,1.840000000000000000e+02,4.820000000000000000e+02,3.800000000000000044e-01,1.860564500000000000e+09
7.900000000000000000e+01,1.560000000000000000e+02,5.970000000000000000e+02,1.100000000000000000e+02,7.100000000000000000e+01,5.550000000000000000e+02,1.740000000000000000e+02,2.840000000000000000e+02,3.800000000000000044e-01,1.876796700000000000e+09
7.100000000000000000e+01,1.420000000000000000e+02,5.820000000000000000e+02,9.600000000000000000e+01,6.100000000000000000e+01,4.740000000000000000e+02,1.590000000000000000e+02,2.260000000000000000e+02,3.800000000000000044e-01,1.893629700000000000e+09
6.000000000000000000e+01,1.510000000000000000e+02,6.510000000000000000e+02,1.010000000000000000e+02,5.900000000000000000e+01,4.590000000000000000e+02,1.390000000000000000e+02,2.020000000000000000e+02,3.800000000000000044e-01,1.909410700000000000e+09
5.900000000000000000e+01,1.840000000000000000e+02,6.480000000000000000e+02,1.070000000000000000e+02,5.400000000000000000e+01,4.130000000000000000e+02,1.390000000000000000e+02,1.760000000000000000e+02,3.900000000000000133e-01,1.927594700000000000e+09
6.200000000000000000e+01,2.090000000000000000e+02,5.560000000000000000e+02,1.030000000000000000e+02,5.300000000000000000e+01,4.030000000000000000e+02,1.290000000000000000e+02,1.730000000000000000e+02,4.000000000000000222e-01,1.946559800000000000e+09
6.100000000000000000e+01,2.220000000000000000e+02,5.320000000000000000e+02,9.200000000000000000e+01,4.200000000000000000e+01,2.480000000000000000e+02,1.140000000000000000e+02,2.330000000000000000e+02,4.000000000000000222e-01,1.963485400000000000e+09
6.600000000000000000e+01,2.220000000000000000e+02,5.200000000000000000e+02,9.300000000000000000e+01,5.600000000000000000e+01,3.100000000000000000e+02,1.260000000000000000e+02,3.100000000000000000e+02,4.000000000000000222e-01,1.980002600000000000e+09
7.400000000000000000e+01,2.180000000000000000e+02,4.500000000000000000e+02,9.700000000000000000e+01,6.200000000000000000e+01,3.450000000000000000e+02,1.530000000000000000e+02,3.250000000000000000e+02,4.000000000000000222e-01,1.996763000000000000e+09
8.500000000000000000e+01,1.930000000000000000e+02,4.340000000000000000e+02,8.100000000000000000e+01,6.200000000000000000e+01,3.380000000000000000e+02,1.490000000000000000e+02,3.970000000000000000e+02,4.099999999999999756e-01,2.013750200000000000e+09
8.300000000000000000e+01,1.770000000000000000e+02,4.010000000000000000e+02,9.400000000000000000e+01,6.100000000000000000e+01,3.270000000000000000e+02,1.390000000000000000e+02,3.970000000000000000e+02,4.099999999999999756e-01,2.030236100000000000e+09
8.700000000000000000e+01,1.370000000000000000e+02,3.860000000000000000e+02,9.500000000000000000e+01,6.300000000000000000e+01,3.210000000000000000e+02,1.370000000000000000e+02,3.920000000000000000e+02,4.199999999999999845e-01,2.048844300000000000e+09
8.000000000000000000e+01,1.290000000000000000e+02,3.660000000000000000e+02,9.000000000000000000e+01,5.200000000000000000e+01,2.820000000000000000e+02,1.390000000000000000e+02,3.370000000000000000e+02,4.099999999999999756e-01,2.065930200000000000e+09
8.200000000000000000e+01,1.550000000000000000e+02,4.110000000000000000e+02,1.170000000000000000e+02,4.800000000000000000e+01,2.680000000000000000e+02,1.420000000000000000e+02,3.530000000000000000e+02,4.099999999999999756e-01,2.082295400000000000e+09
6.900000000000000000e+01,1.490000000000000000e+02,4.150000000000000000e+02,1.260000000000000000e+02,5.100000000000000000e+01,2.810000000000000000e+02,1.440000000000000000e+02,2.810000000000000000e+02,4.099999999999999756e-01,2.100533900000000000e+09
6.900000000000000000e+01,1.420000000000000000e+02,4.320000000000000000e+02,1.180000000000000000e+02,5.500000000000000000e+01,3.200000000000000000e+02,1.550000000000000000e+02,3.110000000000000000e+02,4.000000000000000222e-01,2.117946800000000000e+09
6.300000000000000000e+01,1.310000000000000000e+02,4.400000000000000000e+02,1.310000000000000000e+02,5.200000000000000000e+01,3.550000000000000000e+02,1.630000000000000000e+02,2.850000000000000000e+02,3.900000000000000133e-01,2.137437200000000000e+09
6.600000000000000000e+01,1.310000000000000000e+02,4.410000000000000000e+02,1.300000000000000000e+02,4.800000000000000000e+01,3.440000000000000000e+02,1.530000000000000000e+02,3.250000000000000000e+02,3.800000000000000044e-01,2.153999100000000000e+09
7.200000000000000000e+01,1.190000000000000000e+02,3.820000000000000000e+02,9.800000000000000000e+01,5.100000000000000000e+01,3.450000000000000000e+02,1.340000000000000000e+02,3.680000000000000000e+02,3.800000000000000044e-01,2.170639900000000000e+09
7.100000000000000000e+01,1.220000000000000000e+02,3.690000000000000000e+02,8.400000000000000000e+01,5.000000000000000000e+01,3.500000000000000000e+02,1.560000000000000000e+02,3.810000000000000000e+02,3.800000000000000044e-01,2.187001500000000000e+09
7.600000000000000000e+01,1.200000000000000000e+02,3.650000000000000000e+02,8.000000000000000000e+01,4.600000000000000000e+01,3.180000000000000000e+02,1.650000000000000000e+02,3.760000000000000000e+02,3.800000000000000044e-01,2.203811700000000000e+09
7.900000000000000000e+01,1.300000000000000000e+02,3.410000000000000000e+02,6.800000000000000000e+01,4.800000000000000000e+01,2.750000000000000000e+02,1.560000000000000000e+02,3.940000000000000000e+02,3.800000000000000044e-01,2.220512000000000000e+09
8.000000000000000000e+01,1.570000000000000000e+02,4.050000000000000000e+02,9.200000000000000000e+01,4.800000000000000000e+01,2.510000000000000000e+02,1.490000000000000000e+02,3.710000000000000000e+02,3.800000000000000044e-01,2.238623800000000000e+09
8.000000000000000000e+01,1.660000000000000000e+02,4.300000000000000000e+02,1.220000000000000000e+02,4.800000000000000000e+01,2.410000000000000000e+02,1.480000000000000000e+02,3.150000000000000000e+02,3.800000000000000044e-01,2.258154500000000000e+09
8.100000000000000000e+01,1.710000000000000000e+02,4.610000000000000000e+02,1.780000000000000000e+02,5.400000000000000000e+01,2.530000000000000000e+02,1.510000000000000000e+02,3.290000000000000000e+02,3.800000000000000044e-01,2.275502500000000000e+09
8.500000000000000000e+01,1.720000000000000000e+02,4.940000000000000000e+02,1.810000000000000000e+02,5.400000000000000000e+01,2.690000000000000000e+02,1.300000000000000000e+02,3.500000000000000000e+02,3.800000000000000044e-01,2.292696300000000000e+09
8.100000000000000000e+01,1.820000000000000000e+02,5.320000000000000000e+02,1.790000000000000000e+02,5.200000000000000000e+01,2.490000000000000000e+02,1.320000000000000000e+02,3.200000000000000000e+02,3.900000000000000133e-01,2.309848100000000000e+09
8.000000000000000000e+01,1.800000000000000000e+02,4.810000000000000000e+02,1.720000000000000000e+02,5.500000000000000000e+01,2.470000000000000000e+02,1.430000000000000000e+02,3.150000000000000000e+02,3.900000000000000133e-01,2.326869400000000000e+09
7.100000000000000000e+01,1.730000000000000000e+02,4.470000000000000000e+02,1.550000000000000000e+02,4.800000000000000000e+01,2.390000000000000000e+02,1.430000000000000000e+02,3.030000000000000000e+02,3.900000000000000133e-01,2.345348400000000000e+09
6.800000000000000000e+01,1.630000000000000000e+02,4.820000000000000000e+02,9.100000000000000000e+01,4.000000000000000000e+01,1.960000000000000000e+02,1.160000000000000000e+02,2.600000000000000000e+02,3.900000000000000133e-01,2.362113800000000000e+09
5.400000000000000000e+01,1.620000000000000000e+02,5.670000000000000000e+02,1.200000000000000000e+02,4.600000000000000000e+01,1.730000000000000000e+02,1.120000000000000000e+02,2.090000000000000000e+02,4.000000000000000222e-01,2.378159300000000000e+09
5.700000000000000000e+01,1.580000000000000000e+02,5.760000000000000000e+02,1.220000000000000000e+02,4.800000000000000000e+01,2.110000000000000000e+02,1.150000000000000000e+02,2.650000000000000000e+02,4.000000000000000222e-01,2.394677900000000000e+09
7.000000000000000000e+01,1.510000000000000000e+02,5.810000000000000000e+02,1.220000000000000000e+02,6.600000000000000000e+01,3.490000000000000000e+02,1.360000000000000000e+02,2.570000000000000000e+02,4.000000000000000222e-01,2.411835500000000000e+09
6.600000000000000000e+01,1.360000000000000000e+02,5.690000000000000000e+02,1.240000000000000000e+02,6.500000000000000000e+01,3.540000000000000000e+02,1.400000000000000000e+02,3.240000000000000000e+02,4.000000000000000222e-01,2.429627900000000000e+09
6.600000000000000000e+01,1.390000000000000000e+02,5.090000000000000000e+02,1.330000000000000000e+02,6.500000000000000000e+01,3.510000000000000000e+02,1.320000000000000000e+02,3.250000000000000000e+02,4.000000000000000222e-01,2.448872700000000000e+09
6.400000000000000000e+01,1.370000000000000000e+02,3.870000000000000000e+02,1.040000000000000000e+02,6.100000000000000000e+01,3.570000000000000000e+02,1.300000000000000000e+02,3.100000000000000000e+02,4.000000000000000222e-01,2.467421500000000000e+09
6.000000000000000000e+01,1.210000000000000000e+02,3.520000000000000000e+02,1.000000000000000000e+02,6.000000000000000000e+01,3.570000000000000000e+02,1.230000000000000000e+02,2.580000000000000000e+02,4.000000000000000222e-01,2.483821200000000000e+09
4.000000000000000000e+01,9.300000000000000000e+01,3.990000000000000000e+02,9.600000000000000000e+01,3.400000000000000000e+01,2.240000000000000000e+02,1.040000000000000000e+02,2.460000000000000000e+02,4.000000000000000222e-01,2.500185500000000000e+09
4.300000000000000000e+01,1.030000000000000000e+02,4.480000000000000000e+02,1.060000000000000000e+02,3.900000000000000000e+01,1.950000000000000000e+02,8.700000000000000000e+01,1.260000000000000000e+02,4.000000000000000222e-01,2.518156800000000000e+09
4.600000000000000000e+01,1.110000000000000000e+02,5.060000000000000000e+02,1.190000000000000000e+02,4.200000000000000000e+01,1.930000000000000000e+02,8.900000000000000000e+01,1.030000000000000000e+02,4.099999999999999756e-01,2.536957500000000000e+09
5.000000000000000000e+01,1.170000000000000000e+02,4.950000000000000000e+02,1.280000000000000000e+02,4.300000000000000000e+01,1.690000000000000000e+02,8.800000000000000000e+01,8.700000000000000000e+01,4.199999999999999845e-01,2.554617100000000000e+09
4.900000000000000000e+01,1.160000000000000000e+02,4.860000000000000000e+02,1.760000000000000000e+02,6.000000000000000000e+01,1.040000000000000000e+02,8.500000000000000000e+01,7.800000000000000000e+01,4.299999999999999933e-01,2.571374200000000000e+09
5.200000000000000000e+01,1.240000000000000000e+02,6.190000000000000000e+02,1.800000000000000000e+02,6.800000000000000000e+01,7.700000000000000000e+01,5.700000000000000000e+01,6.100000000000000000e+01,4.400000000000000022e-01,2.587980600000000000e+09
5.000000000000000000e+01,1.320000000000000000e+02,6.370000000000000000e+02,1.820000000000000000e+02,7.100000000000000000e+01,6.600000000000000000e+01,5.000000000000000000e+01,5.400000000000000000e+01,4.500000000000000111e-01,2.606793500000000000e+09
4.700000000000000000e+01,1.250000000000000000e+02,6.180000000000000000e+02,1.750000000000000000e+02,7.300000000000000000e+01,5.700000000000000000e+01,4.100000000000000000e+01,4.600000000000000000e+01,4.600000000000000200e-01,2.624878500000000000e+09
4.100000000000000000e+01,1.140000000000000000e+02,6.220000000000000000e+02,2.040000000000000000e+02,7.700000000000000000e+01,4.800000000000000000e+01,3.400000000000000000e+01,4.000000000000000000e+01,4.799999999999999822e-01,2.644315500000000000e+09
4.300000000000000000e+01,1.270000000000000000e+02,6.690000000000000000e+02,2.250000000000000000e+02,7.000000000000000000e+01,4.400000000000000000e+01,3.300000000000000000e+01,4.000000000000000000e+01,4.899999999999999911e-01,2.667617400000000000e+09
4.200000000000000000e+01,1.230000000000000000e+02,6.400000000000000000e+02,2.280000000000000000e+02,6.600000000000000000e+01,3.400000000000000000e+01,2.500000000000000000e+01,3.400000000000000000e+01,5.100000000000000089e-01,2.685696000000000000e+09
3.800000000000000000e+01,1.010000000000000000e+02,6.210000000000000000e+02,2.270000000000000000e+02,6.100000000000000000e+01,3.400000000000000000e+01,2.300000000000000000e+01,3.000000000000000000e+01,5.200000000000000178e-01,2.705577300000000000e+09
3.700000000000000000e+01,9.500000000000000000e+01,5.960000000000000000e+02,2.180000000000000000e+02,5.500000000000000000e+01,3.200000000000000000e+01,2.200000000000000000e+01,3.000000000000000000e+01,5.300000000000000266e-01,2.723019500000000000e+09
4.300000000000000000e+01,1.100000000000000000e+02,6.210000000000000000e+02,1.920000000000000000e+02,5.100000000000000000e+01,3.000000000000000000e+01,2.100000000000000000e+01,3.200000000000000000e+01,5.400000000000000355e-01,2.742189200000000000e+09
3.900000000000000000e+01,9.800000000000000000e+01,5.800000000000000000e+02,1.230000000000000000e+02,4.200000000000000000e+01,2.600000000000000000e+01,1.900000000000000000e+01,2.800000000000000000e+01,5.500000000000000444e-01,2.759665400000000000e+09
4.100000000000000000e+01,1.000000000000000000e+02,5.030000000000000000e+02,1.350000000000000000e+02,4.200000000000000000e+01,2.700000000000000000e+01,1.900000000000000000e+01,2.800000000000000000e+01,5.500000000000000444e-01,2.777021400000000000e+09
4.100000000000000000e+01,1.000000000000000000e+02,4.690000000000000000e+02,1.340000000000000000e+02,4.400000000000000000e+01,2.600000000000000000e+01,2.000000000000000000e+01,2.600000000000000000e+01,5.600000000000000533e-01,2.794662600000000000e+09
4.400000000000000000e+01,9.800000000000000000e+01,4.760000000000000000e+02,1.360000000000000000e+02,5.300000000000000000e+01,3.100000000000000000e+01,2.100000000000000000e+01,3.100000000000000000e+01,5.799999999999999600e-01,2.811930800000000000e+09
3.900000000000000000e+01,8.300000000000000000e+01,4.230000000000000000e+02,1.220000000000000000e+02,4.900000000000000000e+01,3.300000000000000000e+01,2.300000000000000000e+01,2.900000000000000000e+01,5.899999999999999689e-01,2.828013900000000000e+09
4.000000000000000000e+01,8.400000000000000000e+01,3.910000000000000000e+02,1.140000000000000000e+02,5.100000000000000000e+01,3.300000000000000000e+01,2.400000000000000000e+01,3.000000000000000000e+01,5.899999999999999689e-01,2.846052600000000000e+09
3.300000000000000000e+01,7.100000000000000000e+01,2.780000000000000000e+02,9.300000000000000000e+01,4.500000000000000000e+01,3.100000000000000000e+01,2.400000000000000000e+01,2.800000000000000000e+01,5.999999999999999778e-01,2.865984100000000000e+09
3.200000000000000000e+01,6.300000000000000000e+01,2.510000000000000000e+02,8.400000000000000000e+01,4.200000000000000000e+01,3.200000000000000000e+01,2.500000000000000000e+01,2.700000000000000000e+01,5.999999999999999778e-01,2.882295300000000000e+09
3.000000000000000000e+01,1.140000000000000000e+02,2.450000000000000000e+02,9.300000000000000000e+01,3.800000000000000000e+01,3.200000000000000000e+01,2.400000000000000000e+01,2.400000000000000000e+01,5.999999999999999778e-01,2.899286600000000000e+09
3.000000000000000000e+01,1.140000000000000000e+02,2.290000000000000000e+02,9.600000000000000000e+01,4.200000000000000000e+01,3.100000000000000000e+01,2.600000000000000000e+01,2.500000000000000000e+01,5.999999999999999778e-01,2.916198600000000000e+09
2.800000000000000000e+01,1.070000000000000000e+02,2.150000000000000000e+02,9.000000000000000000e+01,4.300000000000000000e+01,3.300000000000000000e+01,2.700000000000000000e+01,2.500000000000000000e+01,5.999999999999999778e-01,2.934540700000000000e+09
2.900000000000000000e+01,1.090000000000000000e+02,2.110000000000000000e+02,8.100000000000000000e+01,4.300000000000000000e+01,3.500000000000000000e+01,2.700000000000000000e+01,2.600000000000000000e+01,5.999999999999999778e-01,2.952913900000000000e+09
2.600000000000000000e+01,1.100000000000000000e+02,2.260000000000000000e+02,7.200000000000000000e+01,4.300000000000000000e+01,3.500000000000000000e+01,2.700000000000000000e+01,2.400000000000000000e+01,5.999999999999999778e-01,2.969733500000000000e+09
2.900000000000000000e+01,5.700000000000000000e+01,2.910000000000000000e+02,7.100000000000000000e+01,4.100000000000000000e+01,3.400000000000000000e+01,2.600000000000000000e+01,2.500000000000000000e+01,5.899999999999999689e-01,2.987879800000000000e+09
2.900000000000000000e+01,7.600000000000000000e+01,3.310000000000000000e+02,8.900000000000000000e+01,4.800000000000000000e+01,4.200000000000000000e+01,2.600000000000000000e+01,2.500000000000000000e+01,5.899999999999999689e-01,3.004827000000000000e+09
3.100000000000000000e+01,8.000000000000000000e+01,3.330000000000000000e+02,1.090000000000000000e+02,6.300000000000000000e+01,5.300000000000000000e+01,2.400000000000000000e+01,2.400000000000000000e+01,5.899999999999999689e-01,3.021467600000000000e+09
3.200000000000000000e+01,8.200000000000000000e+01,3.330000000000000000e+02,1.080000000000000000e+02,6.700000000000000000e+01,5.500000000000000000e+01,2.500000000000000000e+01,2.900000000000000000e+01,5.899999999999999689e-01,3.040227600000000000e+09
3.700000000000000000e+01,8.300000000000000000e+01,3.620000000000000000e+02,1.210000000000000000e+02,7.600000000000000000e+01,5.500000000000000000e+01,2.600000000000000000e+01,3.400000000000000000e+01,5.899999999999999689e-01,3.059208900000000000e+09
5.800000000000000000e+01,1.190000000000000000e+02,3.840000000000000000e+02,1.710000000000000000e+02,9.800000000000000000e+01,7.400000000000000000e+01,3.400000000000000000e+01,5.400000000000000000e+01,5.799999999999999600e-01,3.076792600000000000e+09
6.000000000000000000e+01,1.150000000000000000e+02,3.660000000000000000e+02,1.830000000000000000e+02,9.800000000000000000e+01,7.300000000000000000e+01,3.300000000000000000e+01,5.500000000000000000e+01,5.799999999999999600e-01,3.093755300000000000e+09
6.000000000000000000e+01,1.150000000000000000e+02,3.650000000000000000e+02,1.730000000000000000e+02,1.120000000000000000e+02,6.900000000000000000e+01,3.300000000000000000e+01,5.600000000000000000e+01,5.799999999999999600e-01,3.111500500000000000e+09
5.900000000000000000e+01,1.150000000000000000e+02,3.600000000000000000e+02,1.750000000000000000e+02,1.120000000000000000e+02,7.000000000000000000e+01,3.200000000000000000e+01,5.400000000000000000e+01,5.699999999999999512e-01,3.130278100000000000e+09
5.700000000000000000e+01,1.200000000000000000e+02,3.220000000000000000e+02,1.670000000000000000e+02,1.080000000000000000e+02,7.900000000000000000e+01,3.600000000000000000e+01,5.600000000000000000e+01,5.699999999999999512e-01,3.149567200000000000e+09
3.500000000000000000e+01,8.800000000000000000e+01,2.150000000000000000e+02,1.120000000000000000e+02,9.000000000000000000e+01,6.900000000000000000e+01,2.800000000000000000e+01,3.800000000000000000e+01,5.600000000000000533e-01,3.167010300000000000e+09
4.000000000000000000e+01,7.700000000000000000e+01,2.020000000000000000e+02,7.300000000000000000e+01,8.500000000000000000e+01,6.900000000000000000e+01,2.900000000000000000e+01,1.290000000000000000e+02,5.600000000000000533e-01,3.185653100000000000e+09
4.100000000000000000e+01,7.100000000000000000e+01,2.180000000000000000e+02,6.900000000000000000e+01,5.200000000000000000e+01,7.300000000000000000e+01,3.100000000000000000e+01,1.380000000000000000e+02,5.500000000000000444e-01,3.202833900000000000e+09
5.100000000000000000e+01,6.700000000000000000e+01,2.100000000000000000e+02,6.000000000000000000e+01,5.200000000000000000e+01,7.900000000000000000e+01,3.000000000000000000e+01,1.780000000000000000e+02,5.400000000000000355e-01,3.222016000000000000e+09
5.100000000000000000e+01,6.300000000000000000e+01,2.040000000000000000e+02,5.400000000000000000e+01,7.400000000000000000e+01,7.100000000000000000e+01,4.500000000000000000e+01,2.160000000000000000e+02,5.300000000000000266e-01,3.240417800000000000e+09
5.100000000000000000e+01,9.700000000000000000e+01,1.680000000000000000e+02,4.200000000000000000e+01,7.500000000000000000e+01,7.200000000000000000e+01,4.900000000000000000e+01,2.200000000000000000e+02,5.200000000000000178e-01,3.261134300000000000e+09
4.700000000000000000e+01,1.060000000000000000e+02,1.850000000000000000e+02,7.400000000000000000e+01,8.200000000000000000e+01,7.700000000000000000e+01,6.100000000000000000e+01,2.020000000000000000e+02,5.100000000000000089e-01,3.278821900000000000e+09
5.100000000000000000e+01,1.090000000000000000e+02,1.690000000000000000e+02,7.600000000000000000e+01,8.300000000000000000e+01,7.400000000000000000e+01,6.200000000000000000e+01,2.170000000000000000e+02,5.000000000000000000e-01,3.297689900000000000e+09
4.800000000000000000e+01,1.100000000000000000e+02,1.690000000000000000e+02,8.000000000000000000e+01,8.400000000000000000e+01,9.700000000000000000e+01,6.400000000000000000e+01,1.900000000000000000e+02,4.899999999999999911e-01,3.316462600000000000e+09
5.600000000000000000e+01,1.210000000000000000e+02,2.020000000000000000e+02,8.300000000000000000e+01,9.300000000000000000e+01,1.040000000000000000e+02,5.600000000000000000e+01,1.670000000000000000e+02,4.899999999999999911e-01,3.337682000000000000e+09
6.000000000000000000e+01,1.050000000000000000e+02,3.030000000000000000e+02,8.700000000000000000e+01,1.000000000000000000e+02,1.020000000000000000e+02,5.300000000000000000e+01,1.790000000000000000e+02,4.799999999999999822e-01,3.358041400000000000e+09
6.500000000000000000e+01,1.080000000000000000e+02,3.600000000000000000e+02,9.800000000000000000e+01,1.110000000000000000e+02,1.090000000000000000e+02,4.500000000000000000e+01,1.830000000000000000e+02,4.699999999999999734e-01,3.376480500000000000e+09
6.600000000000000000e+01,1.100000000000000000e+02,3.690000000000000000e+02,1.090000000000000000e+02,1.140000000000000000e+02,2.210000000000000000e+02,7.800000000000000000e+01,1.890000000000000000e+02,4.600000000000000200e-01,3.394322200000000000e+09
6.400000000000000000e+01,1.110000000000000000e+02,3.740000000000000000e+02,1.070000000000000000e+02,1.130000000000000000e+02,2.270000000000000000e+02,7.800000000000000000e+01,1.940000000000000000e+02,4.600000000000000200e-01,3.412446700000000000e+09
5.700000000000000000e+01,9.400000000000000000e+01,3.700000000000000000e+02,1.050000000000000000e+02,8.900000000000000000e+01,2.250000000000000000e+02,7.900000000000000000e+01,1.780000000000000000e+02,4.500000000000000111e-01,3.431172100000000000e+09
6.100000000000000000e+01,1.020000000000000000e+02,4.150000000000000000e+02,1.350000000000000000e+02,8.200000000000000000e+01,2.260000000000000000e+02,8.100000000000000000e+01,1.660000000000000000e+02,4.600000000000000200e-01,3.453021100000000000e+09
5.700000000000000000e+01,1.030000000000000000e+02,3.700000000000000000e+02,1.170000000000000000e+02,5.600000000000000000e+01,2.250000000000000000e+02,7.800000000000000000e+01,1.360000000000000000e+02,4.600000000000000200e-01,3.470926200000000000e+09
5.500000000000000000e+01,1.030000000000000000e+02,3.820000000000000000e+02,1.060000000000000000e+02,4.600000000000000000e+01,1.240000000000000000e+02,4.400000000000000000e+01,1.160000000000000000e+02,4.699999999999999734e-01,3.489777500000000000e+09
5.800000000000000000e+01,1.050000000000000000e+02,3.790000000000000000e+02,1.070000000000000000e+02,4.300000000000000000e+01,1.170000000000000000e+02,7.000000000000000000e+01,1.320000000000000000e+02,4.799999999999999822e-01,3.507640700000000000e+09
6.800000000000000000e+01,1.040000000000000000e+02,3.660000000000000000e+02,1.070000000000000000e+02,4.200000000000000000e+01,1.660000000000000000e+02,6.900000000000000000e+01,1.440000000000000000e+02,4.799999999999999822e-01,3.526554800000000000e+09
6.000000000000000000e+01,8.100000000000000000e+01,2.450000000000000000e+02,6.600000000000000000e+01,3.300000000000000000e+01,1.680000000000000000e+02,6.900000000000000000e+01,1.430000000000000000e+02,4.799999999999999822e-01,3.547143900000000000e+09
6.300000000000000000e+01,6.600000000000000000e+01,2.210000000000000000e+02,7.800000000000000000e+01,4.300000000000000000e+01,1.630000000000000000e+02,6.900000000000000000e+01,1.710000000000000000e+02,4.899999999999999911e-01,3.565950300000000000e+09
6.000000000000000000e+01,7.900000000000000000e+01,1.780000000000000000e+02,8.500000000000000000e+01,4.700000000000000000e+01,1.620000000000000000e+02,7.000000000000000000e+01,1.600000000000000000e+02,5.000000000000000000e-01,3.584508300000000000e+09
6.200000000000000000e+01,8.600000000000000000e+01,1.790000000000000000e+02,8.300000000000000000e+01,4.800000000000000000e+01,1.430000000000000000e+02,4.300000000000000000e+01,1.630000000000000000e+02,5.000000000000000000e-01,3.603121200000000000e+09
7.400000000000000000e+01,9.800000000000000000e+01,2.290000000000000000e+02,8.400000000000000000e+01,5.100000000000000000e+01,7.900000000000000000e+01,4.200000000000000000e+01,1.560000000000000000e+02,5.100000000000000089e-01,3.622249900000000000e+09
9.100000000000000000e+01,1.680000000000000000e+02,2.320000000000000000e+02,7.900000000000000000e+01,5.000000000000000000e+01,8.400000000000000000e+01,4.000000000000000000e+01,1.790000000000000000e+02,5.100000000000000089e-01,3.643792200000000000e+09
8.900000000000000000e+01,1.710000000000000000e+02,2.200000000000000000e+02,5.500000000000000000e+01,4.100000000000000000e+01,1.090000000000000000e+02,5.500000000000000000e+01,1.800000000000000000e+02,5.200000000000000178e-01,3.665438000000000000e+09
8.800000000000000000e+01,1.720000000000000000e+02,2.180000000000000000e+02,4.400000000000000000e+01,3.700000000000000000e+01,1.030000000000000000e+02,5.400000000000000000e+01,1.810000000000000000e+02,5.100000000000000089e-01,3.684046300000000000e+09
8.600000000000000000e+01,1.720000000000000000e+02,2.580000000000000000e+02,8.100000000000000000e+01,4.100000000000000000e+01,1.040000000000000000e+02,5.300000000000000000e+01,1.610000000000000000e+02,5.100000000000000089e-01,3.702779800000000000e+09
7.700000000000000000e+01,1.690000000000000000e+02,2.680000000000000000e+02,1.130000000000000000e+02,4.300000000000000000e+01,1.040000000000000000e+02,5.500000000000000000e+01,1.630000000000000000e+02,5.100000000000000089e-01,3.725915700000000000e+09
5.500000000000000000e+01,1.210000000000000000e+02,2.470000000000000000e+02,1.130000000000000000e+02,4.400000000000000000e+01,9.200000000000000000e+01,5.300000000000000000e+01,1.320000000000000000e+02,5.100000000000000089e-01,3.746958300000000000e+09
5.700000000000000000e+01,1.170000000000000000e+02,2.470000000000000000e+02,1.140000000000000000e+02,4.400000000000000000e+01,5.600000000000000000e+01,3.500000000000000000e+01,1.550000000000000000e+02,5.200000000000000178e-01,3.767232000000000000e+09
6.300000000000000000e+01,1.210000000000000000e+02,2.480000000000000000e+02,1.130000000000000000e+02,4.300000000000000000e+01,5.100000000000000000e+01,3.600000000000000000e+01,1.920000000000000000e+02,5.200000000000000178e-01,3.794503800000000000e+09
6.300000000000000000e+01,1.360000000000000000e+02,2.000000000000000000e+02,9.300000000000000000e+01,3.600000000000000000e+01,4.300000000000000000e+01,3.200000000000000000e+01,1.970000000000000000e+02,5.200000000000000178e-01,3.812364200000000000e+09
5.500000000000000000e+01,1.340000000000000000e+02,1.110000000000000000e+02,4.400000000000000000e+01,2.700000000000000000e+01,4.000000000000000000e+01,2.900000000000000000e+01,1.970000000000000000e+02,5.200000000000000178e-01,3.830274100000000000e+09
5.700000000000000000e+01,1.190000000000000000e+02,9.900000000000000000e+01,4.000000000000000000e+01,2.700000000000000000e+01,3.200000000000000000e+01,2.900000000000000000e+01,1.990000000000000000e+02,5.100000000000000089e-01,3.850064600000000000e+09
5.600000000000000000e+01,1.150000000000000000e+02,1.220000000000000000e+02,3.900000000000000000e+01,2.900000000000000000e+01,2.700000000000000000e+01,2.900000000000000000e+01,1.560000000000000000e+02,5.100000000000000089e-01,3.869713700000000000e+09
7.200000000000000000e+01,1.120000000000000000e+02,1.750000000000000000e+02,7.900000000000000000e+01,3.500000000000000000e+01,2.900000000000000000e+01,2.600000000000000000e+01,1.050000000000000000e+02,5.100000000000000089e-01,3.887179800000000000e+09
8.100000000000000000e+01,2.210000000000000000e+02,1.840000000000000000e+02,8.000000000000000000e+01,3.400000000000000000e+01,2.900000000000000000e+01,2.700000000000000000e+01,9.200000000000000000e+01,5.200000000000000178e-01,3.904579700000000000e+09
8.700000000000000000e+01,2.250000000000000000e+02,1.850000000000000000e+02,8.000000000000000000e+01,3.300000000000000000e+01,3.100000000000000000e+01,3.300000000000000000e+01,1.800000000000000000e+02,5.200000000000000178e-01,3.923121200000000000e+09
9.600000000000000000e+01,2.300000000000000000e+02,1.810000000000000000e+02,8.200000000000000000e+01,3.300000000000000000e+01,4.900000000000000000e+01,3.700000000000000000e+01,2.050000000000000000e+02,5.200000000000000178e-01,3.945665900000000000e+09
1.030000000000000000e+02,2.470000000000000000e+02,1.670000000000000000e+02,8.300000000000000000e+01,3.100000000000000000e+01,4.900000000000000000e+01,3.700000000000000000e+01,2.120000000000000000e+02,5.200000000000000178e-01,3.964273600000000000e+09
8.900000000000000000e+01,2.470000000000000000e+02,1.070000000000000000e+02,4.600000000000000000e+01,2.500000000000000000e+01,4.800000000000000000e+01,4.300000000000000000e+01,2.360000000000000000e+02,5.100000000000000089e-01,3.982733300000000000e+09
8.800000000000000000e+01,1.440000000000000000e+02,9.900000000000000000e+01,4.300000000000000000e+01,2.700000000000000000e+01,4.900000000000000000e+01,4.900000000000000000e+01,2.560000000000000000e+02,5.100000000000000089e-01,4.000957000000000000e+09
8.100000000000000000e+01,1.440000000000000000e+02,1.200000000000000000e+02,5.300000000000000000e+01,3.100000000000000000e+01,5.100000000000000000e+01,4.300000000000000000e+01,2.010000000000000000e+02,5.000000000000000000e-01,4.020967800000000000e+09
7.800000000000000000e+01,1.430000000000000000e+02,1.630000000000000000e+02,7.400000000000000000e+01,4.000000000000000000e+01,4.000000000000000000e+01,4.100000000000000000e+01,1.860000000000000000e+02,5.100000000000000089e-01,4.040965700000000000e+09
7.500000000000000000e+01,1.180000000000000000e+02,1.640000000000000000e+02,7.300000000000000000e+01,4.100000000000000000e+01,4.000000000000000000e+01,4.000000000000000000e+01,2.000000000000000000e+02,5.100000000000000089e-01,4.063795700000000000e+09
8.100000000000000000e+01,1.170000000000000000e+02,1.650000000000000000e+02,7.400000000000000000e+01,4.200000000000000000e+01,4.200000000000000000e+01,3.900000000000000000e+01,1.770000000000000000e+02,5.100000000000000089e-01,4.082882800000000000e+09
7.600000000000000000e+01,1.210000000000000000e+02,1.700000000000000000e+02,7.300000000000000000e+01,4.100000000000000000e+01,1.630000000000000000e+02,5.200000000000000000e+01,1.740000000000000000e+02,5.100000000000000089e-01,4.101438000000000000e+09
7.800000000000000000e+01,1.420000000000000000e+02,2.150000000000000000e+02,7.500000000000000000e+01,4.700000000000000000e+01,1.750000000000000000e+02,5.600000000000000000e+01,1.970000000000000000e+02,5.100000000000000089e-01,4.121493500000000000e+09
8.300000000000000000e+01,1.340000000000000000e+02,1.820000000000000000e+02,5.300000000000000000e+01,4.100000000000000000e+01,1.810000000000000000e+02,7.000000000000000000e+01,2.260000000000000000e+02,5.000000000000000000e-01,4.144667900000000000e+09
8.200000000000000000e+01,1.320000000000000000e+02,1.790000000000000000e+02,5.200000000000000000e+01,5.000000000000000000e+01,1.860000000000000000e+02,7.300000000000000000e+01,2.130000000000000000e+02,5.000000000000000000e-01,4.163702400000000000e+09
9.500000000000000000e+01,1.280000000000000000e+02,1.810000000000000000e+02,5.500000000000000000e+01,6.100000000000000000e+01,1.870000000000000000e+02,7.200000000000000000e+01,2.110000000000000000e+02,4.899999999999999911e-01,4.182823900000000000e+09
1.250000000000000000e+02,1.250000000000000000e+02,1.690000000000000000e+02,7.200000000000000000e+01,6.700000000000000000e+01,1.140000000000000000e+02,6.200000000000000000e+01,1.950000000000000000e+02,4.899999999999999911e-01,4.202151400000000000e+09
1.240000000000000000e+02,8.800000000000000000e+01,1.210000000000000000e+02,8.500000000000000000e+01,1.100000000000000000e+02,1.000000000000000000e+02,6.200000000000000000e+01,1.690000000000000000e+02,4.899999999999999911e-01,4.221508700000000000e+09
1.290000000000000000e+02,9.400000000000000000e+01,2.560000000000000000e+02,8.500000000000000000e+01,1.120000000000000000e+02,9.000000000000000000e+01,4.600000000000000000e+01,1.120000000000000000e+02,4.799999999999999822e-01,4.243798700000000000e+09
1.300000000000000000e+02,1.000000000000000000e+02,2.700000000000000000e+02,1.050000000000000000e+02,1.110000000000000000e+02,9.100000000000000000e+01,4.300000000000000000e+01,1.020000000000000000e+02,4.799999999999999822e-01,4.265521000000000000e+09
1.400000000000000000e+02,1.090000000000000000e+02,3.130000000000000000e+02,1.340000000000000000e+02,1.080000000000000000e+02,8.600000000000000000e+01,4.200000000000000000e+01,1.000000000000000000e+02,4.799999999999999822e-01,4.284249300000000000e+09
1.230000000000000000e+02,1.060000000000000000e+02,3.640000000000000000e+02,1.320000000000000000e+02,1.070000000000000000e+02,6.900000000000000000e+01,3.800000000000000000e+01,9.300000000000000000e+01,4.799999999999999822e-01,4.302313700000000000e+09
1.230000000000000000e+02,1.110000000000000000e+02,4.580000000000000000e+02,1.210000000000000000e+02,5.500000000000000000e+01,5.800000000000000000e+01,3.200000000000000000e+01,9.200000000000000000e+01,4.799999999999999822e-01,4.323189100000000000e+09
1.160000000000000000e+02,1.050000000000000000e+02,4.900000000000000000e+02,1.540000000000000000e+02,5.800000000000000000e+01,5.400000000000000000e+01,3.300000000000000000e+01,8.800000000000000000e+01,4.899999999999999911e-01,4.345177500000000000e+09
1.160000000000000000e+02,1.090000000000000000e+02,5.530000000000000000e+02,2.030000000000000000e+02,6.300000000000000000e+01,3.100000000000000000e+01,3.000000000000000000e+01,8.300000000000000000e+01,4.899999999999999911e-01,4.363775500000000000e+09
9.400000000000000000e+01,9.400000000000000000e+01,5.930000000000000000e+02,1.920000000000000000e+02,6.200000000000000000e+01,3.500000000000000000e+01,3.200000000000000000e+01,7.400000000000000000e+01,5.000000000000000000e-01,4.382161300000000000e+09
7.900000000000000000e+01,8.800000000000000000e+01,5.810000000000000000e+02,2.120000000000000000e+02,6.500000000000000000e+01,3.400000000000000000e+01,3.200000000000000000e+01,6.400000000000000000e+01,5.100000000000000089e-01,4.401951600000000000e+09
7.800000000000000000e+01,9.000000000000000000e+01,6.060000000000000000e+02,2.200000000000000000e+02,7.700000000000000000e+01,3.700000000000000000e+01,3.300000000000000000e+01,6.900000000000000000e+01,5.200000000000000178e-01,4.421372300000000000e+09
6.900000000000000000e+01,8.400000000000000000e+01,5.640000000000000000e+02,2.220000000000000000e+02,7.300000000000000000e+01,3.600000000000000000e+01,3.100000000000000000e+01,6.800000000000000000e+01,5.300000000000000266e-01,4.441871500000000000e+09
6.000000000000000000e+01,8.000000000000000000e+01,5.230000000000000000e+02,1.850000000000000000e+02,6.700000000000000000e+01,3.300000000000000000e+01,3.100000000000000000e+01,6.900000000000000000e+01,5.400000000000000355e-01,4.466717600000000000e+09
5.200000000000000000e+01,9.700000000000000000e+01,5.000000000000000000e+02,1.850000000000000000e+02,6.900000000000000000e+01,3.200000000000000000e+01,2.900000000000000000e+01,6.800000000000000000e+01,5.500000000000000444e-01,4.484625800000000000e+09
5.400000000000000000e+01,1.030000000000000000e+02,5.060000000000000000e+02,1.650000000000000000e+02,6.900000000000000000e+01,3.500000000000000000e+01,2.900000000000000000e+01,6.600000000000000000e+01,5.600000000000000533e-01,4.504323200000000000e+09
5.200000000000000000e+01,1.000000000000000000e+02,3.930000000000000000e+02,1.620000000000000000e+02,6.200000000000000000e+01,3.500000000000000000e+01,2.700000000000000000e+01,5.300000000000000000e+01,5.699999999999999512e-01,4.524110300000000000e+09
5.300000000000000000e+01,1.120000000000000000e+02,4.630000000000000000e+02,1.460000000000000000e+02,6.400000000000000000e+01,3.700000000000000000e+01,3.000000000000000000e+01,5.000000000000000000e+01,5.699999999999999512e-01,4.546345600000000000e+09
5.000000000000000000e+01,1.180000000000000000e+02,4.900000000000000000e+02,1.240000000000000000e+02,6.100000000000000000e+01,3.800000000000000000e+01,3.600000000000000000e+01,4.200000000000000000e+01,5.699999999999999512e-01,4.564832000000000000e+09
4.200000000000000000e+01,1.000000000000000000e+02,4.670000000000000000e+02,1.130000000000000000e+02,5.200000000000000000e+01,3.600000000000000000e+01,3.500000000000000000e+01,3.200000000000000000e+01,5.799999999999999600e-01,4.583149400000000000e+09
4.200000000000000000e+01,1.000000000000000000e+02,4.650000000000000000e+02,1.210000000000000000e+02,5.000000000000000000e+01,3.300000000000000000e+01,3.500000000000000000e+01,5.000000000000000000e+01,5.799999999999999600e-01,4.602536700000000000e+09
4.200000000000000000e+01,9.700000000000000000e+01,4.770000000000000000e+02,1.110000000000000000e+02,4.200000000000000000e+01,3.100000000000000000e+01,3.400000000000000000e+01,5.400000000000000000e+01,5.799999999999999600e-01,4.621592200000000000e+09
3.900000000000000000e+01,8.800000000000000000e+01,4.270000000000000000e+02,9.400000000000000000e+01,3.500000000000000000e+01,2.900000000000000000e+01,3.300000000000000000e+01,6.200000000000000000e+01,5.899999999999999689e-01,4.642653900000000000e+09
4.900000000000000000e+01,1.080000000000000000e+02,4.560000000000000000e+02,1.120000000000000000e+02,4.300000000000000000e+01,3.100000000000000000e+01,2.500000000000000000e+01,6.400000000000000000e+01,5.899999999999999689e-01,4.664689800000000000e+09
6.200000000000000000e+01,1.210000000000000000e+02,4.600000000000000000e+02,1.110000000000000000e+02,4.400000000000000000e+01,3.300000000000000000e+01,3.300000000000000000e+01,8.600000000000000000e+01,5.999999999999999778e-01,4.683912900000000000e+09
6.100000000000000000e+01,1.190000000000000000e+02,4.560000000000000000e+02,1.000000000000000000e+02,4.100000000000000000e+01,3.300000000000000000e+01,3.400000000000000000e+01,8.500000000000000000e+01,5.999999999999999778e-01,4.703088600000000000e+09
6.300000000000000000e+01,1.200000000000000000e+02,5.470000000000000000e+02,1.130000000000000000e+02,4.700000000000000000e+01,3.200000000000000000e+01,3.900000000000000000e+01,8.300000000000000000e+01,5.999999999999999778e-01,4.722651900000000000e+09
6.300000000000000000e+01,1.210000000000000000e+02,6.660000000000000000e+02,1.360000000000000000e+02,4.800000000000000000e+01,4.800000000000000000e+01,4.100000000000000000e+01,8.200000000000000000e+01,5.999999999999999778e-01,4.744534700000000000e+09
6.200000000000000000e+01,9.400000000000000000e+01,6.900000000000000000e+02,1.270000000000000000e+02,4.400000000000000000e+01,6.000000000000000000e+01,4.600000000000000000e+01,8.800000000000000000e+01,5.999999999999999778e-01,4.766329400000000000e+09
6.200000000000000000e+01,7.500000000000000000e+01,6.980000000000000000e+02,1.300000000000000000e+02,4.400000000000000000e+01,9.000000000000000000e+01,6.600000000000000000e+01,1.020000000000000000e+02,5.999999999999999778e-01,4.784236600000000000e+09
6.700000000000000000e+01,9.400000000000000000e+01,7.680000000000000000e+02,1.360000000000000000e+02,4.600000000000000000e+01,9.600000000000000000e+01,6.600000000000000000e+01,9.800000000000000000e+01,5.899999999999999689e-01,4.804079700000000000e+09
7.000000000000000000e+01,9.700000000000000000e+01,7.100000000000000000e+02,1.350000000000000000e+02,3.800000000000000000e+01,9.600000000000000000e+01,6.500000000000000000e+01,9.900000000000000000e+01,5.899999999999999689e-01,4.823092100000000000e+09
7.500000000000000000e+01,9.300000000000000000e+01,5.790000000000000000e+02,1.110000000000000000e+02,3.600000000000000000e+01,9.300000000000000000e+01,6.300000000000000000e+01,9.800000000000000000e+01,5.899999999999999689e-01,4.844197100000000000e+09
7.600000000000000000e+01,8.700000000000000000e+01,4.900000000000000000e+02,1.080000000000000000e+02,3.800000000000000000e+01,8.700000000000000000e+01,6.100000000000000000e+01,9.400000000000000000e+01,5.899999999999999689e-01,4.867463300000000000e+09
7.100000000000000000e+01,9.100000000000000000e+01,4.970000000000000000e+02,1.110000000000000000e+02,3.700000000000000000e+01,5.600000000000000000e+01,3.300000000000000000e+01,5.700000000000000000e+01,5.899999999999999689e-01,4.887839500000000000e+09
7.600000000000000000e+01,1.130000000000000000e+02,4.090000000000000000e+02,9.700000000000000000e+01,3.200000000000000000e+01,4.300000000000000000e+01,3.000000000000000000e+01,8.700000000000000000e+01,5.899999999999999689e-01,4.906796200000000000e+09
1.030000000000000000e+02,1.330000000000000000e+02,4.260000000000000000e+02,1.020000000000000000e+02,3.800000000000000000e+01,7.100000000000000000e+01,4.600000000000000000e+01,1.300000000000000000e+02,5.899999999999999689e-01,4.926623900000000000e+09
1.280000000000000000e+02,1.520000000000000000e+02,5.570000000000000000e+02,9.300000000000000000e+01,3.700000000000000000e+01,6.800000000000000000e+01,4.700000000000000000e+01,1.340000000000000000e+02,5.899999999999999689e-01,4.947747200000000000e+09
2.510000000000000000e+02,1.620000000000000000e+02,6.010000000000000000e+02,9.800000000000000000e+01,3.700000000000000000e+01,6.700000000000000000e+01,4.700000000000000000e+01,1.580000000000000000e+02,5.899999999999999689e-01,4.965829300000000000e+09
2.970000000000000000e+02,1.630000000000000000e+02,5.860000000000000000e+02,1.010000000000000000e+02,3.900000000000000000e+01,6.600000000000000000e+01,4.700000000000000000e+01,1.870000000000000000e+02,5.999999999999999778e-01,4.983612700000000000e+09
2.990000000000000000e+02,1.450000000000000000e+02,6.080000000000000000e+02,1.070000000000000000e+02,4.100000000000000000e+01,6.900000000000000000e+01,4.800000000000000000e+01,1.930000000000000000e+02,5.999999999999999778e-01,5.002942400000000000e+09
2.910000000000000000e+02,1.540000000000000000e+02,6.290000000000000000e+02,9.900000000000000000e+01,3.800000000000000000e+01,4.100000000000000000e+01,3.300000000000000000e+01,1.750000000000000000e+02,6.099999999999999867e-01,5.022377700000000000e+09
2.820000000000000000e+02,1.500000000000000000e+02,5.810000000000000000e+02,1.000000000000000000e+02,4.000000000000000000e+01,4.200000000000000000e+01,3.400000000000000000e+01,1.760000000000000000e+02,6.199999999999999956e-01,5.041445500000000000e+09
1.810000000000000000e+02,1.440000000000000000e+02,5.350000000000000000e+02,9.100000000000000000e+01,3.600000000000000000e+01,4.700000000000000000e+01,3.100000000000000000e+01,1.610000000000000000e+02,6.199999999999999956e-01,5.063431300000000000e+09
8.400000000000000000e+01,1.390000000000000000e+02,5.400000000000000000e+02,8.400000000000000000e+01,3.400000000000000000e+01,4.600000000000000000e+01,3.000000000000000000e+01,1.270000000000000000e+02,6.199999999999999956e-01,5.082013700000000000e+09
7.200000000000000000e+01,1.520000000000000000e+02,5.790000000000000000e+02,9.200000000000000000e+01,3.600000000000000000e+01,4.400000000000000000e+01,2.900000000000000000e+01,9.600000000000000000e+01,6.099999999999999867e-01,5.100557800000000000e+09
6.700000000000000000e+01,1.260000000000000000e+02,5.810000000000000000e+02,8.500000000000000000e+01,4.600000000000000000e+01,5.800000000000000000e+01,3.000000000000000000e+01,7.900000000000000000e+01,6.099999999999999867e-01,5.121160100000000000e+09
6.200000000000000000e+01,1.100000000000000000e+02,5.090000000000000000e+02,9.000000000000000000e+01,7.600000000000000000e+01,5.900000000000000000e+01,2.800000000000000000e+01,9.200000000000000000e+01,6.099999999999999867e-01,5.143111200000000000e+09
5.500000000000000000e+01,1.230000000000000000e+02,5.000000000000000000e+02,1.110000000000000000e+02,8.200000000000000000e+01,6.400000000000000000e+01,3.100000000000000000e+01,1.140000000000000000e+02,5.999999999999999778e-01,5.164077100000000000e+09
6.000000000000000000e+01,1.240000000000000000e+02,4.670000000000000000e+02,1.360000000000000000e+02,1.890000000000000000e+02,9.000000000000000000e+01,3.800000000000000000e+01,1.160000000000000000e+02,5.899999999999999689e-01,5.183135800000000000e+09
6.000000000000000000e+01,9.700000000000000000e+01,3.520000000000000000e+02,1.260000000000000000e+02,1.960000000000000000e+02,9.200000000000000000e+01,4.100000000000000000e+01,1.180000000000000000e+02,5.799999999999999600e-01,5.201821400000000000e+09
6.400000000000000000e+01,9.500000000000000000e+01,2.560000000000000000e+02,1.210000000000000000e+02,1.960000000000000000e+02,8.500000000000000000e+01,4.500000000000000000e+01,1.540000000000000000e+02,5.600000000000000533e-01,5.220723600000000000e+09
8.500000000000000000e+01,1.010000000000000000e+02,2.770000000000000000e+02,1.280000000000000000e+02,1.880000000000000000e+02,8.700000000000000000e+01,5.200000000000000000e+01,1.680000000000000000e+02,5.400000000000000355e-01,5.241470400000000000e+09
9.600000000000000000e+01,8.000000000000000000e+01,3.480000000000000000e+02,1.160000000000000000e+02,1.900000000000000000e+02,9.000000000000000000e+01,7.100000000000000000e+01,2.300000000000000000e+02,5.200000000000000178e-01,5.266072400000000000e+09
1.100000000000000000e+02,1.050000000000000000e+02,4.080000000000000000e+02,8.700000000000000000e+01,9.100000000000000000e+01,1.010000000000000000e+02,1.080000000000000000e+02,4.050000000000000000e+02,5.000000000000000000e-01,5.284666700000000000e+09
1.090000000000000000e+02,1.120000000000000000e+02,3.910000000000000000e+02,8.300000000000000000e+01,7.300000000000000000e+01,1.060000000000000000e+02,1.180000000000000000e+02,4.200000000000000000e+02,4.899999999999999911e-01,5.303549300000000000e+09
1.130000000000000000e+02,1.240000000000000000e+02,3.790000000000000000e+02,8.800000000000000000e+01,6.800000000000000000e+01,1.160000000000000000e+02,1.210000000000000000e+02,4.130000000000000000e+02,4.699999999999999734e-01,5.322102900000000000e+09
9.400000000000000000e+01,1.260000000000000000e+02,3.650000000000000000e+02,8.000000000000000000e+01,6.000000000000000000e+01,1.160000000000000000e+02,1.200000000000000000e+02,4.070000000000000000e+02,4.500000000000000111e-01,5.345288200000000000e+09
8.500000000000000000e+01,1.270000000000000000e+02,4.070000000000000000e+02,7.600000000000000000e+01,5.100000000000000000e+01,1.100000000000000000e+02,1.110000000000000000e+02,3.700000000000000000e+02,4.400000000000000022e-01,5.364339400000000000e+09
6.400000000000000000e+01,1.350000000000000000e+02,4.210000000000000000e+02,8.700000000000000000e+01,4.300000000000000000e+01,8.000000000000000000e+01,7.400000000000000000e+01,1.620000000000000000e+02,4.299999999999999933e-01,5.382852200000000000e+09
6.400000000000000000e+01,1.350000000000000000e+02,4.420000000000000000e+02,8.900000000000000000e+01,4.800000000000000000e+01,7.300000000000000000e+01,5.800000000000000000e+01,1.220000000000000000e+02,4.400000000000000022e-01,5.401649700000000000e+09
5.300000000000000000e+01,1.230000000000000000e+02,5.180000000000000000e+02,1.020000000000000000e+02,5.200000000000000000e+01,5.500000000000000000e+01,4.800000000000000000e+01,1.060000000000000000e+02,4.400000000000000022e-01,5.420690400000000000e+09
6.200000000000000000e+01,1.250000000000000000e+02,5.640000000000000000e+02,1.030000000000000000e+02,5.300000000000000000e+01,5.100000000000000000e+01,4.600000000000000000e+01,9.500000000000000000e+01,4.500000000000000111e-01,5.441816200000000000e+09
6.100000000000000000e+01,1.370000000000000000e+02,5.170000000000000000e+02,1.070000000000000000e+02,5.300000000000000000e+01,4.900000000000000000e+01,4.300000000000000000e+01,9.200000000000000000e+01,4.500000000000000111e-01,5.464777100000000000e+09
5.800000000000000000e+01,1.120000000000000000e+02,4.700000000000000000e+02,1.140000000000000000e+02,5.100000000000000000e+01,4.800000000000000000e+01,4.000000000000000000e+01,8.900000000000000000e+01,4.699999999999999734e-01,5.483661600000000000e+09
6.000000000000000000e+01,1.100000000000000000e+02,4.670000000000000000e+02,1.470000000000000000e+02,4.700000000000000000e+01,4.500000000000000000e+01,3.800000000000000000e+01,9.600000000000000000e+01,4.799999999999999822e-01,5.502308100000000000e+09
1.040000000000000000e+02,1.070000000000000000e+02,4.430000000000000000e+02,1.440000000000000000e+02,4.800000000000000000e+01,4.200000000000000000e+01,3.400000000000000000e+01,1.080000000000000000e+02,4.899999999999999911e-01,5.521353100000000000e+09
1.030000000000000000e+02,1.260000000000000000e+02,3.910000000000000000e+02,1.450000000000000000e+02,4.900000000000000000e+01,3.900000000000000000e+01,2.700000000000000000e+01,1.030000000000000000e+02,5.100000000000000089e-01,5.542449800000000000e+09
1.020000000000000000e+02,1.130000000000000000e+02,3.550000000000000000e+02,1.460000000000000000e+02,4.700000000000000000e+01,3.700000000000000000e+01,2.600000000000000000e+01,9.300000000000000000e+01,5.300000000000000266e-01,5.564286800000000000e+09
1.040000000000000000e+02,1.220000000000000000e+02,3.410000000000000000e+02,1.330000000000000000e+02,4.900000000000000000e+01,4.100000000000000000e+01,3.200000000000000000e+01,8.500000000000000000e+01,5.400000000000000355e-01,5.582390700000000000e+09
1.040000000000000000e+02,1.240000000000000000e+02,3.390000000000000000e+02,1.220000000000000000e+02,5.000000000000000000e+01,4.000000000000000000e+01,3.200000000000000000e+01,9.200000000000000000e+01,5.500000000000000444e-01,5.601818500000000000e+09
5.800000000000000000e+01,1.290000000000000000e+02,2.610000000000000000e+02,1.120000000000000000e+02,4.800000000000000000e+01,4.100000000000000000e+01,3.300000000000000000e+01,7.900000000000000000e+01,5.500000000000000444e-01,5.621065800000000000e+09
7.500000000000000000e+01,1.030000000000000000e+02,3.010000000000000000e+02,1.080000000000000000e+02,4.800000000000000000e+01,4.200000000000000000e+01,3.400000000000000000e+01,8.700000000000000000e+01,5.600000000000000533e-01,5.643467800000000000e+09
8.000000000000000000e+01,1.110000000000000000e+02,3.560000000000000000e+02,1.160000000000000000e+02,4.700000000000000000e+01,3.800000000000000000e+01,3.300000000000000000e+01,9.400000000000000000e+01,5.699999999999999512e-01,5.666484700000000000e+09
8.500000000000000000e+01,1.290000000000000000e+02,4.220000000000000000e+02,1.420000000000000000e+02,4.600000000000000000e+01,3.400000000000000000e+01,2.700000000000000000e+01,9.600000000000000000e+01,5.699999999999999512e-01,5.684045100000000000e+09
8.400000000000000000e+01,1.720000000000000000e+02,4.850000000000000000e+02,1.390000000000000000e+02,4.200000000000000000e+01,3.100000000000000000e+01,2.500000000000000000e+01,8.100000000000000000e+01,5.799999999999999600e-01,5.702410800000000000e+09
8.300000000000000000e+01,1.850000000000000000e+02,5.640000000000000000e+02,1.490000000000000000e+02,4.200000000000000000e+01,2.800000000000000000e+01,2.700000000000000000e+01,1.130000000000000000e+02,5.899999999999999689e-01,5.721134100000000000e+09
7.900000000000000000e+01,1.860000000000000000e+02,5.480000000000000000e+02,1.480000000000000000e+02,3.900000000000000000e+01,3.300000000000000000e+01,2.900000000000000000e+01,1.140000000000000000e+02,5.899999999999999689e-01,5.742150600000000000e+09
7.500000000000000000e+01,1.860000000000000000e+02,5.390000000000000000e+02,1.380000000000000000e+02,4.000000000000000000e+01,3.500000000000000000e+01,3.100000000000000000e+01,1.100000000000000000e+02,5.999999999999999778e-01,5.765759800000000000e+09
6.700000000000000000e+01,1.720000000000000000e+02,5.090000000000000000e+02,1.080000000000000000e+02,3.700000000000000000e+01,3.600000000000000000e+01,3.200000000000000000e+01,1.130000000000000000e+02,5.999999999999999778e-01,5.783777300000000000e+09
7.100000000000000000e+01,1.380000000000000000e+02,4.870000000000000000e+02,9.700000000000000000e+01,4.400000000000000000e+01,3.600000000000000000e+01,3.400000000000000000e+01,1.400000000000000000e+02,5.999999999999999778e-01,5.802316000000000000e+09
7.200000000000000000e+01,1.610000000000000000e+02,4.230000000000000000e+02,9.200000000000000000e+01,4.100000000000000000e+01,3.700000000000000000e+01,3.100000000000000000e+01,1.280000000000000000e+02,5.999999999999999778e-01,5.820915600000000000e+09
5.400000000000000000e+01,1.610000000000000000e+02,4.090000000000000000e+02,8.900000000000000000e+01,4.300000000000000000e+01,3.000000000000000000e+01,2.700000000000000000e+01,1.260000000000000000e+02,5.999999999999999778e-01,5.841574100000000000e+09
5.600000000000000000e+01,1.570000000000000000e+02,3.900000000000000000e+02,9.200000000000000000e+01,4.000000000000000000e+01,3.000000000000000000e+01,2.900000000000000000e+01,1.310000000000000000e+02,6.099999999999999867e-01,5.863989400000000000e+09
6.000000000000000000e+01,1.690000000000000000e+02,3.670000000000000000e+02,9.300000000000000000e+01,4.100000000000000000e+01,2.700000000000000000e+01,3.300000000000000000e+01,1.440000000000000000e+02,6.099999999999999867e-01,5.883373400000000000e+09
5.300000000000000000e+01,1.570000000000000000e+02,3.090000000000000000e+02,7.400000000000000000e+01,3.200000000000000000e+01,2.700000000000000000e+01,3.300000000000000000e+01,1.190000000000000000e+02,5.999999999999999778e-01,5.902583500000000000e+09
5.700000000000000000e+01,1.400000000000000000e+02,4.010000000000000000e+02,8.500000000000000000e+01,4.000000000000000000e+01,3.200000000000000000e+01,3.700000000000000000e+01,1.060000000000000000e+02,5.999999999999999778e-01,5.921820800000000000e+09
5.600000000000000000e+01,1.510000000000000000e+02,4.320000000000000000e+02,8.300000000000000000e+01,4.400000000000000000e+01,3.300000000000000000e+01,4.200000000000000000e+01,1.210000000000000000e+02,5.999999999999999778e-01,5.945519100000000000e+09
8.300000000000000000e+01,1.710000000000000000e+02,4.720000000000000000e+02,8.800000000000000000e+01,5.500000000000000000e+01,3.600000000000000000e+01,4.900000000000000000e+01,1.390000000000000000e+02,5.999999999999999778e-01,5.968658300000000000e+09
8.800000000000000000e+01,1.730000000000000000e+02,5.110000000000000000e+02,9.900000000000000000e+01,5.800000000000000000e+01,3.800000000000000000e+01,4.900000000000000000e+01,1.360000000000000000e+02,5.899999999999999689e-01,5.987919300000000000e+09
9.000000000000000000e+01,1.810000000000000000e+02,5.390000000000000000e+02,1.060000000000000000e+02,6.100000000000000000e+01,3.900000000000000000e+01,5.300000000000000000e+01,1.510000000000000000e+02,5.899999999999999689e-01,6.005674600000000000e+09
9.300000000000000000e+01,1.930000000000000000e+02,5.020000000000000000e+02,9.400000000000000000e+01,5.500000000000000000e+01,3.500000000000000000e+01,5.400000000000000000e+01,1.660000000000000000e+02,5.899999999999999689e-01,6.024093800000000000e+09
9.700000000000000000e+01,2.050000000000000000e+02,5.630000000000000000e+02,1.060000000000000000e+02,5.400000000000000000e+01,3.500000000000000000e+01,5.200000000000000000e+01,1.540000000000000000e+02,5.799999999999999600e-01,6.043398400000000000e+09
7.900000000000000000e+01,1.890000000000000000e+02,5.300000000000000000e+02,9.800000000000000000e+01,4.400000000000000000e+01,3.500000000000000000e+01,4.500000000000000000e+01,1.380000000000000000e+02,5.799999999999999600e-01,6.065860100000000000e+09
6.900000000000000000e+01,1.760000000000000000e+02,4.890000000000000000e+02,8.400000000000000000e+01,3.900000000000000000e+01,5.700000000000000000e+01,4.100000000000000000e+01,1.530000000000000000e+02,5.799999999999999600e-01,6.083963300000000000e+09
6.600000000000000000e+01,1.720000000000000000e+02,4.730000000000000000e+02,7.400000000000000000e+01,3.500000000000000000e+01,5.900000000000000000e+01,3.400000000000000000e+01,1.380000000000000000e+02,5.799999999999999600e-01,6.102323500000000000e+09
7.200000000000000000e+01,1.650000000000000000e+02,6.550000000000000000e+02,8.500000000000000000e+01,4.700000000000000000e+01,9.900000000000000000e+01,5.200000000000000000e+01,1.560000000000000000e+02,5.799999999999999600e-01,6.121782400000000000e+09
6.900000000000000000e+01,1.370000000000000000e+02,5.900000000000000000e+02,7.500000000000000000e+01,4.400000000000000000e+01,1.110000000000000000e+02,5.200000000000000000e+01,1.630000000000000000e+02,5.699999999999999512e-01,6.144432400000000000e+09
6.600000000000000000e+01,1.310000000000000000e+02,5.920000000000000000e+02,7.600000000000000000e+01,4.600000000000000000e+01,1.130000000000000000e+02,5.500000000000000000e+01,1.650000000000000000e+02,5.699999999999999512e-01,6.165369800000000000e+09
7.500000000000000000e+01,1.350000000000000000e+02,6.520000000000000000e+02,8.800000000000000000e+01,4.800000000000000000e+01,1.100000000000000000e+02,5.800000000000000000e+01,1.470000000000000000e+02,5.699999999999999512e-01,6.183651400000000000e+09
8.200000000000000000e+01,1.430000000000000000e+02,6.890000000000000000e+02,9.300000000000000000e+01,5.000000000000000000e+01,1.120000000000000000e+02,5.900000000000000000e+01,1.440000000000000000e+02,5.600000000000000533e-01,6.202772400000000000e+09
7.300000000000000000e+01,1.070000000000000000e+02,5.300000000000000000e+02,8.100000000000000000e+01,4.000000000000000000e+01,8.200000000000000000e+01,4.300000000000000000e+01,1.080000000000000000e+02,5.600000000000000533e-01,6.226081800000000000e+09
7.700000000000000000e+01,1.120000000000000000e+02,5.450000000000000000e+02,9.200000000000000000e+01,4.700000000000000000e+01,7.000000000000000000e+01,4.600000000000000000e+01,9.100000000000000000e+01,5.699999999999999512e-01,6.249908500000000000e+09
7.400000000000000000e+01,1.150000000000000000e+02,5.740000000000000000e+02,9.400000000000000000e+01,4.800000000000000000e+01,8.800000000000000000e+01,4.600000000000000000e+01,7.700000000000000000e+01,5.699999999999999512e-01,6.278241700000000000e+09
6.600000000000000000e+01,1.100000000000000000e+02,5.770000000000000000e+02,8.700000000000000000e+01,4.700000000000000000e+01,9.900000000000000000e+01,5.300000000000000000e+01,5.600000000000000000e+01,5.600000000000000533e-01,6.296242300000000000e+09
8.000000000000000000e+01,1.720000000000000000e+02,5.860000000000000000e+02,1.030000000000000000e+02,5.800000000000000000e+01,1.010000000000000000e+02,5.200000000000000000e+01,5.300000000000000000e+01,5.600000000000000533e-01,6.315260900000000000e+09
7.800000000000000000e+01,1.830000000000000000e+02,6.340000000000000000e+02,1.120000000000000000e+02,5.700000000000000000e+01,1.040000000000000000e+02,5.100000000000000000e+01,5.100000000000000000e+01,5.600000000000000533e-01,6.334541900000000000e+09
7.700000000000000000e+01,2.020000000000000000e+02,7.510000000000000000e+02,1.210000000000000000e+02,5.400000000000000000e+01,1.050000000000000000e+02,4.900000000000000000e+01,5.200000000000000000e+01,5.600000000000000533e-01,6.355077000000000000e+09
8.300000000000000000e+01,2.290000000000000000e+02,7.920000000000000000e+02,1.360000000000000000e+02,5.700000000000000000e+01,1.210000000000000000e+02,5.400000000000000000e+01,5.700000000000000000e+01,5.600000000000000533e-01,6.372997600000000000e+09
8.800000000000000000e+01,2.480000000000000000e+02,7.680000000000000000e+02,1.410000000000000000e+02,5.600000000000000000e+01,1.190000000000000000e+02,4.600000000000000000e+01,5.700000000000000000e+01,5.500000000000000444e-01,6.390826700000000000e+09
7.500000000000000000e+01,2.070000000000000000e+02,7.670000000000000000e+02,1.390000000000000000e+02,4.700000000000000000e+01,1.180000000000000000e+02,4.500000000000000000e+01,5.500000000000000000e+01,5.500000000000000444e-01,6.408656200000000000e+09
8.200000000000000000e+01,2.230000000000000000e+02,7.870000000000000000e+02,1.400000000000000000e+02,5.300000000000000000e+01,1.200000000000000000e+02,4.500000000000000000e+01,4.900000000000000000e+01,5.500000000000000444e-01,6.426936400000000000e+09
8.200000000000000000e+01,2.230000000000000000e+02,8.440000000000000000e+02,1.300000000000000000e+02,5.200000000000000000e+01,1.420000000000000000e+02,5.100000000000000000e+01,4.700000000000000000e+01,5.500000000000000444e-01,6.447967200000000000e+09
8.100000000000000000e+01,2.100000000000000000e+02,8.110000000000000000e+02,1.210000000000000000e+02,5.000000000000000000e+01,1.230000000000000000e+02,4.200000000000000000e+01,4.200000000000000000e+01,5.400000000000000355e-01,6.468519400000000000e+09
7.400000000000000000e+01,2.060000000000000000e+02,8.450000000000000000e+02,1.170000000000000000e+02,5.000000000000000000e+01,1.290000000000000000e+02,4.200000000000000000e+01,4.100000000000000000e+01,5.400000000000000355e-01,6.486289300000000000e+09
9.000000000000000000e+01,2.320000000000000000e+02,8.730000000000000000e+02,1.170000000000000000e+02,6.000000000000000000e+01,1.340000000000000000e+02,4.300000000000000000e+01,4.800000000000000000e+01,5.300000000000000266e-01,6.504776500000000000e+09
8.700000000000000000e+01,2.200000000000000000e+02,8.460000000000000000e+02,1.110000000000000000e+02,6.300000000000000000e+01,1.350000000000000000e+02,4.800000000000000000e+01,5.300000000000000000e+01,5.200000000000000178e-01,6.523407700000000000e+09
9.400000000000000000e+01,2.280000000000000000e+02,7.540000000000000000e+02,1.140000000000000000e+02,6.300000000000000000e+01,1.090000000000000000e+02,4.100000000000000000e+01,5.400000000000000000e+01,5.100000000000000089e-01,6.546576900000000000e+09
1.000000000000000000e+02,2.300000000000000000e+02,8.110000000000000000e+02,1.190000000000000000e+02,6.400000000000000000e+01,1.160000000000000000e+02,4.700000000000000000e+01,7.200000000000000000e+01,5.000000000000000000e-01,6.565692000000000000e+09
1.160000000000000000e+02,2.610000000000000000e+02,7.870000000000000000e+02,1.390000000000000000e+02,8.000000000000000000e+01,1.410000000000000000e+02,5.200000000000000000e+01,7.600000000000000000e+01,5.000000000000000000e-01,6.584523200000000000e+09
1.130000000000000000e+02,2.470000000000000000e+02,7.970000000000000000e+02,1.570000000000000000e+02,9.300000000000000000e+01,2.450000000000000000e+02,6.900000000000000000e+01,9.000000000000000000e+01,4.899999999999999911e-01,6.603259900000000000e+09
1.110000000000000000e+02,2.490000000000000000e+02,7.850000000000000000e+02,1.570000000000000000e+02,9.400000000000000000e+01,2.480000000000000000e+02,6.700000000000000000e+01,9.300000000000000000e+01,4.799999999999999822e-01,6.621940600000000000e+09
1.020000000000000000e+02,2.340000000000000000e+02,7.370000000000000000e+02,1.490000000000000000e+02,9.700000000000000000e+01,2.500000000000000000e+02,6.900000000000000000e+01,9.200000000000000000e+01,4.699999999999999734e-01,6.642989100000000000e+09
9.400000000000000000e+01,2.350000000000000000e+02,6.670000000000000000e+02,1.400000000000000000e+02,9.400000000000000000e+01,2.480000000000000000e+02,6.600000000000000000e+01,8.100000000000000000e+01,4.600000000000000200e-01,6.664002200000000000e+09
8.300000000000000000e+01,2.070000000000000000e+02,7.160000000000000000e+02,1.370000000000000000e+02,9.100000000000000000e+01,2.320000000000000000e+02,6.400000000000000000e+01,8.200000000000000000e+01,4.500000000000000111e-01,6.682898300000000000e+09
6.900000000000000000e+01,2.010000000000000000e+02,7.450000000000000000e+02,1.100000000000000000e+02,6.900000000000000000e+01,1.120000000000000000e+02,4.700000000000000000e+01,6.100000000000000000e+01,4.400000000000000022e-01,6.703046500000000000e+09
6.800000000000000000e+01,1.940000000000000000e+02,7.680000000000000000e+02,1.130000000000000000e+02,6.700000000000000000e+01,1.010000000000000000e+02,4.400000000000000000e+01,5.700000000000000000e+01,4.400000000000000022e-01,6.723081900000000000e+09
7.300000000000000000e+01,2.000000000000000000e+02,8.670000000000000000e+02,1.190000000000000000e+02,6.100000000000000000e+01,1.170000000000000000e+02,4.700000000000000000e+01,5.700000000000000000e+01,4.400000000000000022e-01,6.745761700000000000e+09
7.400000000000000000e+01,1.970000000000000000e+02,9.000000000000000000e+02,1.350000000000000000e+02,6.300000000000000000e+01,1.370000000000000000e+02,5.300000000000000000e+01,5.400000000000000000e+01,4.299999999999999933e-01,6.765152700000000000e+09
8.100000000000000000e+01,2.290000000000000000e+02,8.610000000000000000e+02,1.280000000000000000e+02,6.000000000000000000e+01,1.350000000000000000e+02,5.300000000000000000e+01,5.100000000000000000e+01,4.199999999999999845e-01,6.783823700000000000e+09
9.900000000000000000e+01,2.780000000000000000e+02,8.190000000000000000e+02,1.400000000000000000e+02,6.300000000000000000e+01,1.350000000000000000e+02,5.500000000000000000e+01,5.800000000000000000e+01,4.199999999999999845e-01,6.803946400000000000e+09
1.500000000000000000e+02,3.770000000000000000e+02,7.590000000000000000e+02,1.910000000000000000e+02,8.100000000000000000e+01,1.510000000000000000e+02,6.200000000000000000e+01,7.900000000000000000e+01,4.199999999999999845e-01,6.823020000000000000e+09
1.550000000000000000e+02,3.790000000000000000e+02,6.520000000000000000e+02,1.900000000000000000e+02,8.200000000000000000e+01,1.950000000000000000e+02,6.500000000000000000e+01,7.900000000000000000e+01,4.199999999999999845e-01,6.844064300000000000e+09
1.550000000000000000e+02,3.750000000000000000e+02,7.210000000000000000e+02,1.990000000000000000e+02,8.200000000000000000e+01,1.900000000000000000e+02,6.000000000000000000e+01,8.100000000000000000e+01,4.199999999999999845e-01,6.867148200000000000e+09
1.670000000000000000e+02,3.470000000000000000e+02,8.320000000000000000e+02,2.480000000000000000e+02,9.700000000000000000e+01,1.970000000000000000e+02,6.000000000000000000e+01,9.000000000000000000e+01,4.099999999999999756e-01,6.885346900000000000e+09
1.650000000000000000e+02,3.120000000000000000e+02,8.670000000000000000e+02,2.450000000000000000e+02,1.020000000000000000e+02,2.030000000000000000e+02,5.900000000000000000e+01,8.900000000000000000e+01,4.000000000000000222e-01,6.903303100000000000e+09
1.340000000000000000e+02,2.210000000000000000e+02,9.000000000000000000e+02,2.410000000000000000e+02,1.030000000000000000e+02,2.130000000000000000e+02,5.600000000000000000e+01,7.500000000000000000e+01,4.000000000000000222e-01,6.922784900000000000e+09
1.370000000000000000e+02,2.380000000000000000e+02,9.170000000000000000e+02,2.680000000000000000e+02,1.080000000000000000e+02,1.860000000000000000e+02,4.800000000000000000e+01,7.800000000000000000e+01,3.900000000000000133e-01,6.945476500000000000e+09
1.400000000000000000e+02,2.800000000000000000e+02,8.840000000000000000e+02,2.610000000000000000e+02,1.080000000000000000e+02,1.790000000000000000e+02,4.500000000000000000e+01,7.700000000000000000e+01,3.900000000000000133e-01,6.963927600000000000e+09
1.300000000000000000e+02,3.550000000000000000e+02,8.630000000000000000e+02,2.160000000000000000e+02,9.600000000000000000e+01,1.650000000000000000e+02,4.300000000000000000e+01,6.900000000000000000e+01,3.800000000000000044e-01,6.983047600000000000e+09
1.290000000000000000e+02,3.830000000000000000e+02,8.210000000000000000e+02,2.310000000000000000e+02,9.700000000000000000e+01,1.570000000000000000e+02,4.000000000000000000e+01,6.300000000000000000e+01,3.699999999999999956e-01,7.002513600000000000e+09
1.210000000000000000e+02,3.750000000000000000e+02,8.790000000000000000e+02,1.960000000000000000e+02,8.600000000000000000e+01,1.370000000000000000e+02,3.800000000000000000e+01,5.400000000000000000e+01,3.699999999999999956e-01,7.023210800000000000e+09
1.140000000000000000e+02,3.640000000000000000e+02,8.970000000000000000e+02,1.800000000000000000e+02,8.400000000000000000e+01,1.140000000000000000e+02,4.100000000000000000e+01,5.100000000000000000e+01,3.699999999999999956e-01,7.044503700000000000e+09
1.260000000000000000e+02,3.710000000000000000e+02,9.510000000000000000e+02,2.500000000000000000e+02,8.900000000000000000e+01,1.030000000000000000e+02,4.600000000000000000e+01,5.900000000000000000e+01,3.499999999999999778e-01,7.065808100000000000e+09
1.160000000000000000e+02,3.320000000000000000e+02,9.060000000000000000e+02,2.570000000000000000e+02,8.100000000000000000e+01,1.100000000000000000e+02,4.500000000000000000e+01,5.500000000000000000e+01,3.499999999999999778e-01,7.084518400000000000e+09
1.340000000000000000e+02,3.120000000000000000e+02,9.780000000000000000e+02,2.540000000000000000e+02,7.700000000000000000e+01,1.180000000000000000e+02,5.100000000000000000e+01,6.500000000000000000e+01,3.400000000000000244e-01,7.103207400000000000e+09
1.370000000000000000e+02,3.360000000000000000e+02,1.036000000000000000e+03,2.670000000000000000e+02,8.500000000000000000e+01,1.140000000000000000e+02,5.000000000000000000e+01,7.000000000000000000e+01,3.400000000000000244e-01,7.122076000000000000e+09
1.440000000000000000e+02,3.510000000000000000e+02,1.029000000000000000e+03,2.800000000000000000e+02,9.100000000000000000e+01,1.070000000000000000e+02,5.400000000000000000e+01,7.100000000000000000e+01,3.300000000000000155e-01,7.150080600000000000e+09
1.680000000000000000e+02,4.020000000000000000e+02,1.022000000000000000e+03,2.670000000000000000e+02,1.280000000000000000e+02,1.120000000000000000e+02,5.900000000000000000e+01,8.000000000000000000e+01,3.200000000000000067e-01,7.168297800000000000e+09
1.750000000000000000e+02,3.860000000000000000e+02,1.112000000000000000e+03,2.780000000000000000e+02,1.360000000000000000e+02,1.060000000000000000e+02,6.100000000000000000e+01,8.400000000000000000e+01,3.099999999999999978e-01,7.185829900000000000e+09
1.620000000000000000e+02,4.000000000000000000e+02,1.190000000000000000e+03,2.960000000000000000e+02,1.390000000000000000e+02,1.040000000000000000e+02,5.900000000000000000e+01,8.300000000000000000e+01,2.999999999999999889e-01,7.203939100000000000e+09
1.600000000000000000e+02,4.420000000000000000e+02,1.139000000000000000e+03,3.160000000000000000e+02,1.350000000000000000e+02,1.170000000000000000e+02,6.300000000000000000e+01,8.900000000000000000e+01,2.800000000000000266e-01,7.223585200000000000e+09
1.650000000000000000e+02,4.440000000000000000e+02,1.220000000000000000e+03,3.250000000000000000e+02,1.470000000000000000e+02,1.200000000000000000e+02,5.900000000000000000e+01,9.200000000000000000e+01,2.700000000000000178e-01,7.242283600000000000e+09
1.620000000000000000e+02,3.860000000000000000e+02,1.187000000000000000e+03,3.320000000000000000e+02,1.460000000000000000e+02,1.240000000000000000e+02,5.600000000000000000e+01,9.200000000000000000e+01,2.600000000000000089e-01,7.266784200000000000e+09
1.540000000000000000e+02,4.100000000000000000e+02,1.141000000000000000e+03,3.370000000000000000e+02,1.420000000000000000e+02,1.280000000000000000e+02,5.500000000000000000e+01,9.100000000000000000e+01,2.500000000000000000e-01,7.285590300000000000e+09
1.550000000000000000e+02,4.140000000000000000e+02,1.272000000000000000e+03,3.290000000000000000e+02,1.390000000000000000e+02,1.250000000000000000e+02,5.300000000000000000e+01,8.900000000000000000e+01,2.399999999999999911e-01,7.304995400000000000e+09
1.620000000000000000e+02,3.480000000000000000e+02,1.249000000000000000e+03,3.310000000000000000e+02,1.430000000000000000e+02,1.180000000000000000e+02,4.800000000000000000e+01,8.400000000000000000e+01,2.200000000000000011e-01,7.323582400000000000e+09
1.770000000000000000e+02,3.780000000000000000e+02,1.201000000000000000e+03,4.020000000000000000e+02,1.480000000000000000e+02,1.130000000000000000e+02,6.000000000000000000e+01,9.900000000000000000e+01,2.099999999999999922e-01,7.345732400000000000e+09
2.000000000000000000e+02,4.070000000000000000e+02,1.222000000000000000e+03,4.030000000000000000e+02,1.460000000000000000e+02,1.200000000000000000e+02,6.100000000000000000e+01,1.050000000000000000e+02,2.099999999999999922e-01,7.363984300000000000e+09
2.310000000000000000e+02,4.550000000000000000e+02,1.293000000000000000e+03,4.280000000000000000e+02,1.530000000000000000e+02,1.180000000000000000e+02,6.500000000000000000e+01,1.130000000000000000e+02,2.000000000000000111e-01,7.382532600000000000e+09
2.530000000000000000e+02,4.510000000000000000e+02,1.012000000000000000e+03,4.670000000000000000e+02,1.610000000000000000e+02,1.160000000000000000e+02,6.700000000000000000e+01,1.220000000000000000e+02,2.000000000000000111e-01,7.401936900000000000e+09
2.750000000000000000e+02,4.860000000000000000e+02,1.063000000000000000e+03,5.120000000000000000e+02,1.800000000000000000e+02,1.150000000000000000e+02,7.600000000000000000e+01,1.340000000000000000e+02,1.900000000000000022e-01,7.421696000000000000e+09
2.840000000000000000e+02,5.520000000000000000e+02,1.071000000000000000e+03,4.940000000000000000e+02,1.750000000000000000e+02,1.180000000000000000e+02,7.300000000000000000e+01,1.310000000000000000e+02,1.799999999999999933e-01,7.442765200000000000e+09
2.830000000000000000e+02,5.580000000000000000e+02,1.103000000000000000e+03,4.970000000000000000e+02,1.850000000000000000e+02,1.080000000000000000e+02,7.600000000000000000e+01,1.430000000000000000e+02,1.799999999999999933e-01,7.465430400000000000e+09
2.860000000000000000e+02,5.210000000000000000e+02,1.027000000000000000e+03,5.330000000000000000e+02,2.160000000000000000e+02,1.320000000000000000e+02,8.300000000000000000e+01,1.510000000000000000e+02,1.700000000000000122e-01,7.484898000000000000e+09
2.990000000000000000e+02,5.800000000000000000e+02,1.123000000000000000e+03,5.450000000000000000e+02,2.360000000000000000e+02,1.470000000000000000e+02,8.900000000000000000e+01,1.570000000000000000e+02,1.700000000000000122e-01,7.503440600000000000e+09
2.790000000000000000e+02,5.750000000000000000e+02,1.193000000000000000e+03,5.560000000000000000e+02,2.300000000000000000e+02,1.410000000000000000e+02,8.400000000000000000e+01,1.480000000000000000e+02,1.600000000000000033e-01,7.523555000000000000e+09
2.700000000000000000e+02,5.210000000000000000e+02,1.233000000000000000e+03,5.220000000000000000e+02,2.280000000000000000e+02,1.400000000000000000e+02,8.300000000000000000e+01,1.490000000000000000e+02,1.499999999999999944e-01,7.544146700000000000e+09
2.400000000000000000e+02,4.870000000000000000e+02,1.232000000000000000e+03,5.800000000000000000e+02,2.110000000000000000e+02,1.350000000000000000e+02,7.600000000000000000e+01,1.270000000000000000e+02,1.499999999999999944e-01,7.564604900000000000e+09
2.800000000000000000e+02,6.350000000000000000e+02,1.244000000000000000e+03,5.840000000000000000e+02,2.260000000000000000e+02,1.390000000000000000e+02,8.500000000000000000e+01,1.400000000000000000e+02,1.400000000000000133e-01,7.582960000000000000e+09
2.550000000000000000e+02,6.080000000000000000e+02,1.267000000000000000e+03,5.780000000000000000e+02,2.060000000000000000e+02,1.230000000000000000e+02,7.800000000000000000e+01,1.260000000000000000e+02,1.300000000000000044e-01,7.602416700000000000e+09
2.520000000000000000e+02,5.930000000000000000e+02,1.239000000000000000e+03,5.350000000000000000e+02,1.950000000000000000e+02,1.190000000000000000e+02,7.600000000000000000e+01,1.240000000000000000e+02,1.199999999999999956e-01,7.622279500000000000e+09
2.690000000000000000e+02,6.250000000000000000e+02,1.224000000000000000e+03,6.160000000000000000e+02,2.060000000000000000e+02,1.220000000000000000e+02,7.900000000000000000e+01,1.290000000000000000e+02,1.199999999999999956e-01,7.642708900000000000e+09
2.800000000000000000e+02,6.550000000000000000e+02,1.181000000000000000e+03,6.210000000000000000e+02,2.180000000000000000e+02,1.270000000000000000e+02,8.100000000000000000e+01,1.350000000000000000e+02,1.100000000000000006e-01,7.665970000000000000e+09
2.240000000000000000e+02,5.350000000000000000e+02,1.134000000000000000e+03,6.100000000000000000e+02,1.790000000000000000e+02,1.060000000000000000e+02,6.400000000000000000e+01,1.120000000000000000e+02,1.100000000000000006e-01,7.684531400000000000e+09
2.180000000000000000e+02,5.050000000000000000e+02,1.042000000000000000e+03,5.860000000000000000e+02,1.990000000000000000e+02,1.270000000000000000e+02,6.700000000000000000e+01,1.200000000000000000e+02,1.100000000000000006e-01,7.704351500000000000e+09
2.570000000000000000e+02,5.310000000000000000e+02,1.023000000000000000e+03,6.300000000000000000e+02,2.270000000000000000e+02,1.580000000000000000e+02,7.600000000000000000e+01,1.380000000000000000e+02,1.000000000000000056e-01,7.724719400000000000e+09
2.540000000000000000e+02,5.020000000000000000e+02,1.050000000000000000e+03,6.440000000000000000e+02,2.370000000000000000e+02,1.660000000000000000e+02,7.900000000000000000e+01,1.420000000000000000e+02,1.000000000000000056e-01,7.747436700000000000e+09
2.640000000000000000e+02,5.290000000000000000e+02,1.154000000000000000e+03,6.640000000000000000e+02,2.630000000000000000e+02,1.830000000000000000e+02,9.000000000000000000e+01,1.600000000000000000e+02,1.000000000000000056e-01,7.766640400000000000e+09
2.700000000000000000e+02,5.340000000000000000e+02,1.142000000000000000e+03,7.960000000000000000e+02,3.090000000000000000e+02,1.980000000000000000e+02,1.050000000000000000e+02,1.740000000000000000e+02,1.000000000000000056e-01,7.784927800000000000e+09
2.700000000000000000e+02,5.960000000000000000e+02,1.185000000000000000e+03,8.480000000000000000e+02,3.130000000000000000e+02,1.900000000000000000e+02,1.050000000000000000e+02,1.720000000000000000e+02,8.999999999999999667e-02,7.803314400000000000e+09
2.510000000000000000e+02,6.220000000000000000e+02,1.132000000000000000e+03,8.300000000000000000e+02,2.980000000000000000e+02,1.720000000000000000e+02,1.000000000000000000e+02,1.660000000000000000e+02,8.999999999999999667e-02,7.822273600000000000e+09
2.730000000000000000e+02,7.040000000000000000e+02,1.118000000000000000e+03,8.300000000000000000e+02,3.110000000000000000e+02,1.850000000000000000e+02,1.020000000000000000e+02,1.710000000000000000e+02,8.999999999999999667e-02,7.843128500000000000e+09
2.780000000000000000e+02,7.680000000000000000e+02,1.067000000000000000e+03,8.340000000000000000e+02,2.890000000000000000e+02,1.750000000000000000e+02,9.600000000000000000e+01,1.610000000000000000e+02,8.999999999999999667e-02,7.866817100000000000e+09
2.730000000000000000e+02,7.970000000000000000e+02,1.112000000000000000e+03,7.530000000000000000e+02,2.610000000000000000e+02,1.630000000000000000e+02,8.500000000000000000e+01,1.450000000000000000e+02,8.000000000000000167e-02,7.885071100000000000e+09
3.160000000000000000e+02,8.140000000000000000e+02,1.090000000000000000e+03,7.800000000000000000e+02,2.910000000000000000e+02,1.870000000000000000e+02,9.400000000000000000e+01,1.690000000000000000e+02,8.000000000000000167e-02,7.903307900000000000e+09
3.480000000000000000e+02,8.580000000000000000e+02,1.118000000000000000e+03,8.370000000000000000e+02,3.290000000000000000e+02,2.260000000000000000e+02,1.040000000000000000e+02,1.820000000000000000e+02,7.000000000000000666e-02,7.922715800000000000e+09
3.670000000000000000e+02,9.210000000000000000e+02,1.061000000000000000e+03,8.400000000000000000e+02,3.250000000000000000e+02,2.170000000000000000e+02,1.110000000000000000e+02,1.900000000000000000e+02,7.000000000000000666e-02,7.944341300000000000e+09
3.870000000000000000e+02,8.640000000000000000e+02,1.051000000000000000e+03,8.220000000000000000e+02,3.350000000000000000e+02,2.280000000000000000e+02,1.180000000000000000e+02,1.990000000000000000e+02,7.000000000000000666e-02,7.965665000000000000e+09
4.110000000000000000e+02,9.160000000000000000e+02,1.055000000000000000e+03,7.940000000000000000e+02,3.360000000000000000e+02,2.330000000000000000e+02,1.160000000000000000e+02,2.080000000000000000e+02,5.999999999999999778e-02,7.983934300000000000e+09
4.080000000000000000e+02,9.490000000000000000e+02,1.078000000000000000e+03,8.870000000000000000e+02,3.330000000000000000e+02,2.260000000000000000e+02,1.140000000000000000e+02,1.990000000000000000e+02,5.999999999999999778e-02,8.002779900000000000e+09
3.770000000000000000e+02,8.830000000000000000e+02,1.041000000000000000e+03,8.330000000000000000e+02,3.020000000000000000e+02,1.910000000000000000e+02,1.050000000000000000e+02,1.860000000000000000e+02,5.000000000000000278e-02,8.022354100000000000e+09
3.620000000000000000e+02,7.900000000000000000e+02,1.157000000000000000e+03,7.970000000000000000e+02,2.950000000000000000e+02,2.020000000000000000e+02,9.700000000000000000e+01,1.830000000000000000e+02,5.000000000000000278e-02,8.042524900000000000e+09
3.530000000000000000e+02,7.980000000000000000e+02,1.195000000000000000e+03,7.960000000000000000e+02,2.860000000000000000e+02,1.870000000000000000e+02,9.000000000000000000e+01,1.790000000000000000e+02,5.000000000000000278e-02,8.065494900000000000e+09
3.890000000000000000e+02,8.760000000000000000e+02,1.204000000000000000e+03,8.820000000000000000e+02,3.120000000000000000e+02,2.040000000000000000e+02,1.020000000000000000e+02,1.960000000000000000e+02,5.000000000000000278e-02,8.085486500000000000e+09
3.750000000000000000e+02,8.150000000000000000e+02,1.245000000000000000e+03,7.450000000000000000e+02,2.810000000000000000e+02,1.910000000000000000e+02,9.800000000000000000e+01,1.890000000000000000e+02,5.000000000000000278e-02,8.104125600000000000e+09
3.790000000000000000e+02,8.390000000000000000e+02,1.320000000000000000e+03,7.870000000000000000e+02,2.800000000000000000e+02,1.930000000000000000e+02,9.600000000000000000e+01,1.850000000000000000e+02,5.000000000000000278e-02,8.124868700000000000e+09
3.510000000000000000e+02,8.000000000000000000e+02,1.347000000000000000e+03,8.050000000000000000e+02,2.700000000000000000e+02,1.800000000000000000e+02,8.800000000000000000e+01,1.640000000000000000e+02,5.000000000000000278e-02,8.148920400000000000e+09
3.310000000000000000e+02,7.950000000000000000e+02,1.339000000000000000e+03,7.590000000000000000e+02,2.580000000000000000e+02,1.800000000000000000e+02,8.400000000000000000e+01,1.480000000000000000e+02,5.000000000000000278e-02,8.167555900000000000e+09
2.530000000000000000e+02,6.500000000000000000e+02,1.391000000000000000e+03,6.170000000000000000e+02,1.960000000000000000e+02,1.450000000000000000e+02,6.400000000000000000e+01,1.040000000000000000e+02,5.000000000000000278e-02,8.185830200000000000e+09
2.650000000000000000e+02,6.730000000000000000e+02,1.341000000000000000e+03,6.060000000000000000e+02,2.370000000000000000e+02,1.920000000000000000e+02,6.400000000000000000e+01,1.080000000000000000e+02,5.000000000000000278e-02,8.204109200000000000e+09
2.660000000000000000e+02,6.860000000000000000e+02,1.309000000000000000e+03,5.410000000000000000e+02,2.440000000000000000e+02,1.950000000000000000e+02,6.700000000000000000e+01,1.220000000000000000e+02,5.000000000000000278e-02,8.222631100000000000e+09
2.640000000000000000e+02,6.950000000000000000e+02,1.238000000000000000e+03,4.540000000000000000e+02,2.410000000000000000e+02,1.880000000000000000e+02,6.900000000000000000e+01,1.290000000000000000e+02,5.000000000000000278e-02,8.242404800000000000e+09
2.590000000000000000e+02,7.310000000000000000e+02,1.241000000000000000e+03,4.810000000000000000e+02,2.450000000000000000e+02,1.820000000000000000e+02,6.900000000000000000e+01,1.280000000000000000e+02,5.000000000000000278e-02,8.266824100000000000e+09
2.480000000000000000e+02,6.480000000000000000e+02,1.214000000000000000e+03,4.890000000000000000e+02,2.410000000000000000e+02,1.910000000000000000e+02,6.700000000000000000e+01,1.280000000000000000e+02,5.000000000000000278e-02,8.285958100000000000e+09
2.400000000000000000e+02,6.370000000000000000e+02,1.204000000000000000e+03,4.950000000000000000e+02,2.220000000000000000e+02,1.610000000000000000e+02,7.200000000000000000e+01,1.310000000000000000e+02,5.000000000000000278e-02,8.304938100000000000e+09
2.260000000000000000e+02,6.560000000000000000e+02,1.228000000000000000e+03,5.090000000000000000e+02,2.070000000000000000e+02,1.430000000000000000e+02,6.500000000000000000e+01,1.130000000000000000e+02,5.000000000000000278e-02,8.324261500000000000e+09
2.260000000000000000e+02,6.340000000000000000e+02,1.161000000000000000e+03,5.370000000000000000e+02,2.190000000000000000e+02,1.560000000000000000e+02,7.000000000000000000e+01,1.160000000000000000e+02,5.000000000000000278e-02,8.347599900000000000e+09
2.110000000000000000e+02,5.390000000000000000e+02,1.070000000000000000e+03,5.050000000000000000e+02,2.150000000000000000e+02,1.610000000000000000e+02,6.900000000000000000e+01,1.140000000000000000e+02,5.000000000000000278e-02,8.366613400000000000e+09
2.320000000000000000e+02,6.390000000000000000e+02,1.107000000000000000e+03,4.980000000000000000e+02,2.200000000000000000e+02,1.450000000000000000e+02,7.400000000000000000e+01,1.230000000000000000e+02,5.000000000000000278e-02,8.384958400000000000e+09
2.060000000000000000e+02,5.970000000000000000e+02,1.110000000000000000e+03,4.310000000000000000e+02,1.850000000000000000e+02,1.210000000000000000e+02,6.300000000000000000e+01,1.100000000000000000e+02,4.000000000000000083e-02,8.403219400000000000e+09
2.030000000000000000e+02,5.700000000000000000e+02,1.080000000000000000e+03,3.830000000000000000e+02,1.860000000000000000e+02,1.290000000000000000e+02,6.300000000000000000e+01,1.110000000000000000e+02,4.000000000000000083e-02,8.422037600000000000e+09
1.920000000000000000e+02,5.580000000000000000e+02,1.095000000000000000e+03,3.450000000000000000e+02,1.580000000000000000e+02,1.030000000000000000e+02,5.300000000000000000e+01,1.010000000000000000e+02,4.000000000000000083e-02,8.441992300000000000e+09
1.880000000000000000e+02,5.530000000000000000e+02,1.080000000000000000e+03,3.150000000000000000e+02,1.470000000000000000e+02,9.100000000000000000e+01,5.000000000000000000e+01,9.700000000000000000e+01,5.000000000000000278e-02,8.464880200000000000e+09
1.580000000000000000e+02,4.730000000000000000e+02,1.010000000000000000e+03,2.650000000000000000e+02,1.250000000000000000e+02,9.200000000000000000e+01,4.200000000000000000e+01,8.200000000000000000e+01,5.000000000000000278e-02,8.483945600000000000e+09
1.320000000000000000e+02,4.320000000000000000e+02,1.026000000000000000e+03,2.450000000000000000e+02,1.130000000000000000e+02,9.600000000000000000e+01,3.700000000000000000e+01,7.200000000000000000e+01,5.999999999999999778e-02,8.502084800000000000e+09
1.390000000000000000e+02,4.070000000000000000e+02,9.940000000000000000e+02,2.330000000000000000e+02,1.000000000000000000e+02,1.330000000000000000e+02,5.700000000000000000e+01,8.000000000000000000e+01,7.000000000000000666e-02,8.521138600000000000e+09
1.210000000000000000e+02,3.750000000000000000e+02,9.320000000000000000e+02,2.020000000000000000e+02,8.500000000000000000e+01,2.540000000000000000e+02,6.400000000000000000e+01,1.270000000000000000e+02,8.000000000000000167e-02,8.542642500000000000e+09
1.280000000000000000e+02,4.030000000000000000e+02,9.900000000000000000e+02,2.140000000000000000e+02,8.400000000000000000e+01,3.240000000000000000e+02,7.300000000000000000e+01,1.540000000000000000e+02,8.999999999999999667e-02,8.565976000000000000e+09
1.130000000000000000e+02,3.580000000000000000e+02,8.870000000000000000e+02,2.150000000000000000e+02,8.500000000000000000e+01,3.880000000000000000e+02,1.120000000000000000e+02,1.700000000000000000e+02,1.100000000000000006e-01,8.584562200000000000e+09
1.220000000000000000e+02,3.840000000000000000e+02,9.050000000000000000e+02,2.130000000000000000e+02,9.900000000000000000e+01,4.230000000000000000e+02,1.180000000000000000e+02,1.840000000000000000e+02,1.199999999999999956e-01,8.604743100000000000e+09
9.200000000000000000e+01,3.060000000000000000e+02,8.710000000000000000e+02,1.980000000000000000e+02,9.900000000000000000e+01,4.260000000000000000e+02,1.190000000000000000e+02,1.860000000000000000e+02,1.400000000000000133e-01,8.622939300000000000e+09
1.090000000000000000e+02,3.140000000000000000e+02,9.620000000000000000e+02,2.340000000000000000e+02,1.090000000000000000e+02,4.130000000000000000e+02,1.270000000000000000e+02,1.660000000000000000e+02,1.499999999999999944e-01,8.644352300000000000e+09
1.040000000000000000e+02,2.520000000000000000e+02,9.390000000000000000e+02,2.090000000000000000e+02,1.130000000000000000e+02,3.970000000000000000e+02,1.320000000000000000e+02,1.580000000000000000e+02,1.700000000000000122e-01,8.667528900000000000e+09
1.080000000000000000e+02,2.440000000000000000e+02,9.430000000000000000e+02,2.100000000000000000e+02,1.130000000000000000e+02,3.840000000000000000e+02,1.050000000000000000e+02,1.650000000000000000e+02,1.799999999999999933e-01,8.685877700000000000e+09
9.900000000000000000e+01,2.080000000000000000e+02,8.280000000000000000e+02,2.240000000000000000e+02,9.900000000000000000e+01,3.790000000000000000e+02,1.060000000000000000e+02,1.520000000000000000e+02,2.000000000000000111e-01,8.703952700000000000e+09
9.900000000000000000e+01,2.100000000000000000e+02,7.560000000000000000e+02,2.160000000000000000e+02,8.900000000000000000e+01,3.860000000000000000e+02,1.000000000000000000e+02,1.610000000000000000e+02,2.200000000000000011e-01,8.723548800000000000e+09
9.400000000000000000e+01,1.850000000000000000e+02,6.570000000000000000e+02,1.730000000000000000e+02,8.100000000000000000e+01,3.660000000000000000e+02,1.030000000000000000e+02,1.570000000000000000e+02,2.399999999999999911e-01,8.747315800000000000e+09
9.000000000000000000e+01,1.850000000000000000e+02,5.970000000000000000e+02,1.770000000000000000e+02,7.800000000000000000e+01,3.770000000000000000e+02,1.130000000000000000e+02,1.430000000000000000e+02,2.600000000000000089e-01,8.768081000000000000e+09
1.080000000000000000e+02,2.000000000000000000e+02,6.000000000000000000e+02,1.800000000000000000e+02,7.600000000000000000e+01,3.410000000000000000e+02,1.140000000000000000e+02,1.420000000000000000e+02,2.899999999999999800e-01,8.786639700000000000e+09
1.140000000000000000e+02,2.090000000000000000e+02,6.410000000000000000e+02,1.460000000000000000e+02,7.300000000000000000e+01,3.090000000000000000e+02,1.110000000000000000e+02,1.490000000000000000e+02,2.999999999999999889e-01,8.804938600000000000e+09
1.140000000000000000e+02,2.000000000000000000e+02,6.960000000000000000e+02,1.440000000000000000e+02,6.900000000000000000e+01,3.250000000000000000e+02,1.140000000000000000e+02,1.700000000000000000e+02,3.200000000000000067e-01,8.822950400000000000e+09
1.020000000000000000e+02,1.990000000000000000e+02,6.590000000000000000e+02,1.320000000000000000e+02,6.000000000000000000e+01,3.030000000000000000e+02,9.900000000000000000e+01,1.710000000000000000e+02,3.400000000000000244e-01,8.843444300000000000e+09
9.900000000000000000e+01,2.100000000000000000e+02,6.510000000000000000e+02,1.240000000000000000e+02,5.400000000000000000e+01,2.500000000000000000e+02,7.600000000000000000e+01,1.780000000000000000e+02,3.599999999999999867e-01,8.866850000000000000e+09
7.300000000000000000e+01,1.950000000000000000e+02,6.440000000000000000e+02,1.360000000000000000e+02,5.400000000000000000e+01,2.590000000000000000e+02,7.200000000000000000e+01,1.560000000000000000e+02,3.699999999999999956e-01,8.884399600000000000e+09
6.300000000000000000e+01,1.940000000000000000e+02,6.080000000000000000e+02,1.350000000000000000e+02,5.500000000000000000e+01,2.740000000000000000e+02,1.100000000000000000e+02,1.720000000000000000e+02,4.000000000000000222e-01,8.903417900000000000e+09
6.800000000000000000e+01,2.090000000000000000e+02,5.680000000000000000e+02,1.310000000000000000e+02,6.400000000000000000e+01,2.290000000000000000e+02,1.050000000000000000e+02,1.740000000000000000e+02,4.099999999999999756e-01,8.923598100000000000e+09
8.700000000000000000e+01,2.410000000000000000e+02,5.680000000000000000e+02,1.430000000000000000e+02,6.600000000000000000e+01,2.190000000000000000e+02,1.120000000000000000e+02,1.930000000000000000e+02,4.299999999999999933e-01,8.945510300000000000e+09
9.600000000000000000e+01,2.380000000000000000e+02,5.650000000000000000e+02,1.450000000000000000e+02,6.800000000000000000e+01,2.140000000000000000e+02,1.180000000000000000e+02,1.940000000000000000e+02,4.400000000000000022e-01,8.964119800000000000e+09
9.900000000000000000e+01,2.410000000000000000e+02,5.700000000000000000e+02,1.150000000000000000e+02,6.900000000000000000e+01,2.090000000000000000e+02,1.500000000000000000e+02,2.030000000000000000e+02,4.299999999999999933e-01,8.983651000000000000e+09
9.800000000000000000e+01,2.300000000000000000e+02,5.630000000000000000e+02,1.180000000000000000e+02,6.700000000000000000e+01,1.960000000000000000e+02,1.250000000000000000e+02,1.970000000000000000e+02,4.299999999999999933e-01,9.002750500000000000e+09
9.600000000000000000e+01,2.150000000000000000e+02,5.580000000000000000e+02,1.160000000000000000e+02,6.400000000000000000e+01,1.980000000000000000e+02,1.360000000000000000e+02,1.970000000000000000e+02,4.400000000000000022e-01,9.021408500000000000e+09
9.600000000000000000e+01,1.990000000000000000e+02,5.160000000000000000e+02,9.900000000000000000e+01,6.600000000000000000e+01,2.020000000000000000e+02,1.310000000000000000e+02,1.780000000000000000e+02,4.500000000000000111e-01,9.040863000000000000e+09
8.800000000000000000e+01,1.950000000000000000e+02,5.160000000000000000e+02,9.400000000000000000e+01,6.600000000000000000e+01,1.990000000000000000e+02,1.240000000000000000e+02,1.690000000000000000e+02,4.500000000000000111e-01,9.064285000000000000e+09
8.700000000000000000e+01,1.840000000000000000e+02,5.400000000000000000e+02,9.400000000000000000e+01,6.500000000000000000e+01,1.980000000000000000e+02,1.110000000000000000e+02,1.690000000000000000e+02,4.500000000000000111e-01,9.082963200000000000e+09
9.300000000000000000e+01,1.850000000000000000e+02,5.190000000000000000e+02,8.600000000000000000e+01,7.300000000000000000e+01,3.100000000000000000e+02,1.160000000000000000e+02,1.770000000000000000e+02,4.600000000000000200e-01,9.104023900000000000e+09
8.900000000000000000e+01,1.690000000000000000e+02,4.950000000000000000e+02,7.300000000000000000e+01,6.700000000000000000e+01,3.150000000000000000e+02,1.130000000000000000e+02,1.740000000000000000e+02,4.500000000000000111e-01,9.123622500000000000e+09
6.900000000000000000e+01,1.590000000000000000e+02,6.050000000000000000e+02,7.300000000000000000e+01,6.200000000000000000e+01,3.170000000000000000e+02,1.120000000000000000e+02,1.670000000000000000e+02,4.500000000000000111e-01,9.147137800000000000e+09
7.700000000000000000e+01,1.910000000000000000e+02,5.920000000000000000e+02,8.900000000000000000e+01,6.200000000000000000e+01,3.280000000000000000e+02,1.240000000000000000e+02,1.730000000000000000e+02,4.500000000000000111e-01,9.165320200000000000e+09
7.200000000000000000e+01,1.840000000000000000e+02,5.210000000000000000e+02,8.900000000000000000e+01,5.700000000000000000e+01,3.520000000000000000e+02,1.280000000000000000e+02,1.710000000000000000e+02,4.600000000000000200e-01,9.183630200000000000e+09
5.700000000000000000e+01,1.640000000000000000e+02,4.870000000000000000e+02,8.100000000000000000e+01,4.400000000000000000e+01,2.530000000000000000e+02,1.330000000000000000e+02,1.740000000000000000e+02,4.699999999999999734e-01,9.205701900000000000e+09
5.700000000000000000e+01,1.620000000000000000e+02,4.870000000000000000e+02,8.300000000000000000e+01,4.900000000000000000e+01,2.400000000000000000e+02,1.260000000000000000e+02,1.550000000000000000e+02,4.699999999999999734e-01,9.224726500000000000e+09
7.500000000000000000e+01,1.910000000000000000e+02,5.940000000000000000e+02,9.100000000000000000e+01,5.000000000000000000e+01,2.350000000000000000e+02,1.270000000000000000e+02,1.610000000000000000e+02,4.799999999999999822e-01,9.246464900000000000e+09
8.200000000000000000e+01,1.630000000000000000e+02,5.720000000000000000e+02,9.400000000000000000e+01,5.100000000000000000e+01,2.230000000000000000e+02,1.220000000000000000e+02,1.730000000000000000e+02,4.799999999999999822e-01,9.266334000000000000e+09
8.600000000000000000e+01,1.640000000000000000e+02,5.840000000000000000e+02,9.800000000000000000e+01,5.900000000000000000e+01,2.880000000000000000e+02,1.260000000000000000e+02,2.760000000000000000e+02,4.799999999999999822e-01,9.284231500000000000e+09
8.900000000000000000e+01,1.660000000000000000e+02,5.790000000000000000e+02,9.900000000000000000e+01,7.000000000000000000e+01,3.720000000000000000e+02,1.390000000000000000e+02,2.950000000000000000e+02,4.699999999999999734e-01,9.302799300000000000e+09
8.900000000000000000e+01,1.740000000000000000e+02,5.830000000000000000e+02,1.010000000000000000e+02,6.900000000000000000e+01,3.830000000000000000e+02,1.390000000000000000e+02,2.980000000000000000e+02,4.699999999999999734e-01,9.323452500000000000e+09
8.400000000000000000e+01,1.470000000000000000e+02,5.330000000000000000e+02,1.180000000000000000e+02,7.400000000000000000e+01,3.900000000000000000e+02,1.400000000000000000e+02,3.040000000000000000e+02,4.699999999999999734e-01,9.346982400000000000e+09
6.500000000000000000e+01,1.420000000000000000e+02,5.180000000000000000e+02,1.090000000000000000e+02,7.200000000000000000e+01,3.950000000000000000e+02,1.410000000000000000e+02,2.980000000000000000e+02,4.600000000000000200e-01,9.366458300000000000e+09
5.900000000000000000e+01,1.360000000000000000e+02,5.300000000000000000e+02,1.030000000000000000e+02,6.800000000000000000e+01,3.410000000000000000e+02,1.540000000000000000e+02,2.290000000000000000e+02,4.600000000000000200e-01,9.384579900000000000e+09
5.600000000000000000e+01,1.320000000000000000e+02,5.310000000000000000e+02,1.020000000000000000e+02,5.700000000000000000e+01,2.800000000000000000e+02,1.400000000000000000e+02,2.200000000000000000e+02,4.500000000000000111e-01,9.403294000000000000e+09
6.100000000000000000e+01,1.380000000000000000e+02,6.000000000000000000e+02,9.800000000000000000e+01,5.700000000000000000e+01,2.570000000000000000e+02,1.450000000000000000e+02,2.110000000000000000e+02,4.400000000000000022e-01,9.421351200000000000e+09
5.200000000000000000e+01,1.110000000000000000e+02,4.860000000000000000e+02,6.800000000000000000e+01,5.100000000000000000e+01,2.450000000000000000e+02,1.440000000000000000e+02,2.000000000000000000e+02,4.299999999999999933e-01,9.444575500000000000e+09
5.200000000000000000e+01,1.090000000000000000e+02,4.730000000000000000e+02,6.500000000000000000e+01,5.000000000000000000e+01,2.600000000000000000e+02,1.380000000000000000e+02,2.080000000000000000e+02,4.199999999999999845e-01,9.466974000000000000e+09
5.000000000000000000e+01,1.110000000000000000e+02,4.370000000000000000e+02,6.100000000000000000e+01,4.800000000000000000e+01,2.450000000000000000e+02,1.070000000000000000e+02,1.930000000000000000e+02,4.199999999999999845e-01,9.484906500000000000e+09
5.200000000000000000e+01,1.130000000000000000e+02,4.400000000000000000e+02,6.300000000000000000e+01,4.600000000000000000e+01,2.100000000000000000e+02,1.120000000000000000e+02,1.750000000000000000e+02,4.199999999999999845e-01,9.503360400000000000e+09
6.100000000000000000e+01,1.020000000000000000e+02,3.410000000000000000e+02,8.300000000000000000e+01,5.700000000000000000e+01,2.160000000000000000e+02,1.110000000000000000e+02,1.720000000000000000e+02,4.299999999999999933e-01,9.523323300000000000e+09
6.900000000000000000e+01,1.350000000000000000e+02,3.740000000000000000e+02,9.000000000000000000e+01,5.800000000000000000e+01,2.100000000000000000e+02,1.090000000000000000e+02,1.760000000000000000e+02,4.299999999999999933e-01,9.545411300000000000e+09
7.000000000000000000e+01,1.410000000000000000e+02,3.740000000000000000e+02,8.400000000000000000e+01,5.900000000000000000e+01,1.930000000000000000e+02,1.260000000000000000e+02,1.750000000000000000e+02,4.400000000000000022e-01,9.564824500000000000e+09
7.100000000000000000e+01,1.400000000000000000e+02,3.720000000000000000e+02,8.100000000000000000e+01,5.800000000000000000e+01,2.050000000000000000e+02,1.190000000000000000e+02,1.660000000000000000e+02,4.500000000000000111e-01,9.584224800000000000e+09
7.500000000000000000e+01,1.380000000000000000e+02,3.680000000000000000e+02,8.300000000000000000e+01,6.000000000000000000e+01,1.930000000000000000e+02,1.060000000000000000e+02,1.800000000000000000e+02,4.500000000000000111e-01,9.602942300000000000e+09
8.700000000000000000e+01,2.110000000000000000e+02,3.820000000000000000e+02,7.900000000000000000e+01,5.800000000000000000e+01,1.910000000000000000e+02,1.170000000000000000e+02,1.830000000000000000e+02,4.600000000000000200e-01,9.621686200000000000e+09
7.700000000000000000e+01,2.010000000000000000e+02,3.610000000000000000e+02,7.400000000000000000e+01,5.300000000000000000e+01,1.910000000000000000e+02,1.160000000000000000e+02,1.830000000000000000e+02,4.600000000000000200e-01,9.641876800000000000e+09
7.400000000000000000e+01,1.910000000000000000e+02,3.730000000000000000e+02,8.000000000000000000e+01,5.000000000000000000e+01,2.040000000000000000e+02,1.080000000000000000e+02,1.680000000000000000e+02,4.699999999999999734e-01,9.665403200000000000e+09
7.500000000000000000e+01,1.920000000000000000e+02,3.720000000000000000e+02,7.900000000000000000e+01,5.100000000000000000e+01,2.530000000000000000e+02,1.190000000000000000e+02,2.020000000000000000e+02,4.699999999999999734e-01,9.685205500000000000e+09
7.300000000000000000e+01,1.960000000000000000e+02,3.700000000000000000e+02,7.600000000000000000e+01,4.900000000000000000e+01,2.720000000000000000e+02,1.400000000000000000e+02,1.850000000000000000e+02,4.799999999999999822e-01,9.703515200000000000e+09
5.100000000000000000e+01,1.290000000000000000e+02,4.320000000000000000e+02,6.500000000000000000e+01,3.500000000000000000e+01,2.960000000000000000e+02,1.710000000000000000e+02,1.790000000000000000e+02,4.899999999999999911e-01,9.723757500000000000e+09
5.300000000000000000e+01,1.110000000000000000e+02,4.080000000000000000e+02,6.900000000000000000e+01,4.200000000000000000e+01,3.110000000000000000e+02,1.710000000000000000e+02,1.770000000000000000e+02,4.899999999999999911e-01,9.746301900000000000e+09
5.400000000000000000e+01,1.090000000000000000e+02,3.900000000000000000e+02,6.200000000000000000e+01,4.100000000000000000e+01,3.130000000000000000e+02,1.670000000000000000e+02,1.800000000000000000e+02,4.899999999999999911e-01,9.765133500000000000e+09
5.400000000000000000e+01,1.070000000000000000e+02,3.900000000000000000e+02,6.400000000000000000e+01,4.100000000000000000e+01,2.630000000000000000e+02,1.880000000000000000e+02,1.690000000000000000e+02,5.000000000000000000e-01,9.783885100000000000e+09
4.800000000000000000e+01,1.020000000000000000e+02,3.920000000000000000e+02,6.200000000000000000e+01,3.900000000000000000e+01,2.550000000000000000e+02,1.770000000000000000e+02,1.550000000000000000e+02,5.000000000000000000e-01,9.802947300000000000e+09
4.200000000000000000e+01,9.800000000000000000e+01,3.750000000000000000e+02,6.700000000000000000e+01,4.000000000000000000e+01,2.270000000000000000e+02,1.430000000000000000e+02,1.550000000000000000e+02,5.000000000000000000e-01,9.821887300000000000e+09
4.700000000000000000e+01,1.090000000000000000e+02,3.840000000000000000e+02,9.500000000000000000e+01,3.700000000000000000e+01,2.040000000000000000e+02,1.420000000000000000e+02,1.550000000000000000e+02,5.100000000000000089e-01,9.841764500000000000e+09
4.500000000000000000e+01,1.090000000000000000e+02,3.990000000000000000e+02,1.000000000000000000e+02,3.900000000000000000e+01,1.840000000000000000e+02,1.480000000000000000e+02,1.760000000000000000e+02,5.100000000000000089e-01,9.865233500000000000e+09
4.400000000000000000e+01,1.150000000000000000e+02,4.130000000000000000e+02,1.000000000000000000e+02,4.200000000000000000e+01,1.920000000000000000e+02,1.080000000000000000e+02,1.630000000000000000e+02,5.200000000000000178e-01,9.884900900000000000e+09
4.500000000000000000e+01,1.170000000000000000e+02,4.310000000000000000e+02,1.010000000000000000e+02,4.200000000000000000e+01,1.750000000000000000e+02,1.060000000000000000e+02,1.640000000000000000e+02,5.200000000000000178e-01,9.904698000000000000e+09
5.000000000000000000e+01,1.290000000000000000e+02,4.300000000000000000e+02,9.900000000000000000e+01,4.700000000000000000e+01,1.770000000000000000e+02,9.400000000000000000e+01,1.630000000000000000e+02,5.200000000000000178e-01,9.923885600000000000e+09
4.900000000000000000e+01,1.420000000000000000e+02,5.080000000000000000e+02,8.300000000000000000e+01,4.900000000000000000e+01,1.790000000000000000e+02,9.300000000000000000e+01,1.650000000000000000e+02,5.300000000000000266e-01,9.947240000000000000e+09
4.900000000000000000e+01,1.500000000000000000e+02,5.270000000000000000e+02,8.600000000000000000e+01,5.100000000000000000e+01,2.370000000000000000e+02,1.270000000000000000e+02,1.410000000000000000e+02,5.300000000000000266e-01,9.965647900000000000e+09
5.100000000000000000e+01,1.480000000000000000e+02,5.250000000000000000e+02,8.700000000000000000e+01,4.900000000000000000e+01,2.290000000000000000e+02,1.260000000000000000e+02,1.870000000000000000e+02,5.300000000000000266e-01,9.984135200000000000e+09
5.200000000000000000e+01,1.490000000000000000e+02,5.070000000000000000e+02,8.600000000000000000e+01,4.800000000000000000e+01,2.260000000000000000e+02,1.270000000000000000e+02,1.920000000000000000e+02,5.300000000000000266e-01,1.000338590000000000e+10
5.000000000000000000e+01,1.470000000000000000e+02,4.600000000000000000e+02,8.400000000000000000e+01,4.200000000000000000e+01,2.210000000000000000e+02,1.260000000000000000e+02,1.970000000000000000e+02,5.400000000000000355e-01,1.002252930000000000e+10
5.400000000000000000e+01,1.550000000000000000e+02,4.550000000000000000e+02,8.000000000000000000e+01,4.200000000000000000e+01,2.220000000000000000e+02,1.340000000000000000e+02,1.950000000000000000e+02,5.400000000000000355e-01,1.004308900000000000e+10
5.400000000000000000e+01,1.490000000000000000e+02,4.410000000000000000e+02,7.100000000000000000e+01,3.700000000000000000e+01,1.650000000000000000e+02,1.610000000000000000e+02,2.000000000000000000e+02,5.300000000000000266e-01,1.006596490000000000e+10
5.100000000000000000e+01,1.480000000000000000e+02,4.290000000000000000e+02,6.800000000000000000e+01,3.200000000000000000e+01,1.380000000000000000e+02,1.590000000000000000e+02,1.610000000000000000e+02,5.300000000000000266e-01,1.008540930000000000e+10
5.400000000000000000e+01,1.470000000000000000e+02,4.280000000000000000e+02,6.800000000000000000e+01,3.700000000000000000e+01,1.480000000000000000e+02,1.670000000000000000e+02,1.850000000000000000e+02,5.300000000000000266e-01,1.010406180000000000e+10
5.400000000000000000e+01,1.450000000000000000e+02,4.690000000000000000e+02,7.100000000000000000e+01,3.800000000000000000e+01,1.500000000000000000e+02,1.870000000000000000e+02,2.150000000000000000e+02,5.200000000000000178e-01,1.012327140000000000e+10
5.100000000000000000e+01,1.430000000000000000e+02,4.890000000000000000e+02,8.600000000000000000e+01,3.200000000000000000e+01,1.480000000000000000e+02,1.840000000000000000e+02,2.130000000000000000e+02,5.200000000000000178e-01,1.014646440000000000e+10
