3.800000000000000000e+01,8.400000000000000000e+01,6.420000000000000000e+02,1.230000000000000000e+02,3.400000000000000000e+01,1.130000000000000000e+02,5.500000000000000000e+01,5.300000000000000000e+01,6.099999999999999867e-01,7.248026000000000000e+08
4.200000000000000000e+01,9.400000000000000000e+01,5.630000000000000000e+02,1.100000000000000000e+02,4.200000000000000000e+01,1.630000000000000000e+02,8.800000000000000000e+01,5.500000000000000000e+01,5.999999999999999778e-01,7.538283000000000000e+08
4.000000000000000000e+01,1.070000000000000000e+02,5.780000000000000000e+02,9.200000000000000000e+01,3.800000000000000000e+01,1.690000000000000000e+02,1.050000000000000000e+02,5.900000000000000000e+01,5.999999999999999778e-01,1.043548900000000000e+09
4.200000000000000000e+01,1.090000000000000000e+02,5.490000000000000000e+02,1.030000000000000000e+02,4.000000000000000000e+01,1.760000000000000000e+02,1.080000000000000000e+02,6.000000000000000000e+01,5.999999999999999778e-01,1.061534900000000000e+09
4.300000000000000000e+01,1.060000000000000000e+02,5.270000000000000000e+02,9.400000000000000000e+01,4.200000000000000000e+01,2.010000000000000000e+02,1.110000000000000000e+02,6.700000000000000000e+01,5.999999999999999778e-01,1.078176300000000000e+09
4.600000000000000000e+01,1.110000000000000000e+02,5.570000000000000000e+02,9.200000000000000000e+01,5.200000000000000000e+01,2.260000000000000000e+02,1.400000000000000000e+02,7.000000000000000000e+01,5.999999999999999778e-01,1.095762600000000000e+09
5.100000000000000000e+01,1.110000000000000000e+02,5.970000000000000000e+02,1.040000000000000000e+02,5.600000000000000000e+01,2.890000000000000000e+02,1.470000000000000000e+02,8.500000000000000000e+01,5.999999999999999778e-01,1.112470500000000000e+09
5.300000000000000000e+01,1.060000000000000000e+02,6.260000000000000000e+02,1.040000000000000000e+02,5.800000000000000000e+01,3.400000000000000000e+02,1.750000000000000000e+02,9.700000000000000000e+01,5.899999999999999689e-01,1.129136400000000000e+09
5.100000000000000000e+01,1.040000000000000000e+02,6.400000000000000000e+02,9.600000000000000000e+01,5.800000000000000000e+01,3.420000000000000000e+02,1.920000000000000000e+02,9.800000000000000000e+01,5.899999999999999689e-01,1.145740300000000000e+09
5.200000000000000000e+01,1.150000000000000000e+02,6.830000000000000000e+02,1.040000000000000000e+02,5.800000000000000000e+01,3.360000000000000000e+02,1.960000000000000000e+02,9.500000000000000000e+01,5.899999999999999689e-01,1.162362800000000000e+09
5.000000000000000000e+01,1.280000000000000000e+02,6.240000000000000000e+02,1.060000000000000000e+02,4.900000000000000000e+01,3.160000000000000000e+02,1.790000000000000000e+02,8.400000000000000000e+01,5.899999999999999689e-01,1.179370100000000000e+09
4.100000000000000000e+01,1.310000000000000000e+02,5.650000000000000000e+02,1.000000000000000000e+02,3.900000000000000000e+01,2.570000000000000000e+02,1.780000000000000000e+02,6.900000000000000000e+01,5.899999999999999689e-01,1.195516400000000000e+09
3.700000000000000000e+01,1.490000000000000000e+02,5.190000000000000000e+02,1.130000000000000000e+02,3.600000000000000000e+01,2.110000000000000000e+02,1.440000000000000000e+02,4.700000000000000000e+01,5.899999999999999689e-01,1.212028800000000000e+09
3.800000000000000000e+01,1.520000000000000000e+02,5.260000000000000000e+02,1.080000000000000000e+02,3.800000000000000000e+01,2.090000000000000000e+02,1.200000000000000000e+02,4.300000000000000000e+01,5.899999999999999689e-01,1.229036400000000000e+09
3.900000000000000000e+01,1.660000000000000000e+02,4.690000000000000000e+02,9.900000000000000000e+01,3.500000000000000000e+01,1.980000000000000000e+02,1.120000000000000000e+02,4.200000000000000000e+01,5.899999999999999689e-01,1.246158400000000000e+09
3.800000000000000000e+01,1.730000000000000000e+02,5.130000000000000000e+02,1.400000000000000000e+02,4.200000000000000000e+01,1.920000000000000000e+02,1.050000000000000000e+02,3.700000000000000000e+01,5.999999999999999778e-01,1.263796300000000000e+09
3.800000000000000000e+01,1.670000000000000000e+02,5.400000000000000000e+02,1.440000000000000000e+02,4.200000000000000000e+01,1.430000000000000000e+02,6.000000000000000000e+01,3.100000000000000000e+01,5.999999999999999778e-01,1.282813700000000000e+09
3.600000000000000000e+01,1.470000000000000000e+02,5.210000000000000000e+02,1.400000000000000000e+02,4.400000000000000000e+01,9.300000000000000000e+01,5.300000000000000000e+01,2.800000000000000000e+01,5.999999999999999778e-01,1.300300900000000000e+09
3.800000000000000000e+01,1.450000000000000000e+02,5.170000000000000000e+02,1.530000000000000000e+02,4.400000000000000000e+01,9.900000000000000000e+01,5.800000000000000000e+01,3.100000000000000000e+01,6.099999999999999867e-01,1.318907100000000000e+09
3.600000000000000000e+01,1.200000000000000000e+02,4.990000000000000000e+02,1.710000000000000000e+02,4.700000000000000000e+01,9.700000000000000000e+01,5.000000000000000000e+01,2.900000000000000000e+01,6.099999999999999867e-01,1.341870900000000000e+09
3.800000000000000000e+01,9.800000000000000000e+01,5.890000000000000000e+02,1.590000000000000000e+02,4.300000000000000000e+01,9.000000000000000000e+01,4.900000000000000000e+01,2.900000000000000000e+01,6.199999999999999956e-01,1.361385400000000000e+09
3.900000000000000000e+01,1.030000000000000000e+02,6.320000000000000000e+02,1.630000000000000000e+02,4.500000000000000000e+01,9.200000000000000000e+01,5.600000000000000000e+01,2.900000000000000000e+01,6.199999999999999956e-01,1.380115200000000000e+09
3.800000000000000000e+01,9.300000000000000000e+01,6.110000000000000000e+02,1.710000000000000000e+02,4.200000000000000000e+01,1.430000000000000000e+02,9.200000000000000000e+01,3.000000000000000000e+01,6.199999999999999956e-01,1.400790200000000000e+09
3.900000000000000000e+01,1.010000000000000000e+02,6.160000000000000000e+02,1.880000000000000000e+02,3.800000000000000000e+01,1.330000000000000000e+02,9.500000000000000000e+01,2.900000000000000000e+01,6.300000000000000044e-01,1.424059900000000000e+09
4.400000000000000000e+01,1.330000000000000000e+02,6.790000000000000000e+02,1.810000000000000000e+02,3.500000000000000000e+01,1.310000000000000000e+02,9.700000000000000000e+01,2.700000000000000000e+01,6.300000000000000044e-01,1.443874100000000000e+09
4.100000000000000000e+01,1.330000000000000000e+02,6.000000000000000000e+02,1.740000000000000000e+02,3.500000000000000000e+01,1.320000000000000000e+02,9.800000000000000000e+01,2.600000000000000000e+01,6.300000000000000044e-01,1.462752500000000000e+09
4.400000000000000000e+01,1.620000000000000000e+02,6.010000000000000000e+02,1.700000000000000000e+02,3.600000000000000000e+01,1.910000000000000000e+02,1.240000000000000000e+02,2.900000000000000000e+01,6.300000000000000044e-01,1.480920800000000000e+09
4.300000000000000000e+01,1.740000000000000000e+02,6.230000000000000000e+02,1.690000000000000000e+02,3.500000000000000000e+01,1.770000000000000000e+02,1.000000000000000000e+02,3.000000000000000000e+01,6.400000000000000133e-01,1.499473300000000000e+09
4.900000000000000000e+01,1.870000000000000000e+02,5.860000000000000000e+02,1.560000000000000000e+02,3.700000000000000000e+01,1.730000000000000000e+02,9.500000000000000000e+01,2.900000000000000000e+01,6.400000000000000133e-01,1.517907700000000000e+09
5.300000000000000000e+01,2.110000000000000000e+02,5.330000000000000000e+02,1.660000000000000000e+02,4.200000000000000000e+01,1.880000000000000000e+02,1.070000000000000000e+02,3.300000000000000000e+01,6.400000000000000133e-01,1.536714900000000000e+09
6.800000000000000000e+01,2.250000000000000000e+02,5.080000000000000000e+02,1.610000000000000000e+02,4.100000000000000000e+01,2.430000000000000000e+02,1.260000000000000000e+02,7.400000000000000000e+01,6.400000000000000133e-01,1.556356300000000000e+09
7.500000000000000000e+01,2.550000000000000000e+02,4.620000000000000000e+02,1.650000000000000000e+02,4.200000000000000000e+01,2.440000000000000000e+02,1.110000000000000000e+02,1.110000000000000000e+02,6.500000000000000222e-01,1.575679500000000000e+09
7.700000000000000000e+01,2.650000000000000000e+02,5.270000000000000000e+02,1.750000000000000000e+02,4.600000000000000000e+01,2.410000000000000000e+02,1.110000000000000000e+02,1.140000000000000000e+02,6.500000000000000222e-01,1.593857200000000000e+09
8.400000000000000000e+01,3.220000000000000000e+02,6.100000000000000000e+02,1.930000000000000000e+02,4.800000000000000000e+01,2.460000000000000000e+02,1.100000000000000000e+02,1.170000000000000000e+02,6.500000000000000222e-01,1.611676800000000000e+09
9.600000000000000000e+01,3.640000000000000000e+02,5.970000000000000000e+02,2.140000000000000000e+02,5.300000000000000000e+01,2.400000000000000000e+02,9.800000000000000000e+01,1.190000000000000000e+02,6.500000000000000222e-01,1.630101600000000000e+09
9.100000000000000000e+01,3.630000000000000000e+02,5.950000000000000000e+02,2.290000000000000000e+02,5.700000000000000000e+01,2.110000000000000000e+02,7.400000000000000000e+01,1.030000000000000000e+02,6.500000000000000222e-01,1.648509500000000000e+09
8.500000000000000000e+01,3.520000000000000000e+02,6.860000000000000000e+02,2.390000000000000000e+02,5.700000000000000000e+01,1.710000000000000000e+02,5.400000000000000000e+01,6.200000000000000000e+01,6.500000000000000222e-01,1.668526900000000000e+09
8.800000000000000000e+01,3.960000000000000000e+02,7.450000000000000000e+02,2.360000000000000000e+02,6.200000000000000000e+01,1.540000000000000000e+02,4.800000000000000000e+01,5.600000000000000000e+01,6.400000000000000133e-01,1.686529600000000000e+09
8.900000000000000000e+01,3.790000000000000000e+02,7.330000000000000000e+02,2.150000000000000000e+02,6.900000000000000000e+01,1.440000000000000000e+02,4.900000000000000000e+01,5.300000000000000000e+01,6.300000000000000044e-01,1.705428400000000000e+09
7.800000000000000000e+01,3.740000000000000000e+02,7.700000000000000000e+02,1.910000000000000000e+02,7.500000000000000000e+01,1.480000000000000000e+02,4.600000000000000000e+01,5.000000000000000000e+01,6.199999999999999956e-01,1.723625600000000000e+09
7.600000000000000000e+01,3.740000000000000000e+02,8.090000000000000000e+02,1.700000000000000000e+02,7.500000000000000000e+01,1.070000000000000000e+02,4.000000000000000000e+01,4.200000000000000000e+01,5.999999999999999778e-01,1.742736000000000000e+09
7.600000000000000000e+01,3.700000000000000000e+02,7.650000000000000000e+02,1.450000000000000000e+02,7.500000000000000000e+01,8.700000000000000000e+01,3.600000000000000000e+01,4.100000000000000000e+01,5.899999999999999689e-01,1.761526700000000000e+09
8.200000000000000000e+01,3.280000000000000000e+02,7.410000000000000000e+02,1.630000000000000000e+02,7.600000000000000000e+01,8.700000000000000000e+01,3.600000000000000000e+01,5.000000000000000000e+01,5.799999999999999600e-01,1.779890900000000000e+09
7.100000000000000000e+01,2.970000000000000000e+02,7.550000000000000000e+02,1.640000000000000000e+02,6.900000000000000000e+01,8.600000000000000000e+01,3.300000000000000000e+01,4.700000000000000000e+01,5.600000000000000533e-01,1.797762100000000000e+09
6.900000000000000000e+01,2.230000000000000000e+02,7.150000000000000000e+02,1.700000000000000000e+02,6.100000000000000000e+01,9.500000000000000000e+01,4.900000000000000000e+01,8.400000000000000000e+01,5.500000000000000444e-01,1.815852400000000000e+09
7.100000000000000000e+01,2.170000000000000000e+02,6.820000000000000000e+02,1.680000000000000000e+02,6.100000000000000000e+01,1.880000000000000000e+02,8.300000000000000000e+01,1.460000000000000000e+02,5.400000000000000355e-01,1.834296000000000000e+09
7.200000000000000000e+01,1.950000000000000000e+02,6.730000000000000000e+02,1.710000000000000000e+02,5.700000000000000000e+01,2.090000000000000000e+02,8.800000000000000000e+01,1.620000000000000000e+02,5.200000000000000178e-01,1.853216100000000000e+09
7.100000000000000000e+01,1.690000000000000000e+02,5.770000000000000000e+02,1.380000000000000000e+02,4.800000000000000000e+01,2.450000000000000000e+02,1.080000000000000000e+02,2.150000000000000000e+02,5.100000000000000089e-01,1.871048000000000000e+09
7.700000000000000000e+01,1.470000000000000000e+02,5.240000000000000000e+02,1.290000000000000000e+02,5.100000000000000000e+01,2.840000000000000000e+02,1.170000000000000000e+02,2.970000000000000000e+02,5.000000000000000000e-01,1.888945400000000000e+09
8.300000000000000000e+01,1.370000000000000000e+02,5.160000000000000000e+02,9.600000000000000000e+01,4.400000000000000000e+01,2.860000000000000000e+02,1.160000000000000000e+02,3.720000000000000000e+02,4.899999999999999911e-01,1.907619400000000000e+09
8.400000000000000000e+01,1.160000000000000000e+02,5.360000000000000000e+02,9.700000000000000000e+01,4.500000000000000000e+01,2.550000000000000000e+02,1.100000000000000000e+02,4.670000000000000000e+02,4.799999999999999822e-01,1.925797900000000000e+09
8.700000000000000000e+01,9.800000000000000000e+01,5.400000000000000000e+02,9.000000000000000000e+01,4.500000000000000000e+01,2.460000000000000000e+02,1.200000000000000000e+02,5.360000000000000000e+02,4.799999999999999822e-01,1.943597900000000000e+09
8.100000000000000000e+01,8.700000000000000000e+01,6.020000000000000000e+02,1.020000000000000000e+02,4.500000000000000000e+01,2.200000000000000000e+02,1.120000000000000000e+02,5.730000000000000000e+02,4.699999999999999734e-01,1.961524400000000000e+09
8.300000000000000000e+01,8.100000000000000000e+01,6.240000000000000000e+02,1.060000000000000000e+02,4.100000000000000000e+01,1.710000000000000000e+02,1.120000000000000000e+02,6.210000000000000000e+02,4.600000000000000200e-01,1.979206800000000000e+09
1.070000000000000000e+02,1.030000000000000000e+02,6.730000000000000000e+02,1.160000000000000000e+02,4.500000000000000000e+01,1.980000000000000000e+02,1.180000000000000000e+02,7.170000000000000000e+02,4.500000000000000111e-01,1.997336300000000000e+09
1.090000000000000000e+02,1.200000000000000000e+02,6.520000000000000000e+02,1.260000000000000000e+02,4.000000000000000000e+01,2.470000000000000000e+02,1.130000000000000000e+02,6.970000000000000000e+02,4.400000000000000022e-01,2.015540200000000000e+09
1.090000000000000000e+02,1.260000000000000000e+02,6.150000000000000000e+02,1.310000000000000000e+02,4.000000000000000000e+01,2.540000000000000000e+02,1.070000000000000000e+02,7.190000000000000000e+02,4.299999999999999933e-01,2.035058200000000000e+09
1.200000000000000000e+02,1.240000000000000000e+02,5.390000000000000000e+02,1.180000000000000000e+02,3.800000000000000000e+01,2.460000000000000000e+02,1.290000000000000000e+02,7.190000000000000000e+02,4.199999999999999845e-01,2.053147800000000000e+09
1.150000000000000000e+02,1.380000000000000000e+02,4.940000000000000000e+02,1.120000000000000000e+02,3.900000000000000000e+01,2.530000000000000000e+02,1.350000000000000000e+02,6.730000000000000000e+02,4.099999999999999756e-01,2.071713700000000000e+09
1.000000000000000000e+02,1.610000000000000000e+02,4.830000000000000000e+02,1.510000000000000000e+02,5.400000000000000000e+01,2.330000000000000000e+02,1.370000000000000000e+02,5.840000000000000000e+02,3.900000000000000133e-01,2.090937000000000000e+09
9.900000000000000000e+01,1.860000000000000000e+02,4.910000000000000000e+02,1.380000000000000000e+02,5.500000000000000000e+01,1.590000000000000000e+02,1.330000000000000000e+02,5.450000000000000000e+02,3.900000000000000133e-01,2.109198900000000000e+09
1.000000000000000000e+02,1.880000000000000000e+02,4.780000000000000000e+02,1.300000000000000000e+02,5.500000000000000000e+01,1.940000000000000000e+02,1.610000000000000000e+02,4.980000000000000000e+02,3.800000000000000044e-01,2.127513400000000000e+09
8.700000000000000000e+01,1.890000000000000000e+02,5.040000000000000000e+02,1.260000000000000000e+02,5.500000000000000000e+01,1.940000000000000000e+02,1.740000000000000000e+02,4.970000000000000000e+02,3.800000000000000044e-01,2.146398300000000000e+09
8.600000000000000000e+01,1.790000000000000000e+02,4.870000000000000000e+02,1.270000000000000000e+02,5.400000000000000000e+01,1.850000000000000000e+02,1.690000000000000000e+02,4.690000000000000000e+02,3.699999999999999956e-01,2.164633500000000000e+09
7.000000000000000000e+01,1.570000000000000000e+02,3.940000000000000000e+02,6.700000000000000000e+01,3.200000000000000000e+01,1.690000000000000000e+02,1.620000000000000000e+02,3.970000000000000000e+02,3.699999999999999956e-01,2.183676100000000000e+09
7.200000000000000000e+01,1.270000000000000000e+02,5.610000000000000000e+02,8.200000000000000000e+01,3.100000000000000000e+01,1.620000000000000000e+02,1.620000000000000000e+02,3.720000000000000000e+02,3.699999999999999956e-01,2.203446600000000000e+09
6.800000000000000000e+01,1.290000000000000000e+02,6.420000000000000000e+02,9.600000000000000000e+01,3.600000000000000000e+01,7.700000000000000000e+01,1.290000000000000000e+02,2.930000000000000000e+02,3.699999999999999956e-01,2.221740300000000000e+09
6.500000000000000000e+01,1.350000000000000000e+02,7.930000000000000000e+02,1.120000000000000000e+02,3.700000000000000000e+01,7.300000000000000000e+01,7.000000000000000000e+01,1.630000000000000000e+02,3.699999999999999956e-01,2.240302800000000000e+09
6.200000000000000000e+01,1.360000000000000000e+02,8.000000000000000000e+02,1.170000000000000000e+02,3.500000000000000000e+01,5.600000000000000000e+01,5.400000000000000000e+01,1.380000000000000000e+02,3.800000000000000044e-01,2.259078800000000000e+09
5.800000000000000000e+01,1.170000000000000000e+02,8.240000000000000000e+02,1.140000000000000000e+02,3.400000000000000000e+01,4.900000000000000000e+01,5.100000000000000000e+01,1.760000000000000000e+02,3.800000000000000044e-01,2.278361300000000000e+09
5.300000000000000000e+01,1.060000000000000000e+02,7.120000000000000000e+02,1.150000000000000000e+02,3.300000000000000000e+01,5.100000000000000000e+01,5.100000000000000000e+01,2.290000000000000000e+02,3.900000000000000133e-01,2.295930900000000000e+09
5.700000000000000000e+01,1.190000000000000000e+02,6.630000000000000000e+02,1.480000000000000000e+02,4.100000000000000000e+01,5.100000000000000000e+01,4.900000000000000000e+01,2.300000000000000000e+02,4.000000000000000222e-01,2.314905000000000000e+09
5.300000000000000000e+01,1.160000000000000000e+02,4.750000000000000000e+02,1.450000000000000000e+02,4.000000000000000000e+01,4.700000000000000000e+01,4.700000000000000000e+01,2.330000000000000000e+02,4.099999999999999756e-01,2.332965300000000000e+09
5.200000000000000000e+01,1.200000000000000000e+02,4.730000000000000000e+02,1.550000000000000000e+02,4.400000000000000000e+01,5.800000000000000000e+01,4.800000000000000000e+01,2.330000000000000000e+02,4.199999999999999845e-01,2.352339700000000000e+09
5.000000000000000000e+01,1.220000000000000000e+02,4.930000000000000000e+02,1.580000000000000000e+02,4.500000000000000000e+01,5.600000000000000000e+01,4.100000000000000000e+01,2.180000000000000000e+02,4.299999999999999933e-01,2.371683600000000000e+09
5.400000000000000000e+01,1.330000000000000000e+02,5.230000000000000000e+02,1.740000000000000000e+02,5.200000000000000000e+01,5.100000000000000000e+01,3.500000000000000000e+01,1.620000000000000000e+02,4.400000000000000022e-01,2.390269400000000000e+09
5.100000000000000000e+01,1.240000000000000000e+02,6.320000000000000000e+02,1.730000000000000000e+02,4.700000000000000000e+01,6.200000000000000000e+01,3.200000000000000000e+01,1.680000000000000000e+02,4.600000000000000200e-01,2.409716800000000000e+09
5.500000000000000000e+01,1.180000000000000000e+02,6.430000000000000000e+02,1.720000000000000000e+02,4.900000000000000000e+01,6.500000000000000000e+01,3.500000000000000000e+01,1.910000000000000000e+02,4.600000000000000200e-01,2.427890000000000000e+09
5.800000000000000000e+01,1.080000000000000000e+02,6.410000000000000000e+02,1.600000000000000000e+02,4.700000000000000000e+01,7.400000000000000000e+01,5.100000000000000000e+01,1.960000000000000000e+02,4.699999999999999734e-01,2.447137600000000000e+09
6.400000000000000000e+01,1.230000000000000000e+02,5.940000000000000000e+02,1.860000000000000000e+02,5.100000000000000000e+01,9.200000000000000000e+01,6.200000000000000000e+01,1.890000000000000000e+02,4.799999999999999822e-01,2.465365700000000000e+09
8.200000000000000000e+01,1.770000000000000000e+02,5.830000000000000000e+02,2.310000000000000000e+02,7.000000000000000000e+01,1.000000000000000000e+02,6.900000000000000000e+01,1.990000000000000000e+02,4.899999999999999911e-01,2.483766400000000000e+09
8.200000000000000000e+01,1.910000000000000000e+02,5.620000000000000000e+02,2.230000000000000000e+02,7.200000000000000000e+01,1.070000000000000000e+02,7.100000000000000000e+01,1.890000000000000000e+02,4.899999999999999911e-01,2.501737800000000000e+09
8.100000000000000000e+01,2.080000000000000000e+02,6.040000000000000000e+02,2.450000000000000000e+02,7.500000000000000000e+01,1.050000000000000000e+02,7.000000000000000000e+01,1.620000000000000000e+02,5.000000000000000000e-01,2.520609000000000000e+09
8.800000000000000000e+01,2.490000000000000000e+02,7.320000000000000000e+02,2.680000000000000000e+02,8.900000000000000000e+01,1.000000000000000000e+02,6.100000000000000000e+01,1.560000000000000000e+02,5.000000000000000000e-01,2.538388000000000000e+09
1.030000000000000000e+02,2.760000000000000000e+02,8.120000000000000000e+02,3.290000000000000000e+02,1.440000000000000000e+02,1.160000000000000000e+02,5.800000000000000000e+01,1.210000000000000000e+02,4.899999999999999911e-01,2.556468000000000000e+09
1.120000000000000000e+02,2.880000000000000000e+02,8.740000000000000000e+02,3.830000000000000000e+02,1.500000000000000000e+02,1.100000000000000000e+02,5.500000000000000000e+01,9.200000000000000000e+01,4.799999999999999822e-01,2.573600600000000000e+09
1.340000000000000000e+02,3.350000000000000000e+02,9.470000000000000000e+02,4.650000000000000000e+02,1.630000000000000000e+02,1.060000000000000000e+02,5.800000000000000000e+01,9.300000000000000000e+01,4.699999999999999734e-01,2.590957300000000000e+09
1.530000000000000000e+02,3.800000000000000000e+02,1.141000000000000000e+03,5.460000000000000000e+02,1.820000000000000000e+02,1.170000000000000000e+02,6.500000000000000000e+01,9.900000000000000000e+01,4.500000000000000111e-01,2.609364200000000000e+09
1.700000000000000000e+02,4.440000000000000000e+02,1.260000000000000000e+03,6.380000000000000000e+02,1.940000000000000000e+02,1.230000000000000000e+02,6.900000000000000000e+01,1.010000000000000000e+02,4.299999999999999933e-01,2.626467200000000000e+09
1.700000000000000000e+02,4.720000000000000000e+02,1.248000000000000000e+03,6.640000000000000000e+02,1.820000000000000000e+02,1.060000000000000000e+02,6.500000000000000000e+01,9.500000000000000000e+01,4.099999999999999756e-01,2.642928700000000000e+09
1.620000000000000000e+02,4.490000000000000000e+02,1.266000000000000000e+03,6.620000000000000000e+02,1.840000000000000000e+02,1.100000000000000000e+02,6.200000000000000000e+01,9.300000000000000000e+01,3.900000000000000133e-01,2.660647000000000000e+09
1.480000000000000000e+02,4.320000000000000000e+02,1.235000000000000000e+03,6.210000000000000000e+02,1.750000000000000000e+02,1.040000000000000000e+02,5.800000000000000000e+01,8.500000000000000000e+01,3.699999999999999956e-01,2.678265600000000000e+09
1.530000000000000000e+02,4.420000000000000000e+02,1.087000000000000000e+03,6.070000000000000000e+02,1.760000000000000000e+02,1.110000000000000000e+02,5.800000000000000000e+01,8.600000000000000000e+01,3.499999999999999778e-01,2.695298400000000000e+09
1.480000000000000000e+02,4.180000000000000000e+02,1.029000000000000000e+03,5.380000000000000000e+02,1.720000000000000000e+02,1.060000000000000000e+02,5.700000000000000000e+01,8.700000000000000000e+01,3.300000000000000155e-01,2.711601200000000000e+09
1.630000000000000000e+02,5.040000000000000000e+02,1.190000000000000000e+03,5.290000000000000000e+02,1.570000000000000000e+02,1.040000000000000000e+02,6.300000000000000000e+01,9.000000000000000000e+01,2.999999999999999889e-01,2.728352600000000000e+09
1.710000000000000000e+02,5.740000000000000000e+02,1.200000000000000000e+03,5.550000000000000000e+02,1.640000000000000000e+02,1.080000000000000000e+02,6.800000000000000000e+01,9.300000000000000000e+01,2.800000000000000266e-01,2.745068900000000000e+09
1.780000000000000000e+02,5.690000000000000000e+02,1.173000000000000000e+03,5.700000000000000000e+02,1.760000000000000000e+02,1.140000000000000000e+02,6.900000000000000000e+01,9.500000000000000000e+01,2.600000000000000089e-01,2.761472900000000000e+09
1.950000000000000000e+02,5.860000000000000000e+02,1.232000000000000000e+03,5.860000000000000000e+02,1.980000000000000000e+02,1.130000000000000000e+02,7.900000000000000000e+01,1.040000000000000000e+02,2.500000000000000000e-01,2.778425800000000000e+09
1.960000000000000000e+02,5.970000000000000000e+02,1.236000000000000000e+03,6.100000000000000000e+02,2.020000000000000000e+02,1.130000000000000000e+02,8.100000000000000000e+01,1.030000000000000000e+02,2.300000000000000100e-01,2.795082300000000000e+09
1.780000000000000000e+02,5.150000000000000000e+02,1.144000000000000000e+03,6.580000000000000000e+02,2.060000000000000000e+02,1.120000000000000000e+02,7.500000000000000000e+01,9.500000000000000000e+01,2.200000000000000011e-01,2.812361700000000000e+09
1.690000000000000000e+02,4.580000000000000000e+02,1.087000000000000000e+03,6.600000000000000000e+02,2.120000000000000000e+02,1.150000000000000000e+02,6.900000000000000000e+01,9.200000000000000000e+01,2.099999999999999922e-01,2.829338700000000000e+09
1.680000000000000000e+02,4.840000000000000000e+02,1.092000000000000000e+03,7.350000000000000000e+02,2.120000000000000000e+02,1.190000000000000000e+02,6.900000000000000000e+01,9.200000000000000000e+01,2.000000000000000111e-01,2.846434100000000000e+09
1.440000000000000000e+02,4.630000000000000000e+02,1.037000000000000000e+03,7.200000000000000000e+02,1.850000000000000000e+02,1.100000000000000000e+02,5.400000000000000000e+01,7.800000000000000000e+01,1.900000000000000022e-01,2.863435200000000000e+09
1.430000000000000000e+02,4.240000000000000000e+02,9.490000000000000000e+02,7.420000000000000000e+02,1.840000000000000000e+02,1.120000000000000000e+02,5.200000000000000000e+01,7.800000000000000000e+01,1.799999999999999933e-01,2.879794100000000000e+09
1.500000000000000000e+02,4.350000000000000000e+02,8.880000000000000000e+02,7.190000000000000000e+02,1.930000000000000000e+02,1.110000000000000000e+02,5.600000000000000000e+01,8.200000000000000000e+01,1.799999999999999933e-01,2.896285100000000000e+09
1.780000000000000000e+02,4.300000000000000000e+02,8.920000000000000000e+02,7.770000000000000000e+02,2.140000000000000000e+02,1.150000000000000000e+02,6.900000000000000000e+01,1.000000000000000000e+02,1.700000000000000122e-01,2.913033800000000000e+09
1.990000000000000000e+02,4.790000000000000000e+02,9.370000000000000000e+02,7.270000000000000000e+02,2.220000000000000000e+02,1.170000000000000000e+02,7.600000000000000000e+01,1.100000000000000000e+02,1.700000000000000122e-01,2.929984500000000000e+09
2.030000000000000000e+02,5.060000000000000000e+02,8.960000000000000000e+02,7.000000000000000000e+02,2.300000000000000000e+02,1.430000000000000000e+02,7.700000000000000000e+01,1.110000000000000000e+02,1.600000000000000033e-01,2.946752500000000000e+09
1.980000000000000000e+02,5.400000000000000000e+02,9.020000000000000000e+02,6.780000000000000000e+02,2.280000000000000000e+02,1.430000000000000000e+02,7.600000000000000000e+01,1.070000000000000000e+02,1.600000000000000033e-01,2.962907100000000000e+09
2.420000000000000000e+02,5.770000000000000000e+02,9.640000000000000000e+02,7.620000000000000000e+02,2.730000000000000000e+02,1.630000000000000000e+02,8.900000000000000000e+01,1.310000000000000000e+02,1.499999999999999944e-01,2.980129100000000000e+09
2.370000000000000000e+02,6.250000000000000000e+02,1.121000000000000000e+03,6.910000000000000000e+02,2.500000000000000000e+02,1.630000000000000000e+02,8.200000000000000000e+01,1.250000000000000000e+02,1.499999999999999944e-01,2.997625400000000000e+09
2.190000000000000000e+02,5.730000000000000000e+02,1.144000000000000000e+03,6.660000000000000000e+02,2.380000000000000000e+02,1.580000000000000000e+02,7.600000000000000000e+01,1.170000000000000000e+02,1.499999999999999944e-01,3.013975200000000000e+09
2.030000000000000000e+02,5.240000000000000000e+02,1.131000000000000000e+03,6.490000000000000000e+02,2.230000000000000000e+02,1.320000000000000000e+02,7.100000000000000000e+01,1.110000000000000000e+02,1.400000000000000133e-01,3.030789400000000000e+09
2.180000000000000000e+02,5.400000000000000000e+02,1.125000000000000000e+03,7.080000000000000000e+02,2.290000000000000000e+02,1.330000000000000000e+02,7.500000000000000000e+01,1.190000000000000000e+02,1.400000000000000133e-01,3.048162200000000000e+09
1.850000000000000000e+02,5.630000000000000000e+02,1.067000000000000000e+03,5.640000000000000000e+02,1.610000000000000000e+02,1.110000000000000000e+02,6.000000000000000000e+01,1.000000000000000000e+02,1.400000000000000133e-01,3.065082100000000000e+09
1.610000000000000000e+02,5.090000000000000000e+02,9.000000000000000000e+02,5.400000000000000000e+02,1.430000000000000000e+02,9.300000000000000000e+01,5.300000000000000000e+01,8.700000000000000000e+01,1.400000000000000133e-01,3.083175100000000000e+09
1.610000000000000000e+02,5.190000000000000000e+02,7.950000000000000000e+02,5.240000000000000000e+02,1.430000000000000000e+02,9.400000000000000000e+01,5.200000000000000000e+01,8.600000000000000000e+01,1.400000000000000133e-01,3.100069900000000000e+09
1.680000000000000000e+02,5.370000000000000000e+02,9.410000000000000000e+02,5.640000000000000000e+02,1.610000000000000000e+02,1.110000000000000000e+02,5.700000000000000000e+01,9.100000000000000000e+01,1.400000000000000133e-01,3.117702400000000000e+09
1.610000000000000000e+02,5.310000000000000000e+02,9.420000000000000000e+02,4.470000000000000000e+02,1.560000000000000000e+02,1.150000000000000000e+02,5.500000000000000000e+01,8.700000000000000000e+01,1.400000000000000133e-01,3.135327800000000000e+09
1.410000000000000000e+02,4.590000000000000000e+02,9.970000000000000000e+02,4.720000000000000000e+02,1.570000000000000000e+02,1.110000000000000000e+02,5.400000000000000000e+01,7.800000000000000000e+01,1.300000000000000044e-01,3.152593800000000000e+09
1.410000000000000000e+02,4.630000000000000000e+02,1.040000000000000000e+03,4.900000000000000000e+02,1.640000000000000000e+02,1.140000000000000000e+02,5.700000000000000000e+01,8.000000000000000000e+01,1.300000000000000044e-01,3.169736600000000000e+09
1.460000000000000000e+02,4.470000000000000000e+02,1.179000000000000000e+03,5.300000000000000000e+02,1.780000000000000000e+02,1.110000000000000000e+02,6.100000000000000000e+01,8.700000000000000000e+01,1.300000000000000044e-01,3.187254100000000000e+09
1.370000000000000000e+02,4.300000000000000000e+02,1.065000000000000000e+03,4.830000000000000000e+02,1.670000000000000000e+02,9.700000000000000000e+01,5.800000000000000000e+01,8.000000000000000000e+01,1.300000000000000044e-01,3.205791500000000000e+09
1.140000000000000000e+02,3.650000000000000000e+02,1.035000000000000000e+03,4.900000000000000000e+02,1.590000000000000000e+02,8.700000000000000000e+01,5.400000000000000000e+01,7.100000000000000000e+01,1.400000000000000133e-01,3.223942700000000000e+09
1.010000000000000000e+02,3.320000000000000000e+02,1.074000000000000000e+03,4.360000000000000000e+02,1.450000000000000000e+02,7.900000000000000000e+01,4.900000000000000000e+01,6.400000000000000000e+01,1.400000000000000133e-01,3.241250600000000000e+09
1.170000000000000000e+02,2.990000000000000000e+02,1.073000000000000000e+03,4.260000000000000000e+02,1.610000000000000000e+02,8.600000000000000000e+01,5.100000000000000000e+01,7.200000000000000000e+01,1.400000000000000133e-01,3.259118600000000000e+09
1.030000000000000000e+02,2.920000000000000000e+02,9.940000000000000000e+02,3.790000000000000000e+02,1.460000000000000000e+02,8.600000000000000000e+01,4.600000000000000000e+01,6.400000000000000000e+01,1.499999999999999944e-01,3.277639600000000000e+09
1.070000000000000000e+02,3.130000000000000000e+02,1.025000000000000000e+03,3.830000000000000000e+02,1.410000000000000000e+02,8.600000000000000000e+01,4.500000000000000000e+01,6.400000000000000000e+01,1.499999999999999944e-01,3.296334800000000000e+09
1.200000000000000000e+02,3.330000000000000000e+02,1.011000000000000000e+03,3.910000000000000000e+02,1.510000000000000000e+02,9.400000000000000000e+01,4.600000000000000000e+01,6.900000000000000000e+01,1.400000000000000133e-01,3.314610700000000000e+09
1.290000000000000000e+02,3.430000000000000000e+02,9.110000000000000000e+02,3.990000000000000000e+02,1.630000000000000000e+02,1.020000000000000000e+02,5.200000000000000000e+01,7.300000000000000000e+01,1.400000000000000133e-01,3.331919600000000000e+09
1.310000000000000000e+02,3.830000000000000000e+02,8.540000000000000000e+02,3.510000000000000000e+02,1.530000000000000000e+02,9.800000000000000000e+01,5.500000000000000000e+01,7.500000000000000000e+01,1.499999999999999944e-01,3.349373500000000000e+09
1.260000000000000000e+02,3.830000000000000000e+02,7.510000000000000000e+02,3.320000000000000000e+02,1.460000000000000000e+02,9.300000000000000000e+01,5.200000000000000000e+01,6.900000000000000000e+01,1.499999999999999944e-01,3.367554200000000000e+09
1.330000000000000000e+02,3.610000000000000000e+02,7.060000000000000000e+02,3.440000000000000000e+02,1.560000000000000000e+02,9.200000000000000000e+01,5.500000000000000000e+01,7.800000000000000000e+01,1.600000000000000033e-01,3.386355600000000000e+09
1.180000000000000000e+02,3.300000000000000000e+02,7.520000000000000000e+02,3.170000000000000000e+02,1.450000000000000000e+02,8.700000000000000000e+01,5.400000000000000000e+01,7.100000000000000000e+01,1.600000000000000033e-01,3.404543600000000000e+09
1.120000000000000000e+02,3.580000000000000000e+02,7.950000000000000000e+02,3.100000000000000000e+02,1.360000000000000000e+02,8.200000000000000000e+01,5.200000000000000000e+01,6.900000000000000000e+01,1.700000000000000122e-01,3.422719200000000000e+09
9.300000000000000000e+01,3.360000000000000000e+02,8.780000000000000000e+02,2.830000000000000000e+02,1.210000000000000000e+02,7.900000000000000000e+01,4.600000000000000000e+01,5.900000000000000000e+01,1.799999999999999933e-01,3.448668900000000000e+09
9.100000000000000000e+01,3.250000000000000000e+02,8.810000000000000000e+02,2.770000000000000000e+02,1.170000000000000000e+02,7.400000000000000000e+01,4.600000000000000000e+01,5.900000000000000000e+01,1.799999999999999933e-01,3.466500000000000000e+09
7.800000000000000000e+01,3.060000000000000000e+02,9.080000000000000000e+02,2.480000000000000000e+02,9.900000000000000000e+01,7.000000000000000000e+01,4.400000000000000000e+01,4.800000000000000000e+01,1.799999999999999933e-01,3.485164200000000000e+09
8.000000000000000000e+01,2.890000000000000000e+02,8.940000000000000000e+02,2.190000000000000000e+02,8.200000000000000000e+01,5.700000000000000000e+01,4.200000000000000000e+01,4.800000000000000000e+01,1.900000000000000022e-01,3.502907700000000000e+09
8.200000000000000000e+01,2.510000000000000000e+02,8.390000000000000000e+02,2.260000000000000000e+02,9.300000000000000000e+01,5.900000000000000000e+01,3.900000000000000000e+01,4.600000000000000000e+01,2.000000000000000111e-01,3.522181800000000000e+09
8.000000000000000000e+01,2.480000000000000000e+02,8.230000000000000000e+02,2.390000000000000000e+02,1.030000000000000000e+02,6.500000000000000000e+01,3.700000000000000000e+01,4.300000000000000000e+01,2.099999999999999922e-01,3.540445600000000000e+09
8.000000000000000000e+01,2.450000000000000000e+02,8.120000000000000000e+02,2.540000000000000000e+02,1.070000000000000000e+02,6.900000000000000000e+01,3.800000000000000000e+01,4.200000000000000000e+01,2.300000000000000100e-01,3.560188300000000000e+09
7.900000000000000000e+01,2.310000000000000000e+02,8.590000000000000000e+02,2.530000000000000000e+02,1.050000000000000000e+02,7.200000000000000000e+01,3.600000000000000000e+01,4.200000000000000000e+01,2.399999999999999911e-01,3.582260900000000000e+09
6.800000000000000000e+01,2.300000000000000000e+02,8.600000000000000000e+02,2.310000000000000000e+02,1.060000000000000000e+02,7.300000000000000000e+01,3.300000000000000000e+01,3.800000000000000000e+01,2.500000000000000000e-01,3.605314400000000000e+09
5.800000000000000000e+01,2.070000000000000000e+02,8.290000000000000000e+02,2.170000000000000000e+02,9.600000000000000000e+01,6.900000000000000000e+01,3.000000000000000000e+01,3.700000000000000000e+01,2.600000000000000089e-01,3.623534500000000000e+09
6.100000000000000000e+01,2.000000000000000000e+02,7.900000000000000000e+02,2.200000000000000000e+02,9.500000000000000000e+01,7.000000000000000000e+01,3.800000000000000000e+01,3.900000000000000000e+01,2.700000000000000178e-01,3.641752800000000000e+09
5.900000000000000000e+01,2.020000000000000000e+02,7.820000000000000000e+02,1.920000000000000000e+02,9.500000000000000000e+01,7.200000000000000000e+01,3.600000000000000000e+01,3.800000000000000000e+01,2.800000000000000266e-01,3.659950200000000000e+09
5.200000000000000000e+01,2.030000000000000000e+02,6.480000000000000000e+02,1.890000000000000000e+02,9.600000000000000000e+01,6.600000000000000000e+01,3.400000000000000000e+01,3.500000000000000000e+01,2.999999999999999889e-01,3.680803900000000000e+09
5.300000000000000000e+01,1.890000000000000000e+02,5.510000000000000000e+02,1.790000000000000000e+02,9.100000000000000000e+01,6.200000000000000000e+01,3.400000000000000000e+01,3.400000000000000000e+01,3.200000000000000067e-01,3.702870800000000000e+09
4.900000000000000000e+01,2.350000000000000000e+02,5.460000000000000000e+02,1.660000000000000000e+02,8.200000000000000000e+01,5.900000000000000000e+01,3.500000000000000000e+01,3.200000000000000000e+01,3.300000000000000155e-01,3.721809200000000000e+09
4.500000000000000000e+01,2.300000000000000000e+02,4.970000000000000000e+02,1.230000000000000000e+02,6.700000000000000000e+01,4.300000000000000000e+01,2.700000000000000000e+01,2.900000000000000000e+01,3.499999999999999778e-01,3.740130000000000000e+09
4.600000000000000000e+01,2.370000000000000000e+02,4.360000000000000000e+02,1.730000000000000000e+02,6.700000000000000000e+01,3.700000000000000000e+01,2.600000000000000000e+01,3.000000000000000000e+01,3.699999999999999956e-01,3.762562800000000000e+09
4.500000000000000000e+01,2.390000000000000000e+02,4.180000000000000000e+02,1.760000000000000000e+02,6.100000000000000000e+01,3.600000000000000000e+01,2.600000000000000000e+01,3.000000000000000000e+01,3.900000000000000133e-01,3.780668200000000000e+09
4.400000000000000000e+01,2.350000000000000000e+02,4.010000000000000000e+02,1.720000000000000000e+02,6.200000000000000000e+01,4.100000000000000000e+01,2.600000000000000000e+01,3.100000000000000000e+01,4.000000000000000222e-01,3.804243600000000000e+09
4.000000000000000000e+01,1.850000000000000000e+02,3.660000000000000000e+02,1.640000000000000000e+02,6.600000000000000000e+01,4.300000000000000000e+01,2.400000000000000000e+01,2.900000000000000000e+01,4.199999999999999845e-01,3.823003500000000000e+09
3.700000000000000000e+01,2.160000000000000000e+02,2.670000000000000000e+02,1.640000000000000000e+02,7.000000000000000000e+01,4.700000000000000000e+01,2.600000000000000000e+01,3.000000000000000000e+01,4.400000000000000022e-01,3.840598600000000000e+09
3.800000000000000000e+01,2.130000000000000000e+02,3.070000000000000000e+02,1.080000000000000000e+02,6.100000000000000000e+01,5.100000000000000000e+01,3.100000000000000000e+01,3.000000000000000000e+01,4.600000000000000200e-01,3.867947200000000000e+09
4.000000000000000000e+01,2.460000000000000000e+02,3.480000000000000000e+02,9.600000000000000000e+01,5.900000000000000000e+01,5.300000000000000000e+01,3.100000000000000000e+01,3.100000000000000000e+01,4.799999999999999822e-01,3.886219300000000000e+09
4.000000000000000000e+01,2.520000000000000000e+02,3.500000000000000000e+02,9.000000000000000000e+01,5.800000000000000000e+01,5.100000000000000000e+01,3.100000000000000000e+01,3.000000000000000000e+01,4.899999999999999911e-01,3.903994000000000000e+09
3.900000000000000000e+01,2.450000000000000000e+02,3.440000000000000000e+02,8.400000000000000000e+01,5.100000000000000000e+01,4.800000000000000000e+01,3.100000000000000000e+01,3.000000000000000000e+01,5.100000000000000089e-01,3.923077200000000000e+09
3.100000000000000000e+01,1.880000000000000000e+02,3.260000000000000000e+02,9.500000000000000000e+01,4.600000000000000000e+01,4.400000000000000000e+01,2.800000000000000000e+01,2.600000000000000000e+01,5.200000000000000178e-01,3.941461300000000000e+09
2.800000000000000000e+01,1.690000000000000000e+02,3.010000000000000000e+02,9.300000000000000000e+01,4.300000000000000000e+01,3.500000000000000000e+01,2.300000000000000000e+01,2.400000000000000000e+01,5.300000000000000266e-01,3.963263700000000000e+09
3.600000000000000000e+01,2.120000000000000000e+02,2.890000000000000000e+02,1.060000000000000000e+02,4.500000000000000000e+01,4.000000000000000000e+01,2.400000000000000000e+01,2.800000000000000000e+01,5.400000000000000355e-01,3.981703900000000000e+09
3.800000000000000000e+01,2.180000000000000000e+02,2.890000000000000000e+02,1.110000000000000000e+02,4.700000000000000000e+01,4.300000000000000000e+01,2.500000000000000000e+01,2.700000000000000000e+01,5.500000000000000444e-01,4.002267500000000000e+09
3.800000000000000000e+01,2.250000000000000000e+02,2.860000000000000000e+02,1.110000000000000000e+02,4.600000000000000000e+01,4.400000000000000000e+01,2.600000000000000000e+01,2.800000000000000000e+01,5.600000000000000533e-01,4.020975800000000000e+09
3.700000000000000000e+01,2.250000000000000000e+02,2.690000000000000000e+02,1.000000000000000000e+02,4.300000000000000000e+01,4.300000000000000000e+01,2.400000000000000000e+01,2.800000000000000000e+01,5.600000000000000533e-01,4.041113400000000000e+09
3.800000000000000000e+01,2.250000000000000000e+02,2.620000000000000000e+02,9.200000000000000000e+01,4.300000000000000000e+01,4.500000000000000000e+01,2.500000000000000000e+01,2.900000000000000000e+01,5.699999999999999512e-01,4.064273400000000000e+09
3.200000000000000000e+01,1.730000000000000000e+02,2.390000000000000000e+02,8.100000000000000000e+01,4.200000000000000000e+01,3.900000000000000000e+01,2.500000000000000000e+01,2.600000000000000000e+01,5.699999999999999512e-01,4.085382000000000000e+09
3.200000000000000000e+01,1.710000000000000000e+02,4.700000000000000000e+02,8.300000000000000000e+01,4.000000000000000000e+01,3.600000000000000000e+01,2.600000000000000000e+01,2.800000000000000000e+01,5.799999999999999600e-01,4.103777000000000000e+09
3.200000000000000000e+01,1.640000000000000000e+02,4.820000000000000000e+02,9.700000000000000000e+01,4.000000000000000000e+01,3.400000000000000000e+01,2.500000000000000000e+01,2.600000000000000000e+01,5.799999999999999600e-01,4.122568100000000000e+09
3.300000000000000000e+01,1.660000000000000000e+02,5.040000000000000000e+02,9.000000000000000000e+01,4.000000000000000000e+01,3.500000000000000000e+01,2.500000000000000000e+01,2.800000000000000000e+01,5.799999999999999600e-01,4.145291900000000000e+09
3.300000000000000000e+01,1.650000000000000000e+02,4.970000000000000000e+02,1.110000000000000000e+02,4.000000000000000000e+01,3.500000000000000000e+01,2.400000000000000000e+01,2.700000000000000000e+01,5.899999999999999689e-01,4.167526500000000000e+09
2.900000000000000000e+01,1.280000000000000000e+02,5.080000000000000000e+02,1.300000000000000000e+02,4.100000000000000000e+01,4.800000000000000000e+01,2.500000000000000000e+01,2.500000000000000000e+01,5.899999999999999689e-01,4.186397200000000000e+09
3.200000000000000000e+01,1.040000000000000000e+02,3.690000000000000000e+02,1.380000000000000000e+02,4.000000000000000000e+01,5.500000000000000000e+01,2.600000000000000000e+01,2.500000000000000000e+01,5.999999999999999778e-01,4.205548900000000000e+09
3.200000000000000000e+01,1.050000000000000000e+02,4.250000000000000000e+02,1.320000000000000000e+02,4.000000000000000000e+01,5.400000000000000000e+01,2.600000000000000000e+01,2.500000000000000000e+01,5.999999999999999778e-01,4.224140100000000000e+09
3.000000000000000000e+01,1.010000000000000000e+02,4.290000000000000000e+02,1.290000000000000000e+02,3.800000000000000000e+01,5.600000000000000000e+01,2.600000000000000000e+01,2.200000000000000000e+01,5.999999999999999778e-01,4.243325700000000000e+09
3.300000000000000000e+01,1.060000000000000000e+02,5.180000000000000000e+02,1.140000000000000000e+02,3.600000000000000000e+01,5.600000000000000000e+01,2.500000000000000000e+01,2.500000000000000000e+01,6.099999999999999867e-01,4.265936100000000000e+09
3.500000000000000000e+01,9.500000000000000000e+01,5.230000000000000000e+02,9.100000000000000000e+01,3.400000000000000000e+01,5.000000000000000000e+01,2.800000000000000000e+01,2.700000000000000000e+01,6.099999999999999867e-01,4.285685200000000000e+09
3.000000000000000000e+01,9.500000000000000000e+01,5.470000000000000000e+02,9.600000000000000000e+01,3.100000000000000000e+01,4.400000000000000000e+01,2.600000000000000000e+01,2.500000000000000000e+01,6.099999999999999867e-01,4.309738800000000000e+09
3.500000000000000000e+01,9.000000000000000000e+01,5.370000000000000000e+02,1.110000000000000000e+02,3.500000000000000000e+01,4.400000000000000000e+01,2.900000000000000000e+01,2.700000000000000000e+01,6.099999999999999867e-01,4.327468600000000000e+09
3.600000000000000000e+01,9.000000000000000000e+01,5.530000000000000000e+02,1.080000000000000000e+02,3.300000000000000000e+01,4.100000000000000000e+01,2.900000000000000000e+01,2.800000000000000000e+01,6.199999999999999956e-01,4.346774200000000000e+09
3.600000000000000000e+01,8.300000000000000000e+01,5.010000000000000000e+02,1.130000000000000000e+02,3.400000000000000000e+01,4.200000000000000000e+01,3.000000000000000000e+01,2.900000000000000000e+01,6.199999999999999956e-01,4.369993900000000000e+09
3.800000000000000000e+01,1.280000000000000000e+02,5.780000000000000000e+02,1.430000000000000000e+02,3.500000000000000000e+01,3.300000000000000000e+01,2.600000000000000000e+01,2.700000000000000000e+01,6.199999999999999956e-01,4.389188000000000000e+09
3.900000000000000000e+01,1.380000000000000000e+02,5.210000000000000000e+02,1.410000000000000000e+02,4.000000000000000000e+01,3.100000000000000000e+01,2.800000000000000000e+01,3.000000000000000000e+01,6.199999999999999956e-01,4.407103100000000000e+09
3.700000000000000000e+01,1.460000000000000000e+02,5.270000000000000000e+02,1.310000000000000000e+02,3.600000000000000000e+01,2.800000000000000000e+01,2.600000000000000000e+01,2.900000000000000000e+01,6.199999999999999956e-01,4.424962900000000000e+09
4.200000000000000000e+01,1.610000000000000000e+02,5.970000000000000000e+02,1.510000000000000000e+02,4.300000000000000000e+01,3.400000000000000000e+01,2.600000000000000000e+01,2.900000000000000000e+01,6.199999999999999956e-01,4.452209500000000000e+09
4.000000000000000000e+01,1.570000000000000000e+02,5.790000000000000000e+02,1.490000000000000000e+02,4.200000000000000000e+01,4.500000000000000000e+01,2.600000000000000000e+01,2.700000000000000000e+01,6.300000000000000044e-01,4.470789100000000000e+09
3.800000000000000000e+01,1.270000000000000000e+02,5.640000000000000000e+02,1.280000000000000000e+02,4.200000000000000000e+01,4.900000000000000000e+01,2.500000000000000000e+01,2.700000000000000000e+01,6.300000000000000044e-01,4.489204400000000000e+09
4.000000000000000000e+01,1.300000000000000000e+02,6.090000000000000000e+02,1.450000000000000000e+02,4.400000000000000000e+01,5.200000000000000000e+01,2.400000000000000000e+01,2.900000000000000000e+01,6.300000000000000044e-01,4.512292000000000000e+09
3.800000000000000000e+01,1.210000000000000000e+02,5.770000000000000000e+02,1.490000000000000000e+02,4.400000000000000000e+01,5.400000000000000000e+01,2.500000000000000000e+01,3.000000000000000000e+01,6.300000000000000044e-01,4.529894600000000000e+09
3.200000000000000000e+01,1.020000000000000000e+02,5.270000000000000000e+02,1.350000000000000000e+02,4.100000000000000000e+01,5.500000000000000000e+01,2.500000000000000000e+01,2.900000000000000000e+01,6.300000000000000044e-01,4.548355300000000000e+09
3.300000000000000000e+01,1.070000000000000000e+02,5.210000000000000000e+02,1.360000000000000000e+02,4.000000000000000000e+01,4.800000000000000000e+01,2.500000000000000000e+01,3.000000000000000000e+01,6.300000000000000044e-01,4.567668200000000000e+09
3.600000000000000000e+01,1.050000000000000000e+02,4.790000000000000000e+02,1.300000000000000000e+02,3.900000000000000000e+01,4.300000000000000000e+01,2.700000000000000000e+01,3.200000000000000000e+01,6.300000000000000044e-01,4.586709400000000000e+09
2.900000000000000000e+01,9.000000000000000000e+01,4.350000000000000000e+02,9.500000000000000000e+01,3.000000000000000000e+01,3.900000000000000000e+01,2.600000000000000000e+01,2.700000000000000000e+01,6.400000000000000133e-01,4.605138400000000000e+09
3.100000000000000000e+01,9.300000000000000000e+01,4.670000000000000000e+02,8.400000000000000000e+01,3.100000000000000000e+01,3.700000000000000000e+01,2.500000000000000000e+01,2.700000000000000000e+01,6.300000000000000044e-01,4.624731500000000000e+09
3.300000000000000000e+01,9.300000000000000000e+01,4.430000000000000000e+02,7.200000000000000000e+01,2.800000000000000000e+01,3.300000000000000000e+01,2.500000000000000000e+01,2.600000000000000000e+01,6.300000000000000044e-01,4.642788000000000000e+09
3.300000000000000000e+01,9.400000000000000000e+01,5.250000000000000000e+02,7.900000000000000000e+01,3.000000000000000000e+01,2.900000000000000000e+01,2.600000000000000000e+01,2.600000000000000000e+01,6.300000000000000044e-01,4.663267600000000000e+09
3.200000000000000000e+01,9.300000000000000000e+01,4.810000000000000000e+02,8.800000000000000000e+01,2.900000000000000000e+01,3.100000000000000000e+01,2.500000000000000000e+01,2.500000000000000000e+01,6.300000000000000044e-01,4.684674500000000000e+09
3.600000000000000000e+01,1.080000000000000000e+02,5.410000000000000000e+02,8.300000000000000000e+01,2.900000000000000000e+01,3.100000000000000000e+01,2.400000000000000000e+01,2.500000000000000000e+01,6.300000000000000044e-01,4.702390000000000000e+09
3.500000000000000000e+01,1.020000000000000000e+02,5.080000000000000000e+02,8.300000000000000000e+01,2.800000000000000000e+01,2.900000000000000000e+01,2.400000000000000000e+01,2.400000000000000000e+01,6.300000000000000044e-01,4.720986300000000000e+09
3.500000000000000000e+01,9.900000000000000000e+01,5.050000000000000000e+02,8.400000000000000000e+01,2.600000000000000000e+01,2.700000000000000000e+01,2.400000000000000000e+01,2.500000000000000000e+01,6.300000000000000044e-01,4.744842500000000000e+09
3.700000000000000000e+01,1.070000000000000000e+02,4.730000000000000000e+02,8.800000000000000000e+01,3.000000000000000000e+01,3.500000000000000000e+01,2.900000000000000000e+01,2.600000000000000000e+01,6.199999999999999956e-01,4.763878300000000000e+09
3.500000000000000000e+01,1.160000000000000000e+02,5.090000000000000000e+02,9.600000000000000000e+01,2.900000000000000000e+01,3.600000000000000000e+01,2.900000000000000000e+01,2.400000000000000000e+01,6.199999999999999956e-01,4.791554700000000000e+09
3.000000000000000000e+01,1.060000000000000000e+02,4.610000000000000000e+02,9.800000000000000000e+01,3.000000000000000000e+01,3.700000000000000000e+01,2.800000000000000000e+01,2.300000000000000000e+01,6.199999999999999956e-01,4.809851200000000000e+09
3.300000000000000000e+01,1.190000000000000000e+02,4.880000000000000000e+02,1.010000000000000000e+02,3.300000000000000000e+01,3.900000000000000000e+01,2.800000000000000000e+01,2.700000000000000000e+01,6.199999999999999956e-01,4.828783700000000000e+09
3.600000000000000000e+01,1.180000000000000000e+02,4.730000000000000000e+02,1.070000000000000000e+02,3.500000000000000000e+01,3.800000000000000000e+01,2.800000000000000000e+01,2.600000000000000000e+01,6.199999999999999956e-01,4.846580600000000000e+09
3.200000000000000000e+01,1.070000000000000000e+02,4.150000000000000000e+02,9.500000000000000000e+01,3.300000000000000000e+01,4.000000000000000000e+01,2.000000000000000000e+01,2.600000000000000000e+01,6.199999999999999956e-01,4.865660900000000000e+09
3.300000000000000000e+01,9.400000000000000000e+01,3.640000000000000000e+02,8.500000000000000000e+01,3.600000000000000000e+01,3.900000000000000000e+01,2.500000000000000000e+01,2.900000000000000000e+01,6.199999999999999956e-01,4.887473800000000000e+09
3.500000000000000000e+01,1.000000000000000000e+02,3.770000000000000000e+02,9.800000000000000000e+01,3.800000000000000000e+01,3.900000000000000000e+01,2.500000000000000000e+01,3.000000000000000000e+01,6.199999999999999956e-01,4.905718100000000000e+09
3.400000000000000000e+01,9.600000000000000000e+01,3.760000000000000000e+02,1.080000000000000000e+02,3.800000000000000000e+01,3.800000000000000000e+01,2.700000000000000000e+01,2.800000000000000000e+01,6.199999999999999956e-01,4.924310000000000000e+09
3.100000000000000000e+01,9.200000000000000000e+01,3.640000000000000000e+02,1.000000000000000000e+02,3.700000000000000000e+01,3.700000000000000000e+01,2.700000000000000000e+01,2.900000000000000000e+01,6.199999999999999956e-01,4.942203600000000000e+09
3.400000000000000000e+01,9.700000000000000000e+01,4.140000000000000000e+02,9.900000000000000000e+01,3.400000000000000000e+01,2.600000000000000000e+01,2.800000000000000000e+01,2.800000000000000000e+01,6.199999999999999956e-01,4.961487200000000000e+09
3.600000000000000000e+01,1.070000000000000000e+02,4.780000000000000000e+02,1.060000000000000000e+02,3.700000000000000000e+01,2.900000000000000000e+01,2.400000000000000000e+01,3.000000000000000000e+01,6.199999999999999956e-01,4.985063900000000000e+09
3.700000000000000000e+01,1.120000000000000000e+02,5.260000000000000000e+02,1.130000000000000000e+02,3.500000000000000000e+01,4.600000000000000000e+01,2.500000000000000000e+01,3.000000000000000000e+01,6.199999999999999956e-01,5.002880900000000000e+09
4.400000000000000000e+01,1.120000000000000000e+02,5.310000000000000000e+02,1.200000000000000000e+02,4.000000000000000000e+01,5.300000000000000000e+01,2.500000000000000000e+01,3.400000000000000000e+01,6.199999999999999956e-01,5.021410800000000000e+09
4.600000000000000000e+01,1.180000000000000000e+02,5.270000000000000000e+02,1.280000000000000000e+02,4.100000000000000000e+01,5.400000000000000000e+01,2.600000000000000000e+01,5.900000000000000000e+01,6.199999999999999956e-01,5.045579500000000000e+09
4.500000000000000000e+01,1.190000000000000000e+02,5.080000000000000000e+02,1.300000000000000000e+02,4.000000000000000000e+01,5.600000000000000000e+01,2.500000000000000000e+01,6.100000000000000000e+01,6.199999999999999956e-01,5.067793200000000000e+09
4.800000000000000000e+01,1.230000000000000000e+02,4.750000000000000000e+02,1.200000000000000000e+02,3.700000000000000000e+01,6.500000000000000000e+01,2.900000000000000000e+01,6.200000000000000000e+01,6.199999999999999956e-01,5.086835900000000000e+09
4.900000000000000000e+01,1.150000000000000000e+02,4.420000000000000000e+02,1.070000000000000000e+02,3.900000000000000000e+01,5.700000000000000000e+01,2.900000000000000000e+01,6.500000000000000000e+01,6.199999999999999956e-01,5.105442800000000000e+09
4.400000000000000000e+01,1.280000000000000000e+02,4.180000000000000000e+02,9.500000000000000000e+01,3.100000000000000000e+01,6.400000000000000000e+01,3.400000000000000000e+01,1.050000000000000000e+02,6.199999999999999956e-01,5.127733200000000000e+09
4.500000000000000000e+01,1.300000000000000000e+02,4.380000000000000000e+02,8.700000000000000000e+01,3.000000000000000000e+01,9.300000000000000000e+01,5.200000000000000000e+01,1.070000000000000000e+02,6.199999999999999956e-01,5.146111500000000000e+09
4.500000000000000000e+01,1.300000000000000000e+02,4.630000000000000000e+02,8.700000000000000000e+01,3.200000000000000000e+01,1.030000000000000000e+02,5.800000000000000000e+01,1.260000000000000000e+02,6.199999999999999956e-01,5.165022000000000000e+09
4.200000000000000000e+01,1.190000000000000000e+02,4.470000000000000000e+02,8.800000000000000000e+01,3.800000000000000000e+01,1.070000000000000000e+02,6.600000000000000000e+01,1.740000000000000000e+02,6.199999999999999956e-01,5.186770600000000000e+09
4.000000000000000000e+01,1.280000000000000000e+02,3.730000000000000000e+02,7.900000000000000000e+01,3.900000000000000000e+01,1.150000000000000000e+02,7.600000000000000000e+01,1.850000000000000000e+02,6.099999999999999867e-01,5.205252000000000000e+09
4.000000000000000000e+01,1.260000000000000000e+02,3.500000000000000000e+02,6.300000000000000000e+01,3.900000000000000000e+01,1.200000000000000000e+02,7.400000000000000000e+01,2.040000000000000000e+02,5.999999999999999778e-01,5.225849900000000000e+09
3.900000000000000000e+01,1.210000000000000000e+02,3.140000000000000000e+02,5.700000000000000000e+01,3.900000000000000000e+01,1.060000000000000000e+02,6.500000000000000000e+01,2.070000000000000000e+02,5.999999999999999778e-01,5.255882200000000000e+09
3.600000000000000000e+01,1.200000000000000000e+02,2.240000000000000000e+02,4.900000000000000000e+01,3.900000000000000000e+01,9.700000000000000000e+01,6.100000000000000000e+01,2.000000000000000000e+02,5.899999999999999689e-01,5.273273600000000000e+09
3.600000000000000000e+01,1.500000000000000000e+02,1.640000000000000000e+02,3.600000000000000000e+01,4.900000000000000000e+01,9.100000000000000000e+01,5.100000000000000000e+01,1.730000000000000000e+02,5.799999999999999600e-01,5.290574700000000000e+09
4.400000000000000000e+01,1.570000000000000000e+02,3.160000000000000000e+02,8.700000000000000000e+01,5.200000000000000000e+01,8.800000000000000000e+01,3.600000000000000000e+01,1.630000000000000000e+02,5.699999999999999512e-01,5.314136400000000000e+09
4.600000000000000000e+01,1.490000000000000000e+02,3.900000000000000000e+02,8.700000000000000000e+01,5.400000000000000000e+01,7.300000000000000000e+01,4.000000000000000000e+01,1.130000000000000000e+02,5.699999999999999512e-01,5.331269000000000000e+09
5.200000000000000000e+01,1.650000000000000000e+02,4.300000000000000000e+02,1.170000000000000000e+02,7.200000000000000000e+01,6.500000000000000000e+01,3.500000000000000000e+01,9.600000000000000000e+01,5.600000000000000533e-01,5.349739900000000000e+09
6.500000000000000000e+01,2.010000000000000000e+02,6.550000000000000000e+02,1.850000000000000000e+02,1.080000000000000000e+02,6.800000000000000000e+01,3.500000000000000000e+01,8.700000000000000000e+01,5.500000000000000444e-01,5.367793400000000000e+09
8.000000000000000000e+01,2.120000000000000000e+02,7.710000000000000000e+02,2.290000000000000000e+02,1.210000000000000000e+02,7.300000000000000000e+01,4.300000000000000000e+01,5.900000000000000000e+01,5.400000000000000355e-01,5.385962100000000000e+09
7.700000000000000000e+01,2.170000000000000000e+02,7.520000000000000000e+02,2.300000000000000000e+02,1.200000000000000000e+02,6.300000000000000000e+01,4.300000000000000000e+01,5.400000000000000000e+01,5.200000000000000178e-01,5.405473400000000000e+09
1.080000000000000000e+02,2.880000000000000000e+02,8.990000000000000000e+02,2.920000000000000000e+02,1.440000000000000000e+02,7.500000000000000000e+01,4.700000000000000000e+01,6.400000000000000000e+01,5.000000000000000000e-01,5.427368300000000000e+09
1.510000000000000000e+02,4.170000000000000000e+02,9.970000000000000000e+02,3.570000000000000000e+02,1.560000000000000000e+02,8.400000000000000000e+01,5.100000000000000000e+01,8.000000000000000000e+01,4.799999999999999822e-01,5.446844600000000000e+09
1.540000000000000000e+02,4.200000000000000000e+02,1.018000000000000000e+03,3.910000000000000000e+02,1.430000000000000000e+02,8.700000000000000000e+01,5.300000000000000000e+01,8.200000000000000000e+01,4.600000000000000200e-01,5.465691900000000000e+09
1.550000000000000000e+02,4.210000000000000000e+02,1.102000000000000000e+03,4.350000000000000000e+02,1.400000000000000000e+02,8.500000000000000000e+01,5.500000000000000000e+01,8.500000000000000000e+01,4.500000000000000111e-01,5.487597500000000000e+09
1.700000000000000000e+02,4.680000000000000000e+02,1.146000000000000000e+03,4.790000000000000000e+02,1.500000000000000000e+02,9.000000000000000000e+01,5.700000000000000000e+01,9.200000000000000000e+01,4.299999999999999933e-01,5.506391800000000000e+09
1.690000000000000000e+02,4.650000000000000000e+02,1.125000000000000000e+03,5.240000000000000000e+02,1.490000000000000000e+02,9.100000000000000000e+01,5.600000000000000000e+01,9.100000000000000000e+01,4.099999999999999756e-01,5.524144600000000000e+09
1.440000000000000000e+02,4.130000000000000000e+02,1.112000000000000000e+03,5.450000000000000000e+02,1.400000000000000000e+02,8.500000000000000000e+01,5.500000000000000000e+01,8.000000000000000000e+01,3.900000000000000133e-01,5.552303700000000000e+09
1.460000000000000000e+02,4.340000000000000000e+02,1.062000000000000000e+03,5.590000000000000000e+02,1.470000000000000000e+02,9.000000000000000000e+01,5.800000000000000000e+01,8.200000000000000000e+01,3.699999999999999956e-01,5.570056000000000000e+09
1.430000000000000000e+02,4.450000000000000000e+02,9.670000000000000000e+02,5.370000000000000000e+02,1.480000000000000000e+02,1.030000000000000000e+02,5.300000000000000000e+01,7.900000000000000000e+01,3.400000000000000244e-01,5.588227500000000000e+09
1.390000000000000000e+02,4.200000000000000000e+02,1.027000000000000000e+03,5.340000000000000000e+02,1.490000000000000000e+02,1.010000000000000000e+02,5.200000000000000000e+01,7.500000000000000000e+01,3.200000000000000067e-01,5.608281500000000000e+09
1.270000000000000000e+02,4.350000000000000000e+02,1.029000000000000000e+03,4.970000000000000000e+02,1.450000000000000000e+02,9.700000000000000000e+01,4.900000000000000000e+01,7.000000000000000000e+01,3.099999999999999978e-01,5.626798300000000000e+09
1.360000000000000000e+02,4.250000000000000000e+02,1.054000000000000000e+03,5.650000000000000000e+02,1.780000000000000000e+02,1.120000000000000000e+02,5.300000000000000000e+01,7.900000000000000000e+01,2.899999999999999800e-01,5.644266600000000000e+09
1.270000000000000000e+02,3.910000000000000000e+02,1.095000000000000000e+03,5.420000000000000000e+02,1.700000000000000000e+02,1.070000000000000000e+02,4.900000000000000000e+01,7.600000000000000000e+01,2.700000000000000178e-01,5.674856500000000000e+09
1.420000000000000000e+02,4.410000000000000000e+02,1.134000000000000000e+03,5.940000000000000000e+02,1.790000000000000000e+02,1.010000000000000000e+02,5.300000000000000000e+01,8.400000000000000000e+01,2.600000000000000089e-01,5.693108100000000000e+09
1.460000000000000000e+02,4.320000000000000000e+02,1.083000000000000000e+03,6.410000000000000000e+02,1.940000000000000000e+02,1.090000000000000000e+02,5.600000000000000000e+01,8.700000000000000000e+01,2.500000000000000000e-01,5.710730100000000000e+09
1.510000000000000000e+02,4.040000000000000000e+02,1.059000000000000000e+03,6.420000000000000000e+02,2.030000000000000000e+02,1.210000000000000000e+02,6.200000000000000000e+01,9.100000000000000000e+01,2.399999999999999911e-01,5.729542100000000000e+09
1.600000000000000000e+02,3.870000000000000000e+02,1.053000000000000000e+03,6.070000000000000000e+02,1.840000000000000000e+02,1.130000000000000000e+02,6.000000000000000000e+01,8.800000000000000000e+01,2.300000000000000100e-01,5.747446600000000000e+09
2.010000000000000000e+02,4.430000000000000000e+02,1.003000000000000000e+03,6.170000000000000000e+02,2.010000000000000000e+02,1.210000000000000000e+02,6.500000000000000000e+01,1.010000000000000000e+02,2.200000000000000011e-01,5.765381200000000000e+09
2.210000000000000000e+02,4.280000000000000000e+02,9.480000000000000000e+02,5.930000000000000000e+02,2.190000000000000000e+02,1.270000000000000000e+02,7.200000000000000000e+01,1.050000000000000000e+02,2.099999999999999922e-01,5.788591000000000000e+09
2.180000000000000000e+02,4.270000000000000000e+02,1.016000000000000000e+03,5.360000000000000000e+02,2.090000000000000000e+02,1.210000000000000000e+02,7.100000000000000000e+01,1.020000000000000000e+02,2.000000000000000111e-01,5.806983500000000000e+09
2.160000000000000000e+02,4.540000000000000000e+02,1.005000000000000000e+03,5.400000000000000000e+02,2.110000000000000000e+02,1.100000000000000000e+02,6.800000000000000000e+01,1.000000000000000000e+02,1.900000000000000022e-01,5.825117900000000000e+09
2.410000000000000000e+02,5.070000000000000000e+02,9.920000000000000000e+02,6.150000000000000000e+02,2.320000000000000000e+02,1.260000000000000000e+02,7.500000000000000000e+01,1.170000000000000000e+02,1.900000000000000022e-01,5.848249100000000000e+09
2.210000000000000000e+02,5.080000000000000000e+02,9.800000000000000000e+02,6.470000000000000000e+02,2.390000000000000000e+02,1.260000000000000000e+02,7.200000000000000000e+01,1.140000000000000000e+02,1.799999999999999933e-01,5.867303300000000000e+09
2.020000000000000000e+02,5.200000000000000000e+02,1.037000000000000000e+03,6.280000000000000000e+02,2.240000000000000000e+02,1.170000000000000000e+02,6.900000000000000000e+01,1.100000000000000000e+02,1.700000000000000122e-01,5.884924800000000000e+09
2.040000000000000000e+02,5.450000000000000000e+02,9.920000000000000000e+02,6.300000000000000000e+02,2.250000000000000000e+02,1.170000000000000000e+02,7.100000000000000000e+01,1.120000000000000000e+02,1.700000000000000122e-01,5.907718700000000000e+09
2.130000000000000000e+02,5.300000000000000000e+02,9.530000000000000000e+02,6.610000000000000000e+02,2.170000000000000000e+02,1.240000000000000000e+02,7.000000000000000000e+01,1.130000000000000000e+02,1.600000000000000033e-01,5.925651800000000000e+09
1.750000000000000000e+02,5.410000000000000000e+02,1.014000000000000000e+03,5.350000000000000000e+02,1.990000000000000000e+02,1.100000000000000000e+02,6.800000000000000000e+01,9.500000000000000000e+01,1.600000000000000033e-01,5.945191900000000000e+09
1.710000000000000000e+02,5.280000000000000000e+02,1.084000000000000000e+03,4.860000000000000000e+02,1.960000000000000000e+02,1.110000000000000000e+02,7.000000000000000000e+01,9.100000000000000000e+01,1.499999999999999944e-01,5.967612500000000000e+09
1.550000000000000000e+02,4.710000000000000000e+02,1.034000000000000000e+03,4.850000000000000000e+02,1.930000000000000000e+02,1.080000000000000000e+02,6.600000000000000000e+01,8.400000000000000000e+01,1.400000000000000133e-01,5.989976900000000000e+09
1.460000000000000000e+02,4.360000000000000000e+02,1.040000000000000000e+03,4.700000000000000000e+02,1.860000000000000000e+02,1.050000000000000000e+02,5.900000000000000000e+01,8.100000000000000000e+01,1.300000000000000044e-01,6.012407800000000000e+09
1.320000000000000000e+02,4.780000000000000000e+02,1.092000000000000000e+03,4.210000000000000000e+02,1.810000000000000000e+02,9.500000000000000000e+01,5.500000000000000000e+01,7.500000000000000000e+01,1.300000000000000044e-01,6.031233000000000000e+09
1.220000000000000000e+02,3.950000000000000000e+02,1.052000000000000000e+03,3.920000000000000000e+02,1.620000000000000000e+02,8.400000000000000000e+01,4.800000000000000000e+01,6.900000000000000000e+01,1.199999999999999956e-01,6.049051200000000000e+09
1.080000000000000000e+02,3.670000000000000000e+02,9.390000000000000000e+02,3.600000000000000000e+02,1.320000000000000000e+02,6.800000000000000000e+01,4.000000000000000000e+01,6.000000000000000000e+01,1.199999999999999956e-01,6.067153100000000000e+09
1.060000000000000000e+02,3.830000000000000000e+02,9.110000000000000000e+02,3.350000000000000000e+02,1.080000000000000000e+02,6.100000000000000000e+01,3.600000000000000000e+01,5.700000000000000000e+01,1.300000000000000044e-01,6.088044600000000000e+09
1.140000000000000000e+02,3.710000000000000000e+02,8.730000000000000000e+02,3.280000000000000000e+02,1.200000000000000000e+02,7.000000000000000000e+01,4.200000000000000000e+01,6.200000000000000000e+01,1.300000000000000044e-01,6.110332500000000000e+09
1.310000000000000000e+02,3.320000000000000000e+02,8.540000000000000000e+02,3.530000000000000000e+02,1.450000000000000000e+02,8.200000000000000000e+01,5.300000000000000000e+01,7.700000000000000000e+01,1.300000000000000044e-01,6.127988800000000000e+09
1.360000000000000000e+02,3.340000000000000000e+02,8.420000000000000000e+02,3.550000000000000000e+02,1.510000000000000000e+02,8.800000000000000000e+01,5.700000000000000000e+01,8.200000000000000000e+01,1.300000000000000044e-01,6.148583600000000000e+09
1.380000000000000000e+02,3.490000000000000000e+02,8.380000000000000000e+02,3.460000000000000000e+02,1.500000000000000000e+02,8.700000000000000000e+01,5.600000000000000000e+01,8.300000000000000000e+01,1.400000000000000133e-01,6.177472700000000000e+09
1.480000000000000000e+02,3.550000000000000000e+02,8.710000000000000000e+02,3.830000000000000000e+02,1.680000000000000000e+02,9.600000000000000000e+01,6.100000000000000000e+01,8.900000000000000000e+01,1.400000000000000133e-01,6.195230300000000000e+09
1.400000000000000000e+02,3.740000000000000000e+02,8.740000000000000000e+02,3.720000000000000000e+02,1.510000000000000000e+02,8.700000000000000000e+01,5.700000000000000000e+01,8.200000000000000000e+01,1.400000000000000133e-01,6.212325000000000000e+09
1.160000000000000000e+02,3.350000000000000000e+02,8.760000000000000000e+02,3.250000000000000000e+02,1.300000000000000000e+02,7.400000000000000000e+01,4.700000000000000000e+01,6.900000000000000000e+01,1.499999999999999944e-01,6.230668100000000000e+09
1.180000000000000000e+02,3.510000000000000000e+02,9.140000000000000000e+02,3.310000000000000000e+02,1.260000000000000000e+02,6.900000000000000000e+01,4.500000000000000000e+01,6.700000000000000000e+01,1.600000000000000033e-01,6.248912700000000000e+09
1.270000000000000000e+02,3.590000000000000000e+02,9.410000000000000000e+02,3.480000000000000000e+02,1.360000000000000000e+02,7.400000000000000000e+01,5.000000000000000000e+01,7.400000000000000000e+01,1.600000000000000033e-01,6.268345500000000000e+09
1.230000000000000000e+02,3.670000000000000000e+02,9.560000000000000000e+02,3.190000000000000000e+02,1.240000000000000000e+02,6.600000000000000000e+01,4.500000000000000000e+01,7.000000000000000000e+01,1.700000000000000122e-01,6.289844000000000000e+09
1.250000000000000000e+02,3.820000000000000000e+02,9.550000000000000000e+02,3.240000000000000000e+02,1.340000000000000000e+02,7.300000000000000000e+01,4.800000000000000000e+01,7.400000000000000000e+01,1.700000000000000122e-01,6.312901500000000000e+09
1.250000000000000000e+02,3.790000000000000000e+02,9.230000000000000000e+02,3.040000000000000000e+02,1.260000000000000000e+02,7.000000000000000000e+01,4.600000000000000000e+01,7.100000000000000000e+01,1.700000000000000122e-01,6.331315700000000000e+09
1.060000000000000000e+02,3.440000000000000000e+02,7.800000000000000000e+02,2.900000000000000000e+02,1.170000000000000000e+02,6.600000000000000000e+01,4.200000000000000000e+01,6.300000000000000000e+01,1.700000000000000122e-01,6.356701900000000000e+09
8.900000000000000000e+01,2.980000000000000000e+02,7.710000000000000000e+02,2.600000000000000000e+02,1.050000000000000000e+02,6.000000000000000000e+01,3.800000000000000000e+01,6.100000000000000000e+01,1.799999999999999933e-01,6.373466300000000000e+09
7.700000000000000000e+01,2.550000000000000000e+02,7.410000000000000000e+02,2.220000000000000000e+02,9.500000000000000000e+01,5.500000000000000000e+01,3.800000000000000000e+01,5.900000000000000000e+01,1.900000000000000022e-01,6.391389400000000000e+09
8.000000000000000000e+01,1.880000000000000000e+02,7.300000000000000000e+02,2.000000000000000000e+02,8.600000000000000000e+01,8.200000000000000000e+01,5.600000000000000000e+01,7.500000000000000000e+01,2.099999999999999922e-01,6.410066200000000000e+09
7.900000000000000000e+01,1.580000000000000000e+02,7.450000000000000000e+02,1.680000000000000000e+02,8.100000000000000000e+01,2.460000000000000000e+02,6.700000000000000000e+01,8.700000000000000000e+01,2.200000000000000011e-01,6.428265300000000000e+09
7.600000000000000000e+01,1.460000000000000000e+02,7.250000000000000000e+02,1.430000000000000000e+02,7.700000000000000000e+01,2.620000000000000000e+02,7.800000000000000000e+01,9.200000000000000000e+01,2.300000000000000100e-01,6.455424500000000000e+09
8.300000000000000000e+01,1.480000000000000000e+02,7.350000000000000000e+02,1.540000000000000000e+02,8.100000000000000000e+01,2.680000000000000000e+02,8.100000000000000000e+01,1.340000000000000000e+02,2.399999999999999911e-01,6.473965300000000000e+09
9.400000000000000000e+01,1.720000000000000000e+02,6.710000000000000000e+02,1.820000000000000000e+02,8.700000000000000000e+01,2.730000000000000000e+02,8.500000000000000000e+01,1.370000000000000000e+02,2.600000000000000089e-01,6.492686700000000000e+09
8.400000000000000000e+01,1.790000000000000000e+02,5.890000000000000000e+02,1.700000000000000000e+02,8.700000000000000000e+01,3.110000000000000000e+02,9.600000000000000000e+01,1.470000000000000000e+02,2.800000000000000266e-01,6.510024100000000000e+09
8.300000000000000000e+01,1.800000000000000000e+02,4.640000000000000000e+02,1.680000000000000000e+02,8.000000000000000000e+01,2.300000000000000000e+02,1.160000000000000000e+02,2.070000000000000000e+02,2.899999999999999800e-01,6.537628800000000000e+09
9.500000000000000000e+01,2.000000000000000000e+02,4.740000000000000000e+02,1.680000000000000000e+02,8.300000000000000000e+01,3.110000000000000000e+02,2.150000000000000000e+02,3.080000000000000000e+02,3.099999999999999978e-01,6.555529500000000000e+09
9.100000000000000000e+01,2.310000000000000000e+02,5.080000000000000000e+02,2.050000000000000000e+02,8.200000000000000000e+01,3.190000000000000000e+02,2.570000000000000000e+02,3.800000000000000000e+02,3.200000000000000067e-01,6.573526000000000000e+09
7.900000000000000000e+01,2.130000000000000000e+02,4.840000000000000000e+02,1.830000000000000000e+02,7.500000000000000000e+01,3.360000000000000000e+02,2.990000000000000000e+02,4.130000000000000000e+02,3.400000000000000244e-01,6.591664800000000000e+09
8.500000000000000000e+01,2.120000000000000000e+02,5.200000000000000000e+02,1.750000000000000000e+02,7.000000000000000000e+01,3.490000000000000000e+02,3.340000000000000000e+02,4.530000000000000000e+02,3.400000000000000244e-01,6.608868900000000000e+09
8.400000000000000000e+01,2.380000000000000000e+02,5.180000000000000000e+02,1.750000000000000000e+02,7.100000000000000000e+01,3.420000000000000000e+02,3.360000000000000000e+02,4.650000000000000000e+02,3.400000000000000244e-01,6.627556400000000000e+09
8.100000000000000000e+01,2.270000000000000000e+02,5.160000000000000000e+02,1.740000000000000000e+02,6.900000000000000000e+01,2.630000000000000000e+02,2.950000000000000000e+02,4.800000000000000000e+02,3.400000000000000244e-01,6.649966000000000000e+09
7.500000000000000000e+01,1.940000000000000000e+02,4.960000000000000000e+02,1.120000000000000000e+02,5.600000000000000000e+01,2.590000000000000000e+02,2.620000000000000000e+02,4.580000000000000000e+02,3.400000000000000244e-01,6.679849200000000000e+09
7.400000000000000000e+01,2.130000000000000000e+02,5.650000000000000000e+02,1.050000000000000000e+02,4.900000000000000000e+01,2.330000000000000000e+02,2.160000000000000000e+02,4.520000000000000000e+02,3.400000000000000244e-01,6.697829200000000000e+09
6.200000000000000000e+01,2.140000000000000000e+02,5.200000000000000000e+02,1.070000000000000000e+02,4.300000000000000000e+01,1.440000000000000000e+02,1.550000000000000000e+02,4.100000000000000000e+02,3.499999999999999778e-01,6.716388800000000000e+09
5.900000000000000000e+01,1.820000000000000000e+02,5.080000000000000000e+02,1.090000000000000000e+02,3.900000000000000000e+01,1.280000000000000000e+02,1.320000000000000000e+02,3.760000000000000000e+02,3.499999999999999778e-01,6.734378900000000000e+09
4.200000000000000000e+01,1.670000000000000000e+02,4.920000000000000000e+02,1.010000000000000000e+02,3.400000000000000000e+01,1.100000000000000000e+02,9.500000000000000000e+01,2.780000000000000000e+02,3.499999999999999778e-01,6.752448200000000000e+09
3.800000000000000000e+01,1.600000000000000000e+02,3.610000000000000000e+02,9.200000000000000000e+01,3.300000000000000000e+01,7.500000000000000000e+01,8.600000000000000000e+01,1.970000000000000000e+02,3.499999999999999778e-01,6.772094700000000000e+09
3.600000000000000000e+01,1.350000000000000000e+02,2.570000000000000000e+02,9.100000000000000000e+01,3.100000000000000000e+01,6.600000000000000000e+01,7.600000000000000000e+01,1.330000000000000000e+02,3.599999999999999867e-01,6.790932800000000000e+09
3.800000000000000000e+01,1.360000000000000000e+02,3.340000000000000000e+02,1.060000000000000000e+02,3.100000000000000000e+01,4.800000000000000000e+01,4.800000000000000000e+01,1.180000000000000000e+02,3.699999999999999956e-01,6.808205500000000000e+09
4.100000000000000000e+01,1.330000000000000000e+02,3.720000000000000000e+02,1.110000000000000000e+02,3.800000000000000000e+01,4.500000000000000000e+01,4.700000000000000000e+01,8.200000000000000000e+01,3.800000000000000044e-01,6.830527400000000000e+09
4.100000000000000000e+01,1.270000000000000000e+02,3.650000000000000000e+02,1.110000000000000000e+02,3.800000000000000000e+01,3.900000000000000000e+01,3.900000000000000000e+01,6.900000000000000000e+01,4.000000000000000222e-01,6.852767300000000000e+09
4.100000000000000000e+01,1.200000000000000000e+02,3.560000000000000000e+02,1.140000000000000000e+02,3.800000000000000000e+01,3.700000000000000000e+01,3.800000000000000000e+01,5.600000000000000000e+01,4.199999999999999845e-01,6.871496900000000000e+09
4.000000000000000000e+01,1.060000000000000000e+02,3.440000000000000000e+02,1.310000000000000000e+02,3.800000000000000000e+01,3.700000000000000000e+01,3.700000000000000000e+01,4.300000000000000000e+01,4.299999999999999933e-01,6.888998600000000000e+09
5.900000000000000000e+01,1.510000000000000000e+02,4.380000000000000000e+02,1.410000000000000000e+02,4.800000000000000000e+01,4.100000000000000000e+01,3.900000000000000000e+01,4.600000000000000000e+01,4.500000000000000111e-01,6.911210400000000000e+09
5.600000000000000000e+01,1.530000000000000000e+02,4.700000000000000000e+02,1.470000000000000000e+02,4.300000000000000000e+01,3.400000000000000000e+01,3.600000000000000000e+01,3.900000000000000000e+01,4.699999999999999734e-01,6.929390600000000000e+09
5.800000000000000000e+01,1.810000000000000000e+02,4.660000000000000000e+02,1.550000000000000000e+02,4.300000000000000000e+01,3.500000000000000000e+01,3.500000000000000000e+01,3.700000000000000000e+01,4.899999999999999911e-01,6.949452000000000000e+09
5.900000000000000000e+01,1.840000000000000000e+02,4.670000000000000000e+02,1.680000000000000000e+02,5.000000000000000000e+01,3.400000000000000000e+01,3.300000000000000000e+01,3.600000000000000000e+01,5.100000000000000089e-01,6.971862900000000000e+09
6.000000000000000000e+01,2.000000000000000000e+02,5.000000000000000000e+02,1.500000000000000000e+02,5.000000000000000000e+01,3.300000000000000000e+01,2.900000000000000000e+01,3.700000000000000000e+01,5.300000000000000266e-01,6.990624800000000000e+09
4.400000000000000000e+01,1.690000000000000000e+02,4.360000000000000000e+02,1.340000000000000000e+02,4.400000000000000000e+01,3.000000000000000000e+01,2.500000000000000000e+01,3.000000000000000000e+01,5.400000000000000355e-01,7.009697600000000000e+09
4.100000000000000000e+01,1.770000000000000000e+02,3.850000000000000000e+02,1.180000000000000000e+02,4.400000000000000000e+01,2.900000000000000000e+01,2.600000000000000000e+01,2.900000000000000000e+01,5.500000000000000444e-01,7.031959100000000000e+09
3.800000000000000000e+01,1.520000000000000000e+02,3.920000000000000000e+02,1.190000000000000000e+02,4.400000000000000000e+01,2.900000000000000000e+01,2.400000000000000000e+01,2.900000000000000000e+01,5.600000000000000533e-01,7.056517900000000000e+09
3.600000000000000000e+01,1.550000000000000000e+02,3.990000000000000000e+02,1.080000000000000000e+02,3.800000000000000000e+01,2.800000000000000000e+01,2.400000000000000000e+01,2.700000000000000000e+01,5.699999999999999512e-01,7.075404900000000000e+09
3.200000000000000000e+01,1.800000000000000000e+02,3.490000000000000000e+02,1.010000000000000000e+02,3.900000000000000000e+01,2.700000000000000000e+01,2.400000000000000000e+01,2.600000000000000000e+01,5.799999999999999600e-01,7.094388900000000000e+09
2.900000000000000000e+01,1.830000000000000000e+02,3.270000000000000000e+02,9.200000000000000000e+01,3.500000000000000000e+01,2.500000000000000000e+01,2.400000000000000000e+01,2.700000000000000000e+01,5.899999999999999689e-01,7.111704000000000000e+09
4.400000000000000000e+01,2.000000000000000000e+02,3.990000000000000000e+02,1.480000000000000000e+02,4.600000000000000000e+01,3.100000000000000000e+01,2.500000000000000000e+01,3.600000000000000000e+01,5.899999999999999689e-01,7.130931400000000000e+09
4.500000000000000000e+01,2.010000000000000000e+02,4.320000000000000000e+02,1.460000000000000000e+02,4.600000000000000000e+01,3.200000000000000000e+01,2.500000000000000000e+01,3.600000000000000000e+01,5.999999999999999778e-01,7.151189300000000000e+09
4.400000000000000000e+01,1.980000000000000000e+02,4.320000000000000000e+02,1.370000000000000000e+02,4.200000000000000000e+01,3.200000000000000000e+01,2.400000000000000000e+01,3.600000000000000000e+01,6.099999999999999867e-01,7.168733200000000000e+09
4.400000000000000000e+01,1.470000000000000000e+02,4.400000000000000000e+02,1.330000000000000000e+02,3.900000000000000000e+01,3.000000000000000000e+01,2.400000000000000000e+01,3.400000000000000000e+01,6.099999999999999867e-01,7.188741500000000000e+09
4.100000000000000000e+01,1.530000000000000000e+02,3.760000000000000000e+02,1.320000000000000000e+02,3.700000000000000000e+01,3.100000000000000000e+01,2.300000000000000000e+01,3.100000000000000000e+01,6.099999999999999867e-01,7.211794600000000000e+09
4.900000000000000000e+01,1.640000000000000000e+02,4.610000000000000000e+02,1.400000000000000000e+02,4.100000000000000000e+01,3.200000000000000000e+01,2.400000000000000000e+01,2.900000000000000000e+01,6.199999999999999956e-01,7.235835200000000000e+09
5.100000000000000000e+01,1.670000000000000000e+02,4.620000000000000000e+02,1.560000000000000000e+02,4.200000000000000000e+01,3.300000000000000000e+01,2.400000000000000000e+01,2.900000000000000000e+01,6.199999999999999956e-01,7.254707900000000000e+09
5.200000000000000000e+01,1.710000000000000000e+02,4.540000000000000000e+02,1.580000000000000000e+02,4.300000000000000000e+01,3.300000000000000000e+01,2.400000000000000000e+01,2.800000000000000000e+01,6.300000000000000044e-01,7.273026300000000000e+09
5.300000000000000000e+01,1.750000000000000000e+02,4.570000000000000000e+02,1.630000000000000000e+02,4.600000000000000000e+01,3.400000000000000000e+01,2.500000000000000000e+01,2.700000000000000000e+01,6.300000000000000044e-01,7.295798800000000000e+09
5.700000000000000000e+01,1.750000000000000000e+02,4.790000000000000000e+02,1.710000000000000000e+02,5.200000000000000000e+01,3.300000000000000000e+01,2.600000000000000000e+01,3.000000000000000000e+01,6.300000000000000044e-01,7.313998600000000000e+09
4.300000000000000000e+01,1.320000000000000000e+02,3.500000000000000000e+02,1.210000000000000000e+02,4.000000000000000000e+01,3.100000000000000000e+01,2.300000000000000000e+01,2.400000000000000000e+01,6.400000000000000133e-01,7.331365300000000000e+09
4.500000000000000000e+01,1.390000000000000000e+02,3.820000000000000000e+02,9.800000000000000000e+01,4.000000000000000000e+01,3.100000000000000000e+01,2.500000000000000000e+01,2.500000000000000000e+01,6.400000000000000133e-01,7.349785800000000000e+09
4.500000000000000000e+01,1.350000000000000000e+02,4.420000000000000000e+02,1.050000000000000000e+02,4.100000000000000000e+01,3.000000000000000000e+01,2.500000000000000000e+01,2.600000000000000000e+01,6.400000000000000133e-01,7.368898800000000000e+09
4.300000000000000000e+01,1.300000000000000000e+02,4.430000000000000000e+02,9.600000000000000000e+01,3.600000000000000000e+01,2.800000000000000000e+01,2.300000000000000000e+01,2.600000000000000000e+01,6.400000000000000133e-01,7.391955500000000000e+09
3.900000000000000000e+01,1.040000000000000000e+02,4.490000000000000000e+02,9.100000000000000000e+01,3.200000000000000000e+01,3.000000000000000000e+01,2.300000000000000000e+01,2.600000000000000000e+01,6.400000000000000133e-01,7.415426400000000000e+09
3.500000000000000000e+01,1.080000000000000000e+02,4.300000000000000000e+02,9.000000000000000000e+01,2.900000000000000000e+01,2.700000000000000000e+01,2.200000000000000000e+01,2.500000000000000000e+01,6.400000000000000133e-01,7.436858400000000000e+09
4.100000000000000000e+01,1.130000000000000000e+02,4.160000000000000000e+02,1.030000000000000000e+02,3.600000000000000000e+01,3.300000000000000000e+01,2.200000000000000000e+01,2.900000000000000000e+01,6.400000000000000133e-01,7.454031200000000000e+09
4.100000000000000000e+01,1.150000000000000000e+02,3.780000000000000000e+02,1.050000000000000000e+02,3.500000000000000000e+01,3.200000000000000000e+01,2.200000000000000000e+01,2.700000000000000000e+01,6.400000000000000133e-01,7.471648800000000000e+09
4.700000000000000000e+01,1.340000000000000000e+02,4.650000000000000000e+02,1.120000000000000000e+02,3.800000000000000000e+01,3.300000000000000000e+01,2.300000000000000000e+01,3.100000000000000000e+01,6.400000000000000133e-01,7.489064300000000000e+09
4.600000000000000000e+01,1.530000000000000000e+02,4.490000000000000000e+02,1.090000000000000000e+02,3.800000000000000000e+01,3.300000000000000000e+01,2.200000000000000000e+01,2.800000000000000000e+01,6.400000000000000133e-01,7.512476000000000000e+09
4.600000000000000000e+01,1.560000000000000000e+02,4.300000000000000000e+02,1.050000000000000000e+02,3.900000000000000000e+01,3.200000000000000000e+01,2.300000000000000000e+01,2.900000000000000000e+01,6.300000000000000044e-01,7.531074500000000000e+09
4.100000000000000000e+01,1.490000000000000000e+02,4.280000000000000000e+02,9.400000000000000000e+01,3.600000000000000000e+01,2.700000000000000000e+01,2.100000000000000000e+01,2.800000000000000000e+01,6.300000000000000044e-01,7.549175400000000000e+09
4.000000000000000000e+01,1.890000000000000000e+02,4.080000000000000000e+02,8.700000000000000000e+01,3.800000000000000000e+01,2.800000000000000000e+01,2.200000000000000000e+01,2.800000000000000000e+01,6.300000000000000044e-01,7.571610300000000000e+09
3.600000000000000000e+01,1.820000000000000000e+02,3.420000000000000000e+02,9.100000000000000000e+01,3.600000000000000000e+01,2.900000000000000000e+01,2.100000000000000000e+01,2.700000000000000000e+01,6.300000000000000044e-01,7.588707800000000000e+09
3.400000000000000000e+01,1.670000000000000000e+02,3.730000000000000000e+02,8.600000000000000000e+01,3.300000000000000000e+01,2.700000000000000000e+01,2.300000000000000000e+01,2.600000000000000000e+01,6.300000000000000044e-01,7.609303200000000000e+09
3.500000000000000000e+01,1.610000000000000000e+02,4.080000000000000000e+02,9.400000000000000000e+01,3.500000000000000000e+01,3.000000000000000000e+01,2.400000000000000000e+01,2.800000000000000000e+01,6.300000000000000044e-01,7.639532800000000000e+09
3.000000000000000000e+01,1.760000000000000000e+02,4.250000000000000000e+02,9.000000000000000000e+01,2.800000000000000000e+01,2.700000000000000000e+01,2.300000000000000000e+01,2.400000000000000000e+01,6.300000000000000044e-01,7.656959900000000000e+09
3.400000000000000000e+01,1.380000000000000000e+02,4.760000000000000000e+02,9.600000000000000000e+01,3.400000000000000000e+01,3.300000000000000000e+01,2.400000000000000000e+01,2.700000000000000000e+01,6.300000000000000044e-01,7.674991500000000000e+09
3.100000000000000000e+01,1.300000000000000000e+02,4.650000000000000000e+02,9.000000000000000000e+01,3.500000000000000000e+01,3.300000000000000000e+01,2.700000000000000000e+01,2.500000000000000000e+01,6.300000000000000044e-01,7.692822800000000000e+09
3.500000000000000000e+01,1.270000000000000000e+02,4.350000000000000000e+02,9.000000000000000000e+01,3.400000000000000000e+01,3.200000000000000000e+01,2.400000000000000000e+01,2.800000000000000000e+01,6.300000000000000044e-01,7.709907000000000000e+09
3.600000000000000000e+01,1.380000000000000000e+02,4.110000000000000000e+02,8.100000000000000000e+01,3.200000000000000000e+01,3.000000000000000000e+01,2.500000000000000000e+01,2.600000000000000000e+01,6.300000000000000044e-01,7.728899700000000000e+09
3.500000000000000000e+01,1.120000000000000000e+02,3.580000000000000000e+02,7.900000000000000000e+01,3.300000000000000000e+01,3.000000000000000000e+01,2.500000000000000000e+01,2.800000000000000000e+01,6.300000000000000044e-01,7.752109500000000000e+09
3.300000000000000000e+01,1.100000000000000000e+02,3.440000000000000000e+02,6.700000000000000000e+01,2.600000000000000000e+01,2.400000000000000000e+01,2.400000000000000000e+01,2.600000000000000000e+01,6.199999999999999956e-01,7.770178500000000000e+09
3.400000000000000000e+01,1.220000000000000000e+02,4.020000000000000000e+02,6.200000000000000000e+01,2.500000000000000000e+01,2.300000000000000000e+01,2.200000000000000000e+01,2.600000000000000000e+01,6.199999999999999956e-01,7.789065700000000000e+09
3.200000000000000000e+01,1.210000000000000000e+02,4.000000000000000000e+02,6.200000000000000000e+01,2.400000000000000000e+01,2.400000000000000000e+01,2.300000000000000000e+01,2.400000000000000000e+01,6.199999999999999956e-01,7.812079800000000000e+09
3.000000000000000000e+01,1.340000000000000000e+02,3.990000000000000000e+02,6.200000000000000000e+01,2.500000000000000000e+01,2.500000000000000000e+01,2.400000000000000000e+01,2.400000000000000000e+01,6.099999999999999867e-01,7.829948100000000000e+09
2.900000000000000000e+01,1.360000000000000000e+02,3.920000000000000000e+02,5.800000000000000000e+01,2.600000000000000000e+01,2.500000000000000000e+01,2.500000000000000000e+01,2.300000000000000000e+01,6.099999999999999867e-01,7.852137900000000000e+09
2.900000000000000000e+01,1.340000000000000000e+02,4.200000000000000000e+02,8.400000000000000000e+01,2.800000000000000000e+01,2.700000000000000000e+01,2.500000000000000000e+01,2.500000000000000000e+01,6.099999999999999867e-01,7.879847700000000000e+09
2.900000000000000000e+01,1.370000000000000000e+02,4.540000000000000000e+02,1.050000000000000000e+02,3.100000000000000000e+01,2.900000000000000000e+01,2.500000000000000000e+01,2.600000000000000000e+01,6.099999999999999867e-01,7.896880200000000000e+09
3.200000000000000000e+01,1.430000000000000000e+02,4.630000000000000000e+02,1.110000000000000000e+02,3.200000000000000000e+01,3.100000000000000000e+01,2.600000000000000000e+01,2.800000000000000000e+01,6.099999999999999867e-01,7.914317300000000000e+09
3.000000000000000000e+01,1.320000000000000000e+02,4.980000000000000000e+02,1.110000000000000000e+02,3.100000000000000000e+01,3.000000000000000000e+01,2.300000000000000000e+01,2.800000000000000000e+01,6.099999999999999867e-01,7.931244800000000000e+09
3.300000000000000000e+01,1.400000000000000000e+02,5.020000000000000000e+02,1.190000000000000000e+02,3.500000000000000000e+01,3.100000000000000000e+01,2.400000000000000000e+01,2.800000000000000000e+01,6.099999999999999867e-01,7.953969900000000000e+09
3.100000000000000000e+01,1.430000000000000000e+02,4.840000000000000000e+02,1.110000000000000000e+02,3.400000000000000000e+01,3.100000000000000000e+01,2.300000000000000000e+01,2.600000000000000000e+01,6.099999999999999867e-01,7.971624400000000000e+09
3.000000000000000000e+01,1.380000000000000000e+02,3.970000000000000000e+02,8.500000000000000000e+01,3.100000000000000000e+01,2.900000000000000000e+01,2.300000000000000000e+01,2.500000000000000000e+01,6.099999999999999867e-01,7.991424100000000000e+09
2.900000000000000000e+01,1.420000000000000000e+02,4.070000000000000000e+02,7.800000000000000000e+01,3.200000000000000000e+01,2.500000000000000000e+01,2.000000000000000000e+01,2.300000000000000000e+01,6.099999999999999867e-01,8.013766900000000000e+09
3.200000000000000000e+01,1.300000000000000000e+02,3.800000000000000000e+02,9.000000000000000000e+01,3.400000000000000000e+01,2.600000000000000000e+01,2.500000000000000000e+01,2.500000000000000000e+01,6.099999999999999867e-01,8.030677500000000000e+09
2.800000000000000000e+01,1.130000000000000000e+02,3.870000000000000000e+02,8.400000000000000000e+01,3.000000000000000000e+01,2.400000000000000000e+01,2.300000000000000000e+01,2.300000000000000000e+01,6.099999999999999867e-01,8.052091300000000000e+09
2.800000000000000000e+01,1.340000000000000000e+02,4.120000000000000000e+02,7.300000000000000000e+01,2.800000000000000000e+01,2.400000000000000000e+01,2.400000000000000000e+01,2.300000000000000000e+01,6.199999999999999956e-01,8.074244600000000000e+09
3.300000000000000000e+01,1.430000000000000000e+02,4.320000000000000000e+02,8.200000000000000000e+01,3.300000000000000000e+01,2.600000000000000000e+01,2.400000000000000000e+01,2.400000000000000000e+01,6.199999999999999956e-01,8.091541100000000000e+09
3.100000000000000000e+01,1.470000000000000000e+02,4.420000000000000000e+02,8.100000000000000000e+01,3.100000000000000000e+01,2.700000000000000000e+01,2.400000000000000000e+01,2.300000000000000000e+01,6.199999999999999956e-01,8.120013900000000000e+09
3.300000000000000000e+01,1.500000000000000000e+02,4.330000000000000000e+02,7.600000000000000000e+01,3.300000000000000000e+01,2.800000000000000000e+01,2.200000000000000000e+01,2.400000000000000000e+01,6.199999999999999956e-01,8.137457700000000000e+09
3.600000000000000000e+01,1.500000000000000000e+02,4.600000000000000000e+02,9.800000000000000000e+01,3.500000000000000000e+01,2.900000000000000000e+01,2.400000000000000000e+01,2.600000000000000000e+01,6.199999999999999956e-01,8.155053300000000000e+09
4.000000000000000000e+01,1.250000000000000000e+02,4.050000000000000000e+02,9.900000000000000000e+01,3.500000000000000000e+01,2.900000000000000000e+01,2.400000000000000000e+01,2.700000000000000000e+01,6.199999999999999956e-01,8.179525400000000000e+09
3.900000000000000000e+01,1.240000000000000000e+02,3.950000000000000000e+02,1.030000000000000000e+02,3.200000000000000000e+01,2.700000000000000000e+01,2.400000000000000000e+01,2.900000000000000000e+01,6.199999999999999956e-01,8.197875300000000000e+09
4.200000000000000000e+01,1.450000000000000000e+02,3.760000000000000000e+02,1.050000000000000000e+02,3.300000000000000000e+01,3.000000000000000000e+01,2.500000000000000000e+01,3.000000000000000000e+01,6.199999999999999956e-01,8.215048300000000000e+09
3.800000000000000000e+01,1.550000000000000000e+02,4.010000000000000000e+02,1.000000000000000000e+02,2.900000000000000000e+01,2.900000000000000000e+01,2.300000000000000000e+01,2.800000000000000000e+01,6.199999999999999956e-01,8.233226400000000000e+09
3.800000000000000000e+01,1.630000000000000000e+02,4.070000000000000000e+02,8.000000000000000000e+01,2.700000000000000000e+01,3.000000000000000000e+01,2.200000000000000000e+01,3.000000000000000000e+01,6.199999999999999956e-01,8.254277100000000000e+09
3.500000000000000000e+01,1.640000000000000000e+02,4.890000000000000000e+02,9.000000000000000000e+01,2.900000000000000000e+01,3.000000000000000000e+01,2.200000000000000000e+01,2.700000000000000000e+01,6.199999999999999956e-01,8.272258700000000000e+09
3.200000000000000000e+01,1.520000000000000000e+02,4.750000000000000000e+02,7.900000000000000000e+01,2.600000000000000000e+01,2.900000000000000000e+01,2.100000000000000000e+01,4.400000000000000000e+01,6.199999999999999956e-01,8.291415000000000000e+09
3.600000000000000000e+01,1.150000000000000000e+02,4.910000000000000000e+02,7.300000000000000000e+01,2.500000000000000000e+01,2.600000000000000000e+01,2.200000000000000000e+01,1.210000000000000000e+02,6.199999999999999956e-01,8.313646900000000000e+09
3.900000000000000000e+01,9.500000000000000000e+01,4.830000000000000000e+02,7.600000000000000000e+01,2.600000000000000000e+01,2.600000000000000000e+01,2.700000000000000000e+01,1.620000000000000000e+02,6.199999999999999956e-01,8.331053800000000000e+09
4.100000000000000000e+01,1.130000000000000000e+02,5.590000000000000000e+02,7.600000000000000000e+01,2.800000000000000000e+01,2.400000000000000000e+01,2.700000000000000000e+01,1.660000000000000000e+02,6.099999999999999867e-01,8.367336000000000000e+09
4.300000000000000000e+01,1.240000000000000000e+02,5.920000000000000000e+02,7.000000000000000000e+01,2.700000000000000000e+01,2.300000000000000000e+01,2.700000000000000000e+01,1.680000000000000000e+02,6.099999999999999867e-01,8.384339100000000000e+09
4.700000000000000000e+01,1.250000000000000000e+02,6.120000000000000000e+02,9.300000000000000000e+01,2.800000000000000000e+01,2.300000000000000000e+01,2.700000000000000000e+01,1.710000000000000000e+02,5.999999999999999778e-01,8.404411000000000000e+09
4.600000000000000000e+01,1.740000000000000000e+02,6.840000000000000000e+02,1.030000000000000000e+02,3.500000000000000000e+01,3.000000000000000000e+01,2.900000000000000000e+01,1.420000000000000000e+02,5.999999999999999778e-01,8.422348800000000000e+09
4.900000000000000000e+01,1.780000000000000000e+02,7.150000000000000000e+02,1.220000000000000000e+02,3.600000000000000000e+01,3.000000000000000000e+01,2.300000000000000000e+01,9.300000000000000000e+01,5.999999999999999778e-01,8.440757600000000000e+09
5.600000000000000000e+01,1.750000000000000000e+02,6.470000000000000000e+02,1.290000000000000000e+02,4.000000000000000000e+01,3.100000000000000000e+01,2.700000000000000000e+01,8.600000000000000000e+01,5.899999999999999689e-01,8.458754500000000000e+09
6.700000000000000000e+01,1.860000000000000000e+02,5.940000000000000000e+02,1.730000000000000000e+02,5.400000000000000000e+01,3.500000000000000000e+01,3.000000000000000000e+01,8.700000000000000000e+01,5.899999999999999689e-01,8.477170800000000000e+09
7.100000000000000000e+01,2.040000000000000000e+02,6.180000000000000000e+02,2.130000000000000000e+02,6.300000000000000000e+01,3.700000000000000000e+01,3.000000000000000000e+01,7.500000000000000000e+01,5.899999999999999689e-01,8.494769100000000000e+09
7.500000000000000000e+01,1.790000000000000000e+02,5.880000000000000000e+02,2.210000000000000000e+02,6.600000000000000000e+01,3.300000000000000000e+01,2.900000000000000000e+01,5.400000000000000000e+01,5.899999999999999689e-01,8.512892200000000000e+09
7.200000000000000000e+01,1.800000000000000000e+02,6.000000000000000000e+02,2.190000000000000000e+02,6.800000000000000000e+01,3.600000000000000000e+01,3.100000000000000000e+01,7.400000000000000000e+01,5.799999999999999600e-01,8.531363800000000000e+09
7.200000000000000000e+01,1.920000000000000000e+02,6.720000000000000000e+02,2.280000000000000000e+02,7.000000000000000000e+01,3.900000000000000000e+01,2.900000000000000000e+01,7.800000000000000000e+01,5.799999999999999600e-01,8.570081400000000000e+09
6.200000000000000000e+01,1.810000000000000000e+02,7.270000000000000000e+02,2.100000000000000000e+02,6.200000000000000000e+01,3.600000000000000000e+01,2.500000000000000000e+01,7.500000000000000000e+01,5.799999999999999600e-01,8.588357400000000000e+09
8.300000000000000000e+01,2.800000000000000000e+02,7.500000000000000000e+02,2.190000000000000000e+02,1.010000000000000000e+02,4.600000000000000000e+01,3.200000000000000000e+01,8.100000000000000000e+01,5.699999999999999512e-01,8.606724900000000000e+09
9.100000000000000000e+01,3.700000000000000000e+02,9.110000000000000000e+02,2.560000000000000000e+02,1.150000000000000000e+02,5.700000000000000000e+01,3.600000000000000000e+01,7.900000000000000000e+01,5.500000000000000444e-01,8.624762800000000000e+09
1.040000000000000000e+02,4.040000000000000000e+02,9.850000000000000000e+02,3.250000000000000000e+02,1.270000000000000000e+02,5.800000000000000000e+01,3.800000000000000000e+01,6.200000000000000000e+01,5.300000000000000266e-01,8.642622900000000000e+09
1.140000000000000000e+02,4.460000000000000000e+02,1.010000000000000000e+03,3.790000000000000000e+02,1.570000000000000000e+02,5.900000000000000000e+01,4.100000000000000000e+01,6.100000000000000000e+01,5.100000000000000089e-01,8.659980500000000000e+09
1.370000000000000000e+02,4.620000000000000000e+02,9.780000000000000000e+02,4.410000000000000000e+02,1.780000000000000000e+02,8.000000000000000000e+01,5.500000000000000000e+01,1.060000000000000000e+02,4.899999999999999911e-01,8.678098700000000000e+09
1.440000000000000000e+02,4.900000000000000000e+02,1.104000000000000000e+03,4.920000000000000000e+02,1.730000000000000000e+02,9.100000000000000000e+01,5.700000000000000000e+01,1.230000000000000000e+02,4.600000000000000200e-01,8.695687900000000000e+09
1.750000000000000000e+02,4.950000000000000000e+02,1.039000000000000000e+03,6.410000000000000000e+02,1.910000000000000000e+02,1.010000000000000000e+02,6.300000000000000000e+01,1.400000000000000000e+02,4.299999999999999933e-01,8.714153300000000000e+09
1.860000000000000000e+02,5.240000000000000000e+02,1.077000000000000000e+03,7.420000000000000000e+02,2.150000000000000000e+02,1.170000000000000000e+02,6.700000000000000000e+01,1.480000000000000000e+02,4.099999999999999756e-01,8.734742700000000000e+09
1.990000000000000000e+02,5.660000000000000000e+02,1.104000000000000000e+03,8.100000000000000000e+02,2.470000000000000000e+02,1.340000000000000000e+02,7.700000000000000000e+01,1.540000000000000000e+02,3.800000000000000044e-01,8.752851200000000000e+09
2.040000000000000000e+02,6.530000000000000000e+02,1.314000000000000000e+03,8.280000000000000000e+02,2.550000000000000000e+02,1.320000000000000000e+02,8.200000000000000000e+01,1.350000000000000000e+02,3.499999999999999778e-01,8.771076500000000000e+09
2.110000000000000000e+02,6.850000000000000000e+02,1.252000000000000000e+03,8.740000000000000000e+02,2.640000000000000000e+02,1.390000000000000000e+02,8.600000000000000000e+01,1.250000000000000000e+02,3.200000000000000067e-01,8.793743900000000000e+09
2.000000000000000000e+02,6.640000000000000000e+02,1.255000000000000000e+03,8.270000000000000000e+02,2.540000000000000000e+02,1.410000000000000000e+02,8.800000000000000000e+01,1.220000000000000000e+02,2.899999999999999800e-01,8.817266700000000000e+09
1.940000000000000000e+02,6.500000000000000000e+02,1.221000000000000000e+03,7.630000000000000000e+02,2.360000000000000000e+02,1.360000000000000000e+02,8.700000000000000000e+01,1.160000000000000000e+02,2.700000000000000178e-01,8.834997400000000000e+09
1.800000000000000000e+02,6.080000000000000000e+02,1.198000000000000000e+03,6.870000000000000000e+02,1.870000000000000000e+02,1.290000000000000000e+02,7.900000000000000000e+01,1.150000000000000000e+02,2.500000000000000000e-01,8.853853500000000000e+09
1.800000000000000000e+02,5.370000000000000000e+02,1.049000000000000000e+03,7.270000000000000000e+02,1.970000000000000000e+02,1.630000000000000000e+02,7.500000000000000000e+01,1.290000000000000000e+02,2.399999999999999911e-01,8.884406100000000000e+09
1.680000000000000000e+02,4.570000000000000000e+02,9.890000000000000000e+02,6.470000000000000000e+02,2.000000000000000000e+02,1.570000000000000000e+02,7.100000000000000000e+01,1.260000000000000000e+02,2.300000000000000100e-01,8.902767500000000000e+09
1.610000000000000000e+02,4.370000000000000000e+02,1.044000000000000000e+03,6.200000000000000000e+02,2.110000000000000000e+02,1.540000000000000000e+02,6.700000000000000000e+01,1.190000000000000000e+02,2.200000000000000011e-01,8.920197700000000000e+09
1.700000000000000000e+02,4.990000000000000000e+02,1.112000000000000000e+03,5.920000000000000000e+02,2.100000000000000000e+02,1.520000000000000000e+02,6.800000000000000000e+01,1.170000000000000000e+02,2.099999999999999922e-01,8.936980900000000000e+09
1.780000000000000000e+02,5.560000000000000000e+02,1.130000000000000000e+03,6.200000000000000000e+02,2.210000000000000000e+02,1.590000000000000000e+02,7.600000000000000000e+01,1.160000000000000000e+02,1.900000000000000022e-01,8.955600000000000000e+09
1.790000000000000000e+02,5.780000000000000000e+02,1.147000000000000000e+03,5.710000000000000000e+02,2.070000000000000000e+02,1.270000000000000000e+02,7.200000000000000000e+01,1.010000000000000000e+02,1.799999999999999933e-01,8.974391600000000000e+09
1.790000000000000000e+02,5.640000000000000000e+02,1.203000000000000000e+03,5.540000000000000000e+02,1.840000000000000000e+02,1.210000000000000000e+02,7.300000000000000000e+01,9.800000000000000000e+01,1.700000000000000122e-01,8.996242200000000000e+09
1.660000000000000000e+02,5.850000000000000000e+02,1.153000000000000000e+03,5.310000000000000000e+02,1.860000000000000000e+02,1.170000000000000000e+02,7.100000000000000000e+01,9.200000000000000000e+01,1.600000000000000033e-01,9.013769700000000000e+09
1.520000000000000000e+02,5.760000000000000000e+02,1.172000000000000000e+03,5.140000000000000000e+02,1.990000000000000000e+02,1.210000000000000000e+02,7.200000000000000000e+01,9.200000000000000000e+01,1.600000000000000033e-01,9.033798700000000000e+09
1.430000000000000000e+02,5.110000000000000000e+02,1.206000000000000000e+03,4.770000000000000000e+02,1.950000000000000000e+02,1.020000000000000000e+02,6.200000000000000000e+01,9.000000000000000000e+01,1.499999999999999944e-01,9.056569500000000000e+09
1.280000000000000000e+02,5.090000000000000000e+02,1.162000000000000000e+03,4.180000000000000000e+02,1.810000000000000000e+02,9.200000000000000000e+01,5.800000000000000000e+01,8.100000000000000000e+01,1.400000000000000133e-01,9.087391500000000000e+09
1.460000000000000000e+02,5.360000000000000000e+02,1.162000000000000000e+03,5.110000000000000000e+02,2.110000000000000000e+02,1.210000000000000000e+02,7.400000000000000000e+01,9.100000000000000000e+01,1.300000000000000044e-01,9.106667900000000000e+09
1.630000000000000000e+02,5.660000000000000000e+02,1.182000000000000000e+03,5.000000000000000000e+02,2.080000000000000000e+02,1.230000000000000000e+02,7.500000000000000000e+01,9.300000000000000000e+01,1.199999999999999956e-01,9.124815900000000000e+09
1.960000000000000000e+02,5.540000000000000000e+02,1.105000000000000000e+03,5.520000000000000000e+02,2.220000000000000000e+02,1.490000000000000000e+02,8.200000000000000000e+01,1.090000000000000000e+02,1.199999999999999956e-01,9.142061500000000000e+09
1.990000000000000000e+02,5.510000000000000000e+02,1.050000000000000000e+03,5.390000000000000000e+02,2.270000000000000000e+02,1.560000000000000000e+02,8.600000000000000000e+01,1.140000000000000000e+02,1.100000000000000006e-01,9.159500500000000000e+09
1.920000000000000000e+02,4.950000000000000000e+02,1.101000000000000000e+03,5.460000000000000000e+02,2.290000000000000000e+02,1.540000000000000000e+02,8.600000000000000000e+01,1.120000000000000000e+02,1.100000000000000006e-01,9.178052500000000000e+09
1.760000000000000000e+02,4.650000000000000000e+02,1.049000000000000000e+03,4.740000000000000000e+02,2.040000000000000000e+02,1.370000000000000000e+02,7.000000000000000000e+01,1.010000000000000000e+02,1.000000000000000056e-01,9.195915000000000000e+09
1.710000000000000000e+02,4.410000000000000000e+02,1.024000000000000000e+03,4.780000000000000000e+02,2.000000000000000000e+02,1.360000000000000000e+02,6.900000000000000000e+01,1.020000000000000000e+02,1.000000000000000056e-01,9.214407500000000000e+09
1.320000000000000000e+02,3.750000000000000000e+02,9.860000000000000000e+02,4.020000000000000000e+02,1.650000000000000000e+02,9.900000000000000000e+01,5.500000000000000000e+01,8.200000000000000000e+01,1.000000000000000056e-01,9.237576500000000000e+09
1.260000000000000000e+02,3.750000000000000000e+02,9.450000000000000000e+02,3.920000000000000000e+02,1.500000000000000000e+02,9.000000000000000000e+01,4.900000000000000000e+01,7.500000000000000000e+01,1.000000000000000056e-01,9.260055400000000000e+09
1.460000000000000000e+02,4.040000000000000000e+02,8.900000000000000000e+02,3.930000000000000000e+02,1.690000000000000000e+02,9.800000000000000000e+01,5.300000000000000000e+01,8.200000000000000000e+01,1.000000000000000056e-01,9.282583300000000000e+09
1.590000000000000000e+02,4.570000000000000000e+02,9.680000000000000000e+02,4.030000000000000000e+02,1.860000000000000000e+02,1.000000000000000000e+02,6.000000000000000000e+01,8.900000000000000000e+01,1.000000000000000056e-01,9.301472800000000000e+09
1.530000000000000000e+02,4.190000000000000000e+02,9.050000000000000000e+02,3.670000000000000000e+02,1.700000000000000000e+02,9.400000000000000000e+01,6.000000000000000000e+01,8.300000000000000000e+01,1.000000000000000056e-01,9.319152700000000000e+09
1.610000000000000000e+02,4.410000000000000000e+02,8.660000000000000000e+02,3.900000000000000000e+02,1.820000000000000000e+02,1.000000000000000000e+02,6.500000000000000000e+01,8.800000000000000000e+01,1.000000000000000056e-01,9.336753300000000000e+09
1.560000000000000000e+02,4.360000000000000000e+02,8.980000000000000000e+02,4.010000000000000000e+02,1.750000000000000000e+02,9.500000000000000000e+01,6.300000000000000000e+01,8.500000000000000000e+01,1.000000000000000056e-01,9.356146600000000000e+09
1.450000000000000000e+02,4.200000000000000000e+02,8.130000000000000000e+02,3.790000000000000000e+02,1.540000000000000000e+02,8.800000000000000000e+01,6.000000000000000000e+01,8.100000000000000000e+01,1.000000000000000056e-01,9.374285300000000000e+09
1.270000000000000000e+02,3.580000000000000000e+02,7.760000000000000000e+02,3.680000000000000000e+02,1.340000000000000000e+02,7.700000000000000000e+01,5.400000000000000000e+01,6.900000000000000000e+01,1.100000000000000006e-01,9.394845100000000000e+09
1.190000000000000000e+02,3.340000000000000000e+02,7.780000000000000000e+02,3.680000000000000000e+02,1.290000000000000000e+02,7.100000000000000000e+01,4.900000000000000000e+01,6.800000000000000000e+01,1.199999999999999956e-01,9.418365700000000000e+09
1.080000000000000000e+02,2.870000000000000000e+02,8.700000000000000000e+02,3.460000000000000000e+02,1.100000000000000000e+02,6.000000000000000000e+01,4.200000000000000000e+01,6.100000000000000000e+01,1.300000000000000044e-01,9.436210500000000000e+09
1.180000000000000000e+02,2.730000000000000000e+02,8.490000000000000000e+02,3.260000000000000000e+02,1.190000000000000000e+02,6.200000000000000000e+01,4.300000000000000000e+01,6.500000000000000000e+01,1.400000000000000133e-01,9.453495900000000000e+09
1.110000000000000000e+02,2.860000000000000000e+02,9.070000000000000000e+02,3.200000000000000000e+02,1.170000000000000000e+02,6.300000000000000000e+01,4.300000000000000000e+01,6.000000000000000000e+01,1.499999999999999944e-01,9.492956100000000000e+09
1.180000000000000000e+02,2.680000000000000000e+02,8.650000000000000000e+02,3.120000000000000000e+02,1.260000000000000000e+02,6.700000000000000000e+01,4.300000000000000000e+01,6.300000000000000000e+01,1.600000000000000033e-01,9.511038600000000000e+09
1.190000000000000000e+02,2.740000000000000000e+02,8.590000000000000000e+02,2.990000000000000000e+02,1.310000000000000000e+02,7.000000000000000000e+01,4.500000000000000000e+01,6.200000000000000000e+01,1.700000000000000122e-01,9.527756700000000000e+09
1.120000000000000000e+02,2.750000000000000000e+02,8.510000000000000000e+02,3.180000000000000000e+02,1.270000000000000000e+02,6.800000000000000000e+01,4.500000000000000000e+01,6.000000000000000000e+01,1.799999999999999933e-01,9.545378100000000000e+09
9.900000000000000000e+01,2.850000000000000000e+02,8.070000000000000000e+02,3.340000000000000000e+02,1.210000000000000000e+02,6.800000000000000000e+01,4.400000000000000000e+01,5.400000000000000000e+01,1.900000000000000022e-01,9.562812400000000000e+09
1.160000000000000000e+02,3.000000000000000000e+02,7.470000000000000000e+02,3.410000000000000000e+02,1.290000000000000000e+02,7.700000000000000000e+01,4.800000000000000000e+01,6.400000000000000000e+01,2.099999999999999922e-01,9.580833300000000000e+09
1.110000000000000000e+02,3.450000000000000000e+02,8.110000000000000000e+02,3.230000000000000000e+02,1.250000000000000000e+02,7.800000000000000000e+01,4.600000000000000000e+01,6.600000000000000000e+01,2.200000000000000011e-01,9.597998400000000000e+09
1.120000000000000000e+02,3.540000000000000000e+02,7.850000000000000000e+02,3.210000000000000000e+02,1.230000000000000000e+02,7.700000000000000000e+01,4.700000000000000000e+01,6.700000000000000000e+01,2.300000000000000100e-01,9.615367100000000000e+09
1.140000000000000000e+02,3.700000000000000000e+02,7.520000000000000000e+02,3.130000000000000000e+02,1.210000000000000000e+02,7.400000000000000000e+01,4.900000000000000000e+01,6.800000000000000000e+01,2.300000000000000100e-01,9.633689600000000000e+09
1.170000000000000000e+02,3.570000000000000000e+02,8.180000000000000000e+02,3.220000000000000000e+02,1.370000000000000000e+02,8.200000000000000000e+01,5.000000000000000000e+01,7.100000000000000000e+01,2.399999999999999911e-01,9.656347400000000000e+09
1.010000000000000000e+02,3.170000000000000000e+02,8.410000000000000000e+02,3.040000000000000000e+02,1.290000000000000000e+02,7.500000000000000000e+01,4.200000000000000000e+01,6.300000000000000000e+01,2.399999999999999911e-01,9.673897800000000000e+09
8.700000000000000000e+01,2.630000000000000000e+02,7.760000000000000000e+02,2.910000000000000000e+02,1.080000000000000000e+02,6.500000000000000000e+01,3.900000000000000000e+01,5.400000000000000000e+01,2.399999999999999911e-01,9.693845600000000000e+09
9.500000000000000000e+01,2.570000000000000000e+02,8.600000000000000000e+02,3.410000000000000000e+02,1.150000000000000000e+02,6.700000000000000000e+01,4.100000000000000000e+01,5.700000000000000000e+01,2.500000000000000000e-01,9.717488400000000000e+09
9.400000000000000000e+01,2.390000000000000000e+02,8.340000000000000000e+02,3.260000000000000000e+02,1.200000000000000000e+02,7.000000000000000000e+01,4.100000000000000000e+01,5.400000000000000000e+01,2.600000000000000089e-01,9.734971600000000000e+09
9.100000000000000000e+01,2.390000000000000000e+02,8.680000000000000000e+02,2.900000000000000000e+02,1.040000000000000000e+02,6.000000000000000000e+01,4.300000000000000000e+01,5.000000000000000000e+01,2.600000000000000089e-01,9.753250200000000000e+09
8.300000000000000000e+01,2.410000000000000000e+02,8.360000000000000000e+02,2.770000000000000000e+02,9.100000000000000000e+01,5.000000000000000000e+01,4.200000000000000000e+01,4.400000000000000000e+01,2.700000000000000178e-01,9.791703000000000000e+09
8.800000000000000000e+01,2.490000000000000000e+02,8.260000000000000000e+02,3.080000000000000000e+02,1.050000000000000000e+02,5.800000000000000000e+01,4.400000000000000000e+01,4.900000000000000000e+01,2.800000000000000266e-01,9.808670900000000000e+09
8.300000000000000000e+01,2.610000000000000000e+02,8.170000000000000000e+02,2.680000000000000000e+02,1.020000000000000000e+02,5.700000000000000000e+01,3.900000000000000000e+01,4.900000000000000000e+01,2.899999999999999800e-01,9.826495000000000000e+09
9.500000000000000000e+01,3.090000000000000000e+02,8.760000000000000000e+02,2.620000000000000000e+02,1.010000000000000000e+02,5.800000000000000000e+01,4.200000000000000000e+01,5.500000000000000000e+01,2.999999999999999889e-01,9.844038700000000000e+09
9.600000000000000000e+01,3.180000000000000000e+02,8.440000000000000000e+02,2.690000000000000000e+02,9.800000000000000000e+01,5.700000000000000000e+01,3.800000000000000000e+01,5.600000000000000000e+01,2.999999999999999889e-01,9.860998200000000000e+09
1.060000000000000000e+02,3.220000000000000000e+02,8.730000000000000000e+02,2.860000000000000000e+02,1.090000000000000000e+02,6.400000000000000000e+01,4.300000000000000000e+01,6.100000000000000000e+01,3.099999999999999978e-01,9.878926400000000000e+09
1.010000000000000000e+02,3.090000000000000000e+02,8.410000000000000000e+02,2.580000000000000000e+02,1.000000000000000000e+02,5.700000000000000000e+01,4.100000000000000000e+01,5.700000000000000000e+01,3.200000000000000067e-01,9.896238700000000000e+09
9.800000000000000000e+01,2.900000000000000000e+02,8.670000000000000000e+02,2.660000000000000000e+02,9.100000000000000000e+01,5.600000000000000000e+01,4.200000000000000000e+01,5.600000000000000000e+01,3.300000000000000155e-01,9.920115700000000000e+09
8.000000000000000000e+01,2.150000000000000000e+02,7.700000000000000000e+02,2.520000000000000000e+02,8.200000000000000000e+01,5.300000000000000000e+01,3.400000000000000000e+01,4.800000000000000000e+01,3.300000000000000155e-01,9.937257900000000000e+09
8.100000000000000000e+01,2.020000000000000000e+02,7.820000000000000000e+02,2.500000000000000000e+02,8.400000000000000000e+01,5.200000000000000000e+01,3.600000000000000000e+01,4.900000000000000000e+01,3.400000000000000244e-01,9.956134800000000000e+09
7.100000000000000000e+01,2.100000000000000000e+02,9.040000000000000000e+02,2.340000000000000000e+02,7.000000000000000000e+01,4.900000000000000000e+01,3.300000000000000000e+01,4.200000000000000000e+01,3.499999999999999778e-01,9.979679400000000000e+09
7.700000000000000000e+01,2.090000000000000000e+02,9.070000000000000000e+02,2.800000000000000000e+02,7.700000000000000000e+01,5.700000000000000000e+01,3.200000000000000000e+01,4.600000000000000000e+01,3.599999999999999867e-01,9.997086500000000000e+09
7.700000000000000000e+01,2.200000000000000000e+02,8.100000000000000000e+02,2.680000000000000000e+02,7.900000000000000000e+01,5.400000000000000000e+01,3.200000000000000000e+01,4.400000000000000000e+01,3.599999999999999867e-01,1.001654720000000000e+10
8.000000000000000000e+01,2.430000000000000000e+02,8.510000000000000000e+02,2.760000000000000000e+02,8.300000000000000000e+01,5.800000000000000000e+01,3.500000000000000000e+01,4.600000000000000000e+01,3.699999999999999956e-01,1.003936730000000000e+10
7.400000000000000000e+01,2.270000000000000000e+02,7.660000000000000000e+02,2.650000000000000000e+02,7.700000000000000000e+01,5.700000000000000000e+01,3.200000000000000000e+01,4.100000000000000000e+01,3.699999999999999956e-01,1.006193890000000000e+10
7.700000000000000000e+01,2.320000000000000000e+02,6.140000000000000000e+02,2.920000000000000000e+02,8.800000000000000000e+01,6.400000000000000000e+01,3.700000000000000000e+01,4.400000000000000000e+01,3.900000000000000133e-01,1.008019820000000000e+10
7.300000000000000000e+01,2.250000000000000000e+02,6.100000000000000000e+02,2.510000000000000000e+02,7.900000000000000000e+01,5.800000000000000000e+01,3.800000000000000000e+01,4.200000000000000000e+01,4.000000000000000222e-01,1.010764630000000000e+10
6.200000000000000000e+01,2.060000000000000000e+02,5.810000000000000000e+02,2.280000000000000000e+02,7.200000000000000000e+01,5.700000000000000000e+01,3.600000000000000000e+01,3.700000000000000000e+01,4.199999999999999845e-01,1.012571390000000000e+10
5.700000000000000000e+01,1.750000000000000000e+02,4.930000000000000000e+02,2.160000000000000000e+02,6.800000000000000000e+01,5.000000000000000000e+01,3.400000000000000000e+01,3.400000000000000000e+01,4.299999999999999933e-01,1.014411830000000000e+10
6.700000000000000000e+01,1.960000000000000000e+02,4.920000000000000000e+02,2.550000000000000000e+02,8.000000000000000000e+01,5.500000000000000000e+01,3.700000000000000000e+01,4.300000000000000000e+01,4.500000000000000111e-01,1.016199450000000000e+10
8.600000000000000000e+01,1.820000000000000000e+02,4.600000000000000000e+02,2.410000000000000000e+02,8.800000000000000000e+01,5.300000000000000000e+01,3.800000000000000000e+01,5.100000000000000000e+01,4.600000000000000200e-01,1.018020490000000000e+10
8.500000000000000000e+01,1.750000000000000000e+02,4.470000000000000000e+02,2.240000000000000000e+02,8.500000000000000000e+01,5.100000000000000000e+01,3.500000000000000000e+01,4.800000000000000000e+01,4.699999999999999734e-01,1.019739160000000000e+10
8.400000000000000000e+01,1.590000000000000000e+02,4.250000000000000000e+02,2.180000000000000000e+02,8.700000000000000000e+01,5.200000000000000000e+01,3.600000000000000000e+01,4.900000000000000000e+01,4.799999999999999822e-01,1.021974390000000000e+10
8.300000000000000000e+01,1.630000000000000000e+02,4.550000000000000000e+02,2.140000000000000000e+02,8.700000000000000000e+01,5.300000000000000000e+01,3.700000000000000000e+01,4.900000000000000000e+01,4.899999999999999911e-01,1.023732960000000000e+10
7.600000000000000000e+01,1.380000000000000000e+02,4.380000000000000000e+02,1.770000000000000000e+02,7.700000000000000000e+01,4.700000000000000000e+01,3.300000000000000000e+01,4.200000000000000000e+01,5.000000000000000000e-01,1.025725950000000000e+10
4.400000000000000000e+01,1.210000000000000000e+02,4.190000000000000000e+02,1.360000000000000000e+02,5.200000000000000000e+01,3.600000000000000000e+01,2.500000000000000000e+01,3.100000000000000000e+01,5.100000000000000089e-01,1.028002820000000000e+10
4.100000000000000000e+01,1.310000000000000000e+02,3.970000000000000000e+02,1.210000000000000000e+02,4.900000000000000000e+01,3.600000000000000000e+01,2.500000000000000000e+01,3.000000000000000000e+01,5.300000000000000266e-01,1.029702290000000000e+10
4.200000000000000000e+01,1.390000000000000000e+02,4.230000000000000000e+02,1.170000000000000000e+02,4.300000000000000000e+01,3.300000000000000000e+01,2.600000000000000000e+01,5.300000000000000000e+01,5.400000000000000355e-01,1.031770600000000000e+10
4.200000000000000000e+01,1.350000000000000000e+02,3.350000000000000000e+02,1.070000000000000000e+02,3.800000000000000000e+01,3.100000000000000000e+01,2.600000000000000000e+01,5.500000000000000000e+01,5.400000000000000355e-01,1.033917300000000000e+10
