4.000000000000000000e+01,9.600000000000000000e+01,5.470000000000000000e+02,8.100000000000000000e+01,3.500000000000000000e+01,1.020000000000000000e+02,9.900000000000000000e+01,3.000000000000000000e+01,5.999999999999999778e-01,4.645913000000000000e+08
3.800000000000000000e+01,9.700000000000000000e+01,4.950000000000000000e+02,9.100000000000000000e+01,3.500000000000000000e+01,1.070000000000000000e+02,1.000000000000000000e+02,2.900000000000000000e+01,5.999999999999999778e-01,4.935017000000000000e+08
3.700000000000000000e+01,9.600000000000000000e+01,4.220000000000000000e+02,9.300000000000000000e+01,3.500000000000000000e+01,1.050000000000000000e+02,1.050000000000000000e+02,2.900000000000000000e+01,5.999999999999999778e-01,7.718433000000000000e+08
4.000000000000000000e+01,9.300000000000000000e+01,4.310000000000000000e+02,1.100000000000000000e+02,4.000000000000000000e+01,1.010000000000000000e+02,1.070000000000000000e+02,3.300000000000000000e+01,5.999999999999999778e-01,7.889540000000000000e+08
3.700000000000000000e+01,8.100000000000000000e+01,4.260000000000000000e+02,1.030000000000000000e+02,3.800000000000000000e+01,9.000000000000000000e+01,8.500000000000000000e+01,3.200000000000000000e+01,5.999999999999999778e-01,8.064499000000000000e+08
3.700000000000000000e+01,8.500000000000000000e+01,4.940000000000000000e+02,1.060000000000000000e+02,3.600000000000000000e+01,1.000000000000000000e+02,7.900000000000000000e+01,3.200000000000000000e+01,5.999999999999999778e-01,8.239801000000000000e+08
3.600000000000000000e+01,8.000000000000000000e+01,5.120000000000000000e+02,9.900000000000000000e+01,3.500000000000000000e+01,1.270000000000000000e+02,8.000000000000000000e+01,3.100000000000000000e+01,5.999999999999999778e-01,8.410035000000000000e+08
3.600000000000000000e+01,8.500000000000000000e+01,4.920000000000000000e+02,1.010000000000000000e+02,3.500000000000000000e+01,1.220000000000000000e+02,7.500000000000000000e+01,3.000000000000000000e+01,6.099999999999999867e-01,8.581024000000000000e+08
3.200000000000000000e+01,8.100000000000000000e+01,4.420000000000000000e+02,9.300000000000000000e+01,3.100000000000000000e+01,1.220000000000000000e+02,7.700000000000000000e+01,2.600000000000000000e+01,6.099999999999999867e-01,8.756288000000000000e+08
3.300000000000000000e+01,8.200000000000000000e+01,4.340000000000000000e+02,9.700000000000000000e+01,3.200000000000000000e+01,1.210000000000000000e+02,6.700000000000000000e+01,2.700000000000000000e+01,6.099999999999999867e-01,8.923055000000000000e+08
2.900000000000000000e+01,6.000000000000000000e+01,3.220000000000000000e+02,9.200000000000000000e+01,2.900000000000000000e+01,1.150000000000000000e+02,6.700000000000000000e+01,2.400000000000000000e+01,6.099999999999999867e-01,9.095253000000000000e+08
2.900000000000000000e+01,5.800000000000000000e+01,3.280000000000000000e+02,1.080000000000000000e+02,3.300000000000000000e+01,8.900000000000000000e+01,6.800000000000000000e+01,2.600000000000000000e+01,6.099999999999999867e-01,9.258492000000000000e+08
3.100000000000000000e+01,5.000000000000000000e+01,3.620000000000000000e+02,1.110000000000000000e+02,3.400000000000000000e+01,1.090000000000000000e+02,8.900000000000000000e+01,2.800000000000000000e+01,6.099999999999999867e-01,9.432300000000000000e+08
3.200000000000000000e+01,6.400000000000000000e+01,3.510000000000000000e+02,1.090000000000000000e+02,3.600000000000000000e+01,1.070000000000000000e+02,1.000000000000000000e+02,3.000000000000000000e+01,6.099999999999999867e-01,9.610297000000000000e+08
3.100000000000000000e+01,6.900000000000000000e+01,4.410000000000000000e+02,1.080000000000000000e+02,3.600000000000000000e+01,1.050000000000000000e+02,1.000000000000000000e+02,2.900000000000000000e+01,6.099999999999999867e-01,9.794712000000000000e+08
3.100000000000000000e+01,7.400000000000000000e+01,4.530000000000000000e+02,1.130000000000000000e+02,3.500000000000000000e+01,1.000000000000000000e+02,1.000000000000000000e+02,3.000000000000000000e+01,6.099999999999999867e-01,9.997916000000000000e+08
3.300000000000000000e+01,7.600000000000000000e+01,4.380000000000000000e+02,1.010000000000000000e+02,3.400000000000000000e+01,1.180000000000000000e+02,1.020000000000000000e+02,3.100000000000000000e+01,6.099999999999999867e-01,1.017466900000000000e+09
3.300000000000000000e+01,7.800000000000000000e+01,4.420000000000000000e+02,9.400000000000000000e+01,3.300000000000000000e+01,1.010000000000000000e+02,9.400000000000000000e+01,3.200000000000000000e+01,6.199999999999999956e-01,1.036197200000000000e+09
3.100000000000000000e+01,6.800000000000000000e+01,5.020000000000000000e+02,9.100000000000000000e+01,3.100000000000000000e+01,1.100000000000000000e+02,7.900000000000000000e+01,2.900000000000000000e+01,6.199999999999999956e-01,1.053561100000000000e+09
3.600000000000000000e+01,6.400000000000000000e+01,5.300000000000000000e+02,1.130000000000000000e+02,3.200000000000000000e+01,1.110000000000000000e+02,7.800000000000000000e+01,3.200000000000000000e+01,6.199999999999999956e-01,1.070549100000000000e+09
4.500000000000000000e+01,9.300000000000000000e+01,5.840000000000000000e+02,1.290000000000000000e+02,4.300000000000000000e+01,1.230000000000000000e+02,8.300000000000000000e+01,3.300000000000000000e+01,6.199999999999999956e-01,1.087968400000000000e+09
4.400000000000000000e+01,1.050000000000000000e+02,6.250000000000000000e+02,1.360000000000000000e+02,4.400000000000000000e+01,1.160000000000000000e+02,9.400000000000000000e+01,3.100000000000000000e+01,6.199999999999999956e-01,1.105140600000000000e+09
4.700000000000000000e+01,1.200000000000000000e+02,7.010000000000000000e+02,1.630000000000000000e+02,4.700000000000000000e+01,1.220000000000000000e+02,7.900000000000000000e+01,3.200000000000000000e+01,6.199999999999999956e-01,1.121801100000000000e+09
5.000000000000000000e+01,1.210000000000000000e+02,7.110000000000000000e+02,1.740000000000000000e+02,5.000000000000000000e+01,1.250000000000000000e+02,7.500000000000000000e+01,3.400000000000000000e+01,6.099999999999999867e-01,1.139651600000000000e+09
5.600000000000000000e+01,1.440000000000000000e+02,6.920000000000000000e+02,1.850000000000000000e+02,5.600000000000000000e+01,1.260000000000000000e+02,7.800000000000000000e+01,3.900000000000000000e+01,6.099999999999999867e-01,1.156893200000000000e+09
5.200000000000000000e+01,1.600000000000000000e+02,7.180000000000000000e+02,1.820000000000000000e+02,5.300000000000000000e+01,1.140000000000000000e+02,7.000000000000000000e+01,4.000000000000000000e+01,5.999999999999999778e-01,1.173656300000000000e+09
5.600000000000000000e+01,1.670000000000000000e+02,7.460000000000000000e+02,1.760000000000000000e+02,5.400000000000000000e+01,9.200000000000000000e+01,4.900000000000000000e+01,4.200000000000000000e+01,5.999999999999999778e-01,1.191590600000000000e+09
6.200000000000000000e+01,1.800000000000000000e+02,7.180000000000000000e+02,1.760000000000000000e+02,5.400000000000000000e+01,7.700000000000000000e+01,5.200000000000000000e+01,4.300000000000000000e+01,5.899999999999999689e-01,1.209843300000000000e+09
6.700000000000000000e+01,1.840000000000000000e+02,7.110000000000000000e+02,1.840000000000000000e+02,5.700000000000000000e+01,8.300000000000000000e+01,5.100000000000000000e+01,4.600000000000000000e+01,5.899999999999999689e-01,1.229246800000000000e+09
6.700000000000000000e+01,2.000000000000000000e+02,7.860000000000000000e+02,1.940000000000000000e+02,5.800000000000000000e+01,8.400000000000000000e+01,4.600000000000000000e+01,4.400000000000000000e+01,5.799999999999999600e-01,1.247774500000000000e+09
6.500000000000000000e+01,1.850000000000000000e+02,7.170000000000000000e+02,1.890000000000000000e+02,5.600000000000000000e+01,9.400000000000000000e+01,5.500000000000000000e+01,4.200000000000000000e+01,5.799999999999999600e-01,1.266959000000000000e+09
6.700000000000000000e+01,1.950000000000000000e+02,7.430000000000000000e+02,2.300000000000000000e+02,5.900000000000000000e+01,1.260000000000000000e+02,5.800000000000000000e+01,4.400000000000000000e+01,5.699999999999999512e-01,1.285682800000000000e+09
6.200000000000000000e+01,2.010000000000000000e+02,7.810000000000000000e+02,2.320000000000000000e+02,1.840000000000000000e+02,1.510000000000000000e+02,5.500000000000000000e+01,4.400000000000000000e+01,5.600000000000000533e-01,1.303286600000000000e+09
5.800000000000000000e+01,2.460000000000000000e+02,7.980000000000000000e+02,3.180000000000000000e+02,2.690000000000000000e+02,1.600000000000000000e+02,6.100000000000000000e+01,4.200000000000000000e+01,5.300000000000000266e-01,1.320935900000000000e+09
6.000000000000000000e+01,2.800000000000000000e+02,7.000000000000000000e+02,3.200000000000000000e+02,4.270000000000000000e+02,1.880000000000000000e+02,6.600000000000000000e+01,4.400000000000000000e+01,5.000000000000000000e-01,1.338826400000000000e+09
7.000000000000000000e+01,2.880000000000000000e+02,6.800000000000000000e+02,3.370000000000000000e+02,4.450000000000000000e+02,2.260000000000000000e+02,6.000000000000000000e+01,4.800000000000000000e+01,4.699999999999999734e-01,1.356385600000000000e+09
7.400000000000000000e+01,2.790000000000000000e+02,6.910000000000000000e+02,3.220000000000000000e+02,4.500000000000000000e+02,2.350000000000000000e+02,8.400000000000000000e+01,4.500000000000000000e+01,4.500000000000000111e-01,1.373097800000000000e+09
7.600000000000000000e+01,2.740000000000000000e+02,6.010000000000000000e+02,3.110000000000000000e+02,4.210000000000000000e+02,2.480000000000000000e+02,9.000000000000000000e+01,6.000000000000000000e+01,4.199999999999999845e-01,1.390143500000000000e+09
7.800000000000000000e+01,2.430000000000000000e+02,5.280000000000000000e+02,2.090000000000000000e+02,3.810000000000000000e+02,2.590000000000000000e+02,1.090000000000000000e+02,1.830000000000000000e+02,3.900000000000000133e-01,1.409380900000000000e+09
9.700000000000000000e+01,1.830000000000000000e+02,4.960000000000000000e+02,1.780000000000000000e+02,1.930000000000000000e+02,2.770000000000000000e+02,1.870000000000000000e+02,3.770000000000000000e+02,3.699999999999999956e-01,1.426750300000000000e+09
1.030000000000000000e+02,1.650000000000000000e+02,5.210000000000000000e+02,1.370000000000000000e+02,1.480000000000000000e+02,2.690000000000000000e+02,2.110000000000000000e+02,4.540000000000000000e+02,3.400000000000000244e-01,1.443821600000000000e+09
1.180000000000000000e+02,1.650000000000000000e+02,3.840000000000000000e+02,1.060000000000000000e+02,1.300000000000000000e+02,2.560000000000000000e+02,2.120000000000000000e+02,5.110000000000000000e+02,3.200000000000000067e-01,1.460804900000000000e+09
1.230000000000000000e+02,1.410000000000000000e+02,3.900000000000000000e+02,1.050000000000000000e+02,1.140000000000000000e+02,2.380000000000000000e+02,2.240000000000000000e+02,5.790000000000000000e+02,2.999999999999999889e-01,1.477550000000000000e+09
1.280000000000000000e+02,1.260000000000000000e+02,4.790000000000000000e+02,1.170000000000000000e+02,8.700000000000000000e+01,2.540000000000000000e+02,2.180000000000000000e+02,6.790000000000000000e+02,2.700000000000000178e-01,1.494218700000000000e+09
1.170000000000000000e+02,1.300000000000000000e+02,5.590000000000000000e+02,1.120000000000000000e+02,6.800000000000000000e+01,2.210000000000000000e+02,1.950000000000000000e+02,6.040000000000000000e+02,2.600000000000000089e-01,1.510952100000000000e+09
1.090000000000000000e+02,1.250000000000000000e+02,5.510000000000000000e+02,1.100000000000000000e+02,6.800000000000000000e+01,2.050000000000000000e+02,1.750000000000000000e+02,5.870000000000000000e+02,2.600000000000000089e-01,1.528627700000000000e+09
9.200000000000000000e+01,1.350000000000000000e+02,5.430000000000000000e+02,1.180000000000000000e+02,6.600000000000000000e+01,2.080000000000000000e+02,1.740000000000000000e+02,6.000000000000000000e+02,2.600000000000000089e-01,1.546422100000000000e+09
8.600000000000000000e+01,1.350000000000000000e+02,5.390000000000000000e+02,1.140000000000000000e+02,5.500000000000000000e+01,2.710000000000000000e+02,2.200000000000000000e+02,5.490000000000000000e+02,2.700000000000000178e-01,1.564996900000000000e+09
8.400000000000000000e+01,1.340000000000000000e+02,4.820000000000000000e+02,1.040000000000000000e+02,4.200000000000000000e+01,2.410000000000000000e+02,2.220000000000000000e+02,4.780000000000000000e+02,2.700000000000000178e-01,1.581903000000000000e+09
7.900000000000000000e+01,1.180000000000000000e+02,4.300000000000000000e+02,1.060000000000000000e+02,4.100000000000000000e+01,2.360000000000000000e+02,2.000000000000000000e+02,4.750000000000000000e+02,2.800000000000000266e-01,1.599147900000000000e+09
7.900000000000000000e+01,1.130000000000000000e+02,4.140000000000000000e+02,1.040000000000000000e+02,3.900000000000000000e+01,2.320000000000000000e+02,2.010000000000000000e+02,4.860000000000000000e+02,2.899999999999999800e-01,1.616509300000000000e+09
8.100000000000000000e+01,1.140000000000000000e+02,4.600000000000000000e+02,1.460000000000000000e+02,4.200000000000000000e+01,2.210000000000000000e+02,1.990000000000000000e+02,4.940000000000000000e+02,2.899999999999999800e-01,1.633143800000000000e+09
7.800000000000000000e+01,1.270000000000000000e+02,4.310000000000000000e+02,1.490000000000000000e+02,4.300000000000000000e+01,1.270000000000000000e+02,1.300000000000000000e+02,4.810000000000000000e+02,2.999999999999999889e-01,1.649951800000000000e+09
6.900000000000000000e+01,1.290000000000000000e+02,4.050000000000000000e+02,1.480000000000000000e+02,4.300000000000000000e+01,1.190000000000000000e+02,1.590000000000000000e+02,4.310000000000000000e+02,2.999999999999999889e-01,1.668029700000000000e+09
6.500000000000000000e+01,1.260000000000000000e+02,3.490000000000000000e+02,1.490000000000000000e+02,4.300000000000000000e+01,1.110000000000000000e+02,1.500000000000000000e+02,4.440000000000000000e+02,3.099999999999999978e-01,1.687410900000000000e+09
5.900000000000000000e+01,1.720000000000000000e+02,3.590000000000000000e+02,1.560000000000000000e+02,4.700000000000000000e+01,1.170000000000000000e+02,1.480000000000000000e+02,4.000000000000000000e+02,3.099999999999999978e-01,1.704533400000000000e+09
5.500000000000000000e+01,1.550000000000000000e+02,2.750000000000000000e+02,1.100000000000000000e+02,4.100000000000000000e+01,1.330000000000000000e+02,1.370000000000000000e+02,3.070000000000000000e+02,3.200000000000000067e-01,1.721420200000000000e+09
6.200000000000000000e+01,1.510000000000000000e+02,2.850000000000000000e+02,1.130000000000000000e+02,4.200000000000000000e+01,1.370000000000000000e+02,1.330000000000000000e+02,3.100000000000000000e+02,3.300000000000000155e-01,1.738471500000000000e+09
6.900000000000000000e+01,1.710000000000000000e+02,4.060000000000000000e+02,1.420000000000000000e+02,4.800000000000000000e+01,1.370000000000000000e+02,8.300000000000000000e+01,2.680000000000000000e+02,3.400000000000000244e-01,1.755528700000000000e+09
7.100000000000000000e+01,1.850000000000000000e+02,4.260000000000000000e+02,1.450000000000000000e+02,4.900000000000000000e+01,1.490000000000000000e+02,7.300000000000000000e+01,2.370000000000000000e+02,3.599999999999999867e-01,1.772713400000000000e+09
7.700000000000000000e+01,1.570000000000000000e+02,4.370000000000000000e+02,1.500000000000000000e+02,4.800000000000000000e+01,1.360000000000000000e+02,1.010000000000000000e+02,2.270000000000000000e+02,3.699999999999999956e-01,1.790750400000000000e+09
7.100000000000000000e+01,1.600000000000000000e+02,4.740000000000000000e+02,1.520000000000000000e+02,4.800000000000000000e+01,1.300000000000000000e+02,1.070000000000000000e+02,2.150000000000000000e+02,3.800000000000000044e-01,1.811063400000000000e+09
6.700000000000000000e+01,2.050000000000000000e+02,6.020000000000000000e+02,1.680000000000000000e+02,5.000000000000000000e+01,1.150000000000000000e+02,1.080000000000000000e+02,2.020000000000000000e+02,3.900000000000000133e-01,1.828310200000000000e+09
5.900000000000000000e+01,2.040000000000000000e+02,5.940000000000000000e+02,1.520000000000000000e+02,4.300000000000000000e+01,1.130000000000000000e+02,1.100000000000000000e+02,1.840000000000000000e+02,4.099999999999999756e-01,1.845041900000000000e+09
5.600000000000000000e+01,1.930000000000000000e+02,6.110000000000000000e+02,1.720000000000000000e+02,4.400000000000000000e+01,1.130000000000000000e+02,1.170000000000000000e+02,1.950000000000000000e+02,4.199999999999999845e-01,1.862201000000000000e+09
4.800000000000000000e+01,1.820000000000000000e+02,6.570000000000000000e+02,1.790000000000000000e+02,4.300000000000000000e+01,1.000000000000000000e+02,7.800000000000000000e+01,1.690000000000000000e+02,4.299999999999999933e-01,1.878832200000000000e+09
4.900000000000000000e+01,1.810000000000000000e+02,7.410000000000000000e+02,1.810000000000000000e+02,4.200000000000000000e+01,1.050000000000000000e+02,6.700000000000000000e+01,1.540000000000000000e+02,4.400000000000000022e-01,1.896837500000000000e+09
7.000000000000000000e+01,1.860000000000000000e+02,7.360000000000000000e+02,2.170000000000000000e+02,6.200000000000000000e+01,1.180000000000000000e+02,7.500000000000000000e+01,1.500000000000000000e+02,4.500000000000000111e-01,1.914092700000000000e+09
7.200000000000000000e+01,1.730000000000000000e+02,7.140000000000000000e+02,2.180000000000000000e+02,6.200000000000000000e+01,1.910000000000000000e+02,7.700000000000000000e+01,1.330000000000000000e+02,4.500000000000000111e-01,1.931165000000000000e+09
7.900000000000000000e+01,1.810000000000000000e+02,7.590000000000000000e+02,2.160000000000000000e+02,6.400000000000000000e+01,1.910000000000000000e+02,6.700000000000000000e+01,1.700000000000000000e+02,4.600000000000000200e-01,1.948497500000000000e+09
7.900000000000000000e+01,1.860000000000000000e+02,7.250000000000000000e+02,2.060000000000000000e+02,6.500000000000000000e+01,1.970000000000000000e+02,6.900000000000000000e+01,2.090000000000000000e+02,4.600000000000000200e-01,1.964834500000000000e+09
8.100000000000000000e+01,1.930000000000000000e+02,6.660000000000000000e+02,2.070000000000000000e+02,7.000000000000000000e+01,2.190000000000000000e+02,7.500000000000000000e+01,2.350000000000000000e+02,4.600000000000000200e-01,1.981903600000000000e+09
6.200000000000000000e+01,1.290000000000000000e+02,5.630000000000000000e+02,1.470000000000000000e+02,5.000000000000000000e+01,2.320000000000000000e+02,6.100000000000000000e+01,2.540000000000000000e+02,4.600000000000000200e-01,1.999703800000000000e+09
5.900000000000000000e+01,1.180000000000000000e+02,5.190000000000000000e+02,1.320000000000000000e+02,4.900000000000000000e+01,1.770000000000000000e+02,5.500000000000000000e+01,2.540000000000000000e+02,4.600000000000000200e-01,2.016986100000000000e+09
4.600000000000000000e+01,1.010000000000000000e+02,4.160000000000000000e+02,1.010000000000000000e+02,4.400000000000000000e+01,1.690000000000000000e+02,5.200000000000000000e+01,2.120000000000000000e+02,4.699999999999999734e-01,2.034167800000000000e+09
4.400000000000000000e+01,1.170000000000000000e+02,3.730000000000000000e+02,8.700000000000000000e+01,4.300000000000000000e+01,1.640000000000000000e+02,4.800000000000000000e+01,1.720000000000000000e+02,4.699999999999999734e-01,2.051471800000000000e+09
3.900000000000000000e+01,1.200000000000000000e+02,2.510000000000000000e+02,6.500000000000000000e+01,3.200000000000000000e+01,1.230000000000000000e+02,4.000000000000000000e+01,1.280000000000000000e+02,4.699999999999999734e-01,2.069524100000000000e+09
4.100000000000000000e+01,1.410000000000000000e+02,2.920000000000000000e+02,8.500000000000000000e+01,3.700000000000000000e+01,8.300000000000000000e+01,3.700000000000000000e+01,8.100000000000000000e+01,4.699999999999999734e-01,2.087209500000000000e+09
5.900000000000000000e+01,1.860000000000000000e+02,5.480000000000000000e+02,1.270000000000000000e+02,5.400000000000000000e+01,8.700000000000000000e+01,3.200000000000000000e+01,1.050000000000000000e+02,4.799999999999999822e-01,2.104908400000000000e+09
5.900000000000000000e+01,2.050000000000000000e+02,5.580000000000000000e+02,1.380000000000000000e+02,7.300000000000000000e+01,8.600000000000000000e+01,3.200000000000000000e+01,1.020000000000000000e+02,4.799999999999999822e-01,2.122273800000000000e+09
6.300000000000000000e+01,2.040000000000000000e+02,5.910000000000000000e+02,1.710000000000000000e+02,1.090000000000000000e+02,7.900000000000000000e+01,3.400000000000000000e+01,8.900000000000000000e+01,4.799999999999999822e-01,2.139771900000000000e+09
8.000000000000000000e+01,2.490000000000000000e+02,7.300000000000000000e+02,3.430000000000000000e+02,1.320000000000000000e+02,8.300000000000000000e+01,3.400000000000000000e+01,8.800000000000000000e+01,4.799999999999999822e-01,2.159402300000000000e+09
1.100000000000000000e+02,3.750000000000000000e+02,9.100000000000000000e+02,4.860000000000000000e+02,1.680000000000000000e+02,1.040000000000000000e+02,4.200000000000000000e+01,9.500000000000000000e+01,4.600000000000000200e-01,2.177915100000000000e+09
1.240000000000000000e+02,3.920000000000000000e+02,1.063000000000000000e+03,5.570000000000000000e+02,1.910000000000000000e+02,1.110000000000000000e+02,5.100000000000000000e+01,7.900000000000000000e+01,4.500000000000000111e-01,2.196552200000000000e+09
1.740000000000000000e+02,5.460000000000000000e+02,1.135000000000000000e+03,6.480000000000000000e+02,2.220000000000000000e+02,1.290000000000000000e+02,6.300000000000000000e+01,9.400000000000000000e+01,4.299999999999999933e-01,2.213597100000000000e+09
1.910000000000000000e+02,5.870000000000000000e+02,1.201000000000000000e+03,6.940000000000000000e+02,2.200000000000000000e+02,1.330000000000000000e+02,6.800000000000000000e+01,1.010000000000000000e+02,4.199999999999999845e-01,2.232472400000000000e+09
1.950000000000000000e+02,5.910000000000000000e+02,1.262000000000000000e+03,7.120000000000000000e+02,2.190000000000000000e+02,1.300000000000000000e+02,7.000000000000000000e+01,1.050000000000000000e+02,4.000000000000000222e-01,2.250048000000000000e+09
1.930000000000000000e+02,5.600000000000000000e+02,1.198000000000000000e+03,6.540000000000000000e+02,2.240000000000000000e+02,1.270000000000000000e+02,7.200000000000000000e+01,1.040000000000000000e+02,3.699999999999999956e-01,2.268445600000000000e+09
2.060000000000000000e+02,6.300000000000000000e+02,1.080000000000000000e+03,6.140000000000000000e+02,2.140000000000000000e+02,1.230000000000000000e+02,7.000000000000000000e+01,1.040000000000000000e+02,3.499999999999999778e-01,2.288431100000000000e+09
1.790000000000000000e+02,5.690000000000000000e+02,1.121000000000000000e+03,5.580000000000000000e+02,1.910000000000000000e+02,1.070000000000000000e+02,6.600000000000000000e+01,9.200000000000000000e+01,3.200000000000000067e-01,2.311735700000000000e+09
1.810000000000000000e+02,5.860000000000000000e+02,1.102000000000000000e+03,5.930000000000000000e+02,2.090000000000000000e+02,1.280000000000000000e+02,6.900000000000000000e+01,9.400000000000000000e+01,2.999999999999999889e-01,2.340697000000000000e+09
1.830000000000000000e+02,6.060000000000000000e+02,1.051000000000000000e+03,6.310000000000000000e+02,2.110000000000000000e+02,1.300000000000000000e+02,6.800000000000000000e+01,9.100000000000000000e+01,2.700000000000000178e-01,2.362596300000000000e+09
2.030000000000000000e+02,6.040000000000000000e+02,1.133000000000000000e+03,6.590000000000000000e+02,2.030000000000000000e+02,1.260000000000000000e+02,7.300000000000000000e+01,1.050000000000000000e+02,2.399999999999999911e-01,2.384463200000000000e+09
2.240000000000000000e+02,6.120000000000000000e+02,1.123000000000000000e+03,7.250000000000000000e+02,2.300000000000000000e+02,1.370000000000000000e+02,8.400000000000000000e+01,1.160000000000000000e+02,2.200000000000000011e-01,2.405556200000000000e+09
2.300000000000000000e+02,6.270000000000000000e+02,1.083000000000000000e+03,7.240000000000000000e+02,2.340000000000000000e+02,1.470000000000000000e+02,8.100000000000000000e+01,1.190000000000000000e+02,2.099999999999999922e-01,2.427404900000000000e+09
2.220000000000000000e+02,6.140000000000000000e+02,1.137000000000000000e+03,6.600000000000000000e+02,2.110000000000000000e+02,1.280000000000000000e+02,7.400000000000000000e+01,1.110000000000000000e+02,2.000000000000000111e-01,2.446252300000000000e+09
2.200000000000000000e+02,6.060000000000000000e+02,1.073000000000000000e+03,5.900000000000000000e+02,2.050000000000000000e+02,1.260000000000000000e+02,7.300000000000000000e+01,1.120000000000000000e+02,1.900000000000000022e-01,2.467660800000000000e+09
1.940000000000000000e+02,6.080000000000000000e+02,9.720000000000000000e+02,5.700000000000000000e+02,1.910000000000000000e+02,1.170000000000000000e+02,6.500000000000000000e+01,9.400000000000000000e+01,1.799999999999999933e-01,2.488446200000000000e+09
1.430000000000000000e+02,5.270000000000000000e+02,1.027000000000000000e+03,4.960000000000000000e+02,1.540000000000000000e+02,9.900000000000000000e+01,4.600000000000000000e+01,7.200000000000000000e+01,1.700000000000000122e-01,2.507703800000000000e+09
1.360000000000000000e+02,4.720000000000000000e+02,1.021000000000000000e+03,4.950000000000000000e+02,1.470000000000000000e+02,9.100000000000000000e+01,4.900000000000000000e+01,7.100000000000000000e+01,1.600000000000000033e-01,2.527594300000000000e+09
1.600000000000000000e+02,5.450000000000000000e+02,9.820000000000000000e+02,5.320000000000000000e+02,1.680000000000000000e+02,1.040000000000000000e+02,5.700000000000000000e+01,8.500000000000000000e+01,1.600000000000000033e-01,2.546958900000000000e+09
1.690000000000000000e+02,5.740000000000000000e+02,1.046000000000000000e+03,5.130000000000000000e+02,1.870000000000000000e+02,1.080000000000000000e+02,6.600000000000000000e+01,9.100000000000000000e+01,1.499999999999999944e-01,2.565706400000000000e+09
2.040000000000000000e+02,6.120000000000000000e+02,1.126000000000000000e+03,5.390000000000000000e+02,2.060000000000000000e+02,1.210000000000000000e+02,7.200000000000000000e+01,1.090000000000000000e+02,1.400000000000000133e-01,2.586009800000000000e+09
2.270000000000000000e+02,6.250000000000000000e+02,1.049000000000000000e+03,5.680000000000000000e+02,2.490000000000000000e+02,1.300000000000000000e+02,8.500000000000000000e+01,1.210000000000000000e+02,1.300000000000000044e-01,2.605773200000000000e+09
2.310000000000000000e+02,6.680000000000000000e+02,1.090000000000000000e+03,6.110000000000000000e+02,2.640000000000000000e+02,1.340000000000000000e+02,8.400000000000000000e+01,1.230000000000000000e+02,1.300000000000000044e-01,2.625477300000000000e+09
2.120000000000000000e+02,6.140000000000000000e+02,1.131000000000000000e+03,6.040000000000000000e+02,2.560000000000000000e+02,1.260000000000000000e+02,7.900000000000000000e+01,1.150000000000000000e+02,1.199999999999999956e-01,2.646548400000000000e+09
2.120000000000000000e+02,5.830000000000000000e+02,1.170000000000000000e+03,5.890000000000000000e+02,2.580000000000000000e+02,1.300000000000000000e+02,7.900000000000000000e+01,1.160000000000000000e+02,1.199999999999999956e-01,2.666551800000000000e+09
1.830000000000000000e+02,5.190000000000000000e+02,1.050000000000000000e+03,5.400000000000000000e+02,2.400000000000000000e+02,1.280000000000000000e+02,7.400000000000000000e+01,1.040000000000000000e+02,1.100000000000000006e-01,2.685318200000000000e+09
2.020000000000000000e+02,5.480000000000000000e+02,1.053000000000000000e+03,6.130000000000000000e+02,2.270000000000000000e+02,1.420000000000000000e+02,6.900000000000000000e+01,1.140000000000000000e+02,1.100000000000000006e-01,2.705784700000000000e+09
1.950000000000000000e+02,5.240000000000000000e+02,9.960000000000000000e+02,5.850000000000000000e+02,2.070000000000000000e+02,1.320000000000000000e+02,6.800000000000000000e+01,1.090000000000000000e+02,1.100000000000000006e-01,2.725745300000000000e+09
2.170000000000000000e+02,5.450000000000000000e+02,9.170000000000000000e+02,5.830000000000000000e+02,2.170000000000000000e+02,1.440000000000000000e+02,7.400000000000000000e+01,1.210000000000000000e+02,1.000000000000000056e-01,2.744887600000000000e+09
2.030000000000000000e+02,5.270000000000000000e+02,8.540000000000000000e+02,5.790000000000000000e+02,2.030000000000000000e+02,1.410000000000000000e+02,6.600000000000000000e+01,1.150000000000000000e+02,1.000000000000000056e-01,2.764482300000000000e+09
2.020000000000000000e+02,5.450000000000000000e+02,9.060000000000000000e+02,6.280000000000000000e+02,2.020000000000000000e+02,1.370000000000000000e+02,6.200000000000000000e+01,1.130000000000000000e+02,8.999999999999999667e-02,2.783355200000000000e+09
1.540000000000000000e+02,4.980000000000000000e+02,8.800000000000000000e+02,5.120000000000000000e+02,1.570000000000000000e+02,1.060000000000000000e+02,5.300000000000000000e+01,8.500000000000000000e+01,1.000000000000000056e-01,2.802545400000000000e+09
1.470000000000000000e+02,4.540000000000000000e+02,8.610000000000000000e+02,4.780000000000000000e+02,1.560000000000000000e+02,1.040000000000000000e+02,5.100000000000000000e+01,8.300000000000000000e+01,1.000000000000000056e-01,2.822143500000000000e+09
1.050000000000000000e+02,3.860000000000000000e+02,8.780000000000000000e+02,4.910000000000000000e+02,1.320000000000000000e+02,9.200000000000000000e+01,3.900000000000000000e+01,6.100000000000000000e+01,1.000000000000000056e-01,2.841636400000000000e+09
1.110000000000000000e+02,3.800000000000000000e+02,9.210000000000000000e+02,5.090000000000000000e+02,1.330000000000000000e+02,9.000000000000000000e+01,4.400000000000000000e+01,6.200000000000000000e+01,1.100000000000000006e-01,2.860291400000000000e+09
1.160000000000000000e+02,3.770000000000000000e+02,9.140000000000000000e+02,4.880000000000000000e+02,1.600000000000000000e+02,9.700000000000000000e+01,5.000000000000000000e+01,6.900000000000000000e+01,1.100000000000000006e-01,2.879302900000000000e+09
1.150000000000000000e+02,3.600000000000000000e+02,9.600000000000000000e+02,5.000000000000000000e+02,1.670000000000000000e+02,1.000000000000000000e+02,5.100000000000000000e+01,7.000000000000000000e+01,1.199999999999999956e-01,2.899457200000000000e+09
1.150000000000000000e+02,3.420000000000000000e+02,1.016000000000000000e+03,4.910000000000000000e+02,1.580000000000000000e+02,1.020000000000000000e+02,5.600000000000000000e+01,6.900000000000000000e+01,1.199999999999999956e-01,2.917909800000000000e+09
1.160000000000000000e+02,3.340000000000000000e+02,9.660000000000000000e+02,4.520000000000000000e+02,1.560000000000000000e+02,9.300000000000000000e+01,5.600000000000000000e+01,7.400000000000000000e+01,1.300000000000000044e-01,2.937009200000000000e+09
1.110000000000000000e+02,3.200000000000000000e+02,9.210000000000000000e+02,4.280000000000000000e+02,1.430000000000000000e+02,8.500000000000000000e+01,5.100000000000000000e+01,7.000000000000000000e+01,1.400000000000000133e-01,2.957788600000000000e+09
9.900000000000000000e+01,3.030000000000000000e+02,9.280000000000000000e+02,3.810000000000000000e+02,1.110000000000000000e+02,7.000000000000000000e+01,4.700000000000000000e+01,6.400000000000000000e+01,1.499999999999999944e-01,2.976971800000000000e+09
9.700000000000000000e+01,3.290000000000000000e+02,9.130000000000000000e+02,3.360000000000000000e+02,1.160000000000000000e+02,8.600000000000000000e+01,4.400000000000000000e+01,6.200000000000000000e+01,1.499999999999999944e-01,2.996421200000000000e+09
1.060000000000000000e+02,3.310000000000000000e+02,8.410000000000000000e+02,3.590000000000000000e+02,1.580000000000000000e+02,9.200000000000000000e+01,4.100000000000000000e+01,6.600000000000000000e+01,1.600000000000000033e-01,3.014554600000000000e+09
1.070000000000000000e+02,3.030000000000000000e+02,9.290000000000000000e+02,3.320000000000000000e+02,1.600000000000000000e+02,9.500000000000000000e+01,4.200000000000000000e+01,6.500000000000000000e+01,1.700000000000000122e-01,3.033533300000000000e+09
1.120000000000000000e+02,3.230000000000000000e+02,9.170000000000000000e+02,3.560000000000000000e+02,1.630000000000000000e+02,9.900000000000000000e+01,4.400000000000000000e+01,6.800000000000000000e+01,1.700000000000000122e-01,3.053401900000000000e+09
1.140000000000000000e+02,3.040000000000000000e+02,9.010000000000000000e+02,3.370000000000000000e+02,1.660000000000000000e+02,1.050000000000000000e+02,4.300000000000000000e+01,6.800000000000000000e+01,1.700000000000000122e-01,3.071598100000000000e+09
1.310000000000000000e+02,3.380000000000000000e+02,8.350000000000000000e+02,3.570000000000000000e+02,1.670000000000000000e+02,1.040000000000000000e+02,4.800000000000000000e+01,7.500000000000000000e+01,1.700000000000000122e-01,3.090293000000000000e+09
1.310000000000000000e+02,3.620000000000000000e+02,9.140000000000000000e+02,3.560000000000000000e+02,1.360000000000000000e+02,9.400000000000000000e+01,5.000000000000000000e+01,7.600000000000000000e+01,1.700000000000000122e-01,3.109374700000000000e+09
1.260000000000000000e+02,3.960000000000000000e+02,8.770000000000000000e+02,3.590000000000000000e+02,1.320000000000000000e+02,9.000000000000000000e+01,4.900000000000000000e+01,7.300000000000000000e+01,1.799999999999999933e-01,3.127434300000000000e+09
1.210000000000000000e+02,3.800000000000000000e+02,9.400000000000000000e+02,3.550000000000000000e+02,1.310000000000000000e+02,1.000000000000000000e+02,4.800000000000000000e+01,6.900000000000000000e+01,1.799999999999999933e-01,3.145206800000000000e+09
1.190000000000000000e+02,3.780000000000000000e+02,9.430000000000000000e+02,3.680000000000000000e+02,1.210000000000000000e+02,9.100000000000000000e+01,4.800000000000000000e+01,6.800000000000000000e+01,1.799999999999999933e-01,3.163096000000000000e+09
1.040000000000000000e+02,3.510000000000000000e+02,9.890000000000000000e+02,3.830000000000000000e+02,1.170000000000000000e+02,8.300000000000000000e+01,4.600000000000000000e+01,6.300000000000000000e+01,1.799999999999999933e-01,3.180386800000000000e+09
8.900000000000000000e+01,3.030000000000000000e+02,9.280000000000000000e+02,3.500000000000000000e+02,1.090000000000000000e+02,9.100000000000000000e+01,4.100000000000000000e+01,5.500000000000000000e+01,1.799999999999999933e-01,3.198392200000000000e+09
9.600000000000000000e+01,2.710000000000000000e+02,8.750000000000000000e+02,4.130000000000000000e+02,1.150000000000000000e+02,9.300000000000000000e+01,4.300000000000000000e+01,5.700000000000000000e+01,1.900000000000000022e-01,3.216813200000000000e+09
1.010000000000000000e+02,3.110000000000000000e+02,8.100000000000000000e+02,3.900000000000000000e+02,1.150000000000000000e+02,8.100000000000000000e+01,4.500000000000000000e+01,6.000000000000000000e+01,2.000000000000000111e-01,3.234958800000000000e+09
9.800000000000000000e+01,3.070000000000000000e+02,9.070000000000000000e+02,3.820000000000000000e+02,1.190000000000000000e+02,8.200000000000000000e+01,4.400000000000000000e+01,5.500000000000000000e+01,2.000000000000000111e-01,3.254061600000000000e+09
9.600000000000000000e+01,2.770000000000000000e+02,9.230000000000000000e+02,3.870000000000000000e+02,1.160000000000000000e+02,8.700000000000000000e+01,4.200000000000000000e+01,5.200000000000000000e+01,2.099999999999999922e-01,3.271589600000000000e+09
9.900000000000000000e+01,3.070000000000000000e+02,9.340000000000000000e+02,3.800000000000000000e+02,1.160000000000000000e+02,7.800000000000000000e+01,4.100000000000000000e+01,5.400000000000000000e+01,2.099999999999999922e-01,3.288960500000000000e+09
9.600000000000000000e+01,3.250000000000000000e+02,9.570000000000000000e+02,3.100000000000000000e+02,1.130000000000000000e+02,7.600000000000000000e+01,4.000000000000000000e+01,5.100000000000000000e+01,2.200000000000000011e-01,3.306845800000000000e+09
9.500000000000000000e+01,3.230000000000000000e+02,9.720000000000000000e+02,2.800000000000000000e+02,1.140000000000000000e+02,7.600000000000000000e+01,4.000000000000000000e+01,5.300000000000000000e+01,2.200000000000000011e-01,3.324058200000000000e+09
1.010000000000000000e+02,3.350000000000000000e+02,8.690000000000000000e+02,2.950000000000000000e+02,1.300000000000000000e+02,9.100000000000000000e+01,4.500000000000000000e+01,6.000000000000000000e+01,2.300000000000000100e-01,3.342620100000000000e+09
1.000000000000000000e+02,3.230000000000000000e+02,7.550000000000000000e+02,2.890000000000000000e+02,1.200000000000000000e+02,8.100000000000000000e+01,4.500000000000000000e+01,6.000000000000000000e+01,2.300000000000000100e-01,3.359979300000000000e+09
9.700000000000000000e+01,3.010000000000000000e+02,7.350000000000000000e+02,3.090000000000000000e+02,1.170000000000000000e+02,8.100000000000000000e+01,4.600000000000000000e+01,5.800000000000000000e+01,2.399999999999999911e-01,3.378979700000000000e+09
9.300000000000000000e+01,2.940000000000000000e+02,7.240000000000000000e+02,3.040000000000000000e+02,1.130000000000000000e+02,8.300000000000000000e+01,4.400000000000000000e+01,5.700000000000000000e+01,2.500000000000000000e-01,3.396536500000000000e+09
9.300000000000000000e+01,2.740000000000000000e+02,6.950000000000000000e+02,3.340000000000000000e+02,1.140000000000000000e+02,9.100000000000000000e+01,4.400000000000000000e+01,5.700000000000000000e+01,2.600000000000000089e-01,3.415232100000000000e+09
8.100000000000000000e+01,2.540000000000000000e+02,7.550000000000000000e+02,3.010000000000000000e+02,9.200000000000000000e+01,7.600000000000000000e+01,3.600000000000000000e+01,4.600000000000000000e+01,2.700000000000000178e-01,3.433736300000000000e+09
7.900000000000000000e+01,2.600000000000000000e+02,8.550000000000000000e+02,2.530000000000000000e+02,9.300000000000000000e+01,7.500000000000000000e+01,3.700000000000000000e+01,4.700000000000000000e+01,2.700000000000000178e-01,3.451910500000000000e+09
7.300000000000000000e+01,2.490000000000000000e+02,8.550000000000000000e+02,2.430000000000000000e+02,9.000000000000000000e+01,7.300000000000000000e+01,3.400000000000000000e+01,4.500000000000000000e+01,2.800000000000000266e-01,3.469621400000000000e+09
7.500000000000000000e+01,2.240000000000000000e+02,8.590000000000000000e+02,2.390000000000000000e+02,9.000000000000000000e+01,7.700000000000000000e+01,3.500000000000000000e+01,4.400000000000000000e+01,2.899999999999999800e-01,3.487163800000000000e+09
6.900000000000000000e+01,2.280000000000000000e+02,9.290000000000000000e+02,1.870000000000000000e+02,8.500000000000000000e+01,6.600000000000000000e+01,3.700000000000000000e+01,4.500000000000000000e+01,2.999999999999999889e-01,3.505220800000000000e+09
9.700000000000000000e+01,2.530000000000000000e+02,9.170000000000000000e+02,2.540000000000000000e+02,9.300000000000000000e+01,6.800000000000000000e+01,4.000000000000000000e+01,6.100000000000000000e+01,3.099999999999999978e-01,3.523318500000000000e+09
9.600000000000000000e+01,2.470000000000000000e+02,8.510000000000000000e+02,2.770000000000000000e+02,8.800000000000000000e+01,6.800000000000000000e+01,3.700000000000000000e+01,6.100000000000000000e+01,3.200000000000000067e-01,3.541366700000000000e+09
9.700000000000000000e+01,2.440000000000000000e+02,8.160000000000000000e+02,2.550000000000000000e+02,8.700000000000000000e+01,6.700000000000000000e+01,3.800000000000000000e+01,6.100000000000000000e+01,3.300000000000000155e-01,3.563550300000000000e+09
9.300000000000000000e+01,2.420000000000000000e+02,7.580000000000000000e+02,2.470000000000000000e+02,8.000000000000000000e+01,5.500000000000000000e+01,3.600000000000000000e+01,6.100000000000000000e+01,3.499999999999999778e-01,3.580914400000000000e+09
9.100000000000000000e+01,2.110000000000000000e+02,6.110000000000000000e+02,2.550000000000000000e+02,7.800000000000000000e+01,5.300000000000000000e+01,3.100000000000000000e+01,5.800000000000000000e+01,3.599999999999999867e-01,3.598987700000000000e+09
6.300000000000000000e+01,1.740000000000000000e+02,4.870000000000000000e+02,1.890000000000000000e+02,6.100000000000000000e+01,5.300000000000000000e+01,2.800000000000000000e+01,4.200000000000000000e+01,3.800000000000000044e-01,3.619793800000000000e+09
6.400000000000000000e+01,1.640000000000000000e+02,5.680000000000000000e+02,1.500000000000000000e+02,5.900000000000000000e+01,5.300000000000000000e+01,2.900000000000000000e+01,3.900000000000000000e+01,3.900000000000000133e-01,3.641031900000000000e+09
6.300000000000000000e+01,1.780000000000000000e+02,5.520000000000000000e+02,1.440000000000000000e+02,5.600000000000000000e+01,5.300000000000000000e+01,3.000000000000000000e+01,3.800000000000000000e+01,4.000000000000000222e-01,3.663279500000000000e+09
6.200000000000000000e+01,1.710000000000000000e+02,5.520000000000000000e+02,1.430000000000000000e+02,5.800000000000000000e+01,5.600000000000000000e+01,3.100000000000000000e+01,9.800000000000000000e+01,4.199999999999999845e-01,3.680767900000000000e+09
5.300000000000000000e+01,1.560000000000000000e+02,4.760000000000000000e+02,1.170000000000000000e+02,5.000000000000000000e+01,5.600000000000000000e+01,3.200000000000000000e+01,1.250000000000000000e+02,4.400000000000000022e-01,3.700012100000000000e+09
4.700000000000000000e+01,1.280000000000000000e+02,4.430000000000000000e+02,9.100000000000000000e+01,4.900000000000000000e+01,4.700000000000000000e+01,3.400000000000000000e+01,1.300000000000000000e+02,4.500000000000000111e-01,3.720063300000000000e+09
3.100000000000000000e+01,1.350000000000000000e+02,2.380000000000000000e+02,9.500000000000000000e+01,4.300000000000000000e+01,5.200000000000000000e+01,3.200000000000000000e+01,1.340000000000000000e+02,4.600000000000000200e-01,3.741018700000000000e+09
2.800000000000000000e+01,1.140000000000000000e+02,1.690000000000000000e+02,9.700000000000000000e+01,4.700000000000000000e+01,5.700000000000000000e+01,3.100000000000000000e+01,1.340000000000000000e+02,4.799999999999999822e-01,3.763416200000000000e+09
3.400000000000000000e+01,2.120000000000000000e+02,1.490000000000000000e+02,1.220000000000000000e+02,5.800000000000000000e+01,7.500000000000000000e+01,3.100000000000000000e+01,1.010000000000000000e+02,4.899999999999999911e-01,3.781383000000000000e+09
4.700000000000000000e+01,2.190000000000000000e+02,1.770000000000000000e+02,1.230000000000000000e+02,7.000000000000000000e+01,9.400000000000000000e+01,3.400000000000000000e+01,6.300000000000000000e+01,5.000000000000000000e-01,3.800309200000000000e+09
4.900000000000000000e+01,2.220000000000000000e+02,1.900000000000000000e+02,1.350000000000000000e+02,7.700000000000000000e+01,9.700000000000000000e+01,3.300000000000000000e+01,5.400000000000000000e+01,5.200000000000000178e-01,3.819314300000000000e+09
5.000000000000000000e+01,2.090000000000000000e+02,1.980000000000000000e+02,1.130000000000000000e+02,7.800000000000000000e+01,9.200000000000000000e+01,3.200000000000000000e+01,4.300000000000000000e+01,5.200000000000000178e-01,3.840971300000000000e+09
5.000000000000000000e+01,2.070000000000000000e+02,1.980000000000000000e+02,1.170000000000000000e+02,7.600000000000000000e+01,8.800000000000000000e+01,3.300000000000000000e+01,4.000000000000000000e+01,5.300000000000000266e-01,3.863215200000000000e+09
4.600000000000000000e+01,1.010000000000000000e+02,1.950000000000000000e+02,9.200000000000000000e+01,6.600000000000000000e+01,7.600000000000000000e+01,3.100000000000000000e+01,3.600000000000000000e+01,5.300000000000000266e-01,3.881676200000000000e+09
3.100000000000000000e+01,1.140000000000000000e+02,1.570000000000000000e+02,1.130000000000000000e+02,5.700000000000000000e+01,5.400000000000000000e+01,2.600000000000000000e+01,3.000000000000000000e+01,5.300000000000000266e-01,3.900246300000000000e+09
2.600000000000000000e+01,1.350000000000000000e+02,2.470000000000000000e+02,1.010000000000000000e+02,4.900000000000000000e+01,4.900000000000000000e+01,2.400000000000000000e+01,2.700000000000000000e+01,5.400000000000000355e-01,3.919410700000000000e+09
4.200000000000000000e+01,1.670000000000000000e+02,2.910000000000000000e+02,1.130000000000000000e+02,5.100000000000000000e+01,5.400000000000000000e+01,2.600000000000000000e+01,2.900000000000000000e+01,5.400000000000000355e-01,3.942229100000000000e+09
4.300000000000000000e+01,1.670000000000000000e+02,2.920000000000000000e+02,1.280000000000000000e+02,5.400000000000000000e+01,5.700000000000000000e+01,2.600000000000000000e+01,3.000000000000000000e+01,5.500000000000000444e-01,3.961246200000000000e+09
4.200000000000000000e+01,1.810000000000000000e+02,2.950000000000000000e+02,1.370000000000000000e+02,5.500000000000000000e+01,5.800000000000000000e+01,2.600000000000000000e+01,2.800000000000000000e+01,5.600000000000000533e-01,3.979370400000000000e+09
4.500000000000000000e+01,1.660000000000000000e+02,2.920000000000000000e+02,1.390000000000000000e+02,5.100000000000000000e+01,5.900000000000000000e+01,2.700000000000000000e+01,2.900000000000000000e+01,5.699999999999999512e-01,3.999416800000000000e+09
4.500000000000000000e+01,1.440000000000000000e+02,2.110000000000000000e+02,1.380000000000000000e+02,5.400000000000000000e+01,5.700000000000000000e+01,2.600000000000000000e+01,3.000000000000000000e+01,5.699999999999999512e-01,4.022020500000000000e+09
3.900000000000000000e+01,1.170000000000000000e+02,3.020000000000000000e+02,1.470000000000000000e+02,6.400000000000000000e+01,5.900000000000000000e+01,2.500000000000000000e+01,2.600000000000000000e+01,5.699999999999999512e-01,4.040302900000000000e+09
7.300000000000000000e+01,2.460000000000000000e+02,4.430000000000000000e+02,2.750000000000000000e+02,7.800000000000000000e+01,6.100000000000000000e+01,3.500000000000000000e+01,3.700000000000000000e+01,5.799999999999999600e-01,4.058097200000000000e+09
7.900000000000000000e+01,2.520000000000000000e+02,4.550000000000000000e+02,3.150000000000000000e+02,7.600000000000000000e+01,5.400000000000000000e+01,3.500000000000000000e+01,4.000000000000000000e+01,5.799999999999999600e-01,4.078958000000000000e+09
7.900000000000000000e+01,2.510000000000000000e+02,4.600000000000000000e+02,3.100000000000000000e+02,7.400000000000000000e+01,4.700000000000000000e+01,3.500000000000000000e+01,4.000000000000000000e+01,5.899999999999999689e-01,4.101869900000000000e+09
8.100000000000000000e+01,2.560000000000000000e+02,4.720000000000000000e+02,3.130000000000000000e+02,7.300000000000000000e+01,4.700000000000000000e+01,3.700000000000000000e+01,4.100000000000000000e+01,5.999999999999999778e-01,4.123631000000000000e+09
7.500000000000000000e+01,2.620000000000000000e+02,4.070000000000000000e+02,3.100000000000000000e+02,6.200000000000000000e+01,4.200000000000000000e+01,3.700000000000000000e+01,3.900000000000000000e+01,5.999999999999999778e-01,4.142979400000000000e+09
4.600000000000000000e+01,1.620000000000000000e+02,4.660000000000000000e+02,1.970000000000000000e+02,4.500000000000000000e+01,4.300000000000000000e+01,3.200000000000000000e+01,3.100000000000000000e+01,6.099999999999999867e-01,4.161284300000000000e+09
4.000000000000000000e+01,1.850000000000000000e+02,5.010000000000000000e+02,1.210000000000000000e+02,4.500000000000000000e+01,4.400000000000000000e+01,3.200000000000000000e+01,3.000000000000000000e+01,6.099999999999999867e-01,4.181957500000000000e+09
3.900000000000000000e+01,1.910000000000000000e+02,5.030000000000000000e+02,1.210000000000000000e+02,4.300000000000000000e+01,4.400000000000000000e+01,3.100000000000000000e+01,2.800000000000000000e+01,6.199999999999999956e-01,4.203641700000000000e+09
3.600000000000000000e+01,1.920000000000000000e+02,4.900000000000000000e+02,1.100000000000000000e+02,3.900000000000000000e+01,4.400000000000000000e+01,2.900000000000000000e+01,2.700000000000000000e+01,6.199999999999999956e-01,4.223639000000000000e+09
3.800000000000000000e+01,1.730000000000000000e+02,4.770000000000000000e+02,9.800000000000000000e+01,3.700000000000000000e+01,4.000000000000000000e+01,2.900000000000000000e+01,2.900000000000000000e+01,6.199999999999999956e-01,4.242478200000000000e+09
3.400000000000000000e+01,1.600000000000000000e+02,2.720000000000000000e+02,9.400000000000000000e+01,3.200000000000000000e+01,4.100000000000000000e+01,2.700000000000000000e+01,2.800000000000000000e+01,6.199999999999999956e-01,4.261459900000000000e+09
3.200000000000000000e+01,1.250000000000000000e+02,3.220000000000000000e+02,1.060000000000000000e+02,3.200000000000000000e+01,4.200000000000000000e+01,2.800000000000000000e+01,2.700000000000000000e+01,6.199999999999999956e-01,4.280064200000000000e+09
3.100000000000000000e+01,1.180000000000000000e+02,3.650000000000000000e+02,1.040000000000000000e+02,3.300000000000000000e+01,4.200000000000000000e+01,2.800000000000000000e+01,2.800000000000000000e+01,6.300000000000000044e-01,4.301528800000000000e+09
3.700000000000000000e+01,1.060000000000000000e+02,4.140000000000000000e+02,1.190000000000000000e+02,3.900000000000000000e+01,4.100000000000000000e+01,3.000000000000000000e+01,3.300000000000000000e+01,6.300000000000000044e-01,4.323661100000000000e+09
3.500000000000000000e+01,1.020000000000000000e+02,4.110000000000000000e+02,1.320000000000000000e+02,3.900000000000000000e+01,4.200000000000000000e+01,3.000000000000000000e+01,3.100000000000000000e+01,6.300000000000000044e-01,4.342891000000000000e+09
3.500000000000000000e+01,1.010000000000000000e+02,4.180000000000000000e+02,1.290000000000000000e+02,3.800000000000000000e+01,4.200000000000000000e+01,2.900000000000000000e+01,3.100000000000000000e+01,6.300000000000000044e-01,4.361179400000000000e+09
3.500000000000000000e+01,7.600000000000000000e+01,4.160000000000000000e+02,1.120000000000000000e+02,4.400000000000000000e+01,4.600000000000000000e+01,3.100000000000000000e+01,3.000000000000000000e+01,6.300000000000000044e-01,4.380031000000000000e+09
3.400000000000000000e+01,7.500000000000000000e+01,4.420000000000000000e+02,1.040000000000000000e+02,4.200000000000000000e+01,4.600000000000000000e+01,3.000000000000000000e+01,2.900000000000000000e+01,6.300000000000000044e-01,4.401330300000000000e+09
2.600000000000000000e+01,7.900000000000000000e+01,4.020000000000000000e+02,1.090000000000000000e+02,3.600000000000000000e+01,4.600000000000000000e+01,2.800000000000000000e+01,2.200000000000000000e+01,6.300000000000000044e-01,4.423584900000000000e+09
2.700000000000000000e+01,1.280000000000000000e+02,4.420000000000000000e+02,1.010000000000000000e+02,4.100000000000000000e+01,4.600000000000000000e+01,2.900000000000000000e+01,2.300000000000000000e+01,6.300000000000000044e-01,4.442324400000000000e+09
3.100000000000000000e+01,1.290000000000000000e+02,4.630000000000000000e+02,1.110000000000000000e+02,4.300000000000000000e+01,4.200000000000000000e+01,2.800000000000000000e+01,2.400000000000000000e+01,6.300000000000000044e-01,4.461140000000000000e+09
3.100000000000000000e+01,1.310000000000000000e+02,4.000000000000000000e+02,1.470000000000000000e+02,4.000000000000000000e+01,3.300000000000000000e+01,2.500000000000000000e+01,2.500000000000000000e+01,6.300000000000000044e-01,4.480179800000000000e+09
3.500000000000000000e+01,1.340000000000000000e+02,3.600000000000000000e+02,1.640000000000000000e+02,4.000000000000000000e+01,4.400000000000000000e+01,2.600000000000000000e+01,2.700000000000000000e+01,6.300000000000000044e-01,4.501357300000000000e+09
3.900000000000000000e+01,1.470000000000000000e+02,5.510000000000000000e+02,1.700000000000000000e+02,4.200000000000000000e+01,4.800000000000000000e+01,2.400000000000000000e+01,3.000000000000000000e+01,6.400000000000000133e-01,4.523592400000000000e+09
4.400000000000000000e+01,1.440000000000000000e+02,5.950000000000000000e+02,1.740000000000000000e+02,3.800000000000000000e+01,4.800000000000000000e+01,2.200000000000000000e+01,3.100000000000000000e+01,6.400000000000000133e-01,4.541588400000000000e+09
4.500000000000000000e+01,1.480000000000000000e+02,6.040000000000000000e+02,1.950000000000000000e+02,3.900000000000000000e+01,4.500000000000000000e+01,2.300000000000000000e+01,3.000000000000000000e+01,6.400000000000000133e-01,4.560049100000000000e+09
4.600000000000000000e+01,1.680000000000000000e+02,6.200000000000000000e+02,1.730000000000000000e+02,3.800000000000000000e+01,4.600000000000000000e+01,2.400000000000000000e+01,3.200000000000000000e+01,6.400000000000000133e-01,4.578994800000000000e+09
4.400000000000000000e+01,1.750000000000000000e+02,6.150000000000000000e+02,1.590000000000000000e+02,3.800000000000000000e+01,4.700000000000000000e+01,2.500000000000000000e+01,3.200000000000000000e+01,6.400000000000000133e-01,4.601346800000000000e+09
4.600000000000000000e+01,1.790000000000000000e+02,5.140000000000000000e+02,1.500000000000000000e+02,3.800000000000000000e+01,4.500000000000000000e+01,2.600000000000000000e+01,3.000000000000000000e+01,6.400000000000000133e-01,4.623456500000000000e+09
4.500000000000000000e+01,1.950000000000000000e+02,4.630000000000000000e+02,1.380000000000000000e+02,3.700000000000000000e+01,4.400000000000000000e+01,2.500000000000000000e+01,3.000000000000000000e+01,6.400000000000000133e-01,4.641447100000000000e+09
4.500000000000000000e+01,2.080000000000000000e+02,4.870000000000000000e+02,1.050000000000000000e+02,3.500000000000000000e+01,4.600000000000000000e+01,2.700000000000000000e+01,3.200000000000000000e+01,6.400000000000000133e-01,4.661316700000000000e+09
4.700000000000000000e+01,2.060000000000000000e+02,5.580000000000000000e+02,1.170000000000000000e+02,4.100000000000000000e+01,5.600000000000000000e+01,2.800000000000000000e+01,3.200000000000000000e+01,6.400000000000000133e-01,4.680860100000000000e+09
4.800000000000000000e+01,2.130000000000000000e+02,5.650000000000000000e+02,1.450000000000000000e+02,4.200000000000000000e+01,5.400000000000000000e+01,2.800000000000000000e+01,3.000000000000000000e+01,6.400000000000000133e-01,4.701189400000000000e+09
4.200000000000000000e+01,2.010000000000000000e+02,5.290000000000000000e+02,1.350000000000000000e+02,3.900000000000000000e+01,5.300000000000000000e+01,2.700000000000000000e+01,2.900000000000000000e+01,6.400000000000000133e-01,4.723400300000000000e+09
3.700000000000000000e+01,1.600000000000000000e+02,4.950000000000000000e+02,1.330000000000000000e+02,3.900000000000000000e+01,5.500000000000000000e+01,2.900000000000000000e+01,2.700000000000000000e+01,6.400000000000000133e-01,4.741785600000000000e+09
3.500000000000000000e+01,1.440000000000000000e+02,4.470000000000000000e+02,1.340000000000000000e+02,4.000000000000000000e+01,6.200000000000000000e+01,3.100000000000000000e+01,2.600000000000000000e+01,6.400000000000000133e-01,4.760619100000000000e+09
2.800000000000000000e+01,1.580000000000000000e+02,3.440000000000000000e+02,1.210000000000000000e+02,3.000000000000000000e+01,5.400000000000000000e+01,2.900000000000000000e+01,2.400000000000000000e+01,6.400000000000000133e-01,4.778990900000000000e+09
2.700000000000000000e+01,1.420000000000000000e+02,3.620000000000000000e+02,8.800000000000000000e+01,3.300000000000000000e+01,4.700000000000000000e+01,2.900000000000000000e+01,2.500000000000000000e+01,6.400000000000000133e-01,4.801221600000000000e+09
2.700000000000000000e+01,1.470000000000000000e+02,3.670000000000000000e+02,9.500000000000000000e+01,3.200000000000000000e+01,4.700000000000000000e+01,2.900000000000000000e+01,2.500000000000000000e+01,6.400000000000000133e-01,4.823408700000000000e+09
2.900000000000000000e+01,1.590000000000000000e+02,4.130000000000000000e+02,9.900000000000000000e+01,3.300000000000000000e+01,4.600000000000000000e+01,2.900000000000000000e+01,2.600000000000000000e+01,6.400000000000000133e-01,4.841836600000000000e+09
2.900000000000000000e+01,1.820000000000000000e+02,4.110000000000000000e+02,9.100000000000000000e+01,3.100000000000000000e+01,3.800000000000000000e+01,2.600000000000000000e+01,2.400000000000000000e+01,6.400000000000000133e-01,4.860697600000000000e+09
3.300000000000000000e+01,1.670000000000000000e+02,4.170000000000000000e+02,8.600000000000000000e+01,3.200000000000000000e+01,4.300000000000000000e+01,3.100000000000000000e+01,2.400000000000000000e+01,6.400000000000000133e-01,4.879017400000000000e+09
3.200000000000000000e+01,1.740000000000000000e+02,4.470000000000000000e+02,8.800000000000000000e+01,2.900000000000000000e+01,4.100000000000000000e+01,3.000000000000000000e+01,2.300000000000000000e+01,6.400000000000000133e-01,4.901252000000000000e+09
3.800000000000000000e+01,1.950000000000000000e+02,4.900000000000000000e+02,9.100000000000000000e+01,3.100000000000000000e+01,4.000000000000000000e+01,3.100000000000000000e+01,2.800000000000000000e+01,6.400000000000000133e-01,4.923522500000000000e+09
3.800000000000000000e+01,1.980000000000000000e+02,4.680000000000000000e+02,8.700000000000000000e+01,3.200000000000000000e+01,4.300000000000000000e+01,3.000000000000000000e+01,2.800000000000000000e+01,6.400000000000000133e-01,4.941510700000000000e+09
3.500000000000000000e+01,1.790000000000000000e+02,4.620000000000000000e+02,8.900000000000000000e+01,3.200000000000000000e+01,5.200000000000000000e+01,3.100000000000000000e+01,2.900000000000000000e+01,6.400000000000000133e-01,4.960139400000000000e+09
3.400000000000000000e+01,1.670000000000000000e+02,4.380000000000000000e+02,1.180000000000000000e+02,3.200000000000000000e+01,4.900000000000000000e+01,2.600000000000000000e+01,3.000000000000000000e+01,6.400000000000000133e-01,4.978966200000000000e+09
3.600000000000000000e+01,1.720000000000000000e+02,3.670000000000000000e+02,1.110000000000000000e+02,3.300000000000000000e+01,5.100000000000000000e+01,2.800000000000000000e+01,2.900000000000000000e+01,6.400000000000000133e-01,5.001116400000000000e+09
3.000000000000000000e+01,1.610000000000000000e+02,2.690000000000000000e+02,9.700000000000000000e+01,3.300000000000000000e+01,5.000000000000000000e+01,2.700000000000000000e+01,2.400000000000000000e+01,6.400000000000000133e-01,5.023297100000000000e+09
2.800000000000000000e+01,1.710000000000000000e+02,3.170000000000000000e+02,9.700000000000000000e+01,3.000000000000000000e+01,4.700000000000000000e+01,2.800000000000000000e+01,2.200000000000000000e+01,6.400000000000000133e-01,5.041527600000000000e+09
3.000000000000000000e+01,1.790000000000000000e+02,3.250000000000000000e+02,1.030000000000000000e+02,3.300000000000000000e+01,4.000000000000000000e+01,2.500000000000000000e+01,2.300000000000000000e+01,6.400000000000000133e-01,5.061055700000000000e+09
2.800000000000000000e+01,1.800000000000000000e+02,3.230000000000000000e+02,7.700000000000000000e+01,3.100000000000000000e+01,4.500000000000000000e+01,2.500000000000000000e+01,2.100000000000000000e+01,6.300000000000000044e-01,5.079161400000000000e+09
3.000000000000000000e+01,1.850000000000000000e+02,3.520000000000000000e+02,8.200000000000000000e+01,3.800000000000000000e+01,4.900000000000000000e+01,2.500000000000000000e+01,2.400000000000000000e+01,6.300000000000000044e-01,5.101127500000000000e+09
3.000000000000000000e+01,1.700000000000000000e+02,3.590000000000000000e+02,8.300000000000000000e+01,3.500000000000000000e+01,4.900000000000000000e+01,2.400000000000000000e+01,2.700000000000000000e+01,6.300000000000000044e-01,5.123198000000000000e+09
3.300000000000000000e+01,1.480000000000000000e+02,3.880000000000000000e+02,8.500000000000000000e+01,4.000000000000000000e+01,5.000000000000000000e+01,2.400000000000000000e+01,3.000000000000000000e+01,6.300000000000000044e-01,5.141047400000000000e+09
3.100000000000000000e+01,1.400000000000000000e+02,3.750000000000000000e+02,7.800000000000000000e+01,3.800000000000000000e+01,5.600000000000000000e+01,2.400000000000000000e+01,2.900000000000000000e+01,6.300000000000000044e-01,5.160179800000000000e+09
3.700000000000000000e+01,1.630000000000000000e+02,3.890000000000000000e+02,8.100000000000000000e+01,3.900000000000000000e+01,5.200000000000000000e+01,2.400000000000000000e+01,3.100000000000000000e+01,6.300000000000000044e-01,5.179273200000000000e+09
3.400000000000000000e+01,1.520000000000000000e+02,3.900000000000000000e+02,8.400000000000000000e+01,3.200000000000000000e+01,4.700000000000000000e+01,2.200000000000000000e+01,3.100000000000000000e+01,6.300000000000000044e-01,5.201044600000000000e+09
3.500000000000000000e+01,1.530000000000000000e+02,3.910000000000000000e+02,9.100000000000000000e+01,3.500000000000000000e+01,4.600000000000000000e+01,2.400000000000000000e+01,2.900000000000000000e+01,6.300000000000000044e-01,5.223741600000000000e+09
3.200000000000000000e+01,1.500000000000000000e+02,3.180000000000000000e+02,8.600000000000000000e+01,2.900000000000000000e+01,4.400000000000000000e+01,2.500000000000000000e+01,2.600000000000000000e+01,6.199999999999999956e-01,5.241553000000000000e+09
3.100000000000000000e+01,1.380000000000000000e+02,3.230000000000000000e+02,9.000000000000000000e+01,2.800000000000000000e+01,3.700000000000000000e+01,2.500000000000000000e+01,2.500000000000000000e+01,6.199999999999999956e-01,5.260141200000000000e+09
2.600000000000000000e+01,1.200000000000000000e+02,3.650000000000000000e+02,8.500000000000000000e+01,3.400000000000000000e+01,3.800000000000000000e+01,2.500000000000000000e+01,2.400000000000000000e+01,6.199999999999999956e-01,5.278797100000000000e+09
3.500000000000000000e+01,1.670000000000000000e+02,4.780000000000000000e+02,1.320000000000000000e+02,3.900000000000000000e+01,4.000000000000000000e+01,2.500000000000000000e+01,2.500000000000000000e+01,6.199999999999999956e-01,5.300992000000000000e+09
3.400000000000000000e+01,1.730000000000000000e+02,4.920000000000000000e+02,1.350000000000000000e+02,3.800000000000000000e+01,4.200000000000000000e+01,2.400000000000000000e+01,2.500000000000000000e+01,6.199999999999999956e-01,5.323167100000000000e+09
3.500000000000000000e+01,1.730000000000000000e+02,4.890000000000000000e+02,1.400000000000000000e+02,3.800000000000000000e+01,4.900000000000000000e+01,2.500000000000000000e+01,2.400000000000000000e+01,6.199999999999999956e-01,5.346048100000000000e+09
3.900000000000000000e+01,1.850000000000000000e+02,5.240000000000000000e+02,1.360000000000000000e+02,4.000000000000000000e+01,4.500000000000000000e+01,2.500000000000000000e+01,2.600000000000000000e+01,6.199999999999999956e-01,5.364855100000000000e+09
3.900000000000000000e+01,1.900000000000000000e+02,4.860000000000000000e+02,1.410000000000000000e+02,3.600000000000000000e+01,4.200000000000000000e+01,2.600000000000000000e+01,2.600000000000000000e+01,6.300000000000000044e-01,5.384183500000000000e+09
3.300000000000000000e+01,1.460000000000000000e+02,3.950000000000000000e+02,1.490000000000000000e+02,3.300000000000000000e+01,4.100000000000000000e+01,2.500000000000000000e+01,2.400000000000000000e+01,6.300000000000000044e-01,5.403139100000000000e+09
3.300000000000000000e+01,1.600000000000000000e+02,4.290000000000000000e+02,1.570000000000000000e+02,3.200000000000000000e+01,4.200000000000000000e+01,2.500000000000000000e+01,2.500000000000000000e+01,6.300000000000000044e-01,5.421792600000000000e+09
3.400000000000000000e+01,1.920000000000000000e+02,4.470000000000000000e+02,1.560000000000000000e+02,3.200000000000000000e+01,4.600000000000000000e+01,2.400000000000000000e+01,2.600000000000000000e+01,6.300000000000000044e-01,5.443222200000000000e+09
3.100000000000000000e+01,1.920000000000000000e+02,4.060000000000000000e+02,1.570000000000000000e+02,3.100000000000000000e+01,5.000000000000000000e+01,2.300000000000000000e+01,2.400000000000000000e+01,6.400000000000000133e-01,5.462758800000000000e+09
3.200000000000000000e+01,1.840000000000000000e+02,4.060000000000000000e+02,1.530000000000000000e+02,3.300000000000000000e+01,5.200000000000000000e+01,2.300000000000000000e+01,2.600000000000000000e+01,6.400000000000000133e-01,5.481870800000000000e+09
3.300000000000000000e+01,2.360000000000000000e+02,4.810000000000000000e+02,1.150000000000000000e+02,3.100000000000000000e+01,5.000000000000000000e+01,2.500000000000000000e+01,2.400000000000000000e+01,6.400000000000000133e-01,5.500791600000000000e+09
3.400000000000000000e+01,2.380000000000000000e+02,5.040000000000000000e+02,9.500000000000000000e+01,3.100000000000000000e+01,5.800000000000000000e+01,2.500000000000000000e+01,2.400000000000000000e+01,6.500000000000000222e-01,5.521066400000000000e+09
3.200000000000000000e+01,2.160000000000000000e+02,4.890000000000000000e+02,9.700000000000000000e+01,3.200000000000000000e+01,5.200000000000000000e+01,2.300000000000000000e+01,2.400000000000000000e+01,6.500000000000000222e-01,5.543204100000000000e+09
3.100000000000000000e+01,2.090000000000000000e+02,4.900000000000000000e+02,9.700000000000000000e+01,3.000000000000000000e+01,4.700000000000000000e+01,2.500000000000000000e+01,2.400000000000000000e+01,6.500000000000000222e-01,5.561779500000000000e+09
2.800000000000000000e+01,2.090000000000000000e+02,5.280000000000000000e+02,9.300000000000000000e+01,2.900000000000000000e+01,4.600000000000000000e+01,2.500000000000000000e+01,2.200000000000000000e+01,6.500000000000000222e-01,5.580334100000000000e+09
2.600000000000000000e+01,1.370000000000000000e+02,5.370000000000000000e+02,8.100000000000000000e+01,2.800000000000000000e+01,4.800000000000000000e+01,2.500000000000000000e+01,2.300000000000000000e+01,6.500000000000000222e-01,5.598783200000000000e+09
2.500000000000000000e+01,1.140000000000000000e+02,4.820000000000000000e+02,8.200000000000000000e+01,2.700000000000000000e+01,4.300000000000000000e+01,2.500000000000000000e+01,2.100000000000000000e+01,6.500000000000000222e-01,5.620855700000000000e+09
2.600000000000000000e+01,1.300000000000000000e+02,4.840000000000000000e+02,7.400000000000000000e+01,2.700000000000000000e+01,4.100000000000000000e+01,2.600000000000000000e+01,2.300000000000000000e+01,6.400000000000000133e-01,5.643126900000000000e+09
2.600000000000000000e+01,1.290000000000000000e+02,4.870000000000000000e+02,7.400000000000000000e+01,2.800000000000000000e+01,4.200000000000000000e+01,2.500000000000000000e+01,2.500000000000000000e+01,6.400000000000000133e-01,5.661817300000000000e+09
2.800000000000000000e+01,1.290000000000000000e+02,5.030000000000000000e+02,7.600000000000000000e+01,2.900000000000000000e+01,4.200000000000000000e+01,2.500000000000000000e+01,2.500000000000000000e+01,6.400000000000000133e-01,5.680896400000000000e+09
2.700000000000000000e+01,1.390000000000000000e+02,4.240000000000000000e+02,8.800000000000000000e+01,3.400000000000000000e+01,5.700000000000000000e+01,2.300000000000000000e+01,2.400000000000000000e+01,6.300000000000000044e-01,5.701118900000000000e+09
3.100000000000000000e+01,1.480000000000000000e+02,4.870000000000000000e+02,1.060000000000000000e+02,4.100000000000000000e+01,5.700000000000000000e+01,2.500000000000000000e+01,2.800000000000000000e+01,6.300000000000000044e-01,5.721233100000000000e+09
3.300000000000000000e+01,1.480000000000000000e+02,5.150000000000000000e+02,1.090000000000000000e+02,4.200000000000000000e+01,5.600000000000000000e+01,2.600000000000000000e+01,2.600000000000000000e+01,6.300000000000000044e-01,5.743661200000000000e+09
3.300000000000000000e+01,1.540000000000000000e+02,5.100000000000000000e+02,1.080000000000000000e+02,4.300000000000000000e+01,5.600000000000000000e+01,2.600000000000000000e+01,2.600000000000000000e+01,6.300000000000000044e-01,5.764370300000000000e+09
3.600000000000000000e+01,1.540000000000000000e+02,4.780000000000000000e+02,1.250000000000000000e+02,4.400000000000000000e+01,6.000000000000000000e+01,2.500000000000000000e+01,2.800000000000000000e+01,6.300000000000000044e-01,5.783601300000000000e+09
3.400000000000000000e+01,1.490000000000000000e+02,4.320000000000000000e+02,1.120000000000000000e+02,4.000000000000000000e+01,5.200000000000000000e+01,2.600000000000000000e+01,2.800000000000000000e+01,6.300000000000000044e-01,5.802582400000000000e+09
3.200000000000000000e+01,1.520000000000000000e+02,3.440000000000000000e+02,1.020000000000000000e+02,3.400000000000000000e+01,4.900000000000000000e+01,2.400000000000000000e+01,2.400000000000000000e+01,6.300000000000000044e-01,5.822485700000000000e+09
3.000000000000000000e+01,1.340000000000000000e+02,3.110000000000000000e+02,1.060000000000000000e+02,3.300000000000000000e+01,5.000000000000000000e+01,2.200000000000000000e+01,2.500000000000000000e+01,6.300000000000000044e-01,5.840603900000000000e+09
2.900000000000000000e+01,1.290000000000000000e+02,3.070000000000000000e+02,1.060000000000000000e+02,3.100000000000000000e+01,4.900000000000000000e+01,2.100000000000000000e+01,2.300000000000000000e+01,6.300000000000000044e-01,5.859315400000000000e+09
2.500000000000000000e+01,1.220000000000000000e+02,2.500000000000000000e+02,8.200000000000000000e+01,2.800000000000000000e+01,4.500000000000000000e+01,2.400000000000000000e+01,2.100000000000000000e+01,6.300000000000000044e-01,5.878171500000000000e+09
2.600000000000000000e+01,1.280000000000000000e+02,2.560000000000000000e+02,7.500000000000000000e+01,3.100000000000000000e+01,3.700000000000000000e+01,2.700000000000000000e+01,2.200000000000000000e+01,6.300000000000000044e-01,5.900329100000000000e+09
2.600000000000000000e+01,1.070000000000000000e+02,3.300000000000000000e+02,8.400000000000000000e+01,3.100000000000000000e+01,3.600000000000000000e+01,2.700000000000000000e+01,2.300000000000000000e+01,6.199999999999999956e-01,5.922586800000000000e+09
2.700000000000000000e+01,1.230000000000000000e+02,3.950000000000000000e+02,8.600000000000000000e+01,3.300000000000000000e+01,3.500000000000000000e+01,2.900000000000000000e+01,2.400000000000000000e+01,6.199999999999999956e-01,5.940936600000000000e+09
2.700000000000000000e+01,1.310000000000000000e+02,4.150000000000000000e+02,8.500000000000000000e+01,3.500000000000000000e+01,3.600000000000000000e+01,3.000000000000000000e+01,2.300000000000000000e+01,6.199999999999999956e-01,5.960000000000000000e+09
2.900000000000000000e+01,1.270000000000000000e+02,4.200000000000000000e+02,8.600000000000000000e+01,4.000000000000000000e+01,3.500000000000000000e+01,2.800000000000000000e+01,2.300000000000000000e+01,6.199999999999999956e-01,5.978360500000000000e+09
2.900000000000000000e+01,1.140000000000000000e+02,4.130000000000000000e+02,8.500000000000000000e+01,3.700000000000000000e+01,4.600000000000000000e+01,2.500000000000000000e+01,2.400000000000000000e+01,6.199999999999999956e-01,6.000497400000000000e+09
2.800000000000000000e+01,1.230000000000000000e+02,3.970000000000000000e+02,8.800000000000000000e+01,3.800000000000000000e+01,4.800000000000000000e+01,2.600000000000000000e+01,2.400000000000000000e+01,6.199999999999999956e-01,6.022813500000000000e+09
2.800000000000000000e+01,1.600000000000000000e+02,3.330000000000000000e+02,1.070000000000000000e+02,3.700000000000000000e+01,4.900000000000000000e+01,2.400000000000000000e+01,2.600000000000000000e+01,6.199999999999999956e-01,6.041277800000000000e+09
2.900000000000000000e+01,1.500000000000000000e+02,3.500000000000000000e+02,1.100000000000000000e+02,3.500000000000000000e+01,4.800000000000000000e+01,2.400000000000000000e+01,2.700000000000000000e+01,6.199999999999999956e-01,6.060170800000000000e+09
2.700000000000000000e+01,1.530000000000000000e+02,3.420000000000000000e+02,1.120000000000000000e+02,3.100000000000000000e+01,5.200000000000000000e+01,2.400000000000000000e+01,2.800000000000000000e+01,6.199999999999999956e-01,6.078742800000000000e+09
2.800000000000000000e+01,1.780000000000000000e+02,3.520000000000000000e+02,1.230000000000000000e+02,3.100000000000000000e+01,4.700000000000000000e+01,2.600000000000000000e+01,2.800000000000000000e+01,6.199999999999999956e-01,6.100607000000000000e+09
3.100000000000000000e+01,1.740000000000000000e+02,3.070000000000000000e+02,1.140000000000000000e+02,3.200000000000000000e+01,4.600000000000000000e+01,2.600000000000000000e+01,2.900000000000000000e+01,6.199999999999999956e-01,6.122861000000000000e+09
3.400000000000000000e+01,1.500000000000000000e+02,3.540000000000000000e+02,9.600000000000000000e+01,3.400000000000000000e+01,4.400000000000000000e+01,3.000000000000000000e+01,2.900000000000000000e+01,6.199999999999999956e-01,6.141936800000000000e+09
3.500000000000000000e+01,1.860000000000000000e+02,3.250000000000000000e+02,9.200000000000000000e+01,3.200000000000000000e+01,4.400000000000000000e+01,3.000000000000000000e+01,2.800000000000000000e+01,6.199999999999999956e-01,6.160079900000000000e+09
3.600000000000000000e+01,1.900000000000000000e+02,3.200000000000000000e+02,1.010000000000000000e+02,3.200000000000000000e+01,4.900000000000000000e+01,3.200000000000000000e+01,2.600000000000000000e+01,6.199999999999999956e-01,6.178835600000000000e+09
3.500000000000000000e+01,1.710000000000000000e+02,3.450000000000000000e+02,9.200000000000000000e+01,3.200000000000000000e+01,4.500000000000000000e+01,3.000000000000000000e+01,2.600000000000000000e+01,6.199999999999999956e-01,6.200779800000000000e+09
3.500000000000000000e+01,1.780000000000000000e+02,4.640000000000000000e+02,9.200000000000000000e+01,3.300000000000000000e+01,4.600000000000000000e+01,3.100000000000000000e+01,2.700000000000000000e+01,6.199999999999999956e-01,6.222823900000000000e+09
2.900000000000000000e+01,1.630000000000000000e+02,4.250000000000000000e+02,8.500000000000000000e+01,3.100000000000000000e+01,4.600000000000000000e+01,2.600000000000000000e+01,2.400000000000000000e+01,6.199999999999999956e-01,6.240734400000000000e+09
2.900000000000000000e+01,1.220000000000000000e+02,4.380000000000000000e+02,8.600000000000000000e+01,3.000000000000000000e+01,4.700000000000000000e+01,2.700000000000000000e+01,2.300000000000000000e+01,6.300000000000000044e-01,6.260106800000000000e+09
2.900000000000000000e+01,1.250000000000000000e+02,4.570000000000000000e+02,8.300000000000000000e+01,3.100000000000000000e+01,3.600000000000000000e+01,2.500000000000000000e+01,2.500000000000000000e+01,6.300000000000000044e-01,6.278646300000000000e+09
3.300000000000000000e+01,1.320000000000000000e+02,4.300000000000000000e+02,8.000000000000000000e+01,3.400000000000000000e+01,3.500000000000000000e+01,2.400000000000000000e+01,2.600000000000000000e+01,6.199999999999999956e-01,6.300590900000000000e+09
3.100000000000000000e+01,1.220000000000000000e+02,3.020000000000000000e+02,8.000000000000000000e+01,3.400000000000000000e+01,3.700000000000000000e+01,2.500000000000000000e+01,2.800000000000000000e+01,6.199999999999999956e-01,6.322830800000000000e+09
3.100000000000000000e+01,1.220000000000000000e+02,3.420000000000000000e+02,9.800000000000000000e+01,3.400000000000000000e+01,3.900000000000000000e+01,2.700000000000000000e+01,2.900000000000000000e+01,6.199999999999999956e-01,6.341119900000000000e+09
3.200000000000000000e+01,1.330000000000000000e+02,3.570000000000000000e+02,1.000000000000000000e+02,3.800000000000000000e+01,4.000000000000000000e+01,2.900000000000000000e+01,3.100000000000000000e+01,6.199999999999999956e-01,6.360257400000000000e+09
3.100000000000000000e+01,1.260000000000000000e+02,3.350000000000000000e+02,9.200000000000000000e+01,3.700000000000000000e+01,4.000000000000000000e+01,2.800000000000000000e+01,2.900000000000000000e+01,6.199999999999999956e-01,6.379956600000000000e+09
2.900000000000000000e+01,1.270000000000000000e+02,3.560000000000000000e+02,1.000000000000000000e+02,3.800000000000000000e+01,4.100000000000000000e+01,3.100000000000000000e+01,2.800000000000000000e+01,6.199999999999999956e-01,6.404603500000000000e+09
3.100000000000000000e+01,1.310000000000000000e+02,3.630000000000000000e+02,1.110000000000000000e+02,3.700000000000000000e+01,4.600000000000000000e+01,3.000000000000000000e+01,2.400000000000000000e+01,6.199999999999999956e-01,6.423183900000000000e+09
3.500000000000000000e+01,1.510000000000000000e+02,3.420000000000000000e+02,9.800000000000000000e+01,3.800000000000000000e+01,4.300000000000000000e+01,2.900000000000000000e+01,2.700000000000000000e+01,6.199999999999999956e-01,6.441303200000000000e+09
3.400000000000000000e+01,1.630000000000000000e+02,3.290000000000000000e+02,9.400000000000000000e+01,3.500000000000000000e+01,4.200000000000000000e+01,2.800000000000000000e+01,2.500000000000000000e+01,6.199999999999999956e-01,6.459294600000000000e+09
3.400000000000000000e+01,1.640000000000000000e+02,3.480000000000000000e+02,9.500000000000000000e+01,3.600000000000000000e+01,4.300000000000000000e+01,2.900000000000000000e+01,2.600000000000000000e+01,6.199999999999999956e-01,6.483424200000000000e+09
3.300000000000000000e+01,1.580000000000000000e+02,3.540000000000000000e+02,1.120000000000000000e+02,3.200000000000000000e+01,4.900000000000000000e+01,2.800000000000000000e+01,2.500000000000000000e+01,6.199999999999999956e-01,6.502017300000000000e+09
3.100000000000000000e+01,1.770000000000000000e+02,3.700000000000000000e+02,1.040000000000000000e+02,3.000000000000000000e+01,4.200000000000000000e+01,2.700000000000000000e+01,2.600000000000000000e+01,6.199999999999999956e-01,6.529429900000000000e+09
2.800000000000000000e+01,1.950000000000000000e+02,3.710000000000000000e+02,1.060000000000000000e+02,2.900000000000000000e+01,4.400000000000000000e+01,2.700000000000000000e+01,2.400000000000000000e+01,6.199999999999999956e-01,6.548209400000000000e+09
3.100000000000000000e+01,1.810000000000000000e+02,3.680000000000000000e+02,1.060000000000000000e+02,2.900000000000000000e+01,4.500000000000000000e+01,2.500000000000000000e+01,2.300000000000000000e+01,6.199999999999999956e-01,6.566736400000000000e+09
3.000000000000000000e+01,1.770000000000000000e+02,3.480000000000000000e+02,1.040000000000000000e+02,2.800000000000000000e+01,4.500000000000000000e+01,2.600000000000000000e+01,2.400000000000000000e+01,6.199999999999999956e-01,6.584954000000000000e+09
2.800000000000000000e+01,1.810000000000000000e+02,3.250000000000000000e+02,8.800000000000000000e+01,2.800000000000000000e+01,4.200000000000000000e+01,2.600000000000000000e+01,2.300000000000000000e+01,6.300000000000000044e-01,6.611229300000000000e+09
3.000000000000000000e+01,1.570000000000000000e+02,3.420000000000000000e+02,9.400000000000000000e+01,3.300000000000000000e+01,4.400000000000000000e+01,2.500000000000000000e+01,2.300000000000000000e+01,6.300000000000000044e-01,6.629241000000000000e+09
3.000000000000000000e+01,1.290000000000000000e+02,3.150000000000000000e+02,9.000000000000000000e+01,3.200000000000000000e+01,4.300000000000000000e+01,2.600000000000000000e+01,2.300000000000000000e+01,6.300000000000000044e-01,6.647453200000000000e+09
2.600000000000000000e+01,1.300000000000000000e+02,2.910000000000000000e+02,9.000000000000000000e+01,3.200000000000000000e+01,4.200000000000000000e+01,2.700000000000000000e+01,2.400000000000000000e+01,6.199999999999999956e-01,6.666975900000000000e+09
2.700000000000000000e+01,1.380000000000000000e+02,2.870000000000000000e+02,8.900000000000000000e+01,3.300000000000000000e+01,4.100000000000000000e+01,2.600000000000000000e+01,2.300000000000000000e+01,6.199999999999999956e-01,6.686179200000000000e+09
3.400000000000000000e+01,1.470000000000000000e+02,3.310000000000000000e+02,9.300000000000000000e+01,3.300000000000000000e+01,4.500000000000000000e+01,2.400000000000000000e+01,2.600000000000000000e+01,6.199999999999999956e-01,6.703853400000000000e+09
3.100000000000000000e+01,1.530000000000000000e+02,3.460000000000000000e+02,7.400000000000000000e+01,3.400000000000000000e+01,4.100000000000000000e+01,2.500000000000000000e+01,2.400000000000000000e+01,6.199999999999999956e-01,6.722350500000000000e+09
3.200000000000000000e+01,1.520000000000000000e+02,4.180000000000000000e+02,8.100000000000000000e+01,3.600000000000000000e+01,4.200000000000000000e+01,2.500000000000000000e+01,2.500000000000000000e+01,6.199999999999999956e-01,6.740155000000000000e+09
3.500000000000000000e+01,1.680000000000000000e+02,4.220000000000000000e+02,8.200000000000000000e+01,3.600000000000000000e+01,4.300000000000000000e+01,2.400000000000000000e+01,7.300000000000000000e+01,6.199999999999999956e-01,6.761846900000000000e+09
3.700000000000000000e+01,1.640000000000000000e+02,4.220000000000000000e+02,8.100000000000000000e+01,3.400000000000000000e+01,4.400000000000000000e+01,2.500000000000000000e+01,1.230000000000000000e+02,6.199999999999999956e-01,6.784229400000000000e+09
3.300000000000000000e+01,1.740000000000000000e+02,3.780000000000000000e+02,5.900000000000000000e+01,4.000000000000000000e+01,3.900000000000000000e+01,2.700000000000000000e+01,1.480000000000000000e+02,6.099999999999999867e-01,6.802321200000000000e+09
3.600000000000000000e+01,2.030000000000000000e+02,2.980000000000000000e+02,5.400000000000000000e+01,4.800000000000000000e+01,4.000000000000000000e+01,2.700000000000000000e+01,1.500000000000000000e+02,5.999999999999999778e-01,6.820886800000000000e+09
3.500000000000000000e+01,2.000000000000000000e+02,1.430000000000000000e+02,3.200000000000000000e+01,6.200000000000000000e+01,3.900000000000000000e+01,2.700000000000000000e+01,1.520000000000000000e+02,5.899999999999999689e-01,6.839678000000000000e+09
3.300000000000000000e+01,1.810000000000000000e+02,9.400000000000000000e+01,3.300000000000000000e+01,6.800000000000000000e+01,4.400000000000000000e+01,2.900000000000000000e+01,1.380000000000000000e+02,5.799999999999999600e-01,6.861892400000000000e+09
3.200000000000000000e+01,1.980000000000000000e+02,1.490000000000000000e+02,8.100000000000000000e+01,6.800000000000000000e+01,4.900000000000000000e+01,2.800000000000000000e+01,9.800000000000000000e+01,5.799999999999999600e-01,6.884116600000000000e+09
3.500000000000000000e+01,1.830000000000000000e+02,3.400000000000000000e+02,1.100000000000000000e+02,7.100000000000000000e+01,5.500000000000000000e+01,2.900000000000000000e+01,5.600000000000000000e+01,5.799999999999999600e-01,6.902767500000000000e+09
5.100000000000000000e+01,1.720000000000000000e+02,4.830000000000000000e+02,1.830000000000000000e+02,1.090000000000000000e+02,6.100000000000000000e+01,3.300000000000000000e+01,5.400000000000000000e+01,5.699999999999999512e-01,6.921598800000000000e+09
7.300000000000000000e+01,1.940000000000000000e+02,6.000000000000000000e+02,2.310000000000000000e+02,1.200000000000000000e+02,8.000000000000000000e+01,3.900000000000000000e+01,5.700000000000000000e+01,5.600000000000000533e-01,6.939866000000000000e+09
9.300000000000000000e+01,2.110000000000000000e+02,7.300000000000000000e+02,2.830000000000000000e+02,1.360000000000000000e+02,9.400000000000000000e+01,4.400000000000000000e+01,6.500000000000000000e+01,5.500000000000000444e-01,6.971216400000000000e+09
1.130000000000000000e+02,2.360000000000000000e+02,8.510000000000000000e+02,4.030000000000000000e+02,1.550000000000000000e+02,9.900000000000000000e+01,5.200000000000000000e+01,7.100000000000000000e+01,5.300000000000000266e-01,6.989459000000000000e+09
1.170000000000000000e+02,2.580000000000000000e+02,9.530000000000000000e+02,4.120000000000000000e+02,1.680000000000000000e+02,1.000000000000000000e+02,5.100000000000000000e+01,8.100000000000000000e+01,5.100000000000000089e-01,7.007772500000000000e+09
1.130000000000000000e+02,2.770000000000000000e+02,1.022000000000000000e+03,4.230000000000000000e+02,1.520000000000000000e+02,9.900000000000000000e+01,5.000000000000000000e+01,9.000000000000000000e+01,4.899999999999999911e-01,7.026207700000000000e+09
1.110000000000000000e+02,2.980000000000000000e+02,1.049000000000000000e+03,4.740000000000000000e+02,1.660000000000000000e+02,1.020000000000000000e+02,5.000000000000000000e+01,9.100000000000000000e+01,4.799999999999999822e-01,7.044971600000000000e+09
1.070000000000000000e+02,3.100000000000000000e+02,1.115000000000000000e+03,4.870000000000000000e+02,1.710000000000000000e+02,9.400000000000000000e+01,4.700000000000000000e+01,8.400000000000000000e+01,4.600000000000000200e-01,7.063226800000000000e+09
1.350000000000000000e+02,4.010000000000000000e+02,1.191000000000000000e+03,4.830000000000000000e+02,2.000000000000000000e+02,1.110000000000000000e+02,5.000000000000000000e+01,9.300000000000000000e+01,4.400000000000000022e-01,7.084075300000000000e+09
1.670000000000000000e+02,4.480000000000000000e+02,1.190000000000000000e+03,5.050000000000000000e+02,2.210000000000000000e+02,1.270000000000000000e+02,6.100000000000000000e+01,1.000000000000000000e+02,4.099999999999999756e-01,7.105799000000000000e+09
1.740000000000000000e+02,4.740000000000000000e+02,1.163000000000000000e+03,5.740000000000000000e+02,2.210000000000000000e+02,1.350000000000000000e+02,6.200000000000000000e+01,9.500000000000000000e+01,3.900000000000000133e-01,7.124212100000000000e+09
1.840000000000000000e+02,5.240000000000000000e+02,1.192000000000000000e+03,6.220000000000000000e+02,2.110000000000000000e+02,1.290000000000000000e+02,6.600000000000000000e+01,9.900000000000000000e+01,3.599999999999999867e-01,7.142187100000000000e+09
1.880000000000000000e+02,5.400000000000000000e+02,1.145000000000000000e+03,6.570000000000000000e+02,2.190000000000000000e+02,1.340000000000000000e+02,6.900000000000000000e+01,1.030000000000000000e+02,3.300000000000000155e-01,7.165907600000000000e+09
1.810000000000000000e+02,4.820000000000000000e+02,1.055000000000000000e+03,6.640000000000000000e+02,2.080000000000000000e+02,1.310000000000000000e+02,6.900000000000000000e+01,9.900000000000000000e+01,3.099999999999999978e-01,7.185133600000000000e+09
1.730000000000000000e+02,4.930000000000000000e+02,1.030000000000000000e+03,8.270000000000000000e+02,1.950000000000000000e+02,1.220000000000000000e+02,6.600000000000000000e+01,9.500000000000000000e+01,2.899999999999999800e-01,7.203267300000000000e+09
1.890000000000000000e+02,5.320000000000000000e+02,9.610000000000000000e+02,7.780000000000000000e+02,2.140000000000000000e+02,1.230000000000000000e+02,7.000000000000000000e+01,1.010000000000000000e+02,2.700000000000000178e-01,7.222813000000000000e+09
1.880000000000000000e+02,4.970000000000000000e+02,8.980000000000000000e+02,7.390000000000000000e+02,2.130000000000000000e+02,1.220000000000000000e+02,6.700000000000000000e+01,9.900000000000000000e+01,2.500000000000000000e-01,7.240852800000000000e+09
2.030000000000000000e+02,4.750000000000000000e+02,9.180000000000000000e+02,7.260000000000000000e+02,2.330000000000000000e+02,1.320000000000000000e+02,7.300000000000000000e+01,1.080000000000000000e+02,2.399999999999999911e-01,7.261713500000000000e+09
1.870000000000000000e+02,5.160000000000000000e+02,8.900000000000000000e+02,6.750000000000000000e+02,2.110000000000000000e+02,1.180000000000000000e+02,6.800000000000000000e+01,1.010000000000000000e+02,2.200000000000000011e-01,7.286773400000000000e+09
1.680000000000000000e+02,4.660000000000000000e+02,8.570000000000000000e+02,4.640000000000000000e+02,1.960000000000000000e+02,1.100000000000000000e+02,6.200000000000000000e+01,8.900000000000000000e+01,2.099999999999999922e-01,7.304554800000000000e+09
1.540000000000000000e+02,4.520000000000000000e+02,9.420000000000000000e+02,5.430000000000000000e+02,2.040000000000000000e+02,1.090000000000000000e+02,6.700000000000000000e+01,8.600000000000000000e+01,2.000000000000000111e-01,7.323657700000000000e+09
1.590000000000000000e+02,4.710000000000000000e+02,9.770000000000000000e+02,5.880000000000000000e+02,2.090000000000000000e+02,1.130000000000000000e+02,6.700000000000000000e+01,8.900000000000000000e+01,1.900000000000000022e-01,7.342503100000000000e+09
1.350000000000000000e+02,4.970000000000000000e+02,9.820000000000000000e+02,5.710000000000000000e+02,1.700000000000000000e+02,9.300000000000000000e+01,6.100000000000000000e+01,7.400000000000000000e+01,1.799999999999999933e-01,7.361750200000000000e+09
1.310000000000000000e+02,4.450000000000000000e+02,1.018000000000000000e+03,5.710000000000000000e+02,1.720000000000000000e+02,9.200000000000000000e+01,6.000000000000000000e+01,7.200000000000000000e+01,1.700000000000000122e-01,7.383869200000000000e+09
1.310000000000000000e+02,4.800000000000000000e+02,9.470000000000000000e+02,5.790000000000000000e+02,1.720000000000000000e+02,9.300000000000000000e+01,5.900000000000000000e+01,7.300000000000000000e+01,1.700000000000000122e-01,7.403203300000000000e+09
1.150000000000000000e+02,4.270000000000000000e+02,8.970000000000000000e+02,5.290000000000000000e+02,1.410000000000000000e+02,8.000000000000000000e+01,4.600000000000000000e+01,6.200000000000000000e+01,1.600000000000000033e-01,7.421891900000000000e+09
1.140000000000000000e+02,3.850000000000000000e+02,9.430000000000000000e+02,4.540000000000000000e+02,1.350000000000000000e+02,7.000000000000000000e+01,4.600000000000000000e+01,6.000000000000000000e+01,1.600000000000000033e-01,7.440524300000000000e+09
1.070000000000000000e+02,4.010000000000000000e+02,8.450000000000000000e+02,4.280000000000000000e+02,1.210000000000000000e+02,6.500000000000000000e+01,4.100000000000000000e+01,5.600000000000000000e+01,1.600000000000000033e-01,7.463258000000000000e+09
1.060000000000000000e+02,3.930000000000000000e+02,7.850000000000000000e+02,4.200000000000000000e+02,1.130000000000000000e+02,6.200000000000000000e+01,4.000000000000000000e+01,5.600000000000000000e+01,1.600000000000000033e-01,7.482718500000000000e+09
1.030000000000000000e+02,3.600000000000000000e+02,8.060000000000000000e+02,3.640000000000000000e+02,1.070000000000000000e+02,5.600000000000000000e+01,4.000000000000000000e+01,6.000000000000000000e+01,1.600000000000000033e-01,7.501170700000000000e+09
1.070000000000000000e+02,3.580000000000000000e+02,7.980000000000000000e+02,3.000000000000000000e+02,9.200000000000000000e+01,5.400000000000000000e+01,4.200000000000000000e+01,6.400000000000000000e+01,1.700000000000000122e-01,7.520286300000000000e+09
7.900000000000000000e+01,3.960000000000000000e+02,6.790000000000000000e+02,2.250000000000000000e+02,6.900000000000000000e+01,4.800000000000000000e+01,3.500000000000000000e+01,6.600000000000000000e+01,1.799999999999999933e-01,7.543154600000000000e+09
8.000000000000000000e+01,3.650000000000000000e+02,6.860000000000000000e+02,1.800000000000000000e+02,6.500000000000000000e+01,4.500000000000000000e+01,3.900000000000000000e+01,1.920000000000000000e+02,2.000000000000000111e-01,7.561481700000000000e+09
7.700000000000000000e+01,3.750000000000000000e+02,6.640000000000000000e+02,1.450000000000000000e+02,6.300000000000000000e+01,4.200000000000000000e+01,3.900000000000000000e+01,2.350000000000000000e+02,2.099999999999999922e-01,7.580030600000000000e+09
7.200000000000000000e+01,3.650000000000000000e+02,6.330000000000000000e+02,1.360000000000000000e+02,5.600000000000000000e+01,4.000000000000000000e+01,4.400000000000000000e+01,3.120000000000000000e+02,2.300000000000000100e-01,7.609788300000000000e+09
7.600000000000000000e+01,4.110000000000000000e+02,5.650000000000000000e+02,1.070000000000000000e+02,5.000000000000000000e+01,4.900000000000000000e+01,5.300000000000000000e+01,4.160000000000000000e+02,2.500000000000000000e-01,7.627744300000000000e+09
7.400000000000000000e+01,3.540000000000000000e+02,5.340000000000000000e+02,1.060000000000000000e+02,5.100000000000000000e+01,5.300000000000000000e+01,5.400000000000000000e+01,4.420000000000000000e+02,2.700000000000000178e-01,7.647202200000000000e+09
6.900000000000000000e+01,3.380000000000000000e+02,5.230000000000000000e+02,1.410000000000000000e+02,5.100000000000000000e+01,5.800000000000000000e+01,5.400000000000000000e+01,4.310000000000000000e+02,2.800000000000000266e-01,7.665421600000000000e+09
7.200000000000000000e+01,3.690000000000000000e+02,4.770000000000000000e+02,1.410000000000000000e+02,4.800000000000000000e+01,6.300000000000000000e+01,5.700000000000000000e+01,4.170000000000000000e+02,2.999999999999999889e-01,7.684715800000000000e+09
8.800000000000000000e+01,3.750000000000000000e+02,4.930000000000000000e+02,1.470000000000000000e+02,4.800000000000000000e+01,8.500000000000000000e+01,8.600000000000000000e+01,4.550000000000000000e+02,3.099999999999999978e-01,7.703165700000000000e+09
8.300000000000000000e+01,3.770000000000000000e+02,5.280000000000000000e+02,1.610000000000000000e+02,4.800000000000000000e+01,8.000000000000000000e+01,8.100000000000000000e+01,3.660000000000000000e+02,3.300000000000000155e-01,7.722618600000000000e+09
8.600000000000000000e+01,4.000000000000000000e+02,5.170000000000000000e+02,1.760000000000000000e+02,5.500000000000000000e+01,8.400000000000000000e+01,8.600000000000000000e+01,3.410000000000000000e+02,3.400000000000000244e-01,7.744301000000000000e+09
8.300000000000000000e+01,4.020000000000000000e+02,4.640000000000000000e+02,1.600000000000000000e+02,5.300000000000000000e+01,8.200000000000000000e+01,8.400000000000000000e+01,3.100000000000000000e+02,3.599999999999999867e-01,7.762810800000000000e+09
8.100000000000000000e+01,3.610000000000000000e+02,4.450000000000000000e+02,1.830000000000000000e+02,5.800000000000000000e+01,8.100000000000000000e+01,8.300000000000000000e+01,3.040000000000000000e+02,3.699999999999999956e-01,7.781152500000000000e+09
6.400000000000000000e+01,3.340000000000000000e+02,4.190000000000000000e+02,1.900000000000000000e+02,5.800000000000000000e+01,6.000000000000000000e+01,4.600000000000000000e+01,1.360000000000000000e+02,3.800000000000000044e-01,7.800129000000000000e+09
5.700000000000000000e+01,2.590000000000000000e+02,4.910000000000000000e+02,1.850000000000000000e+02,5.700000000000000000e+01,5.700000000000000000e+01,4.300000000000000000e+01,1.220000000000000000e+02,3.900000000000000133e-01,7.818912500000000000e+09
4.800000000000000000e+01,2.640000000000000000e+02,5.050000000000000000e+02,1.960000000000000000e+02,5.200000000000000000e+01,4.700000000000000000e+01,3.300000000000000000e+01,9.300000000000000000e+01,4.099999999999999756e-01,7.840761900000000000e+09
5.200000000000000000e+01,2.570000000000000000e+02,5.300000000000000000e+02,1.990000000000000000e+02,4.900000000000000000e+01,4.600000000000000000e+01,3.000000000000000000e+01,7.600000000000000000e+01,4.199999999999999845e-01,7.859742600000000000e+09
1.990000000000000000e+02,3.410000000000000000e+02,6.500000000000000000e+02,2.320000000000000000e+02,4.500000000000000000e+01,4.200000000000000000e+01,3.000000000000000000e+01,6.700000000000000000e+01,4.400000000000000022e-01,7.879482700000000000e+09
4.680000000000000000e+02,5.070000000000000000e+02,7.650000000000000000e+02,2.470000000000000000e+02,5.500000000000000000e+01,4.700000000000000000e+01,4.700000000000000000e+01,1.010000000000000000e+02,4.500000000000000111e-01,7.903031600000000000e+09
5.120000000000000000e+02,6.620000000000000000e+02,7.520000000000000000e+02,2.560000000000000000e+02,6.100000000000000000e+01,4.800000000000000000e+01,5.300000000000000000e+01,1.110000000000000000e+02,4.500000000000000111e-01,7.922764600000000000e+09
5.140000000000000000e+02,6.530000000000000000e+02,7.470000000000000000e+02,2.390000000000000000e+02,5.800000000000000000e+01,4.400000000000000000e+01,5.100000000000000000e+01,1.110000000000000000e+02,4.600000000000000200e-01,7.941405000000000000e+09
5.180000000000000000e+02,6.590000000000000000e+02,7.910000000000000000e+02,2.320000000000000000e+02,6.300000000000000000e+01,4.500000000000000000e+01,5.300000000000000000e+01,1.200000000000000000e+02,4.699999999999999734e-01,7.961091500000000000e+09
4.870000000000000000e+02,6.360000000000000000e+02,7.280000000000000000e+02,1.810000000000000000e+02,6.400000000000000000e+01,5.700000000000000000e+01,5.600000000000000000e+01,1.470000000000000000e+02,4.799999999999999822e-01,7.983472800000000000e+09
2.430000000000000000e+02,5.150000000000000000e+02,6.280000000000000000e+02,1.480000000000000000e+02,5.500000000000000000e+01,5.400000000000000000e+01,4.000000000000000000e+01,1.220000000000000000e+02,4.899999999999999911e-01,8.001895100000000000e+09
1.240000000000000000e+02,2.830000000000000000e+02,5.740000000000000000e+02,1.260000000000000000e+02,4.700000000000000000e+01,7.700000000000000000e+01,3.900000000000000000e+01,1.480000000000000000e+02,5.000000000000000000e-01,8.022002300000000000e+09
1.150000000000000000e+02,2.590000000000000000e+02,6.470000000000000000e+02,1.590000000000000000e+02,4.600000000000000000e+01,9.500000000000000000e+01,3.900000000000000000e+01,1.510000000000000000e+02,5.000000000000000000e-01,8.044051100000000000e+09
9.400000000000000000e+01,2.180000000000000000e+02,6.240000000000000000e+02,2.470000000000000000e+02,4.900000000000000000e+01,9.500000000000000000e+01,3.700000000000000000e+01,1.450000000000000000e+02,5.100000000000000089e-01,8.062855900000000000e+09
8.400000000000000000e+01,1.770000000000000000e+02,6.420000000000000000e+02,2.540000000000000000e+02,5.000000000000000000e+01,8.900000000000000000e+01,3.100000000000000000e+01,1.120000000000000000e+02,5.100000000000000089e-01,8.080411900000000000e+09
8.700000000000000000e+01,2.560000000000000000e+02,7.060000000000000000e+02,2.750000000000000000e+02,6.000000000000000000e+01,8.900000000000000000e+01,3.300000000000000000e+01,1.090000000000000000e+02,5.100000000000000089e-01,8.103203500000000000e+09
8.600000000000000000e+01,2.430000000000000000e+02,7.260000000000000000e+02,2.770000000000000000e+02,6.100000000000000000e+01,7.200000000000000000e+01,2.700000000000000000e+01,5.300000000000000000e+01,5.100000000000000089e-01,8.121393500000000000e+09
8.500000000000000000e+01,2.400000000000000000e+02,6.310000000000000000e+02,2.580000000000000000e+02,6.300000000000000000e+01,1.400000000000000000e+02,6.000000000000000000e+01,4.100000000000000000e+01,5.200000000000000178e-01,8.143611600000000000e+09
8.700000000000000000e+01,2.430000000000000000e+02,6.390000000000000000e+02,1.730000000000000000e+02,5.400000000000000000e+01,1.780000000000000000e+02,6.900000000000000000e+01,9.000000000000000000e+01,5.300000000000000266e-01,8.164116300000000000e+09
6.200000000000000000e+01,2.320000000000000000e+02,6.090000000000000000e+02,1.570000000000000000e+02,5.000000000000000000e+01,2.440000000000000000e+02,1.170000000000000000e+02,1.000000000000000000e+02,5.400000000000000355e-01,8.183349200000000000e+09
6.300000000000000000e+01,1.540000000000000000e+02,5.390000000000000000e+02,1.290000000000000000e+02,3.800000000000000000e+01,2.490000000000000000e+02,1.220000000000000000e+02,1.020000000000000000e+02,5.500000000000000444e-01,8.202605600000000000e+09
1.050000000000000000e+02,1.710000000000000000e+02,4.990000000000000000e+02,1.190000000000000000e+02,3.400000000000000000e+01,2.490000000000000000e+02,1.220000000000000000e+02,1.200000000000000000e+02,5.600000000000000533e-01,8.224088800000000000e+09
1.200000000000000000e+02,1.860000000000000000e+02,5.620000000000000000e+02,1.530000000000000000e+02,3.700000000000000000e+01,2.130000000000000000e+02,1.120000000000000000e+02,1.220000000000000000e+02,5.699999999999999512e-01,8.243610600000000000e+09
1.230000000000000000e+02,2.360000000000000000e+02,4.930000000000000000e+02,1.670000000000000000e+02,3.900000000000000000e+01,2.070000000000000000e+02,1.090000000000000000e+02,9.100000000000000000e+01,5.699999999999999512e-01,8.261797000000000000e+09
1.340000000000000000e+02,2.330000000000000000e+02,4.570000000000000000e+02,1.640000000000000000e+02,4.300000000000000000e+01,1.590000000000000000e+02,8.600000000000000000e+01,8.100000000000000000e+01,5.799999999999999600e-01,8.284022600000000000e+09
1.270000000000000000e+02,2.200000000000000000e+02,4.170000000000000000e+02,1.950000000000000000e+02,4.300000000000000000e+01,1.650000000000000000e+02,8.100000000000000000e+01,7.800000000000000000e+01,5.899999999999999689e-01,8.302742500000000000e+09
9.800000000000000000e+01,2.220000000000000000e+02,4.320000000000000000e+02,2.380000000000000000e+02,5.100000000000000000e+01,1.670000000000000000e+02,8.200000000000000000e+01,4.500000000000000000e+01,5.999999999999999778e-01,8.321461700000000000e+09
9.400000000000000000e+01,3.030000000000000000e+02,3.830000000000000000e+02,2.210000000000000000e+02,4.900000000000000000e+01,1.750000000000000000e+02,8.300000000000000000e+01,3.900000000000000000e+01,6.099999999999999867e-01,8.343755900000000000e+09
1.060000000000000000e+02,2.880000000000000000e+02,3.990000000000000000e+02,2.160000000000000000e+02,5.300000000000000000e+01,1.630000000000000000e+02,8.700000000000000000e+01,8.000000000000000000e+01,6.199999999999999956e-01,8.362211400000000000e+09
1.010000000000000000e+02,3.190000000000000000e+02,4.010000000000000000e+02,2.200000000000000000e+02,4.900000000000000000e+01,1.360000000000000000e+02,7.200000000000000000e+01,8.000000000000000000e+01,6.300000000000000044e-01,8.381563300000000000e+09
1.210000000000000000e+02,4.050000000000000000e+02,4.200000000000000000e+02,2.200000000000000000e+02,4.900000000000000000e+01,1.240000000000000000e+02,7.000000000000000000e+01,8.300000000000000000e+01,6.400000000000000133e-01,8.413419500000000000e+09
1.420000000000000000e+02,4.190000000000000000e+02,4.050000000000000000e+02,1.830000000000000000e+02,4.900000000000000000e+01,1.250000000000000000e+02,8.800000000000000000e+01,8.300000000000000000e+01,6.500000000000000222e-01,8.432526400000000000e+09
1.360000000000000000e+02,3.630000000000000000e+02,3.400000000000000000e+02,1.750000000000000000e+02,4.600000000000000000e+01,2.380000000000000000e+02,9.800000000000000000e+01,8.300000000000000000e+01,6.600000000000000311e-01,8.450440400000000000e+09
1.240000000000000000e+02,3.480000000000000000e+02,3.450000000000000000e+02,1.800000000000000000e+02,4.100000000000000000e+01,2.420000000000000000e+02,1.030000000000000000e+02,7.000000000000000000e+01,6.600000000000000311e-01,8.468463000000000000e+09
1.170000000000000000e+02,3.160000000000000000e+02,3.930000000000000000e+02,1.740000000000000000e+02,4.200000000000000000e+01,2.440000000000000000e+02,9.300000000000000000e+01,7.200000000000000000e+01,6.700000000000000400e-01,8.488391300000000000e+09
1.030000000000000000e+02,2.130000000000000000e+02,4.470000000000000000e+02,1.490000000000000000e+02,5.600000000000000000e+01,2.830000000000000000e+02,9.300000000000000000e+01,7.200000000000000000e+01,6.800000000000000488e-01,8.506215100000000000e+09
9.100000000000000000e+01,2.180000000000000000e+02,4.540000000000000000e+02,1.510000000000000000e+02,5.800000000000000000e+01,2.810000000000000000e+02,7.600000000000000000e+01,7.400000000000000000e+01,6.800000000000000488e-01,8.524811300000000000e+09
1.070000000000000000e+02,3.120000000000000000e+02,4.730000000000000000e+02,1.530000000000000000e+02,5.700000000000000000e+01,1.900000000000000000e+02,6.800000000000000000e+01,7.400000000000000000e+01,6.800000000000000488e-01,8.543040300000000000e+09
1.090000000000000000e+02,3.260000000000000000e+02,4.810000000000000000e+02,1.490000000000000000e+02,5.700000000000000000e+01,1.730000000000000000e+02,5.100000000000000000e+01,5.300000000000000000e+01,6.800000000000000488e-01,8.561358400000000000e+09
1.080000000000000000e+02,3.250000000000000000e+02,4.400000000000000000e+02,1.550000000000000000e+02,5.600000000000000000e+01,1.860000000000000000e+02,6.900000000000000000e+01,4.900000000000000000e+01,6.700000000000000400e-01,8.583518100000000000e+09
1.020000000000000000e+02,3.260000000000000000e+02,3.640000000000000000e+02,1.430000000000000000e+02,4.300000000000000000e+01,1.740000000000000000e+02,8.500000000000000000e+01,4.200000000000000000e+01,6.800000000000000488e-01,8.602380300000000000e+09
9.500000000000000000e+01,3.640000000000000000e+02,3.620000000000000000e+02,1.770000000000000000e+02,5.000000000000000000e+01,1.850000000000000000e+02,8.700000000000000000e+01,4.200000000000000000e+01,6.800000000000000488e-01,8.620434600000000000e+09
9.200000000000000000e+01,3.250000000000000000e+02,4.360000000000000000e+02,2.040000000000000000e+02,5.100000000000000000e+01,1.840000000000000000e+02,8.100000000000000000e+01,4.500000000000000000e+01,6.800000000000000488e-01,8.653110700000000000e+09
8.800000000000000000e+01,3.120000000000000000e+02,4.150000000000000000e+02,1.920000000000000000e+02,5.200000000000000000e+01,1.850000000000000000e+02,8.500000000000000000e+01,3.900000000000000000e+01,6.800000000000000488e-01,8.672101400000000000e+09
9.200000000000000000e+01,3.170000000000000000e+02,4.480000000000000000e+02,1.860000000000000000e+02,5.500000000000000000e+01,2.590000000000000000e+02,8.500000000000000000e+01,3.800000000000000000e+01,6.899999999999999467e-01,8.690931000000000000e+09
9.700000000000000000e+01,3.100000000000000000e+02,4.520000000000000000e+02,1.800000000000000000e+02,5.100000000000000000e+01,2.360000000000000000e+02,6.900000000000000000e+01,3.700000000000000000e+01,6.899999999999999467e-01,8.709199400000000000e+09
8.800000000000000000e+01,2.640000000000000000e+02,4.860000000000000000e+02,1.670000000000000000e+02,3.700000000000000000e+01,2.270000000000000000e+02,6.700000000000000000e+01,3.300000000000000000e+01,6.800000000000000488e-01,8.728057600000000000e+09
7.400000000000000000e+01,2.800000000000000000e+02,4.580000000000000000e+02,1.360000000000000000e+02,3.400000000000000000e+01,2.310000000000000000e+02,6.600000000000000000e+01,3.000000000000000000e+01,6.899999999999999467e-01,8.747448000000000000e+09
7.500000000000000000e+01,2.810000000000000000e+02,4.370000000000000000e+02,1.340000000000000000e+02,3.300000000000000000e+01,2.930000000000000000e+02,8.100000000000000000e+01,9.900000000000000000e+01,6.899999999999999467e-01,8.769080500000000000e+09
7.700000000000000000e+01,2.800000000000000000e+02,4.000000000000000000e+02,1.330000000000000000e+02,2.600000000000000000e+01,2.420000000000000000e+02,8.000000000000000000e+01,1.010000000000000000e+02,6.899999999999999467e-01,8.790423300000000000e+09
1.130000000000000000e+02,3.000000000000000000e+02,4.500000000000000000e+02,1.530000000000000000e+02,3.200000000000000000e+01,2.320000000000000000e+02,8.000000000000000000e+01,1.070000000000000000e+02,6.899999999999999467e-01,8.810459700000000000e+09
1.170000000000000000e+02,2.810000000000000000e+02,4.160000000000000000e+02,1.630000000000000000e+02,3.100000000000000000e+01,2.340000000000000000e+02,8.100000000000000000e+01,1.090000000000000000e+02,6.999999999999999556e-01,8.828557700000000000e+09
1.160000000000000000e+02,2.100000000000000000e+02,3.420000000000000000e+02,1.650000000000000000e+02,4.000000000000000000e+01,2.920000000000000000e+02,9.800000000000000000e+01,1.230000000000000000e+02,6.999999999999999556e-01,8.847581600000000000e+09
1.160000000000000000e+02,2.050000000000000000e+02,3.410000000000000000e+02,1.660000000000000000e+02,4.700000000000000000e+01,2.970000000000000000e+02,1.120000000000000000e+02,9.100000000000000000e+01,6.999999999999999556e-01,8.869477500000000000e+09
1.150000000000000000e+02,2.060000000000000000e+02,3.780000000000000000e+02,2.730000000000000000e+02,7.000000000000000000e+01,2.790000000000000000e+02,1.080000000000000000e+02,9.200000000000000000e+01,6.999999999999999556e-01,8.887222300000000000e+09
9.900000000000000000e+01,2.720000000000000000e+02,3.420000000000000000e+02,2.670000000000000000e+02,7.200000000000000000e+01,2.830000000000000000e+02,1.080000000000000000e+02,8.700000000000000000e+01,6.999999999999999556e-01,8.906160300000000000e+09
9.400000000000000000e+01,2.720000000000000000e+02,3.110000000000000000e+02,2.470000000000000000e+02,7.400000000000000000e+01,2.840000000000000000e+02,1.070000000000000000e+02,8.600000000000000000e+01,6.999999999999999556e-01,8.924386900000000000e+09
9.400000000000000000e+01,2.720000000000000000e+02,3.490000000000000000e+02,2.480000000000000000e+02,7.300000000000000000e+01,2.950000000000000000e+02,1.020000000000000000e+02,8.200000000000000000e+01,6.999999999999999556e-01,8.943528200000000000e+09
9.400000000000000000e+01,2.750000000000000000e+02,3.400000000000000000e+02,2.480000000000000000e+02,7.100000000000000000e+01,3.100000000000000000e+02,1.120000000000000000e+02,1.250000000000000000e+02,7.099999999999999645e-01,8.966556200000000000e+09
9.100000000000000000e+01,2.630000000000000000e+02,2.870000000000000000e+02,1.210000000000000000e+02,5.000000000000000000e+01,3.240000000000000000e+02,1.100000000000000000e+02,1.240000000000000000e+02,6.999999999999999556e-01,8.990044200000000000e+09
7.300000000000000000e+01,1.520000000000000000e+02,3.520000000000000000e+02,1.100000000000000000e+02,4.600000000000000000e+01,3.270000000000000000e+02,1.140000000000000000e+02,1.390000000000000000e+02,6.999999999999999556e-01,9.007691000000000000e+09
7.000000000000000000e+01,1.090000000000000000e+02,3.520000000000000000e+02,8.800000000000000000e+01,4.500000000000000000e+01,3.490000000000000000e+02,1.260000000000000000e+02,1.460000000000000000e+02,6.999999999999999556e-01,9.026984200000000000e+09
6.600000000000000000e+01,1.320000000000000000e+02,3.470000000000000000e+02,8.400000000000000000e+01,4.300000000000000000e+01,3.180000000000000000e+02,1.210000000000000000e+02,1.450000000000000000e+02,6.899999999999999467e-01,9.045517100000000000e+09
6.000000000000000000e+01,1.950000000000000000e+02,3.760000000000000000e+02,1.150000000000000000e+02,4.200000000000000000e+01,2.440000000000000000e+02,9.200000000000000000e+01,1.210000000000000000e+02,6.899999999999999467e-01,9.064480300000000000e+09
6.400000000000000000e+01,2.380000000000000000e+02,4.260000000000000000e+02,1.350000000000000000e+02,5.000000000000000000e+01,2.290000000000000000e+02,9.400000000000000000e+01,1.250000000000000000e+02,6.899999999999999467e-01,9.086897900000000000e+09
5.700000000000000000e+01,2.380000000000000000e+02,3.500000000000000000e+02,1.420000000000000000e+02,5.100000000000000000e+01,2.430000000000000000e+02,9.800000000000000000e+01,1.330000000000000000e+02,6.800000000000000488e-01,9.112191600000000000e+09
