1.480000000000000000e+02,1.900000000000000000e+02,8.610000000000000000e+02,2.030000000000000000e+02,1.310000000000000000e+02,2.480000000000000000e+02,2.760000000000000000e+02,3.290000000000000000e+02,3.499999999999999778e-01,4.368790000000000000e+08
2.400000000000000000e+02,1.670000000000000000e+02,8.230000000000000000e+02,2.520000000000000000e+02,4.040000000000000000e+02,3.360000000000000000e+02,3.800000000000000000e+02,3.300000000000000000e+02,3.300000000000000155e-01,4.647045000000000000e+08
4.660000000000000000e+02,1.760000000000000000e+02,6.780000000000000000e+02,2.720000000000000000e+02,4.690000000000000000e+02,4.090000000000000000e+02,4.690000000000000000e+02,3.610000000000000000e+02,3.099999999999999978e-01,9.802161000000000000e+08
7.520000000000000000e+02,1.870000000000000000e+02,6.010000000000000000e+02,2.680000000000000000e+02,6.070000000000000000e+02,4.090000000000000000e+02,5.030000000000000000e+02,3.240000000000000000e+02,2.999999999999999889e-01,9.973552000000000000e+08
8.340000000000000000e+02,1.800000000000000000e+02,4.600000000000000000e+02,2.690000000000000000e+02,6.310000000000000000e+02,4.240000000000000000e+02,6.030000000000000000e+02,3.630000000000000000e+02,2.999999999999999889e-01,1.014318800000000000e+09
8.470000000000000000e+02,1.780000000000000000e+02,4.790000000000000000e+02,2.980000000000000000e+02,6.410000000000000000e+02,4.140000000000000000e+02,6.310000000000000000e+02,3.510000000000000000e+02,2.999999999999999889e-01,1.030951400000000000e+09
8.270000000000000000e+02,1.720000000000000000e+02,3.510000000000000000e+02,2.580000000000000000e+02,5.590000000000000000e+02,3.600000000000000000e+02,5.930000000000000000e+02,3.430000000000000000e+02,2.899999999999999800e-01,1.046765200000000000e+09
7.240000000000000000e+02,1.660000000000000000e+02,3.430000000000000000e+02,2.550000000000000000e+02,5.230000000000000000e+02,2.500000000000000000e+02,5.550000000000000000e+02,2.820000000000000000e+02,2.700000000000000178e-01,1.062818500000000000e+09
4.600000000000000000e+02,1.630000000000000000e+02,3.440000000000000000e+02,2.600000000000000000e+02,3.560000000000000000e+02,2.380000000000000000e+02,5.520000000000000000e+02,2.690000000000000000e+02,2.600000000000000089e-01,1.078759300000000000e+09
3.010000000000000000e+02,1.710000000000000000e+02,3.630000000000000000e+02,2.490000000000000000e+02,3.150000000000000000e+02,1.840000000000000000e+02,4.510000000000000000e+02,2.000000000000000000e+02,2.500000000000000000e-01,1.095065800000000000e+09
2.710000000000000000e+02,1.430000000000000000e+02,3.090000000000000000e+02,2.000000000000000000e+02,2.940000000000000000e+02,1.690000000000000000e+02,3.790000000000000000e+02,1.970000000000000000e+02,2.500000000000000000e-01,1.111432600000000000e+09
2.590000000000000000e+02,1.530000000000000000e+02,4.980000000000000000e+02,1.660000000000000000e+02,1.840000000000000000e+02,1.170000000000000000e+02,3.500000000000000000e+02,1.800000000000000000e+02,2.500000000000000000e-01,1.127165400000000000e+09
2.590000000000000000e+02,1.770000000000000000e+02,5.790000000000000000e+02,1.550000000000000000e+02,1.360000000000000000e+02,1.860000000000000000e+02,2.880000000000000000e+02,2.790000000000000000e+02,2.700000000000000178e-01,1.143365900000000000e+09
1.690000000000000000e+02,2.050000000000000000e+02,6.540000000000000000e+02,1.420000000000000000e+02,1.250000000000000000e+02,2.340000000000000000e+02,2.400000000000000000e+02,3.170000000000000000e+02,2.800000000000000266e-01,1.159365100000000000e+09
1.510000000000000000e+02,2.170000000000000000e+02,7.530000000000000000e+02,1.540000000000000000e+02,1.060000000000000000e+02,2.790000000000000000e+02,2.400000000000000000e+02,3.680000000000000000e+02,2.800000000000000266e-01,1.175734100000000000e+09
1.380000000000000000e+02,2.310000000000000000e+02,8.180000000000000000e+02,1.750000000000000000e+02,1.100000000000000000e+02,2.940000000000000000e+02,2.490000000000000000e+02,3.980000000000000000e+02,2.800000000000000266e-01,1.191734600000000000e+09
1.360000000000000000e+02,2.370000000000000000e+02,8.150000000000000000e+02,1.800000000000000000e+02,1.310000000000000000e+02,3.120000000000000000e+02,2.680000000000000000e+02,4.140000000000000000e+02,2.800000000000000266e-01,1.208046500000000000e+09
1.350000000000000000e+02,2.440000000000000000e+02,8.210000000000000000e+02,2.230000000000000000e+02,2.470000000000000000e+02,3.470000000000000000e+02,2.730000000000000000e+02,3.500000000000000000e+02,2.700000000000000178e-01,1.224242400000000000e+09
3.040000000000000000e+02,2.120000000000000000e+02,7.680000000000000000e+02,2.510000000000000000e+02,3.300000000000000000e+02,3.620000000000000000e+02,3.780000000000000000e+02,3.390000000000000000e+02,2.700000000000000178e-01,1.263206100000000000e+09
4.730000000000000000e+02,1.920000000000000000e+02,6.690000000000000000e+02,3.230000000000000000e+02,4.480000000000000000e+02,3.880000000000000000e+02,5.190000000000000000e+02,3.340000000000000000e+02,2.700000000000000178e-01,1.280703100000000000e+09
5.740000000000000000e+02,1.780000000000000000e+02,5.570000000000000000e+02,3.490000000000000000e+02,5.190000000000000000e+02,4.190000000000000000e+02,5.420000000000000000e+02,3.740000000000000000e+02,2.700000000000000178e-01,1.297280600000000000e+09
7.200000000000000000e+02,1.640000000000000000e+02,4.120000000000000000e+02,3.690000000000000000e+02,5.470000000000000000e+02,4.710000000000000000e+02,5.950000000000000000e+02,4.000000000000000000e+02,2.700000000000000178e-01,1.314549000000000000e+09
7.970000000000000000e+02,1.240000000000000000e+02,2.540000000000000000e+02,3.410000000000000000e+02,5.130000000000000000e+02,4.300000000000000000e+02,6.490000000000000000e+02,4.110000000000000000e+02,2.600000000000000089e-01,1.330567500000000000e+09
7.870000000000000000e+02,1.230000000000000000e+02,2.480000000000000000e+02,3.220000000000000000e+02,4.760000000000000000e+02,3.930000000000000000e+02,5.910000000000000000e+02,3.920000000000000000e+02,2.600000000000000089e-01,1.347069200000000000e+09
7.320000000000000000e+02,1.250000000000000000e+02,2.890000000000000000e+02,2.480000000000000000e+02,3.780000000000000000e+02,3.360000000000000000e+02,4.600000000000000000e+02,3.580000000000000000e+02,2.500000000000000000e-01,1.363854600000000000e+09
6.680000000000000000e+02,1.290000000000000000e+02,4.130000000000000000e+02,1.900000000000000000e+02,2.710000000000000000e+02,2.810000000000000000e+02,4.250000000000000000e+02,2.740000000000000000e+02,2.500000000000000000e-01,1.380170400000000000e+09
5.140000000000000000e+02,1.250000000000000000e+02,5.840000000000000000e+02,1.360000000000000000e+02,2.070000000000000000e+02,1.510000000000000000e+02,3.310000000000000000e+02,2.020000000000000000e+02,2.600000000000000089e-01,1.396352700000000000e+09
3.860000000000000000e+02,1.290000000000000000e+02,6.540000000000000000e+02,1.770000000000000000e+02,1.820000000000000000e+02,1.210000000000000000e+02,1.800000000000000000e+02,1.620000000000000000e+02,2.700000000000000178e-01,1.412470200000000000e+09
3.150000000000000000e+02,1.610000000000000000e+02,8.280000000000000000e+02,1.900000000000000000e+02,1.570000000000000000e+02,1.610000000000000000e+02,2.110000000000000000e+02,2.060000000000000000e+02,2.800000000000000266e-01,1.428940000000000000e+09
2.360000000000000000e+02,1.870000000000000000e+02,8.760000000000000000e+02,2.230000000000000000e+02,1.310000000000000000e+02,1.990000000000000000e+02,2.110000000000000000e+02,2.870000000000000000e+02,2.899999999999999800e-01,1.445574500000000000e+09
1.910000000000000000e+02,1.900000000000000000e+02,8.810000000000000000e+02,2.650000000000000000e+02,1.540000000000000000e+02,2.510000000000000000e+02,2.480000000000000000e+02,3.010000000000000000e+02,2.999999999999999889e-01,1.466232900000000000e+09
1.750000000000000000e+02,1.920000000000000000e+02,7.800000000000000000e+02,2.720000000000000000e+02,1.510000000000000000e+02,3.110000000000000000e+02,3.240000000000000000e+02,3.120000000000000000e+02,3.099999999999999978e-01,1.495920100000000000e+09
2.860000000000000000e+02,1.930000000000000000e+02,7.200000000000000000e+02,2.520000000000000000e+02,1.650000000000000000e+02,3.250000000000000000e+02,3.340000000000000000e+02,3.300000000000000000e+02,3.099999999999999978e-01,1.524110800000000000e+09
4.470000000000000000e+02,1.900000000000000000e+02,5.190000000000000000e+02,2.800000000000000000e+02,1.760000000000000000e+02,3.070000000000000000e+02,3.370000000000000000e+02,3.250000000000000000e+02,3.099999999999999978e-01,1.546639000000000000e+09
4.640000000000000000e+02,2.180000000000000000e+02,4.010000000000000000e+02,2.720000000000000000e+02,2.130000000000000000e+02,2.960000000000000000e+02,3.470000000000000000e+02,2.560000000000000000e+02,3.200000000000000067e-01,1.565185400000000000e+09
4.810000000000000000e+02,2.550000000000000000e+02,2.710000000000000000e+02,2.590000000000000000e+02,2.030000000000000000e+02,2.570000000000000000e+02,3.260000000000000000e+02,2.360000000000000000e+02,3.200000000000000067e-01,1.585976200000000000e+09
4.860000000000000000e+02,2.560000000000000000e+02,4.060000000000000000e+02,2.660000000000000000e+02,2.010000000000000000e+02,1.740000000000000000e+02,2.570000000000000000e+02,2.230000000000000000e+02,3.200000000000000067e-01,1.606387400000000000e+09
4.260000000000000000e+02,2.830000000000000000e+02,4.660000000000000000e+02,2.720000000000000000e+02,1.920000000000000000e+02,1.540000000000000000e+02,2.440000000000000000e+02,1.930000000000000000e+02,3.200000000000000067e-01,1.625650900000000000e+09
2.370000000000000000e+02,2.870000000000000000e+02,4.720000000000000000e+02,2.350000000000000000e+02,1.760000000000000000e+02,1.450000000000000000e+02,1.600000000000000000e+02,1.190000000000000000e+02,3.300000000000000155e-01,1.644481700000000000e+09
1.820000000000000000e+02,2.460000000000000000e+02,4.680000000000000000e+02,2.110000000000000000e+02,1.340000000000000000e+02,1.070000000000000000e+02,1.150000000000000000e+02,8.300000000000000000e+01,3.400000000000000244e-01,1.663547200000000000e+09
1.260000000000000000e+02,2.000000000000000000e+02,4.460000000000000000e+02,1.970000000000000000e+02,1.200000000000000000e+02,1.220000000000000000e+02,1.100000000000000000e+02,8.300000000000000000e+01,3.499999999999999778e-01,1.682580100000000000e+09
1.010000000000000000e+02,1.960000000000000000e+02,3.140000000000000000e+02,1.860000000000000000e+02,2.030000000000000000e+02,1.630000000000000000e+02,1.830000000000000000e+02,7.900000000000000000e+01,3.599999999999999867e-01,1.699870300000000000e+09
7.300000000000000000e+01,1.370000000000000000e+02,2.810000000000000000e+02,1.860000000000000000e+02,2.420000000000000000e+02,2.470000000000000000e+02,1.970000000000000000e+02,6.800000000000000000e+01,3.599999999999999867e-01,1.717335400000000000e+09
6.000000000000000000e+01,8.800000000000000000e+01,3.650000000000000000e+02,2.480000000000000000e+02,2.740000000000000000e+02,2.620000000000000000e+02,1.990000000000000000e+02,6.100000000000000000e+01,3.599999999999999867e-01,1.737587700000000000e+09
6.000000000000000000e+01,8.500000000000000000e+01,5.190000000000000000e+02,2.970000000000000000e+02,2.830000000000000000e+02,2.690000000000000000e+02,2.000000000000000000e+02,6.500000000000000000e+01,3.499999999999999778e-01,1.755345400000000000e+09
5.900000000000000000e+01,8.900000000000000000e+01,6.320000000000000000e+02,2.810000000000000000e+02,2.790000000000000000e+02,3.300000000000000000e+02,2.060000000000000000e+02,6.300000000000000000e+01,3.499999999999999778e-01,1.773215200000000000e+09
5.500000000000000000e+01,9.400000000000000000e+01,6.780000000000000000e+02,2.780000000000000000e+02,2.280000000000000000e+02,3.300000000000000000e+02,1.410000000000000000e+02,5.000000000000000000e+01,3.499999999999999778e-01,1.791635500000000000e+09
5.700000000000000000e+01,1.010000000000000000e+02,7.350000000000000000e+02,2.740000000000000000e+02,1.870000000000000000e+02,3.050000000000000000e+02,1.180000000000000000e+02,5.100000000000000000e+01,3.400000000000000244e-01,1.811089800000000000e+09
6.700000000000000000e+01,1.080000000000000000e+02,6.910000000000000000e+02,2.200000000000000000e+02,1.350000000000000000e+02,2.990000000000000000e+02,1.270000000000000000e+02,5.100000000000000000e+01,3.499999999999999778e-01,1.828976300000000000e+09
7.200000000000000000e+01,1.050000000000000000e+02,6.090000000000000000e+02,1.410000000000000000e+02,1.100000000000000000e+02,3.010000000000000000e+02,1.490000000000000000e+02,6.000000000000000000e+01,3.499999999999999778e-01,1.847213600000000000e+09
7.200000000000000000e+01,1.130000000000000000e+02,5.230000000000000000e+02,1.390000000000000000e+02,9.400000000000000000e+01,2.270000000000000000e+02,1.440000000000000000e+02,5.800000000000000000e+01,3.499999999999999778e-01,1.864988100000000000e+09
7.100000000000000000e+01,1.060000000000000000e+02,4.720000000000000000e+02,1.500000000000000000e+02,8.300000000000000000e+01,2.060000000000000000e+02,1.450000000000000000e+02,6.000000000000000000e+01,3.499999999999999778e-01,1.882338400000000000e+09
7.200000000000000000e+01,9.900000000000000000e+01,4.450000000000000000e+02,1.400000000000000000e+02,8.600000000000000000e+01,1.720000000000000000e+02,1.450000000000000000e+02,5.700000000000000000e+01,3.599999999999999867e-01,1.900219200000000000e+09
6.100000000000000000e+01,8.900000000000000000e+01,4.720000000000000000e+02,1.390000000000000000e+02,8.900000000000000000e+01,1.810000000000000000e+02,1.720000000000000000e+02,5.700000000000000000e+01,3.599999999999999867e-01,1.918530200000000000e+09
5.400000000000000000e+01,9.300000000000000000e+01,5.730000000000000000e+02,1.820000000000000000e+02,9.500000000000000000e+01,2.170000000000000000e+02,1.730000000000000000e+02,4.900000000000000000e+01,3.800000000000000044e-01,1.937302800000000000e+09
5.400000000000000000e+01,8.000000000000000000e+01,5.760000000000000000e+02,1.970000000000000000e+02,1.090000000000000000e+02,2.170000000000000000e+02,1.690000000000000000e+02,4.800000000000000000e+01,4.000000000000000222e-01,1.956882300000000000e+09
5.200000000000000000e+01,8.100000000000000000e+01,5.820000000000000000e+02,1.860000000000000000e+02,1.060000000000000000e+02,2.130000000000000000e+02,1.650000000000000000e+02,4.500000000000000000e+01,4.199999999999999845e-01,1.975062600000000000e+09
5.000000000000000000e+01,7.900000000000000000e+01,5.280000000000000000e+02,2.050000000000000000e+02,9.500000000000000000e+01,2.660000000000000000e+02,1.670000000000000000e+02,4.700000000000000000e+01,4.400000000000000022e-01,1.992809900000000000e+09
5.000000000000000000e+01,8.100000000000000000e+01,5.090000000000000000e+02,2.250000000000000000e+02,1.010000000000000000e+02,2.570000000000000000e+02,1.310000000000000000e+02,5.100000000000000000e+01,4.600000000000000200e-01,2.011459200000000000e+09
4.600000000000000000e+01,7.500000000000000000e+01,4.070000000000000000e+02,2.280000000000000000e+02,1.050000000000000000e+02,2.210000000000000000e+02,1.080000000000000000e+02,4.000000000000000000e+01,4.799999999999999822e-01,2.029338700000000000e+09
4.200000000000000000e+01,7.100000000000000000e+01,3.880000000000000000e+02,2.270000000000000000e+02,9.600000000000000000e+01,2.300000000000000000e+02,1.010000000000000000e+02,4.100000000000000000e+01,5.000000000000000000e-01,2.047093400000000000e+09
4.400000000000000000e+01,6.400000000000000000e+01,3.620000000000000000e+02,2.290000000000000000e+02,9.500000000000000000e+01,2.350000000000000000e+02,9.600000000000000000e+01,4.300000000000000000e+01,5.100000000000000089e-01,2.064286600000000000e+09
4.100000000000000000e+01,7.300000000000000000e+01,3.380000000000000000e+02,2.030000000000000000e+02,1.010000000000000000e+02,1.510000000000000000e+02,9.000000000000000000e+01,4.400000000000000000e+01,5.200000000000000178e-01,2.081716100000000000e+09
4.500000000000000000e+01,9.400000000000000000e+01,4.090000000000000000e+02,1.920000000000000000e+02,9.800000000000000000e+01,1.460000000000000000e+02,8.000000000000000000e+01,4.100000000000000000e+01,5.300000000000000266e-01,2.101078300000000000e+09
4.400000000000000000e+01,1.050000000000000000e+02,4.280000000000000000e+02,2.090000000000000000e+02,9.400000000000000000e+01,1.330000000000000000e+02,7.100000000000000000e+01,4.000000000000000000e+01,5.400000000000000355e-01,2.119633100000000000e+09
5.400000000000000000e+01,1.330000000000000000e+02,4.600000000000000000e+02,2.090000000000000000e+02,9.400000000000000000e+01,9.500000000000000000e+01,5.500000000000000000e+01,4.100000000000000000e+01,5.500000000000000444e-01,2.136697300000000000e+09
8.400000000000000000e+01,1.920000000000000000e+02,5.450000000000000000e+02,2.070000000000000000e+02,9.200000000000000000e+01,7.900000000000000000e+01,5.200000000000000000e+01,4.100000000000000000e+01,5.500000000000000444e-01,2.154594800000000000e+09
9.500000000000000000e+01,2.410000000000000000e+02,5.940000000000000000e+02,2.220000000000000000e+02,8.600000000000000000e+01,7.300000000000000000e+01,4.200000000000000000e+01,1.340000000000000000e+02,5.600000000000000533e-01,2.172391900000000000e+09
1.860000000000000000e+02,4.110000000000000000e+02,6.790000000000000000e+02,2.700000000000000000e+02,9.800000000000000000e+01,8.600000000000000000e+01,6.200000000000000000e+01,3.700000000000000000e+02,5.500000000000000444e-01,2.191988900000000000e+09
2.130000000000000000e+02,5.160000000000000000e+02,8.110000000000000000e+02,2.370000000000000000e+02,9.100000000000000000e+01,9.000000000000000000e+01,6.800000000000000000e+01,4.100000000000000000e+02,5.400000000000000355e-01,2.210025400000000000e+09
2.430000000000000000e+02,5.720000000000000000e+02,9.240000000000000000e+02,3.150000000000000000e+02,1.010000000000000000e+02,9.800000000000000000e+01,8.700000000000000000e+01,4.800000000000000000e+02,5.200000000000000178e-01,2.228510000000000000e+09
2.470000000000000000e+02,6.120000000000000000e+02,9.640000000000000000e+02,3.570000000000000000e+02,1.150000000000000000e+02,1.010000000000000000e+02,8.700000000000000000e+01,5.000000000000000000e+02,5.000000000000000000e-01,2.245647600000000000e+09
2.510000000000000000e+02,6.400000000000000000e+02,1.123000000000000000e+03,4.020000000000000000e+02,1.380000000000000000e+02,1.040000000000000000e+02,1.050000000000000000e+02,4.950000000000000000e+02,4.799999999999999822e-01,2.264059900000000000e+09
1.970000000000000000e+02,5.600000000000000000e+02,1.092000000000000000e+03,4.270000000000000000e+02,1.350000000000000000e+02,9.300000000000000000e+01,9.800000000000000000e+01,3.670000000000000000e+02,4.600000000000000200e-01,2.281347000000000000e+09
1.730000000000000000e+02,4.720000000000000000e+02,1.120000000000000000e+03,4.300000000000000000e+02,1.320000000000000000e+02,1.340000000000000000e+02,1.180000000000000000e+02,3.450000000000000000e+02,4.299999999999999933e-01,2.299228000000000000e+09
1.310000000000000000e+02,4.210000000000000000e+02,1.124000000000000000e+03,3.970000000000000000e+02,1.330000000000000000e+02,1.470000000000000000e+02,1.080000000000000000e+02,2.690000000000000000e+02,4.099999999999999756e-01,2.317279300000000000e+09
1.320000000000000000e+02,4.400000000000000000e+02,1.242000000000000000e+03,4.460000000000000000e+02,1.480000000000000000e+02,1.760000000000000000e+02,1.100000000000000000e+02,2.410000000000000000e+02,3.800000000000000044e-01,2.334836000000000000e+09
1.480000000000000000e+02,4.480000000000000000e+02,1.223000000000000000e+03,4.650000000000000000e+02,1.450000000000000000e+02,1.850000000000000000e+02,1.020000000000000000e+02,2.250000000000000000e+02,3.599999999999999867e-01,2.352526500000000000e+09
1.820000000000000000e+02,4.810000000000000000e+02,1.262000000000000000e+03,4.370000000000000000e+02,1.600000000000000000e+02,1.970000000000000000e+02,1.140000000000000000e+02,2.100000000000000000e+02,3.300000000000000155e-01,2.369861100000000000e+09
1.900000000000000000e+02,5.060000000000000000e+02,1.232000000000000000e+03,4.560000000000000000e+02,1.710000000000000000e+02,1.880000000000000000e+02,9.400000000000000000e+01,1.780000000000000000e+02,3.099999999999999978e-01,2.387411800000000000e+09
1.970000000000000000e+02,5.290000000000000000e+02,1.247000000000000000e+03,4.740000000000000000e+02,1.680000000000000000e+02,2.070000000000000000e+02,1.020000000000000000e+02,1.330000000000000000e+02,2.800000000000000266e-01,2.406132400000000000e+09
1.870000000000000000e+02,4.850000000000000000e+02,1.207000000000000000e+03,4.330000000000000000e+02,1.590000000000000000e+02,2.000000000000000000e+02,9.900000000000000000e+01,1.130000000000000000e+02,2.600000000000000089e-01,2.423636000000000000e+09
1.720000000000000000e+02,4.290000000000000000e+02,1.188000000000000000e+03,4.480000000000000000e+02,1.470000000000000000e+02,6.570000000000000000e+02,9.300000000000000000e+01,9.800000000000000000e+01,2.500000000000000000e-01,2.441151300000000000e+09
1.410000000000000000e+02,3.910000000000000000e+02,1.177000000000000000e+03,4.330000000000000000e+02,1.260000000000000000e+02,8.390000000000000000e+02,1.030000000000000000e+02,9.300000000000000000e+01,2.500000000000000000e-01,2.458277900000000000e+09
1.510000000000000000e+02,3.940000000000000000e+02,1.160000000000000000e+03,4.650000000000000000e+02,1.280000000000000000e+02,9.730000000000000000e+02,1.110000000000000000e+02,9.300000000000000000e+01,2.500000000000000000e-01,2.476003900000000000e+09
1.450000000000000000e+02,3.620000000000000000e+02,1.143000000000000000e+03,4.500000000000000000e+02,1.230000000000000000e+02,1.078000000000000000e+03,1.030000000000000000e+02,9.900000000000000000e+01,2.500000000000000000e-01,2.494183200000000000e+09
1.570000000000000000e+02,4.990000000000000000e+02,1.055000000000000000e+03,4.730000000000000000e+02,1.360000000000000000e+02,1.121000000000000000e+03,1.080000000000000000e+02,1.160000000000000000e+02,2.399999999999999911e-01,2.511469400000000000e+09
1.600000000000000000e+02,4.970000000000000000e+02,9.750000000000000000e+02,4.190000000000000000e+02,1.410000000000000000e+02,9.450000000000000000e+02,1.120000000000000000e+02,1.140000000000000000e+02,2.399999999999999911e-01,2.529485400000000000e+09
1.660000000000000000e+02,5.230000000000000000e+02,9.610000000000000000e+02,4.610000000000000000e+02,1.600000000000000000e+02,8.060000000000000000e+02,9.000000000000000000e+01,1.140000000000000000e+02,2.399999999999999911e-01,2.546956000000000000e+09
1.750000000000000000e+02,5.220000000000000000e+02,9.700000000000000000e+02,4.680000000000000000e+02,1.770000000000000000e+02,6.630000000000000000e+02,8.500000000000000000e+01,1.190000000000000000e+02,2.300000000000000100e-01,2.565267900000000000e+09
1.820000000000000000e+02,5.500000000000000000e+02,9.850000000000000000e+02,4.690000000000000000e+02,1.790000000000000000e+02,4.680000000000000000e+02,8.700000000000000000e+01,1.160000000000000000e+02,2.300000000000000100e-01,2.582167100000000000e+09
1.740000000000000000e+02,4.110000000000000000e+02,1.083000000000000000e+03,4.650000000000000000e+02,1.720000000000000000e+02,3.540000000000000000e+02,8.600000000000000000e+01,1.090000000000000000e+02,2.300000000000000100e-01,2.598477500000000000e+09
1.750000000000000000e+02,4.320000000000000000e+02,1.098000000000000000e+03,5.120000000000000000e+02,1.810000000000000000e+02,3.270000000000000000e+02,8.500000000000000000e+01,1.150000000000000000e+02,2.300000000000000100e-01,2.614895800000000000e+09
1.670000000000000000e+02,4.070000000000000000e+02,1.114000000000000000e+03,5.050000000000000000e+02,1.690000000000000000e+02,2.720000000000000000e+02,8.100000000000000000e+01,1.110000000000000000e+02,2.200000000000000011e-01,2.630781000000000000e+09
1.460000000000000000e+02,3.930000000000000000e+02,1.118000000000000000e+03,5.000000000000000000e+02,1.550000000000000000e+02,2.020000000000000000e+02,7.100000000000000000e+01,1.060000000000000000e+02,2.200000000000000011e-01,2.647337600000000000e+09
1.650000000000000000e+02,4.890000000000000000e+02,1.072000000000000000e+03,5.550000000000000000e+02,1.850000000000000000e+02,1.960000000000000000e+02,7.700000000000000000e+01,1.100000000000000000e+02,2.000000000000000111e-01,2.663545200000000000e+09
1.540000000000000000e+02,4.950000000000000000e+02,9.400000000000000000e+02,5.140000000000000000e+02,1.740000000000000000e+02,1.730000000000000000e+02,6.800000000000000000e+01,1.000000000000000000e+02,1.900000000000000022e-01,2.679849100000000000e+09
1.520000000000000000e+02,4.900000000000000000e+02,8.990000000000000000e+02,4.910000000000000000e+02,1.680000000000000000e+02,1.380000000000000000e+02,6.500000000000000000e+01,1.010000000000000000e+02,1.700000000000000122e-01,2.697293500000000000e+09
1.470000000000000000e+02,4.760000000000000000e+02,8.200000000000000000e+02,4.590000000000000000e+02,1.590000000000000000e+02,1.360000000000000000e+02,7.000000000000000000e+01,1.410000000000000000e+02,1.600000000000000033e-01,2.713970300000000000e+09
1.460000000000000000e+02,4.880000000000000000e+02,8.000000000000000000e+02,4.260000000000000000e+02,1.540000000000000000e+02,1.410000000000000000e+02,9.600000000000000000e+01,1.960000000000000000e+02,1.499999999999999944e-01,2.730093200000000000e+09
1.200000000000000000e+02,3.620000000000000000e+02,7.810000000000000000e+02,3.460000000000000000e+02,1.220000000000000000e+02,1.260000000000000000e+02,9.200000000000000000e+01,2.330000000000000000e+02,1.499999999999999944e-01,2.746766500000000000e+09
1.220000000000000000e+02,3.270000000000000000e+02,7.560000000000000000e+02,3.370000000000000000e+02,1.190000000000000000e+02,1.520000000000000000e+02,1.280000000000000000e+02,3.260000000000000000e+02,1.600000000000000033e-01,2.763124800000000000e+09
1.300000000000000000e+02,3.150000000000000000e+02,7.610000000000000000e+02,2.910000000000000000e+02,1.050000000000000000e+02,2.670000000000000000e+02,2.660000000000000000e+02,4.480000000000000000e+02,1.600000000000000033e-01,2.779691700000000000e+09
1.380000000000000000e+02,3.110000000000000000e+02,7.540000000000000000e+02,2.810000000000000000e+02,1.120000000000000000e+02,3.240000000000000000e+02,3.730000000000000000e+02,4.840000000000000000e+02,1.700000000000000122e-01,2.797451300000000000e+09
1.470000000000000000e+02,2.820000000000000000e+02,6.470000000000000000e+02,2.600000000000000000e+02,1.100000000000000000e+02,3.410000000000000000e+02,3.900000000000000000e+02,5.170000000000000000e+02,1.799999999999999933e-01,2.814521200000000000e+09
1.500000000000000000e+02,2.320000000000000000e+02,5.580000000000000000e+02,2.170000000000000000e+02,9.900000000000000000e+01,4.430000000000000000e+02,4.130000000000000000e+02,6.170000000000000000e+02,1.799999999999999933e-01,2.832886500000000000e+09
1.680000000000000000e+02,2.270000000000000000e+02,5.370000000000000000e+02,2.130000000000000000e+02,1.070000000000000000e+02,5.400000000000000000e+02,4.800000000000000000e+02,6.980000000000000000e+02,1.799999999999999933e-01,2.849302100000000000e+09
1.660000000000000000e+02,1.980000000000000000e+02,4.240000000000000000e+02,1.710000000000000000e+02,1.070000000000000000e+02,5.290000000000000000e+02,6.270000000000000000e+02,7.400000000000000000e+02,1.900000000000000022e-01,2.865717400000000000e+09
1.620000000000000000e+02,1.860000000000000000e+02,3.890000000000000000e+02,1.640000000000000000e+02,1.020000000000000000e+02,5.630000000000000000e+02,6.370000000000000000e+02,8.200000000000000000e+02,2.000000000000000111e-01,2.882048400000000000e+09
1.590000000000000000e+02,1.760000000000000000e+02,5.020000000000000000e+02,1.600000000000000000e+02,9.600000000000000000e+01,6.260000000000000000e+02,6.630000000000000000e+02,8.680000000000000000e+02,2.099999999999999922e-01,2.898868700000000000e+09
1.940000000000000000e+02,1.750000000000000000e+02,4.700000000000000000e+02,1.730000000000000000e+02,1.110000000000000000e+02,6.340000000000000000e+02,7.860000000000000000e+02,8.830000000000000000e+02,2.200000000000000011e-01,2.915627200000000000e+09
2.280000000000000000e+02,1.750000000000000000e+02,4.550000000000000000e+02,1.760000000000000000e+02,1.200000000000000000e+02,6.890000000000000000e+02,8.470000000000000000e+02,8.610000000000000000e+02,2.300000000000000100e-01,2.933817700000000000e+09
2.550000000000000000e+02,1.800000000000000000e+02,5.000000000000000000e+02,1.710000000000000000e+02,1.170000000000000000e+02,7.120000000000000000e+02,8.650000000000000000e+02,8.480000000000000000e+02,2.399999999999999911e-01,2.949991600000000000e+09
2.720000000000000000e+02,2.310000000000000000e+02,6.410000000000000000e+02,2.040000000000000000e+02,1.320000000000000000e+02,7.450000000000000000e+02,8.740000000000000000e+02,8.140000000000000000e+02,2.399999999999999911e-01,2.966495800000000000e+09
2.870000000000000000e+02,2.370000000000000000e+02,6.680000000000000000e+02,2.130000000000000000e+02,1.300000000000000000e+02,7.010000000000000000e+02,9.060000000000000000e+02,8.130000000000000000e+02,2.500000000000000000e-01,2.985183800000000000e+09
2.760000000000000000e+02,2.470000000000000000e+02,7.220000000000000000e+02,2.190000000000000000e+02,1.160000000000000000e+02,6.750000000000000000e+02,8.510000000000000000e+02,7.560000000000000000e+02,2.500000000000000000e-01,3.001971000000000000e+09
2.400000000000000000e+02,2.590000000000000000e+02,7.530000000000000000e+02,2.270000000000000000e+02,1.040000000000000000e+02,5.950000000000000000e+02,8.820000000000000000e+02,7.210000000000000000e+02,2.600000000000000089e-01,3.018084700000000000e+09
2.200000000000000000e+02,3.340000000000000000e+02,9.060000000000000000e+02,2.600000000000000000e+02,1.100000000000000000e+02,5.380000000000000000e+02,7.880000000000000000e+02,6.560000000000000000e+02,2.800000000000000266e-01,3.034141900000000000e+09
2.030000000000000000e+02,3.570000000000000000e+02,8.560000000000000000e+02,2.730000000000000000e+02,9.800000000000000000e+01,4.180000000000000000e+02,7.310000000000000000e+02,5.690000000000000000e+02,2.899999999999999800e-01,3.051451500000000000e+09
1.760000000000000000e+02,3.580000000000000000e+02,8.110000000000000000e+02,2.570000000000000000e+02,9.300000000000000000e+01,3.890000000000000000e+02,6.660000000000000000e+02,4.520000000000000000e+02,2.899999999999999800e-01,3.068156100000000000e+09
1.570000000000000000e+02,3.520000000000000000e+02,7.640000000000000000e+02,2.490000000000000000e+02,9.400000000000000000e+01,4.050000000000000000e+02,6.950000000000000000e+02,4.830000000000000000e+02,2.999999999999999889e-01,3.084637600000000000e+09
1.540000000000000000e+02,3.720000000000000000e+02,8.380000000000000000e+02,2.670000000000000000e+02,9.200000000000000000e+01,3.130000000000000000e+02,5.280000000000000000e+02,4.280000000000000000e+02,2.999999999999999889e-01,3.102453700000000000e+09
1.370000000000000000e+02,3.100000000000000000e+02,6.800000000000000000e+02,2.500000000000000000e+02,8.400000000000000000e+01,3.100000000000000000e+02,4.370000000000000000e+02,3.890000000000000000e+02,2.999999999999999889e-01,3.119029000000000000e+09
1.290000000000000000e+02,2.430000000000000000e+02,6.390000000000000000e+02,2.020000000000000000e+02,7.400000000000000000e+01,3.090000000000000000e+02,5.250000000000000000e+02,4.180000000000000000e+02,3.099999999999999978e-01,3.135708400000000000e+09
1.170000000000000000e+02,2.110000000000000000e+02,5.580000000000000000e+02,1.780000000000000000e+02,7.100000000000000000e+01,3.290000000000000000e+02,5.380000000000000000e+02,4.250000000000000000e+02,3.099999999999999978e-01,3.152882700000000000e+09
1.150000000000000000e+02,2.300000000000000000e+02,6.400000000000000000e+02,1.950000000000000000e+02,6.700000000000000000e+01,2.790000000000000000e+02,4.250000000000000000e+02,3.830000000000000000e+02,3.200000000000000067e-01,3.169932500000000000e+09
1.230000000000000000e+02,2.380000000000000000e+02,6.050000000000000000e+02,2.100000000000000000e+02,7.500000000000000000e+01,2.810000000000000000e+02,4.610000000000000000e+02,3.660000000000000000e+02,3.300000000000000155e-01,3.187350700000000000e+09
1.120000000000000000e+02,2.530000000000000000e+02,6.100000000000000000e+02,2.060000000000000000e+02,7.000000000000000000e+01,2.850000000000000000e+02,4.670000000000000000e+02,3.670000000000000000e+02,3.300000000000000155e-01,3.203861800000000000e+09
1.130000000000000000e+02,2.530000000000000000e+02,6.010000000000000000e+02,2.080000000000000000e+02,7.100000000000000000e+01,3.020000000000000000e+02,4.400000000000000000e+02,3.680000000000000000e+02,3.400000000000000244e-01,3.221235000000000000e+09
1.330000000000000000e+02,2.470000000000000000e+02,6.070000000000000000e+02,2.110000000000000000e+02,6.900000000000000000e+01,2.990000000000000000e+02,4.300000000000000000e+02,4.150000000000000000e+02,3.400000000000000244e-01,3.238314700000000000e+09
1.200000000000000000e+02,2.240000000000000000e+02,5.470000000000000000e+02,1.940000000000000000e+02,6.400000000000000000e+01,2.660000000000000000e+02,4.290000000000000000e+02,3.470000000000000000e+02,3.499999999999999778e-01,3.256596400000000000e+09
1.120000000000000000e+02,1.940000000000000000e+02,5.380000000000000000e+02,1.620000000000000000e+02,5.500000000000000000e+01,2.860000000000000000e+02,3.900000000000000000e+02,3.580000000000000000e+02,3.599999999999999867e-01,3.273549200000000000e+09
1.060000000000000000e+02,1.530000000000000000e+02,5.680000000000000000e+02,1.410000000000000000e+02,5.200000000000000000e+01,2.790000000000000000e+02,3.820000000000000000e+02,3.390000000000000000e+02,3.699999999999999956e-01,3.291008500000000000e+09
1.290000000000000000e+02,1.440000000000000000e+02,5.730000000000000000e+02,1.320000000000000000e+02,5.200000000000000000e+01,2.890000000000000000e+02,4.770000000000000000e+02,5.050000000000000000e+02,3.699999999999999956e-01,3.307914900000000000e+09
1.150000000000000000e+02,1.420000000000000000e+02,5.580000000000000000e+02,1.280000000000000000e+02,6.200000000000000000e+01,3.060000000000000000e+02,5.580000000000000000e+02,4.980000000000000000e+02,3.699999999999999956e-01,3.327089500000000000e+09
1.180000000000000000e+02,1.350000000000000000e+02,5.150000000000000000e+02,1.160000000000000000e+02,5.900000000000000000e+01,2.780000000000000000e+02,5.570000000000000000e+02,5.040000000000000000e+02,3.699999999999999956e-01,3.345512800000000000e+09
1.140000000000000000e+02,9.500000000000000000e+01,3.850000000000000000e+02,7.400000000000000000e+01,5.000000000000000000e+01,3.250000000000000000e+02,5.780000000000000000e+02,5.250000000000000000e+02,3.699999999999999956e-01,3.363434900000000000e+09
1.300000000000000000e+02,1.120000000000000000e+02,4.060000000000000000e+02,9.400000000000000000e+01,5.600000000000000000e+01,6.310000000000000000e+02,6.890000000000000000e+02,5.600000000000000000e+02,3.699999999999999956e-01,3.381031900000000000e+09
1.010000000000000000e+02,1.220000000000000000e+02,4.180000000000000000e+02,9.900000000000000000e+01,5.500000000000000000e+01,9.040000000000000000e+02,5.830000000000000000e+02,3.950000000000000000e+02,3.900000000000000133e-01,3.398610800000000000e+09
9.300000000000000000e+01,1.250000000000000000e+02,4.180000000000000000e+02,9.600000000000000000e+01,4.800000000000000000e+01,1.210000000000000000e+03,5.390000000000000000e+02,3.830000000000000000e+02,4.000000000000000222e-01,3.416110900000000000e+09
1.230000000000000000e+02,1.350000000000000000e+02,4.550000000000000000e+02,1.000000000000000000e+02,5.400000000000000000e+01,1.436000000000000000e+03,6.240000000000000000e+02,5.190000000000000000e+02,4.000000000000000222e-01,3.433618100000000000e+09
1.320000000000000000e+02,1.450000000000000000e+02,5.050000000000000000e+02,1.090000000000000000e+02,5.400000000000000000e+01,1.490000000000000000e+03,6.130000000000000000e+02,5.200000000000000000e+02,4.000000000000000222e-01,3.452867200000000000e+09
1.270000000000000000e+02,1.690000000000000000e+02,5.300000000000000000e+02,1.260000000000000000e+02,5.800000000000000000e+01,1.406000000000000000e+03,5.010000000000000000e+02,5.060000000000000000e+02,4.099999999999999756e-01,3.471862300000000000e+09
1.320000000000000000e+02,1.810000000000000000e+02,6.040000000000000000e+02,1.800000000000000000e+02,6.600000000000000000e+01,1.266000000000000000e+03,5.800000000000000000e+02,6.210000000000000000e+02,4.000000000000000222e-01,3.492472300000000000e+09
1.460000000000000000e+02,1.880000000000000000e+02,6.120000000000000000e+02,1.850000000000000000e+02,6.700000000000000000e+01,9.700000000000000000e+02,5.650000000000000000e+02,6.290000000000000000e+02,4.099999999999999756e-01,3.513843000000000000e+09
1.220000000000000000e+02,1.800000000000000000e+02,5.940000000000000000e+02,1.850000000000000000e+02,6.200000000000000000e+01,5.910000000000000000e+02,4.540000000000000000e+02,5.340000000000000000e+02,4.099999999999999756e-01,3.535407700000000000e+09
1.110000000000000000e+02,1.660000000000000000e+02,5.660000000000000000e+02,1.770000000000000000e+02,6.100000000000000000e+01,3.830000000000000000e+02,4.380000000000000000e+02,5.420000000000000000e+02,4.099999999999999756e-01,3.557233100000000000e+09
1.160000000000000000e+02,2.050000000000000000e+02,5.850000000000000000e+02,1.850000000000000000e+02,6.300000000000000000e+01,3.190000000000000000e+02,4.150000000000000000e+02,5.320000000000000000e+02,4.099999999999999756e-01,3.575711900000000000e+09
1.120000000000000000e+02,2.030000000000000000e+02,5.270000000000000000e+02,1.390000000000000000e+02,5.400000000000000000e+01,1.940000000000000000e+02,2.830000000000000000e+02,3.870000000000000000e+02,4.099999999999999756e-01,3.593146300000000000e+09
9.600000000000000000e+01,1.960000000000000000e+02,5.210000000000000000e+02,1.310000000000000000e+02,5.000000000000000000e+01,1.740000000000000000e+02,2.170000000000000000e+02,3.400000000000000000e+02,4.000000000000000222e-01,3.615959600000000000e+09
9.100000000000000000e+01,1.960000000000000000e+02,5.100000000000000000e+02,1.300000000000000000e+02,5.200000000000000000e+01,1.570000000000000000e+02,2.520000000000000000e+02,3.000000000000000000e+02,3.900000000000000133e-01,3.634840100000000000e+09
9.100000000000000000e+01,1.990000000000000000e+02,4.860000000000000000e+02,1.280000000000000000e+02,5.100000000000000000e+01,1.460000000000000000e+02,2.370000000000000000e+02,2.350000000000000000e+02,3.900000000000000133e-01,3.654287300000000000e+09
7.700000000000000000e+01,1.250000000000000000e+02,3.210000000000000000e+02,8.600000000000000000e+01,3.900000000000000000e+01,1.200000000000000000e+02,2.390000000000000000e+02,2.410000000000000000e+02,3.900000000000000133e-01,3.672539300000000000e+09
8.500000000000000000e+01,1.100000000000000000e+02,3.830000000000000000e+02,1.010000000000000000e+02,4.200000000000000000e+01,1.070000000000000000e+02,2.380000000000000000e+02,2.530000000000000000e+02,3.900000000000000133e-01,3.690097100000000000e+09
9.000000000000000000e+01,1.310000000000000000e+02,5.330000000000000000e+02,1.200000000000000000e+02,4.300000000000000000e+01,8.100000000000000000e+01,2.270000000000000000e+02,2.410000000000000000e+02,4.000000000000000222e-01,3.708290200000000000e+09
9.100000000000000000e+01,1.340000000000000000e+02,5.570000000000000000e+02,1.210000000000000000e+02,4.000000000000000000e+01,6.200000000000000000e+01,1.500000000000000000e+02,2.350000000000000000e+02,4.000000000000000222e-01,3.729761400000000000e+09
9.000000000000000000e+01,1.240000000000000000e+02,5.610000000000000000e+02,1.210000000000000000e+02,4.100000000000000000e+01,5.000000000000000000e+01,1.680000000000000000e+02,2.450000000000000000e+02,4.099999999999999756e-01,3.747765600000000000e+09
9.400000000000000000e+01,1.220000000000000000e+02,5.320000000000000000e+02,1.060000000000000000e+02,4.000000000000000000e+01,5.800000000000000000e+01,1.950000000000000000e+02,2.640000000000000000e+02,4.199999999999999845e-01,3.769921000000000000e+09
8.300000000000000000e+01,1.390000000000000000e+02,5.710000000000000000e+02,9.900000000000000000e+01,3.800000000000000000e+01,6.600000000000000000e+01,1.800000000000000000e+02,2.380000000000000000e+02,4.199999999999999845e-01,3.788084800000000000e+09
7.100000000000000000e+01,1.370000000000000000e+02,6.010000000000000000e+02,8.800000000000000000e+01,3.800000000000000000e+01,6.400000000000000000e+01,1.660000000000000000e+02,2.290000000000000000e+02,4.299999999999999933e-01,3.810174200000000000e+09
6.900000000000000000e+01,1.360000000000000000e+02,6.010000000000000000e+02,8.800000000000000000e+01,3.900000000000000000e+01,6.600000000000000000e+01,1.710000000000000000e+02,2.300000000000000000e+02,4.299999999999999933e-01,3.829407200000000000e+09
7.100000000000000000e+01,1.390000000000000000e+02,6.260000000000000000e+02,9.000000000000000000e+01,4.000000000000000000e+01,6.800000000000000000e+01,1.630000000000000000e+02,2.260000000000000000e+02,4.400000000000000022e-01,3.850035100000000000e+09
6.000000000000000000e+01,1.340000000000000000e+02,6.530000000000000000e+02,9.200000000000000000e+01,3.900000000000000000e+01,7.500000000000000000e+01,1.840000000000000000e+02,1.980000000000000000e+02,4.400000000000000022e-01,3.870378900000000000e+09
6.800000000000000000e+01,1.290000000000000000e+02,6.450000000000000000e+02,9.100000000000000000e+01,4.100000000000000000e+01,6.800000000000000000e+01,1.840000000000000000e+02,1.960000000000000000e+02,4.400000000000000022e-01,3.896207400000000000e+09
6.600000000000000000e+01,1.220000000000000000e+02,6.180000000000000000e+02,1.030000000000000000e+02,4.100000000000000000e+01,7.000000000000000000e+01,1.880000000000000000e+02,1.900000000000000000e+02,4.500000000000000111e-01,3.918176700000000000e+09
7.000000000000000000e+01,1.200000000000000000e+02,6.020000000000000000e+02,1.060000000000000000e+02,3.900000000000000000e+01,6.800000000000000000e+01,2.020000000000000000e+02,2.020000000000000000e+02,4.500000000000000111e-01,3.936616600000000000e+09
6.900000000000000000e+01,1.180000000000000000e+02,5.930000000000000000e+02,1.050000000000000000e+02,4.200000000000000000e+01,6.500000000000000000e+01,1.860000000000000000e+02,1.760000000000000000e+02,4.600000000000000200e-01,3.954147600000000000e+09
6.300000000000000000e+01,1.170000000000000000e+02,5.970000000000000000e+02,1.050000000000000000e+02,3.900000000000000000e+01,4.000000000000000000e+01,1.260000000000000000e+02,1.180000000000000000e+02,4.699999999999999734e-01,3.973532000000000000e+09
5.600000000000000000e+01,1.060000000000000000e+02,5.580000000000000000e+02,8.800000000000000000e+01,3.100000000000000000e+01,4.100000000000000000e+01,1.380000000000000000e+02,2.270000000000000000e+02,4.699999999999999734e-01,3.990876500000000000e+09
5.700000000000000000e+01,8.900000000000000000e+01,4.510000000000000000e+02,7.300000000000000000e+01,3.100000000000000000e+01,4.000000000000000000e+01,1.540000000000000000e+02,2.710000000000000000e+02,4.699999999999999734e-01,4.009734600000000000e+09
5.300000000000000000e+01,1.040000000000000000e+02,4.720000000000000000e+02,7.200000000000000000e+01,3.300000000000000000e+01,4.400000000000000000e+01,1.390000000000000000e+02,2.670000000000000000e+02,4.699999999999999734e-01,4.031257500000000000e+09
5.200000000000000000e+01,1.190000000000000000e+02,4.740000000000000000e+02,7.500000000000000000e+01,3.200000000000000000e+01,4.500000000000000000e+01,1.330000000000000000e+02,2.650000000000000000e+02,4.699999999999999734e-01,4.049722100000000000e+09
5.200000000000000000e+01,1.190000000000000000e+02,4.860000000000000000e+02,7.200000000000000000e+01,3.100000000000000000e+01,4.400000000000000000e+01,1.450000000000000000e+02,2.670000000000000000e+02,4.699999999999999734e-01,4.076311800000000000e+09
4.700000000000000000e+01,1.140000000000000000e+02,4.320000000000000000e+02,7.100000000000000000e+01,3.200000000000000000e+01,4.600000000000000000e+01,1.370000000000000000e+02,1.880000000000000000e+02,4.699999999999999734e-01,4.095697800000000000e+09
4.300000000000000000e+01,1.360000000000000000e+02,4.410000000000000000e+02,6.200000000000000000e+01,3.000000000000000000e+01,4.500000000000000000e+01,1.100000000000000000e+02,1.150000000000000000e+02,4.699999999999999734e-01,4.115485400000000000e+09
4.300000000000000000e+01,1.350000000000000000e+02,4.230000000000000000e+02,5.500000000000000000e+01,3.000000000000000000e+01,4.100000000000000000e+01,9.800000000000000000e+01,1.280000000000000000e+02,4.699999999999999734e-01,4.133652900000000000e+09
4.100000000000000000e+01,1.210000000000000000e+02,4.210000000000000000e+02,5.000000000000000000e+01,2.700000000000000000e+01,3.900000000000000000e+01,1.130000000000000000e+02,1.260000000000000000e+02,4.699999999999999734e-01,4.153557600000000000e+09
4.400000000000000000e+01,1.280000000000000000e+02,4.770000000000000000e+02,7.300000000000000000e+01,3.100000000000000000e+01,4.000000000000000000e+01,1.060000000000000000e+02,1.390000000000000000e+02,4.699999999999999734e-01,4.172094000000000000e+09
4.800000000000000000e+01,1.310000000000000000e+02,4.950000000000000000e+02,7.200000000000000000e+01,3.100000000000000000e+01,3.700000000000000000e+01,1.010000000000000000e+02,1.280000000000000000e+02,4.699999999999999734e-01,4.190661300000000000e+09
4.800000000000000000e+01,1.190000000000000000e+02,4.920000000000000000e+02,7.300000000000000000e+01,3.000000000000000000e+01,3.100000000000000000e+01,1.040000000000000000e+02,1.320000000000000000e+02,4.699999999999999734e-01,4.209448300000000000e+09
5.200000000000000000e+01,1.070000000000000000e+02,5.470000000000000000e+02,8.000000000000000000e+01,2.800000000000000000e+01,3.500000000000000000e+01,9.900000000000000000e+01,1.090000000000000000e+02,4.799999999999999822e-01,4.227792000000000000e+09
5.400000000000000000e+01,1.170000000000000000e+02,6.310000000000000000e+02,9.000000000000000000e+01,3.200000000000000000e+01,3.500000000000000000e+01,8.300000000000000000e+01,1.070000000000000000e+02,4.899999999999999911e-01,4.249487300000000000e+09
5.700000000000000000e+01,1.280000000000000000e+02,5.620000000000000000e+02,8.700000000000000000e+01,3.400000000000000000e+01,3.500000000000000000e+01,6.300000000000000000e+01,7.900000000000000000e+01,5.000000000000000000e-01,4.268953500000000000e+09
5.500000000000000000e+01,1.230000000000000000e+02,6.110000000000000000e+02,9.500000000000000000e+01,3.700000000000000000e+01,3.600000000000000000e+01,5.800000000000000000e+01,8.400000000000000000e+01,5.100000000000000089e-01,4.289928400000000000e+09
5.500000000000000000e+01,1.120000000000000000e+02,6.280000000000000000e+02,9.400000000000000000e+01,3.800000000000000000e+01,3.700000000000000000e+01,4.800000000000000000e+01,7.500000000000000000e+01,5.100000000000000089e-01,4.310601800000000000e+09
4.700000000000000000e+01,1.190000000000000000e+02,6.610000000000000000e+02,1.010000000000000000e+02,3.900000000000000000e+01,3.400000000000000000e+01,4.200000000000000000e+01,5.500000000000000000e+01,5.200000000000000178e-01,4.328790800000000000e+09
4.400000000000000000e+01,1.200000000000000000e+02,6.360000000000000000e+02,9.900000000000000000e+01,3.600000000000000000e+01,3.400000000000000000e+01,3.000000000000000000e+01,5.300000000000000000e+01,5.300000000000000266e-01,4.350201300000000000e+09
4.300000000000000000e+01,1.100000000000000000e+02,7.380000000000000000e+02,1.170000000000000000e+02,4.200000000000000000e+01,3.500000000000000000e+01,2.900000000000000000e+01,5.200000000000000000e+01,5.300000000000000266e-01,4.377283000000000000e+09
4.100000000000000000e+01,1.030000000000000000e+02,6.920000000000000000e+02,1.370000000000000000e+02,4.200000000000000000e+01,3.300000000000000000e+01,2.600000000000000000e+01,3.600000000000000000e+01,5.400000000000000355e-01,4.395928800000000000e+09
4.500000000000000000e+01,1.180000000000000000e+02,6.540000000000000000e+02,1.470000000000000000e+02,4.100000000000000000e+01,3.700000000000000000e+01,2.700000000000000000e+01,3.700000000000000000e+01,5.500000000000000444e-01,4.417112500000000000e+09
7.300000000000000000e+01,1.490000000000000000e+02,6.130000000000000000e+02,1.890000000000000000e+02,5.900000000000000000e+01,6.100000000000000000e+01,3.300000000000000000e+01,5.100000000000000000e+01,5.600000000000000533e-01,4.435470700000000000e+09
8.400000000000000000e+01,1.760000000000000000e+02,6.250000000000000000e+02,2.190000000000000000e+02,6.900000000000000000e+01,7.700000000000000000e+01,3.300000000000000000e+01,5.700000000000000000e+01,5.600000000000000533e-01,4.453676500000000000e+09
8.900000000000000000e+01,1.930000000000000000e+02,5.770000000000000000e+02,2.520000000000000000e+02,1.010000000000000000e+02,8.100000000000000000e+01,3.400000000000000000e+01,6.000000000000000000e+01,5.600000000000000533e-01,4.473244800000000000e+09
1.090000000000000000e+02,2.490000000000000000e+02,8.060000000000000000e+02,2.620000000000000000e+02,1.140000000000000000e+02,9.400000000000000000e+01,4.000000000000000000e+01,6.700000000000000000e+01,5.500000000000000444e-01,4.491903100000000000e+09
1.100000000000000000e+02,2.610000000000000000e+02,8.690000000000000000e+02,2.870000000000000000e+02,1.460000000000000000e+02,1.020000000000000000e+02,4.000000000000000000e+01,6.800000000000000000e+01,5.400000000000000355e-01,4.510677400000000000e+09
1.020000000000000000e+02,2.640000000000000000e+02,9.690000000000000000e+02,2.820000000000000000e+02,1.520000000000000000e+02,9.200000000000000000e+01,3.500000000000000000e+01,6.400000000000000000e+01,5.200000000000000178e-01,4.529133000000000000e+09
1.080000000000000000e+02,2.830000000000000000e+02,1.002000000000000000e+03,2.840000000000000000e+02,1.570000000000000000e+02,8.700000000000000000e+01,4.100000000000000000e+01,6.600000000000000000e+01,5.000000000000000000e-01,4.551027800000000000e+09
1.140000000000000000e+02,3.330000000000000000e+02,1.042000000000000000e+03,3.170000000000000000e+02,1.530000000000000000e+02,1.000000000000000000e+02,4.700000000000000000e+01,6.700000000000000000e+01,4.799999999999999822e-01,4.570568700000000000e+09
1.050000000000000000e+02,3.280000000000000000e+02,1.020000000000000000e+03,3.600000000000000000e+02,2.340000000000000000e+02,1.000000000000000000e+02,5.200000000000000000e+01,6.700000000000000000e+01,4.500000000000000111e-01,4.588594000000000000e+09
1.150000000000000000e+02,3.430000000000000000e+02,1.031000000000000000e+03,3.650000000000000000e+02,2.660000000000000000e+02,1.030000000000000000e+02,5.600000000000000000e+01,7.100000000000000000e+01,4.099999999999999756e-01,4.610232800000000000e+09
1.280000000000000000e+02,3.790000000000000000e+02,9.640000000000000000e+02,4.190000000000000000e+02,2.990000000000000000e+02,1.140000000000000000e+02,6.100000000000000000e+01,7.700000000000000000e+01,3.699999999999999956e-01,4.629536300000000000e+09
1.470000000000000000e+02,4.290000000000000000e+02,1.007000000000000000e+03,4.970000000000000000e+02,3.080000000000000000e+02,1.270000000000000000e+02,6.600000000000000000e+01,8.100000000000000000e+01,3.300000000000000155e-01,4.646986300000000000e+09
1.420000000000000000e+02,4.010000000000000000e+02,1.009000000000000000e+03,5.220000000000000000e+02,3.070000000000000000e+02,1.190000000000000000e+02,6.300000000000000000e+01,7.900000000000000000e+01,2.899999999999999800e-01,4.668003500000000000e+09
1.620000000000000000e+02,4.400000000000000000e+02,9.550000000000000000e+02,5.110000000000000000e+02,2.560000000000000000e+02,1.220000000000000000e+02,6.700000000000000000e+01,8.300000000000000000e+01,2.500000000000000000e-01,4.689728000000000000e+09
1.750000000000000000e+02,4.630000000000000000e+02,1.014000000000000000e+03,6.040000000000000000e+02,3.170000000000000000e+02,1.560000000000000000e+02,7.000000000000000000e+01,9.500000000000000000e+01,2.200000000000000011e-01,4.708363600000000000e+09
1.770000000000000000e+02,4.440000000000000000e+02,1.083000000000000000e+03,5.830000000000000000e+02,3.230000000000000000e+02,1.720000000000000000e+02,7.200000000000000000e+01,9.700000000000000000e+01,1.900000000000000022e-01,4.729442000000000000e+09
1.840000000000000000e+02,4.290000000000000000e+02,1.094000000000000000e+03,5.620000000000000000e+02,3.250000000000000000e+02,1.690000000000000000e+02,7.000000000000000000e+01,1.040000000000000000e+02,1.600000000000000033e-01,4.748561500000000000e+09
1.980000000000000000e+02,4.590000000000000000e+02,1.077000000000000000e+03,5.600000000000000000e+02,3.390000000000000000e+02,1.850000000000000000e+02,7.500000000000000000e+01,1.140000000000000000e+02,1.400000000000000133e-01,4.769557600000000000e+09
1.960000000000000000e+02,4.380000000000000000e+02,1.043000000000000000e+03,5.670000000000000000e+02,3.530000000000000000e+02,1.990000000000000000e+02,7.100000000000000000e+01,1.180000000000000000e+02,1.199999999999999956e-01,4.788954300000000000e+09
1.940000000000000000e+02,4.350000000000000000e+02,1.088000000000000000e+03,5.190000000000000000e+02,2.900000000000000000e+02,1.840000000000000000e+02,7.100000000000000000e+01,1.170000000000000000e+02,1.000000000000000056e-01,4.809786400000000000e+09
2.030000000000000000e+02,4.390000000000000000e+02,1.096000000000000000e+03,6.120000000000000000e+02,2.650000000000000000e+02,1.710000000000000000e+02,7.000000000000000000e+01,1.240000000000000000e+02,1.000000000000000056e-01,4.831862200000000000e+09
1.840000000000000000e+02,3.950000000000000000e+02,1.103000000000000000e+03,5.730000000000000000e+02,2.490000000000000000e+02,1.720000000000000000e+02,6.800000000000000000e+01,1.130000000000000000e+02,8.999999999999999667e-02,4.850293000000000000e+09
1.760000000000000000e+02,3.580000000000000000e+02,1.136000000000000000e+03,5.480000000000000000e+02,2.310000000000000000e+02,1.640000000000000000e+02,6.500000000000000000e+01,1.070000000000000000e+02,8.999999999999999667e-02,4.868144600000000000e+09
1.650000000000000000e+02,3.280000000000000000e+02,1.167000000000000000e+03,5.720000000000000000e+02,2.040000000000000000e+02,1.490000000000000000e+02,6.000000000000000000e+01,1.020000000000000000e+02,8.999999999999999667e-02,4.888243700000000000e+09
1.500000000000000000e+02,2.850000000000000000e+02,1.048000000000000000e+03,5.200000000000000000e+02,1.710000000000000000e+02,1.450000000000000000e+02,5.400000000000000000e+01,9.000000000000000000e+01,8.999999999999999667e-02,4.909496200000000000e+09
1.210000000000000000e+02,2.550000000000000000e+02,9.840000000000000000e+02,3.860000000000000000e+02,1.540000000000000000e+02,1.390000000000000000e+02,5.000000000000000000e+01,7.200000000000000000e+01,8.999999999999999667e-02,4.927754300000000000e+09
1.250000000000000000e+02,2.510000000000000000e+02,1.011000000000000000e+03,4.190000000000000000e+02,1.670000000000000000e+02,1.440000000000000000e+02,5.400000000000000000e+01,7.900000000000000000e+01,1.000000000000000056e-01,4.949490000000000000e+09
1.280000000000000000e+02,2.500000000000000000e+02,9.770000000000000000e+02,4.620000000000000000e+02,1.850000000000000000e+02,1.430000000000000000e+02,5.300000000000000000e+01,8.200000000000000000e+01,1.100000000000000006e-01,4.970037900000000000e+09
1.410000000000000000e+02,3.000000000000000000e+02,9.290000000000000000e+02,4.130000000000000000e+02,1.910000000000000000e+02,1.430000000000000000e+02,5.900000000000000000e+01,8.700000000000000000e+01,1.100000000000000006e-01,4.994930300000000000e+09
1.980000000000000000e+02,3.970000000000000000e+02,9.650000000000000000e+02,6.360000000000000000e+02,2.190000000000000000e+02,1.480000000000000000e+02,7.900000000000000000e+01,1.160000000000000000e+02,1.199999999999999956e-01,5.015872200000000000e+09
2.070000000000000000e+02,4.140000000000000000e+02,1.078000000000000000e+03,6.400000000000000000e+02,2.120000000000000000e+02,1.490000000000000000e+02,8.000000000000000000e+01,1.200000000000000000e+02,1.199999999999999956e-01,5.041499200000000000e+09
2.050000000000000000e+02,4.250000000000000000e+02,9.960000000000000000e+02,6.330000000000000000e+02,2.140000000000000000e+02,1.370000000000000000e+02,8.000000000000000000e+01,1.170000000000000000e+02,1.300000000000000044e-01,5.060098300000000000e+09
2.080000000000000000e+02,4.360000000000000000e+02,9.800000000000000000e+02,6.130000000000000000e+02,1.940000000000000000e+02,1.410000000000000000e+02,8.400000000000000000e+01,1.170000000000000000e+02,1.300000000000000044e-01,5.077581500000000000e+09
1.970000000000000000e+02,4.030000000000000000e+02,1.014000000000000000e+03,6.080000000000000000e+02,1.830000000000000000e+02,1.360000000000000000e+02,8.000000000000000000e+01,1.100000000000000000e+02,1.400000000000000133e-01,5.095260500000000000e+09
1.420000000000000000e+02,3.280000000000000000e+02,1.051000000000000000e+03,3.630000000000000000e+02,1.340000000000000000e+02,1.190000000000000000e+02,6.200000000000000000e+01,8.000000000000000000e+01,1.400000000000000133e-01,5.112738800000000000e+09
1.440000000000000000e+02,3.440000000000000000e+02,9.400000000000000000e+02,3.910000000000000000e+02,1.370000000000000000e+02,1.230000000000000000e+02,6.300000000000000000e+01,8.200000000000000000e+01,1.400000000000000133e-01,5.135779900000000000e+09
1.440000000000000000e+02,3.290000000000000000e+02,9.240000000000000000e+02,3.650000000000000000e+02,1.170000000000000000e+02,1.210000000000000000e+02,5.800000000000000000e+01,8.200000000000000000e+01,1.400000000000000133e-01,5.153735300000000000e+09
1.300000000000000000e+02,3.140000000000000000e+02,1.057000000000000000e+03,3.500000000000000000e+02,1.230000000000000000e+02,1.010000000000000000e+02,5.300000000000000000e+01,7.400000000000000000e+01,1.400000000000000133e-01,5.172038100000000000e+09
1.310000000000000000e+02,3.220000000000000000e+02,1.107000000000000000e+03,4.010000000000000000e+02,1.360000000000000000e+02,9.900000000000000000e+01,5.500000000000000000e+01,7.600000000000000000e+01,1.400000000000000133e-01,5.190227500000000000e+09
1.430000000000000000e+02,3.550000000000000000e+02,1.203000000000000000e+03,4.550000000000000000e+02,1.410000000000000000e+02,1.050000000000000000e+02,5.600000000000000000e+01,8.500000000000000000e+01,1.499999999999999944e-01,5.209037400000000000e+09
1.360000000000000000e+02,3.530000000000000000e+02,1.209000000000000000e+03,4.380000000000000000e+02,1.340000000000000000e+02,1.020000000000000000e+02,5.300000000000000000e+01,8.100000000000000000e+01,1.499999999999999944e-01,5.230244300000000000e+09
1.480000000000000000e+02,3.990000000000000000e+02,1.202000000000000000e+03,4.640000000000000000e+02,1.520000000000000000e+02,1.110000000000000000e+02,5.900000000000000000e+01,8.700000000000000000e+01,1.499999999999999944e-01,5.249723300000000000e+09
1.640000000000000000e+02,4.310000000000000000e+02,1.106000000000000000e+03,5.140000000000000000e+02,1.700000000000000000e+02,1.170000000000000000e+02,6.600000000000000000e+01,9.200000000000000000e+01,1.499999999999999944e-01,5.269624500000000000e+09
1.730000000000000000e+02,4.950000000000000000e+02,1.180000000000000000e+03,5.600000000000000000e+02,1.700000000000000000e+02,1.240000000000000000e+02,6.600000000000000000e+01,9.600000000000000000e+01,1.499999999999999944e-01,5.287020900000000000e+09
1.820000000000000000e+02,4.790000000000000000e+02,1.087000000000000000e+03,5.220000000000000000e+02,1.720000000000000000e+02,1.270000000000000000e+02,6.500000000000000000e+01,1.000000000000000000e+02,1.499999999999999944e-01,5.310193300000000000e+09
1.930000000000000000e+02,4.610000000000000000e+02,1.152000000000000000e+03,5.770000000000000000e+02,2.000000000000000000e+02,1.410000000000000000e+02,7.400000000000000000e+01,1.090000000000000000e+02,1.400000000000000133e-01,5.331523900000000000e+09
1.810000000000000000e+02,4.710000000000000000e+02,1.136000000000000000e+03,5.630000000000000000e+02,1.880000000000000000e+02,1.360000000000000000e+02,6.800000000000000000e+01,1.040000000000000000e+02,1.400000000000000133e-01,5.349480500000000000e+09
1.810000000000000000e+02,4.860000000000000000e+02,1.131000000000000000e+03,5.560000000000000000e+02,1.780000000000000000e+02,1.450000000000000000e+02,6.000000000000000000e+01,1.090000000000000000e+02,1.400000000000000133e-01,5.368241300000000000e+09
1.750000000000000000e+02,4.110000000000000000e+02,1.020000000000000000e+03,5.440000000000000000e+02,1.750000000000000000e+02,1.410000000000000000e+02,6.300000000000000000e+01,1.060000000000000000e+02,1.300000000000000044e-01,5.390606500000000000e+09
1.510000000000000000e+02,3.790000000000000000e+02,1.045000000000000000e+03,5.800000000000000000e+02,1.650000000000000000e+02,1.280000000000000000e+02,6.100000000000000000e+01,9.400000000000000000e+01,1.300000000000000044e-01,5.409043200000000000e+09
1.460000000000000000e+02,4.230000000000000000e+02,9.500000000000000000e+02,5.470000000000000000e+02,1.330000000000000000e+02,1.110000000000000000e+02,4.700000000000000000e+01,8.700000000000000000e+01,1.300000000000000044e-01,5.428189600000000000e+09
1.520000000000000000e+02,4.280000000000000000e+02,9.870000000000000000e+02,5.910000000000000000e+02,1.400000000000000000e+02,1.160000000000000000e+02,4.900000000000000000e+01,8.700000000000000000e+01,1.300000000000000044e-01,5.449279500000000000e+09
1.420000000000000000e+02,3.920000000000000000e+02,9.520000000000000000e+02,5.860000000000000000e+02,1.310000000000000000e+02,1.000000000000000000e+02,4.800000000000000000e+01,7.600000000000000000e+01,1.400000000000000133e-01,5.467567200000000000e+09
1.540000000000000000e+02,4.340000000000000000e+02,1.008000000000000000e+03,5.610000000000000000e+02,1.300000000000000000e+02,1.040000000000000000e+02,4.400000000000000000e+01,8.100000000000000000e+01,1.400000000000000133e-01,5.488722400000000000e+09
1.760000000000000000e+02,4.970000000000000000e+02,9.660000000000000000e+02,5.780000000000000000e+02,1.590000000000000000e+02,1.100000000000000000e+02,6.100000000000000000e+01,9.000000000000000000e+01,1.499999999999999944e-01,5.509052700000000000e+09
1.720000000000000000e+02,5.000000000000000000e+02,9.370000000000000000e+02,5.900000000000000000e+02,1.720000000000000000e+02,1.190000000000000000e+02,6.400000000000000000e+01,8.800000000000000000e+01,1.400000000000000133e-01,5.527892000000000000e+09
1.800000000000000000e+02,4.920000000000000000e+02,9.940000000000000000e+02,5.420000000000000000e+02,1.740000000000000000e+02,1.210000000000000000e+02,6.900000000000000000e+01,9.600000000000000000e+01,1.400000000000000133e-01,5.548931200000000000e+09
1.740000000000000000e+02,5.130000000000000000e+02,1.056000000000000000e+03,4.990000000000000000e+02,1.690000000000000000e+02,1.190000000000000000e+02,7.000000000000000000e+01,9.300000000000000000e+01,1.400000000000000133e-01,5.570773400000000000e+09
1.770000000000000000e+02,5.100000000000000000e+02,9.930000000000000000e+02,5.090000000000000000e+02,1.900000000000000000e+02,1.340000000000000000e+02,7.600000000000000000e+01,1.000000000000000000e+02,1.400000000000000133e-01,5.592177900000000000e+09
1.910000000000000000e+02,5.360000000000000000e+02,1.023000000000000000e+03,5.160000000000000000e+02,2.000000000000000000e+02,1.430000000000000000e+02,7.900000000000000000e+01,1.120000000000000000e+02,1.300000000000000044e-01,5.610037400000000000e+09
2.060000000000000000e+02,5.210000000000000000e+02,1.088000000000000000e+03,5.660000000000000000e+02,2.000000000000000000e+02,1.450000000000000000e+02,8.200000000000000000e+01,1.220000000000000000e+02,1.300000000000000044e-01,5.630255600000000000e+09
2.140000000000000000e+02,5.250000000000000000e+02,1.044000000000000000e+03,6.010000000000000000e+02,2.100000000000000000e+02,1.630000000000000000e+02,8.000000000000000000e+01,1.520000000000000000e+02,1.199999999999999956e-01,5.649854500000000000e+09
2.310000000000000000e+02,5.590000000000000000e+02,1.034000000000000000e+03,6.300000000000000000e+02,2.170000000000000000e+02,1.770000000000000000e+02,8.500000000000000000e+01,1.800000000000000000e+02,1.100000000000000006e-01,5.669257500000000000e+09
2.210000000000000000e+02,5.630000000000000000e+02,1.098000000000000000e+03,6.650000000000000000e+02,2.110000000000000000e+02,1.650000000000000000e+02,8.400000000000000000e+01,1.770000000000000000e+02,1.100000000000000006e-01,5.690169700000000000e+09
1.960000000000000000e+02,5.050000000000000000e+02,1.023000000000000000e+03,6.280000000000000000e+02,1.880000000000000000e+02,1.530000000000000000e+02,7.000000000000000000e+01,1.660000000000000000e+02,1.000000000000000056e-01,5.709618700000000000e+09
1.890000000000000000e+02,5.200000000000000000e+02,1.056000000000000000e+03,5.970000000000000000e+02,1.890000000000000000e+02,1.540000000000000000e+02,7.100000000000000000e+01,1.660000000000000000e+02,8.999999999999999667e-02,5.729836900000000000e+09
1.750000000000000000e+02,5.090000000000000000e+02,1.014000000000000000e+03,5.740000000000000000e+02,1.810000000000000000e+02,1.410000000000000000e+02,7.400000000000000000e+01,1.640000000000000000e+02,8.999999999999999667e-02,5.751950800000000000e+09
1.730000000000000000e+02,4.730000000000000000e+02,9.810000000000000000e+02,5.660000000000000000e+02,1.800000000000000000e+02,1.430000000000000000e+02,9.900000000000000000e+01,1.870000000000000000e+02,8.999999999999999667e-02,5.771690100000000000e+09
1.820000000000000000e+02,4.540000000000000000e+02,8.630000000000000000e+02,4.950000000000000000e+02,1.710000000000000000e+02,1.540000000000000000e+02,1.020000000000000000e+02,1.930000000000000000e+02,8.999999999999999667e-02,5.789978800000000000e+09
1.870000000000000000e+02,4.450000000000000000e+02,8.880000000000000000e+02,4.870000000000000000e+02,1.660000000000000000e+02,1.610000000000000000e+02,1.030000000000000000e+02,1.980000000000000000e+02,8.999999999999999667e-02,5.808863200000000000e+09
1.840000000000000000e+02,4.650000000000000000e+02,8.900000000000000000e+02,4.360000000000000000e+02,1.630000000000000000e+02,1.610000000000000000e+02,1.140000000000000000e+02,1.930000000000000000e+02,8.999999999999999667e-02,5.828377200000000000e+09
1.940000000000000000e+02,4.860000000000000000e+02,9.500000000000000000e+02,4.760000000000000000e+02,1.780000000000000000e+02,1.690000000000000000e+02,1.270000000000000000e+02,1.720000000000000000e+02,8.999999999999999667e-02,5.849230000000000000e+09
2.090000000000000000e+02,5.150000000000000000e+02,9.970000000000000000e+02,4.630000000000000000e+02,1.860000000000000000e+02,1.540000000000000000e+02,1.350000000000000000e+02,1.470000000000000000e+02,8.999999999999999667e-02,5.868661000000000000e+09
2.120000000000000000e+02,5.320000000000000000e+02,1.052000000000000000e+03,4.540000000000000000e+02,1.880000000000000000e+02,1.790000000000000000e+02,1.490000000000000000e+02,1.500000000000000000e+02,8.999999999999999667e-02,5.898601000000000000e+09
2.100000000000000000e+02,5.310000000000000000e+02,1.045000000000000000e+03,4.510000000000000000e+02,1.890000000000000000e+02,1.820000000000000000e+02,1.560000000000000000e+02,1.470000000000000000e+02,8.999999999999999667e-02,5.917770200000000000e+09
2.040000000000000000e+02,4.870000000000000000e+02,1.031000000000000000e+03,4.680000000000000000e+02,1.910000000000000000e+02,2.110000000000000000e+02,1.690000000000000000e+02,1.460000000000000000e+02,8.999999999999999667e-02,5.936178800000000000e+09
1.930000000000000000e+02,4.560000000000000000e+02,9.830000000000000000e+02,4.130000000000000000e+02,1.760000000000000000e+02,2.250000000000000000e+02,1.720000000000000000e+02,1.400000000000000000e+02,8.000000000000000167e-02,5.955087000000000000e+09
1.810000000000000000e+02,4.270000000000000000e+02,9.330000000000000000e+02,4.280000000000000000e+02,1.730000000000000000e+02,2.310000000000000000e+02,1.830000000000000000e+02,1.160000000000000000e+02,8.999999999999999667e-02,5.973888100000000000e+09
1.640000000000000000e+02,3.800000000000000000e+02,9.260000000000000000e+02,4.140000000000000000e+02,1.660000000000000000e+02,2.120000000000000000e+02,1.830000000000000000e+02,1.000000000000000000e+02,8.999999999999999667e-02,5.992587700000000000e+09
1.920000000000000000e+02,4.240000000000000000e+02,9.700000000000000000e+02,4.520000000000000000e+02,1.980000000000000000e+02,2.440000000000000000e+02,1.940000000000000000e+02,1.200000000000000000e+02,8.999999999999999667e-02,6.011209100000000000e+09
1.980000000000000000e+02,4.370000000000000000e+02,8.920000000000000000e+02,4.620000000000000000e+02,1.920000000000000000e+02,2.510000000000000000e+02,1.920000000000000000e+02,1.250000000000000000e+02,8.999999999999999667e-02,6.029252400000000000e+09
2.190000000000000000e+02,4.230000000000000000e+02,9.110000000000000000e+02,5.110000000000000000e+02,2.220000000000000000e+02,2.530000000000000000e+02,2.130000000000000000e+02,1.370000000000000000e+02,8.999999999999999667e-02,6.051072900000000000e+09
2.040000000000000000e+02,3.970000000000000000e+02,9.620000000000000000e+02,5.090000000000000000e+02,2.100000000000000000e+02,2.670000000000000000e+02,2.040000000000000000e+02,1.290000000000000000e+02,8.999999999999999667e-02,6.070657900000000000e+09
2.190000000000000000e+02,4.470000000000000000e+02,9.480000000000000000e+02,5.240000000000000000e+02,2.140000000000000000e+02,2.640000000000000000e+02,1.980000000000000000e+02,1.260000000000000000e+02,8.999999999999999667e-02,6.092216600000000000e+09
1.990000000000000000e+02,4.240000000000000000e+02,9.310000000000000000e+02,5.190000000000000000e+02,1.930000000000000000e+02,2.700000000000000000e+02,2.030000000000000000e+02,1.100000000000000000e+02,1.000000000000000056e-01,6.110955100000000000e+09
1.870000000000000000e+02,4.000000000000000000e+02,1.000000000000000000e+03,5.050000000000000000e+02,1.970000000000000000e+02,2.750000000000000000e+02,2.030000000000000000e+02,1.040000000000000000e+02,1.000000000000000056e-01,6.130393600000000000e+09
1.710000000000000000e+02,3.890000000000000000e+02,1.014000000000000000e+03,4.870000000000000000e+02,1.660000000000000000e+02,3.080000000000000000e+02,2.120000000000000000e+02,1.020000000000000000e+02,1.100000000000000006e-01,6.149665100000000000e+09
1.690000000000000000e+02,3.660000000000000000e+02,9.720000000000000000e+02,4.710000000000000000e+02,1.670000000000000000e+02,3.180000000000000000e+02,2.060000000000000000e+02,1.050000000000000000e+02,1.199999999999999956e-01,6.167725600000000000e+09
1.650000000000000000e+02,3.550000000000000000e+02,9.930000000000000000e+02,5.090000000000000000e+02,1.850000000000000000e+02,3.180000000000000000e+02,2.010000000000000000e+02,1.120000000000000000e+02,1.199999999999999956e-01,6.189591700000000000e+09
1.640000000000000000e+02,3.430000000000000000e+02,1.042000000000000000e+03,5.260000000000000000e+02,1.990000000000000000e+02,3.090000000000000000e+02,1.900000000000000000e+02,1.140000000000000000e+02,1.199999999999999956e-01,6.212210600000000000e+09
1.830000000000000000e+02,3.770000000000000000e+02,1.031000000000000000e+03,6.130000000000000000e+02,2.070000000000000000e+02,2.780000000000000000e+02,2.000000000000000000e+02,1.220000000000000000e+02,1.300000000000000044e-01,6.232372900000000000e+09
1.700000000000000000e+02,3.740000000000000000e+02,9.840000000000000000e+02,5.910000000000000000e+02,1.970000000000000000e+02,2.470000000000000000e+02,1.510000000000000000e+02,1.120000000000000000e+02,1.300000000000000044e-01,6.251152300000000000e+09
1.680000000000000000e+02,3.950000000000000000e+02,1.026000000000000000e+03,6.070000000000000000e+02,2.030000000000000000e+02,2.210000000000000000e+02,1.400000000000000000e+02,1.080000000000000000e+02,1.400000000000000133e-01,6.269370500000000000e+09
1.500000000000000000e+02,3.680000000000000000e+02,1.061000000000000000e+03,5.930000000000000000e+02,1.840000000000000000e+02,2.190000000000000000e+02,1.430000000000000000e+02,9.800000000000000000e+01,1.400000000000000133e-01,6.290283000000000000e+09
1.540000000000000000e+02,3.760000000000000000e+02,1.005000000000000000e+03,5.730000000000000000e+02,1.660000000000000000e+02,1.980000000000000000e+02,1.480000000000000000e+02,9.500000000000000000e+01,1.400000000000000133e-01,6.309241300000000000e+09
1.340000000000000000e+02,3.400000000000000000e+02,9.710000000000000000e+02,4.760000000000000000e+02,1.410000000000000000e+02,1.940000000000000000e+02,1.300000000000000000e+02,8.500000000000000000e+01,1.499999999999999944e-01,6.328851100000000000e+09
1.370000000000000000e+02,3.810000000000000000e+02,1.036000000000000000e+03,5.090000000000000000e+02,1.430000000000000000e+02,1.460000000000000000e+02,1.290000000000000000e+02,8.700000000000000000e+01,1.499999999999999944e-01,6.354180700000000000e+09
1.450000000000000000e+02,3.800000000000000000e+02,1.011000000000000000e+03,5.040000000000000000e+02,1.450000000000000000e+02,1.440000000000000000e+02,1.320000000000000000e+02,9.400000000000000000e+01,1.600000000000000033e-01,6.373450600000000000e+09
1.450000000000000000e+02,3.610000000000000000e+02,8.920000000000000000e+02,4.610000000000000000e+02,1.410000000000000000e+02,1.850000000000000000e+02,1.560000000000000000e+02,9.600000000000000000e+01,1.600000000000000033e-01,6.391636300000000000e+09
1.310000000000000000e+02,3.300000000000000000e+02,9.140000000000000000e+02,4.370000000000000000e+02,1.310000000000000000e+02,2.040000000000000000e+02,1.420000000000000000e+02,8.900000000000000000e+01,1.600000000000000033e-01,6.410726200000000000e+09
1.230000000000000000e+02,3.390000000000000000e+02,9.320000000000000000e+02,4.210000000000000000e+02,1.310000000000000000e+02,2.050000000000000000e+02,1.310000000000000000e+02,8.100000000000000000e+01,1.700000000000000122e-01,6.429970500000000000e+09
1.160000000000000000e+02,3.150000000000000000e+02,9.380000000000000000e+02,3.700000000000000000e+02,1.260000000000000000e+02,2.060000000000000000e+02,1.320000000000000000e+02,7.600000000000000000e+01,1.700000000000000122e-01,6.448547300000000000e+09
9.400000000000000000e+01,2.740000000000000000e+02,8.860000000000000000e+02,3.250000000000000000e+02,1.100000000000000000e+02,1.970000000000000000e+02,1.290000000000000000e+02,6.100000000000000000e+01,1.799999999999999933e-01,6.469843000000000000e+09
1.020000000000000000e+02,2.810000000000000000e+02,9.810000000000000000e+02,3.540000000000000000e+02,1.150000000000000000e+02,1.630000000000000000e+02,1.170000000000000000e+02,6.300000000000000000e+01,1.900000000000000022e-01,6.488257500000000000e+09
1.030000000000000000e+02,2.750000000000000000e+02,9.950000000000000000e+02,3.830000000000000000e+02,1.170000000000000000e+02,1.310000000000000000e+02,1.110000000000000000e+02,6.700000000000000000e+01,2.000000000000000111e-01,6.510584300000000000e+09
1.010000000000000000e+02,2.540000000000000000e+02,9.610000000000000000e+02,4.070000000000000000e+02,1.150000000000000000e+02,1.510000000000000000e+02,1.170000000000000000e+02,6.700000000000000000e+01,2.099999999999999922e-01,6.528656400000000000e+09
1.170000000000000000e+02,2.150000000000000000e+02,9.810000000000000000e+02,4.450000000000000000e+02,1.260000000000000000e+02,1.510000000000000000e+02,1.280000000000000000e+02,7.300000000000000000e+01,2.200000000000000011e-01,6.550052000000000000e+09
1.240000000000000000e+02,2.520000000000000000e+02,9.750000000000000000e+02,4.840000000000000000e+02,1.340000000000000000e+02,1.550000000000000000e+02,1.360000000000000000e+02,7.700000000000000000e+01,2.300000000000000100e-01,6.569989500000000000e+09
1.260000000000000000e+02,2.700000000000000000e+02,9.360000000000000000e+02,4.630000000000000000e+02,1.270000000000000000e+02,1.530000000000000000e+02,1.330000000000000000e+02,7.400000000000000000e+01,2.399999999999999911e-01,6.588128500000000000e+09
1.260000000000000000e+02,3.060000000000000000e+02,9.840000000000000000e+02,4.290000000000000000e+02,1.200000000000000000e+02,2.090000000000000000e+02,1.610000000000000000e+02,7.400000000000000000e+01,2.399999999999999911e-01,6.609202400000000000e+09
1.410000000000000000e+02,3.320000000000000000e+02,1.009000000000000000e+03,4.300000000000000000e+02,1.270000000000000000e+02,2.090000000000000000e+02,1.520000000000000000e+02,7.900000000000000000e+01,2.500000000000000000e-01,6.630167200000000000e+09
1.280000000000000000e+02,3.240000000000000000e+02,9.470000000000000000e+02,4.170000000000000000e+02,1.230000000000000000e+02,2.180000000000000000e+02,1.510000000000000000e+02,7.400000000000000000e+01,2.500000000000000000e-01,6.655866700000000000e+09
1.230000000000000000e+02,3.170000000000000000e+02,1.026000000000000000e+03,3.730000000000000000e+02,1.130000000000000000e+02,2.300000000000000000e+02,1.430000000000000000e+02,7.100000000000000000e+01,2.600000000000000089e-01,6.674259000000000000e+09
1.210000000000000000e+02,3.040000000000000000e+02,9.970000000000000000e+02,3.880000000000000000e+02,1.180000000000000000e+02,2.270000000000000000e+02,1.810000000000000000e+02,6.900000000000000000e+01,2.600000000000000089e-01,6.694340300000000000e+09
1.220000000000000000e+02,2.760000000000000000e+02,8.980000000000000000e+02,3.930000000000000000e+02,1.200000000000000000e+02,1.640000000000000000e+02,1.590000000000000000e+02,6.500000000000000000e+01,2.600000000000000089e-01,6.717336400000000000e+09
1.030000000000000000e+02,2.430000000000000000e+02,8.610000000000000000e+02,3.510000000000000000e+02,1.140000000000000000e+02,1.430000000000000000e+02,1.650000000000000000e+02,5.800000000000000000e+01,2.700000000000000178e-01,6.748751600000000000e+09
1.620000000000000000e+02,3.710000000000000000e+02,9.280000000000000000e+02,4.110000000000000000e+02,1.470000000000000000e+02,1.590000000000000000e+02,1.710000000000000000e+02,9.000000000000000000e+01,2.600000000000000089e-01,6.766064500000000000e+09
1.820000000000000000e+02,3.880000000000000000e+02,8.780000000000000000e+02,4.430000000000000000e+02,1.580000000000000000e+02,1.710000000000000000e+02,2.200000000000000000e+02,9.700000000000000000e+01,2.600000000000000089e-01,6.782976000000000000e+09
1.890000000000000000e+02,3.890000000000000000e+02,9.040000000000000000e+02,4.430000000000000000e+02,1.640000000000000000e+02,1.890000000000000000e+02,1.870000000000000000e+02,1.040000000000000000e+02,2.500000000000000000e-01,6.800302700000000000e+09
1.930000000000000000e+02,3.950000000000000000e+02,1.026000000000000000e+03,4.480000000000000000e+02,1.690000000000000000e+02,2.050000000000000000e+02,1.890000000000000000e+02,1.070000000000000000e+02,2.399999999999999911e-01,6.822415100000000000e+09
2.100000000000000000e+02,4.180000000000000000e+02,1.111000000000000000e+03,4.640000000000000000e+02,1.800000000000000000e+02,2.160000000000000000e+02,1.850000000000000000e+02,1.160000000000000000e+02,2.300000000000000100e-01,6.839644500000000000e+09
1.750000000000000000e+02,3.190000000000000000e+02,1.174000000000000000e+03,4.450000000000000000e+02,1.570000000000000000e+02,2.120000000000000000e+02,1.990000000000000000e+02,9.900000000000000000e+01,2.300000000000000100e-01,6.858569000000000000e+09
1.600000000000000000e+02,3.030000000000000000e+02,1.164000000000000000e+03,4.290000000000000000e+02,1.470000000000000000e+02,1.970000000000000000e+02,1.420000000000000000e+02,9.300000000000000000e+01,2.300000000000000100e-01,6.875874000000000000e+09
1.600000000000000000e+02,3.170000000000000000e+02,1.121000000000000000e+03,4.160000000000000000e+02,1.460000000000000000e+02,1.780000000000000000e+02,1.380000000000000000e+02,9.100000000000000000e+01,2.300000000000000100e-01,6.893353300000000000e+09
1.560000000000000000e+02,3.360000000000000000e+02,1.056000000000000000e+03,4.100000000000000000e+02,1.490000000000000000e+02,1.620000000000000000e+02,1.340000000000000000e+02,9.000000000000000000e+01,2.200000000000000011e-01,6.911994900000000000e+09
1.350000000000000000e+02,3.230000000000000000e+02,9.920000000000000000e+02,3.940000000000000000e+02,1.320000000000000000e+02,1.490000000000000000e+02,1.550000000000000000e+02,7.800000000000000000e+01,2.099999999999999922e-01,6.929558700000000000e+09
1.340000000000000000e+02,3.440000000000000000e+02,8.910000000000000000e+02,3.420000000000000000e+02,1.250000000000000000e+02,1.290000000000000000e+02,1.500000000000000000e+02,7.100000000000000000e+01,2.099999999999999922e-01,6.947853500000000000e+09
1.370000000000000000e+02,3.630000000000000000e+02,8.800000000000000000e+02,3.250000000000000000e+02,1.340000000000000000e+02,1.250000000000000000e+02,1.570000000000000000e+02,7.400000000000000000e+01,2.000000000000000111e-01,6.969837000000000000e+09
1.200000000000000000e+02,3.370000000000000000e+02,8.710000000000000000e+02,3.280000000000000000e+02,1.230000000000000000e+02,1.220000000000000000e+02,1.520000000000000000e+02,6.800000000000000000e+01,2.000000000000000111e-01,6.988635300000000000e+09
1.180000000000000000e+02,3.050000000000000000e+02,8.300000000000000000e+02,3.340000000000000000e+02,1.150000000000000000e+02,1.190000000000000000e+02,1.630000000000000000e+02,6.800000000000000000e+01,2.099999999999999922e-01,7.010147800000000000e+09
1.380000000000000000e+02,3.320000000000000000e+02,8.320000000000000000e+02,3.650000000000000000e+02,1.340000000000000000e+02,1.570000000000000000e+02,1.500000000000000000e+02,8.500000000000000000e+01,2.099999999999999922e-01,7.029349400000000000e+09
1.340000000000000000e+02,3.240000000000000000e+02,9.040000000000000000e+02,3.730000000000000000e+02,1.350000000000000000e+02,1.820000000000000000e+02,1.160000000000000000e+02,8.500000000000000000e+01,2.099999999999999922e-01,7.048100900000000000e+09
1.280000000000000000e+02,2.830000000000000000e+02,9.970000000000000000e+02,4.080000000000000000e+02,1.280000000000000000e+02,1.710000000000000000e+02,1.090000000000000000e+02,8.200000000000000000e+01,2.099999999999999922e-01,7.069300600000000000e+09
1.440000000000000000e+02,3.020000000000000000e+02,1.076000000000000000e+03,3.990000000000000000e+02,1.340000000000000000e+02,1.780000000000000000e+02,1.300000000000000000e+02,9.200000000000000000e+01,2.099999999999999922e-01,7.091065400000000000e+09
1.410000000000000000e+02,3.160000000000000000e+02,1.095000000000000000e+03,3.840000000000000000e+02,1.270000000000000000e+02,1.760000000000000000e+02,1.220000000000000000e+02,8.700000000000000000e+01,2.099999999999999922e-01,7.110594600000000000e+09
1.200000000000000000e+02,2.610000000000000000e+02,1.105000000000000000e+03,3.480000000000000000e+02,1.130000000000000000e+02,1.560000000000000000e+02,1.090000000000000000e+02,7.300000000000000000e+01,2.099999999999999922e-01,7.128344400000000000e+09
1.200000000000000000e+02,2.450000000000000000e+02,1.092000000000000000e+03,3.730000000000000000e+02,1.290000000000000000e+02,1.420000000000000000e+02,1.120000000000000000e+02,7.400000000000000000e+01,2.200000000000000011e-01,7.149656200000000000e+09
1.170000000000000000e+02,2.790000000000000000e+02,1.031000000000000000e+03,3.150000000000000000e+02,1.250000000000000000e+02,1.500000000000000000e+02,1.330000000000000000e+02,7.200000000000000000e+01,2.200000000000000011e-01,7.171462000000000000e+09
9.500000000000000000e+01,2.590000000000000000e+02,1.019000000000000000e+03,3.240000000000000000e+02,1.190000000000000000e+02,1.440000000000000000e+02,1.300000000000000000e+02,5.900000000000000000e+01,2.300000000000000100e-01,7.194073300000000000e+09
9.600000000000000000e+01,2.670000000000000000e+02,9.670000000000000000e+02,3.340000000000000000e+02,1.250000000000000000e+02,1.500000000000000000e+02,1.290000000000000000e+02,6.000000000000000000e+01,2.300000000000000100e-01,7.214551100000000000e+09
1.050000000000000000e+02,2.960000000000000000e+02,9.400000000000000000e+02,3.450000000000000000e+02,1.250000000000000000e+02,1.300000000000000000e+02,1.290000000000000000e+02,6.200000000000000000e+01,2.300000000000000100e-01,7.232856800000000000e+09
1.080000000000000000e+02,3.130000000000000000e+02,9.230000000000000000e+02,3.020000000000000000e+02,1.210000000000000000e+02,1.140000000000000000e+02,1.410000000000000000e+02,6.000000000000000000e+01,2.300000000000000100e-01,7.250483400000000000e+09
1.040000000000000000e+02,2.700000000000000000e+02,9.220000000000000000e+02,2.990000000000000000e+02,1.180000000000000000e+02,1.180000000000000000e+02,1.570000000000000000e+02,6.300000000000000000e+01,2.300000000000000100e-01,7.271741100000000000e+09
1.190000000000000000e+02,2.810000000000000000e+02,9.270000000000000000e+02,3.100000000000000000e+02,1.260000000000000000e+02,1.330000000000000000e+02,1.600000000000000000e+02,7.100000000000000000e+01,2.399999999999999911e-01,7.291197100000000000e+09
1.280000000000000000e+02,2.720000000000000000e+02,1.007000000000000000e+03,3.420000000000000000e+02,1.290000000000000000e+02,1.380000000000000000e+02,1.630000000000000000e+02,7.700000000000000000e+01,2.399999999999999911e-01,7.309095800000000000e+09
1.290000000000000000e+02,2.600000000000000000e+02,1.041000000000000000e+03,3.480000000000000000e+02,1.250000000000000000e+02,1.460000000000000000e+02,1.630000000000000000e+02,7.800000000000000000e+01,2.399999999999999911e-01,7.328217000000000000e+09
1.310000000000000000e+02,2.530000000000000000e+02,1.020000000000000000e+03,3.830000000000000000e+02,1.170000000000000000e+02,1.430000000000000000e+02,1.650000000000000000e+02,8.100000000000000000e+01,2.399999999999999911e-01,7.349740600000000000e+09
1.330000000000000000e+02,2.790000000000000000e+02,1.018000000000000000e+03,3.840000000000000000e+02,1.170000000000000000e+02,1.310000000000000000e+02,1.260000000000000000e+02,7.900000000000000000e+01,2.500000000000000000e-01,7.369110400000000000e+09
1.240000000000000000e+02,2.770000000000000000e+02,1.026000000000000000e+03,3.630000000000000000e+02,1.070000000000000000e+02,1.250000000000000000e+02,1.030000000000000000e+02,7.300000000000000000e+01,2.500000000000000000e-01,7.387126500000000000e+09
1.110000000000000000e+02,2.510000000000000000e+02,1.006000000000000000e+03,3.290000000000000000e+02,9.700000000000000000e+01,1.190000000000000000e+02,1.010000000000000000e+02,6.600000000000000000e+01,2.600000000000000089e-01,7.409846600000000000e+09
1.050000000000000000e+02,2.420000000000000000e+02,1.090000000000000000e+03,3.250000000000000000e+02,1.010000000000000000e+02,1.050000000000000000e+02,1.030000000000000000e+02,6.300000000000000000e+01,2.600000000000000089e-01,7.428908400000000000e+09
9.200000000000000000e+01,2.150000000000000000e+02,1.042000000000000000e+03,2.600000000000000000e+02,8.900000000000000000e+01,9.800000000000000000e+01,9.700000000000000000e+01,5.400000000000000000e+01,2.700000000000000178e-01,7.449187600000000000e+09
9.400000000000000000e+01,1.850000000000000000e+02,1.060000000000000000e+03,2.920000000000000000e+02,9.700000000000000000e+01,1.200000000000000000e+02,1.020000000000000000e+02,5.500000000000000000e+01,2.800000000000000266e-01,7.468998600000000000e+09
9.800000000000000000e+01,1.820000000000000000e+02,1.016000000000000000e+03,2.980000000000000000e+02,9.800000000000000000e+01,1.090000000000000000e+02,1.060000000000000000e+02,5.600000000000000000e+01,2.899999999999999800e-01,7.488471700000000000e+09
1.060000000000000000e+02,1.940000000000000000e+02,1.033000000000000000e+03,3.090000000000000000e+02,1.020000000000000000e+02,1.060000000000000000e+02,1.000000000000000000e+02,5.900000000000000000e+01,2.999999999999999889e-01,7.510328500000000000e+09
1.040000000000000000e+02,2.030000000000000000e+02,9.840000000000000000e+02,3.570000000000000000e+02,1.000000000000000000e+02,1.090000000000000000e+02,1.080000000000000000e+02,5.900000000000000000e+01,3.099999999999999978e-01,7.530493300000000000e+09
1.210000000000000000e+02,2.440000000000000000e+02,1.012000000000000000e+03,4.190000000000000000e+02,1.090000000000000000e+02,1.140000000000000000e+02,9.400000000000000000e+01,6.700000000000000000e+01,3.200000000000000067e-01,7.549403900000000000e+09
1.170000000000000000e+02,2.510000000000000000e+02,9.560000000000000000e+02,3.960000000000000000e+02,1.000000000000000000e+02,9.300000000000000000e+01,1.010000000000000000e+02,6.500000000000000000e+01,3.300000000000000155e-01,7.575069000000000000e+09
1.150000000000000000e+02,2.790000000000000000e+02,9.350000000000000000e+02,3.930000000000000000e+02,1.030000000000000000e+02,9.600000000000000000e+01,9.600000000000000000e+01,6.500000000000000000e+01,3.400000000000000244e-01,7.593505200000000000e+09
1.170000000000000000e+02,2.880000000000000000e+02,9.080000000000000000e+02,4.320000000000000000e+02,1.090000000000000000e+02,9.900000000000000000e+01,1.000000000000000000e+02,6.900000000000000000e+01,3.400000000000000244e-01,7.611996300000000000e+09
1.240000000000000000e+02,3.210000000000000000e+02,8.800000000000000000e+02,4.060000000000000000e+02,1.240000000000000000e+02,1.120000000000000000e+02,9.600000000000000000e+01,7.100000000000000000e+01,3.400000000000000244e-01,7.629868300000000000e+09
1.070000000000000000e+02,2.920000000000000000e+02,8.600000000000000000e+02,3.380000000000000000e+02,1.140000000000000000e+02,1.120000000000000000e+02,9.400000000000000000e+01,6.500000000000000000e+01,3.400000000000000244e-01,7.647703800000000000e+09
1.480000000000000000e+02,3.550000000000000000e+02,8.990000000000000000e+02,3.960000000000000000e+02,1.460000000000000000e+02,1.230000000000000000e+02,9.600000000000000000e+01,9.000000000000000000e+01,3.300000000000000155e-01,7.669209000000000000e+09
1.570000000000000000e+02,3.490000000000000000e+02,9.030000000000000000e+02,4.210000000000000000e+02,1.480000000000000000e+02,1.190000000000000000e+02,9.500000000000000000e+01,9.500000000000000000e+01,3.200000000000000067e-01,7.687552300000000000e+09
1.520000000000000000e+02,3.510000000000000000e+02,8.910000000000000000e+02,3.930000000000000000e+02,1.430000000000000000e+02,1.160000000000000000e+02,1.070000000000000000e+02,9.200000000000000000e+01,3.099999999999999978e-01,7.709154000000000000e+09
1.520000000000000000e+02,3.270000000000000000e+02,8.350000000000000000e+02,4.210000000000000000e+02,1.410000000000000000e+02,1.240000000000000000e+02,1.370000000000000000e+02,9.400000000000000000e+01,2.999999999999999889e-01,7.728316400000000000e+09
1.600000000000000000e+02,3.450000000000000000e+02,8.970000000000000000e+02,4.640000000000000000e+02,1.480000000000000000e+02,1.270000000000000000e+02,1.410000000000000000e+02,9.800000000000000000e+01,2.899999999999999800e-01,7.750790200000000000e+09
1.260000000000000000e+02,3.030000000000000000e+02,9.080000000000000000e+02,4.330000000000000000e+02,1.240000000000000000e+02,1.220000000000000000e+02,1.340000000000000000e+02,8.100000000000000000e+01,2.899999999999999800e-01,7.768922200000000000e+09
1.140000000000000000e+02,3.040000000000000000e+02,9.480000000000000000e+02,4.080000000000000000e+02,1.170000000000000000e+02,1.230000000000000000e+02,1.330000000000000000e+02,7.500000000000000000e+01,2.800000000000000266e-01,7.789847900000000000e+09
1.220000000000000000e+02,3.140000000000000000e+02,8.890000000000000000e+02,3.830000000000000000e+02,1.220000000000000000e+02,1.310000000000000000e+02,1.180000000000000000e+02,7.700000000000000000e+01,2.700000000000000178e-01,7.808319200000000000e+09
1.140000000000000000e+02,3.240000000000000000e+02,9.230000000000000000e+02,3.740000000000000000e+02,1.160000000000000000e+02,1.140000000000000000e+02,9.000000000000000000e+01,7.100000000000000000e+01,2.600000000000000089e-01,7.830153600000000000e+09
1.110000000000000000e+02,3.340000000000000000e+02,8.370000000000000000e+02,4.130000000000000000e+02,1.290000000000000000e+02,1.170000000000000000e+02,9.900000000000000000e+01,7.100000000000000000e+01,2.500000000000000000e-01,7.849427200000000000e+09
1.100000000000000000e+02,3.160000000000000000e+02,8.200000000000000000e+02,4.400000000000000000e+02,1.300000000000000000e+02,1.190000000000000000e+02,9.400000000000000000e+01,7.100000000000000000e+01,2.500000000000000000e-01,7.868199000000000000e+09
1.220000000000000000e+02,3.170000000000000000e+02,7.390000000000000000e+02,4.400000000000000000e+02,1.420000000000000000e+02,1.260000000000000000e+02,9.500000000000000000e+01,7.800000000000000000e+01,2.500000000000000000e-01,7.890092000000000000e+09
1.370000000000000000e+02,3.430000000000000000e+02,8.810000000000000000e+02,5.600000000000000000e+02,1.600000000000000000e+02,1.180000000000000000e+02,9.600000000000000000e+01,8.600000000000000000e+01,2.500000000000000000e-01,7.907954300000000000e+09
1.650000000000000000e+02,3.430000000000000000e+02,8.740000000000000000e+02,5.530000000000000000e+02,1.860000000000000000e+02,1.450000000000000000e+02,9.300000000000000000e+01,1.040000000000000000e+02,2.399999999999999911e-01,7.930125200000000000e+09
1.660000000000000000e+02,3.410000000000000000e+02,9.080000000000000000e+02,5.290000000000000000e+02,1.840000000000000000e+02,1.430000000000000000e+02,8.900000000000000000e+01,1.060000000000000000e+02,2.399999999999999911e-01,7.949592000000000000e+09
1.700000000000000000e+02,3.510000000000000000e+02,9.150000000000000000e+02,5.210000000000000000e+02,1.820000000000000000e+02,1.360000000000000000e+02,9.300000000000000000e+01,1.040000000000000000e+02,2.300000000000000100e-01,7.967806600000000000e+09
1.730000000000000000e+02,3.670000000000000000e+02,9.670000000000000000e+02,5.300000000000000000e+02,1.900000000000000000e+02,1.400000000000000000e+02,9.700000000000000000e+01,1.050000000000000000e+02,2.200000000000000011e-01,7.988671300000000000e+09
1.590000000000000000e+02,3.430000000000000000e+02,8.230000000000000000e+02,4.280000000000000000e+02,1.810000000000000000e+02,1.450000000000000000e+02,9.000000000000000000e+01,1.000000000000000000e+02,2.099999999999999922e-01,8.010101900000000000e+09
1.370000000000000000e+02,3.240000000000000000e+02,7.730000000000000000e+02,4.210000000000000000e+02,1.600000000000000000e+02,1.160000000000000000e+02,8.100000000000000000e+01,8.400000000000000000e+01,2.099999999999999922e-01,8.031593400000000000e+09
1.420000000000000000e+02,3.240000000000000000e+02,8.710000000000000000e+02,4.000000000000000000e+02,1.630000000000000000e+02,1.160000000000000000e+02,1.090000000000000000e+02,8.800000000000000000e+01,2.000000000000000111e-01,8.049872400000000000e+09
1.340000000000000000e+02,3.110000000000000000e+02,8.550000000000000000e+02,3.730000000000000000e+02,1.600000000000000000e+02,1.230000000000000000e+02,1.070000000000000000e+02,8.700000000000000000e+01,2.000000000000000111e-01,8.068114800000000000e+09
1.190000000000000000e+02,2.730000000000000000e+02,8.960000000000000000e+02,3.790000000000000000e+02,1.450000000000000000e+02,1.070000000000000000e+02,1.020000000000000000e+02,7.900000000000000000e+01,1.900000000000000022e-01,8.089427500000000000e+09
1.280000000000000000e+02,2.750000000000000000e+02,9.500000000000000000e+02,3.710000000000000000e+02,1.380000000000000000e+02,9.900000000000000000e+01,1.060000000000000000e+02,7.800000000000000000e+01,1.900000000000000022e-01,8.109112100000000000e+09
1.290000000000000000e+02,3.190000000000000000e+02,9.840000000000000000e+02,3.800000000000000000e+02,1.280000000000000000e+02,1.000000000000000000e+02,1.010000000000000000e+02,7.600000000000000000e+01,1.900000000000000022e-01,8.128025100000000000e+09
1.150000000000000000e+02,2.920000000000000000e+02,9.330000000000000000e+02,3.720000000000000000e+02,1.130000000000000000e+02,9.400000000000000000e+01,5.400000000000000000e+01,6.900000000000000000e+01,1.900000000000000022e-01,8.150171400000000000e+09
1.280000000000000000e+02,3.190000000000000000e+02,9.090000000000000000e+02,3.780000000000000000e+02,1.140000000000000000e+02,9.500000000000000000e+01,7.700000000000000000e+01,7.500000000000000000e+01,1.900000000000000022e-01,8.168492400000000000e+09
1.600000000000000000e+02,3.630000000000000000e+02,8.180000000000000000e+02,3.700000000000000000e+02,1.260000000000000000e+02,1.140000000000000000e+02,8.900000000000000000e+01,9.200000000000000000e+01,2.000000000000000111e-01,8.187297800000000000e+09
1.540000000000000000e+02,3.570000000000000000e+02,8.070000000000000000e+02,3.890000000000000000e+02,1.240000000000000000e+02,1.160000000000000000e+02,8.500000000000000000e+01,9.200000000000000000e+01,2.000000000000000111e-01,8.209946700000000000e+09
1.480000000000000000e+02,3.130000000000000000e+02,8.170000000000000000e+02,3.590000000000000000e+02,1.180000000000000000e+02,1.160000000000000000e+02,8.600000000000000000e+01,9.000000000000000000e+01,2.099999999999999922e-01,8.229164200000000000e+09
1.520000000000000000e+02,3.320000000000000000e+02,8.010000000000000000e+02,3.470000000000000000e+02,1.270000000000000000e+02,1.200000000000000000e+02,8.600000000000000000e+01,9.000000000000000000e+01,2.099999999999999922e-01,8.250160700000000000e+09
1.470000000000000000e+02,3.030000000000000000e+02,8.120000000000000000e+02,3.650000000000000000e+02,1.330000000000000000e+02,1.210000000000000000e+02,7.200000000000000000e+01,9.100000000000000000e+01,2.099999999999999922e-01,8.269770300000000000e+09
1.220000000000000000e+02,2.600000000000000000e+02,8.820000000000000000e+02,3.610000000000000000e+02,1.250000000000000000e+02,1.170000000000000000e+02,7.900000000000000000e+01,8.200000000000000000e+01,2.200000000000000011e-01,8.288815600000000000e+09
1.130000000000000000e+02,2.340000000000000000e+02,9.500000000000000000e+02,3.210000000000000000e+02,1.210000000000000000e+02,1.120000000000000000e+02,7.900000000000000000e+01,7.700000000000000000e+01,2.300000000000000100e-01,8.312085600000000000e+09
1.140000000000000000e+02,2.260000000000000000e+02,9.470000000000000000e+02,3.130000000000000000e+02,1.220000000000000000e+02,1.100000000000000000e+02,8.000000000000000000e+01,8.100000000000000000e+01,2.300000000000000100e-01,8.338081500000000000e+09
1.490000000000000000e+02,3.420000000000000000e+02,9.540000000000000000e+02,4.100000000000000000e+02,1.350000000000000000e+02,1.220000000000000000e+02,8.500000000000000000e+01,9.300000000000000000e+01,2.300000000000000100e-01,8.356690500000000000e+09
1.460000000000000000e+02,3.640000000000000000e+02,9.410000000000000000e+02,3.970000000000000000e+02,1.280000000000000000e+02,1.100000000000000000e+02,7.900000000000000000e+01,8.700000000000000000e+01,2.300000000000000100e-01,8.374455300000000000e+09
1.440000000000000000e+02,3.680000000000000000e+02,9.510000000000000000e+02,4.040000000000000000e+02,1.250000000000000000e+02,1.000000000000000000e+02,6.000000000000000000e+01,8.200000000000000000e+01,2.300000000000000100e-01,8.392322200000000000e+09
1.480000000000000000e+02,3.720000000000000000e+02,8.400000000000000000e+02,4.020000000000000000e+02,1.230000000000000000e+02,1.010000000000000000e+02,6.900000000000000000e+01,8.300000000000000000e+01,2.300000000000000100e-01,8.411036800000000000e+09
1.920000000000000000e+02,4.510000000000000000e+02,8.680000000000000000e+02,4.790000000000000000e+02,1.570000000000000000e+02,1.230000000000000000e+02,8.400000000000000000e+01,1.140000000000000000e+02,2.300000000000000100e-01,8.430577900000000000e+09
1.610000000000000000e+02,3.580000000000000000e+02,7.640000000000000000e+02,3.870000000000000000e+02,1.320000000000000000e+02,1.010000000000000000e+02,8.400000000000000000e+01,9.900000000000000000e+01,2.300000000000000100e-01,8.449362200000000000e+09
1.700000000000000000e+02,3.690000000000000000e+02,7.480000000000000000e+02,3.710000000000000000e+02,1.350000000000000000e+02,1.090000000000000000e+02,1.010000000000000000e+02,1.060000000000000000e+02,2.300000000000000100e-01,8.470520500000000000e+09
1.670000000000000000e+02,3.500000000000000000e+02,6.120000000000000000e+02,3.390000000000000000e+02,1.270000000000000000e+02,1.690000000000000000e+02,3.100000000000000000e+02,2.690000000000000000e+02,2.399999999999999911e-01,8.496070600000000000e+09
1.920000000000000000e+02,3.440000000000000000e+02,5.700000000000000000e+02,3.260000000000000000e+02,1.340000000000000000e+02,2.950000000000000000e+02,4.610000000000000000e+02,5.190000000000000000e+02,2.300000000000000100e-01,8.514010000000000000e+09
1.840000000000000000e+02,2.290000000000000000e+02,3.390000000000000000e+02,1.700000000000000000e+02,9.500000000000000000e+01,4.510000000000000000e+02,7.430000000000000000e+02,6.420000000000000000e+02,2.300000000000000100e-01,8.531700200000000000e+09
2.350000000000000000e+02,2.190000000000000000e+02,2.890000000000000000e+02,1.450000000000000000e+02,9.900000000000000000e+01,5.670000000000000000e+02,8.800000000000000000e+02,8.350000000000000000e+02,2.399999999999999911e-01,8.550049100000000000e+09
3.290000000000000000e+02,1.810000000000000000e+02,2.180000000000000000e+02,1.190000000000000000e+02,1.210000000000000000e+02,6.670000000000000000e+02,1.091000000000000000e+03,1.017000000000000000e+03,2.600000000000000089e-01,8.568791400000000000e+09
3.770000000000000000e+02,2.180000000000000000e+02,2.150000000000000000e+02,1.260000000000000000e+02,1.490000000000000000e+02,7.500000000000000000e+02,1.158000000000000000e+03,1.141000000000000000e+03,2.899999999999999800e-01,8.588810900000000000e+09
3.790000000000000000e+02,2.520000000000000000e+02,2.120000000000000000e+02,1.180000000000000000e+02,1.450000000000000000e+02,7.260000000000000000e+02,1.209000000000000000e+03,1.089000000000000000e+03,3.099999999999999978e-01,8.607741000000000000e+09
3.710000000000000000e+02,3.000000000000000000e+02,2.710000000000000000e+02,1.290000000000000000e+02,1.620000000000000000e+02,7.660000000000000000e+02,1.205000000000000000e+03,1.085000000000000000e+03,3.400000000000000244e-01,8.638424900000000000e+09
3.460000000000000000e+02,3.060000000000000000e+02,3.200000000000000000e+02,1.310000000000000000e+02,1.610000000000000000e+02,7.220000000000000000e+02,1.130000000000000000e+03,9.560000000000000000e+02,3.699999999999999956e-01,8.657955700000000000e+09
2.570000000000000000e+02,2.970000000000000000e+02,4.150000000000000000e+02,1.310000000000000000e+02,1.410000000000000000e+02,6.480000000000000000e+02,9.880000000000000000e+02,8.270000000000000000e+02,3.800000000000000044e-01,8.675681800000000000e+09
1.760000000000000000e+02,2.640000000000000000e+02,4.190000000000000000e+02,1.180000000000000000e+02,1.140000000000000000e+02,5.730000000000000000e+02,9.620000000000000000e+02,6.540000000000000000e+02,4.000000000000000222e-01,8.693295500000000000e+09
1.490000000000000000e+02,2.450000000000000000e+02,4.570000000000000000e+02,1.200000000000000000e+02,1.120000000000000000e+02,6.200000000000000000e+02,8.510000000000000000e+02,6.460000000000000000e+02,4.099999999999999756e-01,8.711918900000000000e+09
1.230000000000000000e+02,1.830000000000000000e+02,4.520000000000000000e+02,1.100000000000000000e+02,8.500000000000000000e+01,5.200000000000000000e+02,6.550000000000000000e+02,5.660000000000000000e+02,4.299999999999999933e-01,8.730665200000000000e+09
1.330000000000000000e+02,2.590000000000000000e+02,5.890000000000000000e+02,2.370000000000000000e+02,1.010000000000000000e+02,4.930000000000000000e+02,6.460000000000000000e+02,5.820000000000000000e+02,4.299999999999999933e-01,8.749372000000000000e+09
1.290000000000000000e+02,2.710000000000000000e+02,5.740000000000000000e+02,2.520000000000000000e+02,1.020000000000000000e+02,5.010000000000000000e+02,5.990000000000000000e+02,5.030000000000000000e+02,4.400000000000000022e-01,8.769362200000000000e+09
1.270000000000000000e+02,2.700000000000000000e+02,5.750000000000000000e+02,2.530000000000000000e+02,9.800000000000000000e+01,4.730000000000000000e+02,4.550000000000000000e+02,4.520000000000000000e+02,4.400000000000000022e-01,8.790728500000000000e+09
1.240000000000000000e+02,2.610000000000000000e+02,5.400000000000000000e+02,2.520000000000000000e+02,9.300000000000000000e+01,3.970000000000000000e+02,4.230000000000000000e+02,3.750000000000000000e+02,4.400000000000000022e-01,8.809559300000000000e+09
1.340000000000000000e+02,2.590000000000000000e+02,5.260000000000000000e+02,2.500000000000000000e+02,8.200000000000000000e+01,3.540000000000000000e+02,3.820000000000000000e+02,3.610000000000000000e+02,4.400000000000000022e-01,8.827377900000000000e+09
1.060000000000000000e+02,1.690000000000000000e+02,3.490000000000000000e+02,1.300000000000000000e+02,5.900000000000000000e+01,3.440000000000000000e+02,3.700000000000000000e+02,3.670000000000000000e+02,4.299999999999999933e-01,8.850410500000000000e+09
9.700000000000000000e+01,1.280000000000000000e+02,3.280000000000000000e+02,8.200000000000000000e+01,4.600000000000000000e+01,3.100000000000000000e+02,2.980000000000000000e+02,3.530000000000000000e+02,4.299999999999999933e-01,8.868927700000000000e+09
9.600000000000000000e+01,1.270000000000000000e+02,3.130000000000000000e+02,7.900000000000000000e+01,4.200000000000000000e+01,2.890000000000000000e+02,3.000000000000000000e+02,3.300000000000000000e+02,4.299999999999999933e-01,8.889807600000000000e+09
8.600000000000000000e+01,1.190000000000000000e+02,3.310000000000000000e+02,7.300000000000000000e+01,4.800000000000000000e+01,2.840000000000000000e+02,2.960000000000000000e+02,3.530000000000000000e+02,4.199999999999999845e-01,8.908802200000000000e+09
7.600000000000000000e+01,1.530000000000000000e+02,3.840000000000000000e+02,7.800000000000000000e+01,4.500000000000000000e+01,2.240000000000000000e+02,2.980000000000000000e+02,3.180000000000000000e+02,4.199999999999999845e-01,8.930432400000000000e+09
7.600000000000000000e+01,1.740000000000000000e+02,4.110000000000000000e+02,9.900000000000000000e+01,4.300000000000000000e+01,2.100000000000000000e+02,2.650000000000000000e+02,2.450000000000000000e+02,4.299999999999999933e-01,8.948354000000000000e+09
8.300000000000000000e+01,1.870000000000000000e+02,3.870000000000000000e+02,9.700000000000000000e+01,5.300000000000000000e+01,2.230000000000000000e+02,2.640000000000000000e+02,2.500000000000000000e+02,4.299999999999999933e-01,8.968736700000000000e+09
8.000000000000000000e+01,1.850000000000000000e+02,3.890000000000000000e+02,9.700000000000000000e+01,5.300000000000000000e+01,2.310000000000000000e+02,2.020000000000000000e+02,2.630000000000000000e+02,4.299999999999999933e-01,8.989951600000000000e+09
7.900000000000000000e+01,1.820000000000000000e+02,3.970000000000000000e+02,9.600000000000000000e+01,4.700000000000000000e+01,2.440000000000000000e+02,1.990000000000000000e+02,2.330000000000000000e+02,4.299999999999999933e-01,9.008233000000000000e+09
7.000000000000000000e+01,1.530000000000000000e+02,3.660000000000000000e+02,8.800000000000000000e+01,4.900000000000000000e+01,6.550000000000000000e+02,1.860000000000000000e+02,2.260000000000000000e+02,4.400000000000000022e-01,9.029596700000000000e+09
6.400000000000000000e+01,1.210000000000000000e+02,3.720000000000000000e+02,6.300000000000000000e+01,4.500000000000000000e+01,8.180000000000000000e+02,1.690000000000000000e+02,2.280000000000000000e+02,4.400000000000000022e-01,9.049227700000000000e+09
5.400000000000000000e+01,1.060000000000000000e+02,3.500000000000000000e+02,7.600000000000000000e+01,3.300000000000000000e+01,1.107000000000000000e+03,1.440000000000000000e+02,1.920000000000000000e+02,4.500000000000000111e-01,9.069261900000000000e+09
5.000000000000000000e+01,1.060000000000000000e+02,3.550000000000000000e+02,8.000000000000000000e+01,3.400000000000000000e+01,1.233000000000000000e+03,1.230000000000000000e+02,1.520000000000000000e+02,4.600000000000000200e-01,9.095342100000000000e+09
4.500000000000000000e+01,9.100000000000000000e+01,3.190000000000000000e+02,8.500000000000000000e+01,3.700000000000000000e+01,1.263000000000000000e+03,1.250000000000000000e+02,1.220000000000000000e+02,4.600000000000000200e-01,9.114562900000000000e+09
4.100000000000000000e+01,8.100000000000000000e+01,3.140000000000000000e+02,8.200000000000000000e+01,3.400000000000000000e+01,1.112000000000000000e+03,1.180000000000000000e+02,9.400000000000000000e+01,4.600000000000000200e-01,9.133598200000000000e+09
4.200000000000000000e+01,9.400000000000000000e+01,3.820000000000000000e+02,9.700000000000000000e+01,3.700000000000000000e+01,9.990000000000000000e+02,1.030000000000000000e+02,7.200000000000000000e+01,4.799999999999999822e-01,9.150978600000000000e+09
3.900000000000000000e+01,8.900000000000000000e+01,5.060000000000000000e+02,8.700000000000000000e+01,3.600000000000000000e+01,6.690000000000000000e+02,8.300000000000000000e+01,6.300000000000000000e+01,5.000000000000000000e-01,9.170413000000000000e+09
3.700000000000000000e+01,9.300000000000000000e+01,5.630000000000000000e+02,8.700000000000000000e+01,3.700000000000000000e+01,4.240000000000000000e+02,7.700000000000000000e+01,5.300000000000000000e+01,5.100000000000000089e-01,9.189486000000000000e+09
3.600000000000000000e+01,1.000000000000000000e+02,7.240000000000000000e+02,9.300000000000000000e+01,4.400000000000000000e+01,3.620000000000000000e+02,5.300000000000000000e+01,4.700000000000000000e+01,5.300000000000000266e-01,9.209436700000000000e+09
4.700000000000000000e+01,1.050000000000000000e+02,7.940000000000000000e+02,1.270000000000000000e+02,5.300000000000000000e+01,4.150000000000000000e+02,5.300000000000000000e+01,5.000000000000000000e+01,5.300000000000000266e-01,9.231139900000000000e+09
4.600000000000000000e+01,1.100000000000000000e+02,8.340000000000000000e+02,1.480000000000000000e+02,5.500000000000000000e+01,4.080000000000000000e+02,4.300000000000000000e+01,4.100000000000000000e+01,5.300000000000000266e-01,9.248859200000000000e+09
5.500000000000000000e+01,1.240000000000000000e+02,7.970000000000000000e+02,1.570000000000000000e+02,8.400000000000000000e+01,3.860000000000000000e+02,3.800000000000000000e+01,4.500000000000000000e+01,5.300000000000000266e-01,9.268848400000000000e+09
6.200000000000000000e+01,1.310000000000000000e+02,8.000000000000000000e+02,1.860000000000000000e+02,1.110000000000000000e+02,3.460000000000000000e+02,4.000000000000000000e+01,5.100000000000000000e+01,5.200000000000000178e-01,9.290932600000000000e+09
6.600000000000000000e+01,1.420000000000000000e+02,8.010000000000000000e+02,2.130000000000000000e+02,1.270000000000000000e+02,2.820000000000000000e+02,3.800000000000000000e+01,5.400000000000000000e+01,5.200000000000000178e-01,9.309727900000000000e+09
8.700000000000000000e+01,2.150000000000000000e+02,9.300000000000000000e+02,2.340000000000000000e+02,1.460000000000000000e+02,1.560000000000000000e+02,4.200000000000000000e+01,6.000000000000000000e+01,5.100000000000000089e-01,9.328039700000000000e+09
9.200000000000000000e+01,2.330000000000000000e+02,1.040000000000000000e+03,2.860000000000000000e+02,1.520000000000000000e+02,1.290000000000000000e+02,4.400000000000000000e+01,5.900000000000000000e+01,5.000000000000000000e-01,9.352712400000000000e+09
1.000000000000000000e+02,2.600000000000000000e+02,1.102000000000000000e+03,3.460000000000000000e+02,1.790000000000000000e+02,1.350000000000000000e+02,4.200000000000000000e+01,6.800000000000000000e+01,4.799999999999999822e-01,9.371769100000000000e+09
1.030000000000000000e+02,2.650000000000000000e+02,1.151000000000000000e+03,3.830000000000000000e+02,2.100000000000000000e+02,1.090000000000000000e+02,4.500000000000000000e+01,7.100000000000000000e+01,4.500000000000000111e-01,9.396023000000000000e+09
1.180000000000000000e+02,2.970000000000000000e+02,1.231000000000000000e+03,5.110000000000000000e+02,2.330000000000000000e+02,1.200000000000000000e+02,5.800000000000000000e+01,7.900000000000000000e+01,4.199999999999999845e-01,9.414473800000000000e+09
1.280000000000000000e+02,2.750000000000000000e+02,1.123000000000000000e+03,5.690000000000000000e+02,3.030000000000000000e+02,1.620000000000000000e+02,6.700000000000000000e+01,8.900000000000000000e+01,3.900000000000000133e-01,9.434786400000000000e+09
1.370000000000000000e+02,2.960000000000000000e+02,1.049000000000000000e+03,5.780000000000000000e+02,3.070000000000000000e+02,1.630000000000000000e+02,7.100000000000000000e+01,9.600000000000000000e+01,3.599999999999999867e-01,9.453288500000000000e+09
1.500000000000000000e+02,3.060000000000000000e+02,1.139000000000000000e+03,6.410000000000000000e+02,2.980000000000000000e+02,1.730000000000000000e+02,7.700000000000000000e+01,9.600000000000000000e+01,3.300000000000000155e-01,9.472562200000000000e+09
1.710000000000000000e+02,3.410000000000000000e+02,1.167000000000000000e+03,6.850000000000000000e+02,2.710000000000000000e+02,1.880000000000000000e+02,8.100000000000000000e+01,1.010000000000000000e+02,2.999999999999999889e-01,9.490474900000000000e+09
1.690000000000000000e+02,3.240000000000000000e+02,1.068000000000000000e+03,6.150000000000000000e+02,2.600000000000000000e+02,1.880000000000000000e+02,7.800000000000000000e+01,1.030000000000000000e+02,2.800000000000000266e-01,9.508668700000000000e+09
1.610000000000000000e+02,3.280000000000000000e+02,1.053000000000000000e+03,6.130000000000000000e+02,1.780000000000000000e+02,1.620000000000000000e+02,6.900000000000000000e+01,9.600000000000000000e+01,2.600000000000000089e-01,9.528039100000000000e+09
1.630000000000000000e+02,3.260000000000000000e+02,1.057000000000000000e+03,5.960000000000000000e+02,1.760000000000000000e+02,1.740000000000000000e+02,6.400000000000000000e+01,9.800000000000000000e+01,2.500000000000000000e-01,9.554185700000000000e+09
1.550000000000000000e+02,3.210000000000000000e+02,1.041000000000000000e+03,5.180000000000000000e+02,1.690000000000000000e+02,1.640000000000000000e+02,5.800000000000000000e+01,9.900000000000000000e+01,2.300000000000000100e-01,9.572214800000000000e+09
1.490000000000000000e+02,3.160000000000000000e+02,1.045000000000000000e+03,5.010000000000000000e+02,1.770000000000000000e+02,1.530000000000000000e+02,5.600000000000000000e+01,9.600000000000000000e+01,2.200000000000000011e-01,9.591224700000000000e+09
1.590000000000000000e+02,3.370000000000000000e+02,1.060000000000000000e+03,5.100000000000000000e+02,1.740000000000000000e+02,1.520000000000000000e+02,5.800000000000000000e+01,9.900000000000000000e+01,2.099999999999999922e-01,9.610024300000000000e+09
1.760000000000000000e+02,4.030000000000000000e+02,1.241000000000000000e+03,4.870000000000000000e+02,1.780000000000000000e+02,1.670000000000000000e+02,6.100000000000000000e+01,1.030000000000000000e+02,2.000000000000000111e-01,9.631370500000000000e+09
1.800000000000000000e+02,4.250000000000000000e+02,1.270000000000000000e+03,4.950000000000000000e+02,1.760000000000000000e+02,1.590000000000000000e+02,6.500000000000000000e+01,1.000000000000000000e+02,2.000000000000000111e-01,9.649921100000000000e+09
1.790000000000000000e+02,4.250000000000000000e+02,1.211000000000000000e+03,5.190000000000000000e+02,1.860000000000000000e+02,1.600000000000000000e+02,6.800000000000000000e+01,1.000000000000000000e+02,1.900000000000000022e-01,9.670713500000000000e+09
2.010000000000000000e+02,5.020000000000000000e+02,1.180000000000000000e+03,5.730000000000000000e+02,2.030000000000000000e+02,1.690000000000000000e+02,6.900000000000000000e+01,1.130000000000000000e+02,1.900000000000000022e-01,9.688766200000000000e+09
2.070000000000000000e+02,5.320000000000000000e+02,1.200000000000000000e+03,6.460000000000000000e+02,2.200000000000000000e+02,1.620000000000000000e+02,7.000000000000000000e+01,1.170000000000000000e+02,1.799999999999999933e-01,9.710461500000000000e+09
1.920000000000000000e+02,4.950000000000000000e+02,1.053000000000000000e+03,7.030000000000000000e+02,2.110000000000000000e+02,1.370000000000000000e+02,6.600000000000000000e+01,1.110000000000000000e+02,1.700000000000000122e-01,9.729883000000000000e+09
2.120000000000000000e+02,4.930000000000000000e+02,1.016000000000000000e+03,7.160000000000000000e+02,2.500000000000000000e+02,1.720000000000000000e+02,7.000000000000000000e+01,1.230000000000000000e+02,1.600000000000000033e-01,9.750864100000000000e+09
2.380000000000000000e+02,5.540000000000000000e+02,1.068000000000000000e+03,8.120000000000000000e+02,2.790000000000000000e+02,1.900000000000000000e+02,7.600000000000000000e+01,1.390000000000000000e+02,1.499999999999999944e-01,9.768622800000000000e+09
2.220000000000000000e+02,4.960000000000000000e+02,1.081000000000000000e+03,7.740000000000000000e+02,2.770000000000000000e+02,2.010000000000000000e+02,7.500000000000000000e+01,1.310000000000000000e+02,1.499999999999999944e-01,9.790219600000000000e+09
2.170000000000000000e+02,4.540000000000000000e+02,1.047000000000000000e+03,7.260000000000000000e+02,2.750000000000000000e+02,2.140000000000000000e+02,7.500000000000000000e+01,1.280000000000000000e+02,1.400000000000000133e-01,9.808660200000000000e+09
2.290000000000000000e+02,4.810000000000000000e+02,1.070000000000000000e+03,6.860000000000000000e+02,2.810000000000000000e+02,2.160000000000000000e+02,7.900000000000000000e+01,1.340000000000000000e+02,1.400000000000000133e-01,9.830457800000000000e+09
2.130000000000000000e+02,4.540000000000000000e+02,1.050000000000000000e+03,6.630000000000000000e+02,2.610000000000000000e+02,2.060000000000000000e+02,7.400000000000000000e+01,1.320000000000000000e+02,1.300000000000000044e-01,9.858514800000000000e+09
1.740000000000000000e+02,3.660000000000000000e+02,1.003000000000000000e+03,5.250000000000000000e+02,2.130000000000000000e+02,1.790000000000000000e+02,6.400000000000000000e+01,1.100000000000000000e+02,1.300000000000000044e-01,9.876023700000000000e+09
1.710000000000000000e+02,3.410000000000000000e+02,9.720000000000000000e+02,4.890000000000000000e+02,2.040000000000000000e+02,1.630000000000000000e+02,6.400000000000000000e+01,1.070000000000000000e+02,1.199999999999999956e-01,9.893527400000000000e+09
1.930000000000000000e+02,3.870000000000000000e+02,9.880000000000000000e+02,5.600000000000000000e+02,2.250000000000000000e+02,1.700000000000000000e+02,6.700000000000000000e+01,1.200000000000000000e+02,1.199999999999999956e-01,9.911925200000000000e+09
1.750000000000000000e+02,3.380000000000000000e+02,9.390000000000000000e+02,5.120000000000000000e+02,2.130000000000000000e+02,1.670000000000000000e+02,6.200000000000000000e+01,1.120000000000000000e+02,1.199999999999999956e-01,9.930825400000000000e+09
1.810000000000000000e+02,3.870000000000000000e+02,1.106000000000000000e+03,5.820000000000000000e+02,2.050000000000000000e+02,1.420000000000000000e+02,6.500000000000000000e+01,1.080000000000000000e+02,1.199999999999999956e-01,9.950601700000000000e+09
1.840000000000000000e+02,3.860000000000000000e+02,1.094000000000000000e+03,5.680000000000000000e+02,2.070000000000000000e+02,1.370000000000000000e+02,6.700000000000000000e+01,1.420000000000000000e+02,1.199999999999999956e-01,9.968570500000000000e+09
1.860000000000000000e+02,4.000000000000000000e+02,1.113000000000000000e+03,5.690000000000000000e+02,2.010000000000000000e+02,1.530000000000000000e+02,9.500000000000000000e+01,1.980000000000000000e+02,1.199999999999999956e-01,9.990405000000000000e+09
1.770000000000000000e+02,3.550000000000000000e+02,1.025000000000000000e+03,4.510000000000000000e+02,1.540000000000000000e+02,2.380000000000000000e+02,1.410000000000000000e+02,4.530000000000000000e+02,1.300000000000000044e-01,1.000822050000000000e+10
1.810000000000000000e+02,3.380000000000000000e+02,9.800000000000000000e+02,4.330000000000000000e+02,1.560000000000000000e+02,3.900000000000000000e+02,3.210000000000000000e+02,6.270000000000000000e+02,1.300000000000000044e-01,1.002808270000000000e+10
1.920000000000000000e+02,2.580000000000000000e+02,7.390000000000000000e+02,3.100000000000000000e+02,1.450000000000000000e+02,5.640000000000000000e+02,4.850000000000000000e+02,7.300000000000000000e+02,1.300000000000000044e-01,1.004982400000000000e+10
2.190000000000000000e+02,2.580000000000000000e+02,6.520000000000000000e+02,2.900000000000000000e+02,1.500000000000000000e+02,6.870000000000000000e+02,6.570000000000000000e+02,8.590000000000000000e+02,1.300000000000000044e-01,1.006922440000000000e+10
2.320000000000000000e+02,2.760000000000000000e+02,5.880000000000000000e+02,2.350000000000000000e+02,1.470000000000000000e+02,7.670000000000000000e+02,8.360000000000000000e+02,9.860000000000000000e+02,1.400000000000000133e-01,1.009022470000000000e+10
2.290000000000000000e+02,2.500000000000000000e+02,5.780000000000000000e+02,1.960000000000000000e+02,1.320000000000000000e+02,8.050000000000000000e+02,9.470000000000000000e+02,1.015000000000000000e+03,1.600000000000000033e-01,1.011199640000000000e+10
2.570000000000000000e+02,2.640000000000000000e+02,6.000000000000000000e+02,1.870000000000000000e+02,1.460000000000000000e+02,9.010000000000000000e+02,1.122000000000000000e+03,1.097000000000000000e+03,1.700000000000000122e-01,1.013203280000000000e+10
2.780000000000000000e+02,3.010000000000000000e+02,5.850000000000000000e+02,1.700000000000000000e+02,1.600000000000000000e+02,9.130000000000000000e+02,1.124000000000000000e+03,1.131000000000000000e+03,1.900000000000000022e-01,1.015853190000000000e+10
2.790000000000000000e+02,2.990000000000000000e+02,5.670000000000000000e+02,1.480000000000000000e+02,1.600000000000000000e+02,9.290000000000000000e+02,1.136000000000000000e+03,1.071000000000000000e+03,2.099999999999999922e-01,1.017739670000000000e+10
