2.700000000000000000e+01,5.400000000000000000e+01,2.380000000000000000e+02,1.730000000000000000e+02,4.200000000000000000e+01,3.700000000000000000e+01,2.500000000000000000e+01,4.400000000000000000e+01,6.600000000000000311e-01,4.329907000000000000e+08
2.800000000000000000e+01,5.200000000000000000e+01,2.420000000000000000e+02,1.680000000000000000e+02,4.200000000000000000e+01,3.400000000000000000e+01,2.700000000000000000e+01,4.300000000000000000e+01,6.500000000000000222e-01,4.606599000000000000e+08
3.000000000000000000e+01,4.800000000000000000e+01,2.340000000000000000e+02,1.470000000000000000e+02,3.900000000000000000e+01,3.400000000000000000e+01,2.700000000000000000e+01,4.900000000000000000e+01,6.500000000000000222e-01,9.227671000000000000e+08
3.100000000000000000e+01,5.300000000000000000e+01,2.290000000000000000e+02,1.580000000000000000e+02,3.800000000000000000e+01,3.000000000000000000e+01,2.900000000000000000e+01,4.800000000000000000e+01,6.500000000000000222e-01,9.414158000000000000e+08
3.000000000000000000e+01,4.600000000000000000e+01,1.920000000000000000e+02,1.470000000000000000e+02,3.700000000000000000e+01,2.800000000000000000e+01,2.700000000000000000e+01,4.100000000000000000e+01,6.500000000000000222e-01,9.607662000000000000e+08
3.100000000000000000e+01,4.700000000000000000e+01,1.800000000000000000e+02,1.180000000000000000e+02,3.000000000000000000e+01,2.700000000000000000e+01,2.500000000000000000e+01,3.800000000000000000e+01,6.500000000000000222e-01,9.797944000000000000e+08
3.200000000000000000e+01,5.000000000000000000e+01,1.890000000000000000e+02,1.340000000000000000e+02,2.900000000000000000e+01,2.800000000000000000e+01,2.300000000000000000e+01,4.100000000000000000e+01,6.400000000000000133e-01,9.980786000000000000e+08
2.800000000000000000e+01,5.600000000000000000e+01,2.300000000000000000e+02,1.440000000000000000e+02,3.100000000000000000e+01,2.700000000000000000e+01,2.600000000000000000e+01,3.400000000000000000e+01,6.400000000000000133e-01,1.015957600000000000e+09
2.800000000000000000e+01,5.200000000000000000e+01,2.260000000000000000e+02,1.630000000000000000e+02,3.200000000000000000e+01,2.900000000000000000e+01,2.600000000000000000e+01,3.200000000000000000e+01,6.400000000000000133e-01,1.035101200000000000e+09
3.000000000000000000e+01,5.300000000000000000e+01,2.280000000000000000e+02,1.660000000000000000e+02,3.300000000000000000e+01,3.300000000000000000e+01,2.600000000000000000e+01,3.200000000000000000e+01,6.400000000000000133e-01,1.053882200000000000e+09
3.300000000000000000e+01,5.400000000000000000e+01,2.760000000000000000e+02,1.700000000000000000e+02,3.700000000000000000e+01,3.300000000000000000e+01,2.800000000000000000e+01,3.900000000000000000e+01,6.400000000000000133e-01,1.072616700000000000e+09
3.200000000000000000e+01,4.900000000000000000e+01,2.820000000000000000e+02,1.610000000000000000e+02,3.600000000000000000e+01,3.200000000000000000e+01,2.800000000000000000e+01,3.500000000000000000e+01,6.400000000000000133e-01,1.090898300000000000e+09
3.300000000000000000e+01,5.000000000000000000e+01,2.860000000000000000e+02,1.660000000000000000e+02,3.400000000000000000e+01,3.400000000000000000e+01,2.500000000000000000e+01,3.700000000000000000e+01,6.400000000000000133e-01,1.109299100000000000e+09
3.400000000000000000e+01,5.100000000000000000e+01,2.880000000000000000e+02,1.360000000000000000e+02,3.300000000000000000e+01,3.600000000000000000e+01,2.500000000000000000e+01,4.000000000000000000e+01,6.400000000000000133e-01,1.127070100000000000e+09
3.400000000000000000e+01,5.200000000000000000e+01,2.930000000000000000e+02,1.620000000000000000e+02,3.800000000000000000e+01,3.400000000000000000e+01,2.500000000000000000e+01,4.200000000000000000e+01,6.400000000000000133e-01,1.145538500000000000e+09
3.000000000000000000e+01,5.300000000000000000e+01,2.480000000000000000e+02,1.580000000000000000e+02,3.700000000000000000e+01,3.700000000000000000e+01,2.400000000000000000e+01,3.600000000000000000e+01,6.400000000000000133e-01,1.164065600000000000e+09
3.400000000000000000e+01,5.600000000000000000e+01,2.120000000000000000e+02,1.530000000000000000e+02,4.000000000000000000e+01,3.800000000000000000e+01,2.400000000000000000e+01,3.700000000000000000e+01,6.400000000000000133e-01,1.182584200000000000e+09
3.100000000000000000e+01,5.400000000000000000e+01,2.010000000000000000e+02,1.670000000000000000e+02,4.200000000000000000e+01,3.600000000000000000e+01,2.900000000000000000e+01,3.600000000000000000e+01,6.400000000000000133e-01,1.200612200000000000e+09
3.100000000000000000e+01,5.500000000000000000e+01,2.030000000000000000e+02,1.700000000000000000e+02,4.300000000000000000e+01,3.800000000000000000e+01,3.000000000000000000e+01,3.600000000000000000e+01,6.500000000000000222e-01,1.219715500000000000e+09
3.000000000000000000e+01,5.500000000000000000e+01,1.950000000000000000e+02,1.470000000000000000e+02,4.000000000000000000e+01,3.600000000000000000e+01,2.900000000000000000e+01,3.400000000000000000e+01,6.400000000000000133e-01,1.238318700000000000e+09
3.000000000000000000e+01,5.500000000000000000e+01,2.110000000000000000e+02,1.560000000000000000e+02,3.900000000000000000e+01,3.300000000000000000e+01,2.800000000000000000e+01,3.400000000000000000e+01,6.400000000000000133e-01,1.257945800000000000e+09
3.000000000000000000e+01,5.400000000000000000e+01,2.510000000000000000e+02,1.800000000000000000e+02,4.000000000000000000e+01,3.300000000000000000e+01,2.800000000000000000e+01,3.300000000000000000e+01,6.400000000000000133e-01,1.276277800000000000e+09
3.100000000000000000e+01,5.100000000000000000e+01,2.650000000000000000e+02,1.790000000000000000e+02,4.000000000000000000e+01,3.400000000000000000e+01,2.600000000000000000e+01,3.400000000000000000e+01,6.400000000000000133e-01,1.295155200000000000e+09
3.000000000000000000e+01,4.700000000000000000e+01,2.530000000000000000e+02,1.730000000000000000e+02,3.800000000000000000e+01,2.900000000000000000e+01,2.400000000000000000e+01,3.300000000000000000e+01,6.500000000000000222e-01,1.312900300000000000e+09
3.500000000000000000e+01,4.600000000000000000e+01,2.580000000000000000e+02,1.710000000000000000e+02,3.600000000000000000e+01,2.900000000000000000e+01,2.300000000000000000e+01,3.300000000000000000e+01,6.500000000000000222e-01,1.331736400000000000e+09
3.600000000000000000e+01,4.400000000000000000e+01,2.540000000000000000e+02,1.720000000000000000e+02,3.900000000000000000e+01,3.000000000000000000e+01,2.600000000000000000e+01,3.300000000000000000e+01,6.500000000000000222e-01,1.350689600000000000e+09
3.400000000000000000e+01,4.500000000000000000e+01,2.190000000000000000e+02,1.410000000000000000e+02,3.900000000000000000e+01,3.000000000000000000e+01,2.700000000000000000e+01,3.700000000000000000e+01,6.500000000000000222e-01,1.368981200000000000e+09
3.600000000000000000e+01,4.400000000000000000e+01,1.690000000000000000e+02,1.100000000000000000e+02,3.800000000000000000e+01,3.200000000000000000e+01,2.400000000000000000e+01,3.600000000000000000e+01,6.500000000000000222e-01,1.387735900000000000e+09
3.700000000000000000e+01,4.500000000000000000e+01,1.790000000000000000e+02,1.190000000000000000e+02,3.900000000000000000e+01,3.000000000000000000e+01,2.600000000000000000e+01,3.700000000000000000e+01,6.400000000000000133e-01,1.406329500000000000e+09
3.200000000000000000e+01,4.500000000000000000e+01,1.700000000000000000e+02,1.250000000000000000e+02,4.000000000000000000e+01,3.000000000000000000e+01,2.600000000000000000e+01,3.900000000000000000e+01,6.400000000000000133e-01,1.424911500000000000e+09
3.100000000000000000e+01,4.500000000000000000e+01,1.740000000000000000e+02,1.120000000000000000e+02,3.600000000000000000e+01,2.900000000000000000e+01,2.500000000000000000e+01,3.800000000000000000e+01,6.400000000000000133e-01,1.443891000000000000e+09
3.200000000000000000e+01,4.300000000000000000e+01,1.870000000000000000e+02,1.180000000000000000e+02,3.200000000000000000e+01,3.200000000000000000e+01,2.500000000000000000e+01,3.300000000000000000e+01,6.400000000000000133e-01,1.463444800000000000e+09
2.900000000000000000e+01,4.600000000000000000e+01,2.270000000000000000e+02,1.550000000000000000e+02,3.700000000000000000e+01,2.900000000000000000e+01,2.400000000000000000e+01,3.200000000000000000e+01,6.400000000000000133e-01,1.481807500000000000e+09
2.700000000000000000e+01,4.800000000000000000e+01,2.170000000000000000e+02,1.490000000000000000e+02,3.600000000000000000e+01,3.100000000000000000e+01,2.500000000000000000e+01,3.200000000000000000e+01,6.400000000000000133e-01,1.500388100000000000e+09
2.600000000000000000e+01,4.700000000000000000e+01,2.260000000000000000e+02,1.680000000000000000e+02,3.900000000000000000e+01,3.100000000000000000e+01,2.600000000000000000e+01,3.100000000000000000e+01,6.300000000000000044e-01,1.520262200000000000e+09
2.600000000000000000e+01,4.400000000000000000e+01,2.270000000000000000e+02,1.760000000000000000e+02,3.800000000000000000e+01,3.100000000000000000e+01,2.700000000000000000e+01,3.200000000000000000e+01,6.300000000000000044e-01,1.538916700000000000e+09
2.400000000000000000e+01,4.800000000000000000e+01,2.100000000000000000e+02,1.820000000000000000e+02,3.900000000000000000e+01,3.300000000000000000e+01,2.600000000000000000e+01,3.200000000000000000e+01,6.300000000000000044e-01,1.557770800000000000e+09
2.400000000000000000e+01,4.300000000000000000e+01,1.630000000000000000e+02,1.490000000000000000e+02,3.500000000000000000e+01,3.400000000000000000e+01,2.700000000000000000e+01,3.100000000000000000e+01,6.300000000000000044e-01,1.576169600000000000e+09
2.400000000000000000e+01,4.100000000000000000e+01,1.770000000000000000e+02,1.520000000000000000e+02,3.500000000000000000e+01,3.400000000000000000e+01,2.500000000000000000e+01,3.000000000000000000e+01,6.300000000000000044e-01,1.594361300000000000e+09
2.300000000000000000e+01,4.300000000000000000e+01,2.100000000000000000e+02,1.330000000000000000e+02,2.900000000000000000e+01,3.100000000000000000e+01,2.500000000000000000e+01,2.800000000000000000e+01,6.400000000000000133e-01,1.613008300000000000e+09
2.500000000000000000e+01,4.500000000000000000e+01,1.970000000000000000e+02,1.290000000000000000e+02,3.000000000000000000e+01,3.600000000000000000e+01,2.200000000000000000e+01,2.600000000000000000e+01,6.400000000000000133e-01,1.632076400000000000e+09
2.300000000000000000e+01,4.300000000000000000e+01,2.050000000000000000e+02,1.170000000000000000e+02,2.900000000000000000e+01,3.200000000000000000e+01,2.200000000000000000e+01,3.600000000000000000e+01,6.400000000000000133e-01,1.650233700000000000e+09
2.500000000000000000e+01,4.600000000000000000e+01,2.600000000000000000e+02,1.330000000000000000e+02,3.100000000000000000e+01,3.200000000000000000e+01,2.200000000000000000e+01,4.000000000000000000e+01,6.400000000000000133e-01,1.668374000000000000e+09
2.600000000000000000e+01,4.600000000000000000e+01,2.830000000000000000e+02,1.400000000000000000e+02,3.100000000000000000e+01,3.200000000000000000e+01,2.200000000000000000e+01,4.000000000000000000e+01,6.400000000000000133e-01,1.687239200000000000e+09
2.600000000000000000e+01,4.800000000000000000e+01,2.670000000000000000e+02,1.660000000000000000e+02,3.600000000000000000e+01,3.300000000000000000e+01,2.200000000000000000e+01,4.000000000000000000e+01,6.400000000000000133e-01,1.705705500000000000e+09
2.500000000000000000e+01,5.000000000000000000e+01,2.670000000000000000e+02,1.690000000000000000e+02,3.700000000000000000e+01,2.900000000000000000e+01,2.400000000000000000e+01,4.400000000000000000e+01,6.400000000000000133e-01,1.724022900000000000e+09
2.700000000000000000e+01,4.900000000000000000e+01,3.210000000000000000e+02,1.690000000000000000e+02,3.900000000000000000e+01,3.000000000000000000e+01,2.400000000000000000e+01,3.900000000000000000e+01,6.400000000000000133e-01,1.742243200000000000e+09
2.600000000000000000e+01,4.800000000000000000e+01,2.770000000000000000e+02,1.590000000000000000e+02,4.000000000000000000e+01,3.000000000000000000e+01,2.400000000000000000e+01,3.600000000000000000e+01,6.300000000000000044e-01,1.762135100000000000e+09
2.600000000000000000e+01,5.500000000000000000e+01,2.760000000000000000e+02,1.760000000000000000e+02,4.500000000000000000e+01,3.200000000000000000e+01,2.600000000000000000e+01,3.500000000000000000e+01,6.400000000000000133e-01,1.781606600000000000e+09
3.000000000000000000e+01,5.000000000000000000e+01,2.610000000000000000e+02,1.440000000000000000e+02,4.100000000000000000e+01,3.500000000000000000e+01,2.600000000000000000e+01,3.700000000000000000e+01,6.400000000000000133e-01,1.800490600000000000e+09
3.200000000000000000e+01,4.800000000000000000e+01,2.730000000000000000e+02,1.340000000000000000e+02,4.200000000000000000e+01,3.700000000000000000e+01,2.700000000000000000e+01,3.200000000000000000e+01,6.400000000000000133e-01,1.819185300000000000e+09
3.200000000000000000e+01,4.500000000000000000e+01,2.240000000000000000e+02,1.560000000000000000e+02,4.400000000000000000e+01,3.600000000000000000e+01,2.800000000000000000e+01,2.800000000000000000e+01,6.400000000000000133e-01,1.837180800000000000e+09
3.000000000000000000e+01,4.700000000000000000e+01,2.200000000000000000e+02,1.550000000000000000e+02,4.200000000000000000e+01,3.500000000000000000e+01,2.600000000000000000e+01,2.600000000000000000e+01,6.400000000000000133e-01,1.857774300000000000e+09
2.900000000000000000e+01,3.600000000000000000e+01,1.750000000000000000e+02,1.220000000000000000e+02,3.700000000000000000e+01,3.500000000000000000e+01,2.500000000000000000e+01,3.300000000000000000e+01,6.400000000000000133e-01,1.876646500000000000e+09
2.700000000000000000e+01,3.700000000000000000e+01,1.740000000000000000e+02,1.280000000000000000e+02,3.700000000000000000e+01,3.000000000000000000e+01,2.500000000000000000e+01,3.500000000000000000e+01,6.400000000000000133e-01,1.894534000000000000e+09
2.700000000000000000e+01,3.900000000000000000e+01,2.180000000000000000e+02,1.290000000000000000e+02,3.500000000000000000e+01,2.800000000000000000e+01,2.300000000000000000e+01,3.700000000000000000e+01,6.400000000000000133e-01,1.912945300000000000e+09
2.800000000000000000e+01,4.300000000000000000e+01,2.030000000000000000e+02,1.040000000000000000e+02,2.900000000000000000e+01,2.700000000000000000e+01,2.300000000000000000e+01,3.700000000000000000e+01,6.300000000000000044e-01,1.931296700000000000e+09
2.900000000000000000e+01,4.200000000000000000e+01,2.180000000000000000e+02,1.210000000000000000e+02,3.100000000000000000e+01,3.200000000000000000e+01,3.100000000000000000e+01,4.500000000000000000e+01,6.300000000000000044e-01,1.948605400000000000e+09
3.000000000000000000e+01,4.100000000000000000e+01,2.170000000000000000e+02,1.250000000000000000e+02,3.200000000000000000e+01,3.000000000000000000e+01,3.000000000000000000e+01,4.100000000000000000e+01,6.300000000000000044e-01,1.965001800000000000e+09
3.000000000000000000e+01,4.200000000000000000e+01,2.180000000000000000e+02,1.200000000000000000e+02,3.100000000000000000e+01,3.000000000000000000e+01,3.000000000000000000e+01,3.500000000000000000e+01,6.300000000000000044e-01,1.982068900000000000e+09
2.900000000000000000e+01,4.100000000000000000e+01,1.580000000000000000e+02,1.290000000000000000e+02,3.300000000000000000e+01,2.900000000000000000e+01,3.000000000000000000e+01,3.500000000000000000e+01,6.300000000000000044e-01,1.999977700000000000e+09
2.800000000000000000e+01,3.900000000000000000e+01,1.460000000000000000e+02,1.230000000000000000e+02,3.400000000000000000e+01,3.400000000000000000e+01,3.000000000000000000e+01,3.400000000000000000e+01,6.300000000000000044e-01,2.018523100000000000e+09
2.900000000000000000e+01,4.000000000000000000e+01,1.730000000000000000e+02,1.250000000000000000e+02,3.400000000000000000e+01,2.900000000000000000e+01,2.400000000000000000e+01,3.100000000000000000e+01,6.300000000000000044e-01,2.035118400000000000e+09
2.700000000000000000e+01,4.500000000000000000e+01,1.770000000000000000e+02,1.270000000000000000e+02,3.200000000000000000e+01,3.000000000000000000e+01,2.600000000000000000e+01,2.900000000000000000e+01,6.199999999999999956e-01,2.052162400000000000e+09
2.600000000000000000e+01,4.400000000000000000e+01,1.840000000000000000e+02,1.290000000000000000e+02,3.200000000000000000e+01,3.000000000000000000e+01,2.600000000000000000e+01,2.900000000000000000e+01,6.199999999999999956e-01,2.068656900000000000e+09
2.600000000000000000e+01,4.600000000000000000e+01,1.780000000000000000e+02,1.260000000000000000e+02,2.900000000000000000e+01,3.000000000000000000e+01,2.600000000000000000e+01,2.900000000000000000e+01,6.199999999999999956e-01,2.085572600000000000e+09
2.700000000000000000e+01,4.200000000000000000e+01,1.790000000000000000e+02,1.230000000000000000e+02,2.800000000000000000e+01,2.700000000000000000e+01,2.700000000000000000e+01,3.300000000000000000e+01,6.199999999999999956e-01,2.102507000000000000e+09
2.600000000000000000e+01,4.200000000000000000e+01,1.720000000000000000e+02,1.260000000000000000e+02,2.700000000000000000e+01,2.800000000000000000e+01,2.700000000000000000e+01,3.000000000000000000e+01,6.199999999999999956e-01,2.119305500000000000e+09
2.500000000000000000e+01,4.000000000000000000e+01,2.270000000000000000e+02,1.710000000000000000e+02,3.400000000000000000e+01,2.800000000000000000e+01,2.500000000000000000e+01,3.000000000000000000e+01,6.199999999999999956e-01,2.135915600000000000e+09
2.800000000000000000e+01,4.300000000000000000e+01,2.310000000000000000e+02,1.700000000000000000e+02,3.300000000000000000e+01,2.900000000000000000e+01,2.700000000000000000e+01,3.100000000000000000e+01,6.300000000000000044e-01,2.152702600000000000e+09
2.600000000000000000e+01,4.200000000000000000e+01,2.290000000000000000e+02,1.930000000000000000e+02,3.800000000000000000e+01,2.900000000000000000e+01,2.600000000000000000e+01,3.200000000000000000e+01,6.300000000000000044e-01,2.169319200000000000e+09
2.600000000000000000e+01,4.500000000000000000e+01,2.310000000000000000e+02,1.930000000000000000e+02,3.700000000000000000e+01,2.700000000000000000e+01,2.400000000000000000e+01,3.000000000000000000e+01,6.300000000000000044e-01,2.185936500000000000e+09
2.700000000000000000e+01,4.800000000000000000e+01,2.240000000000000000e+02,1.830000000000000000e+02,3.900000000000000000e+01,2.700000000000000000e+01,2.300000000000000000e+01,3.000000000000000000e+01,6.300000000000000044e-01,2.203339500000000000e+09
3.100000000000000000e+01,4.700000000000000000e+01,1.720000000000000000e+02,1.360000000000000000e+02,3.200000000000000000e+01,2.600000000000000000e+01,2.500000000000000000e+01,3.200000000000000000e+01,6.300000000000000044e-01,2.221207200000000000e+09
3.100000000000000000e+01,4.700000000000000000e+01,1.760000000000000000e+02,1.810000000000000000e+02,3.700000000000000000e+01,2.800000000000000000e+01,2.400000000000000000e+01,3.300000000000000000e+01,6.400000000000000133e-01,2.238786300000000000e+09
3.100000000000000000e+01,4.600000000000000000e+01,1.770000000000000000e+02,1.490000000000000000e+02,3.200000000000000000e+01,2.700000000000000000e+01,2.400000000000000000e+01,3.300000000000000000e+01,6.400000000000000133e-01,2.255353500000000000e+09
3.100000000000000000e+01,4.400000000000000000e+01,1.750000000000000000e+02,1.560000000000000000e+02,3.800000000000000000e+01,2.700000000000000000e+01,2.300000000000000000e+01,3.100000000000000000e+01,6.400000000000000133e-01,2.273390500000000000e+09
3.000000000000000000e+01,4.200000000000000000e+01,1.830000000000000000e+02,1.710000000000000000e+02,3.900000000000000000e+01,2.900000000000000000e+01,2.400000000000000000e+01,3.400000000000000000e+01,6.400000000000000133e-01,2.290758800000000000e+09
2.800000000000000000e+01,4.100000000000000000e+01,1.730000000000000000e+02,1.690000000000000000e+02,3.900000000000000000e+01,3.000000000000000000e+01,2.500000000000000000e+01,3.400000000000000000e+01,6.400000000000000133e-01,2.308569700000000000e+09
2.700000000000000000e+01,3.900000000000000000e+01,2.180000000000000000e+02,1.530000000000000000e+02,3.700000000000000000e+01,2.800000000000000000e+01,2.600000000000000000e+01,3.200000000000000000e+01,6.400000000000000133e-01,2.326006500000000000e+09
2.700000000000000000e+01,3.900000000000000000e+01,2.180000000000000000e+02,1.590000000000000000e+02,3.600000000000000000e+01,2.900000000000000000e+01,2.600000000000000000e+01,3.100000000000000000e+01,6.500000000000000222e-01,2.342571200000000000e+09
2.500000000000000000e+01,3.800000000000000000e+01,2.250000000000000000e+02,1.630000000000000000e+02,3.400000000000000000e+01,3.000000000000000000e+01,2.600000000000000000e+01,3.300000000000000000e+01,6.500000000000000222e-01,2.359992600000000000e+09
2.300000000000000000e+01,3.400000000000000000e+01,2.130000000000000000e+02,1.490000000000000000e+02,3.400000000000000000e+01,2.800000000000000000e+01,2.600000000000000000e+01,3.300000000000000000e+01,6.400000000000000133e-01,2.377434700000000000e+09
2.200000000000000000e+01,3.700000000000000000e+01,2.430000000000000000e+02,1.580000000000000000e+02,3.500000000000000000e+01,2.700000000000000000e+01,2.400000000000000000e+01,3.100000000000000000e+01,6.400000000000000133e-01,2.394085600000000000e+09
2.500000000000000000e+01,3.800000000000000000e+01,1.990000000000000000e+02,1.440000000000000000e+02,3.600000000000000000e+01,2.700000000000000000e+01,2.500000000000000000e+01,3.500000000000000000e+01,6.400000000000000133e-01,2.412900000000000000e+09
2.300000000000000000e+01,4.000000000000000000e+01,1.960000000000000000e+02,1.490000000000000000e+02,3.700000000000000000e+01,2.700000000000000000e+01,2.500000000000000000e+01,3.900000000000000000e+01,6.400000000000000133e-01,2.430251700000000000e+09
2.800000000000000000e+01,4.200000000000000000e+01,1.980000000000000000e+02,1.500000000000000000e+02,3.500000000000000000e+01,2.600000000000000000e+01,2.600000000000000000e+01,3.900000000000000000e+01,6.400000000000000133e-01,2.447144300000000000e+09
3.000000000000000000e+01,4.300000000000000000e+01,2.110000000000000000e+02,1.700000000000000000e+02,3.500000000000000000e+01,2.600000000000000000e+01,2.400000000000000000e+01,3.700000000000000000e+01,6.400000000000000133e-01,2.464677200000000000e+09
3.300000000000000000e+01,4.800000000000000000e+01,2.000000000000000000e+02,1.730000000000000000e+02,3.700000000000000000e+01,2.800000000000000000e+01,2.600000000000000000e+01,3.900000000000000000e+01,6.400000000000000133e-01,2.482212000000000000e+09
3.000000000000000000e+01,4.800000000000000000e+01,1.980000000000000000e+02,1.700000000000000000e+02,3.800000000000000000e+01,2.800000000000000000e+01,2.600000000000000000e+01,3.500000000000000000e+01,6.400000000000000133e-01,2.499073600000000000e+09
3.000000000000000000e+01,4.700000000000000000e+01,2.160000000000000000e+02,1.680000000000000000e+02,3.700000000000000000e+01,2.800000000000000000e+01,2.700000000000000000e+01,3.200000000000000000e+01,6.500000000000000222e-01,2.516475400000000000e+09
2.600000000000000000e+01,4.300000000000000000e+01,2.080000000000000000e+02,1.550000000000000000e+02,3.500000000000000000e+01,2.800000000000000000e+01,2.500000000000000000e+01,3.000000000000000000e+01,6.500000000000000222e-01,2.533817300000000000e+09
2.600000000000000000e+01,4.200000000000000000e+01,2.140000000000000000e+02,1.340000000000000000e+02,3.100000000000000000e+01,2.500000000000000000e+01,2.800000000000000000e+01,3.200000000000000000e+01,6.400000000000000133e-01,2.550543300000000000e+09
2.400000000000000000e+01,3.400000000000000000e+01,1.890000000000000000e+02,1.330000000000000000e+02,3.100000000000000000e+01,2.600000000000000000e+01,2.700000000000000000e+01,3.200000000000000000e+01,6.400000000000000133e-01,2.567448200000000000e+09
2.500000000000000000e+01,3.600000000000000000e+01,2.340000000000000000e+02,1.420000000000000000e+02,3.100000000000000000e+01,2.700000000000000000e+01,2.600000000000000000e+01,3.200000000000000000e+01,6.400000000000000133e-01,2.584237000000000000e+09
2.600000000000000000e+01,4.300000000000000000e+01,2.230000000000000000e+02,1.380000000000000000e+02,3.200000000000000000e+01,2.900000000000000000e+01,2.400000000000000000e+01,3.000000000000000000e+01,6.400000000000000133e-01,2.601279400000000000e+09
2.700000000000000000e+01,4.500000000000000000e+01,2.400000000000000000e+02,1.530000000000000000e+02,3.600000000000000000e+01,3.100000000000000000e+01,2.600000000000000000e+01,3.300000000000000000e+01,6.400000000000000133e-01,2.619267200000000000e+09
2.900000000000000000e+01,4.800000000000000000e+01,2.240000000000000000e+02,1.470000000000000000e+02,3.600000000000000000e+01,3.500000000000000000e+01,2.600000000000000000e+01,3.200000000000000000e+01,6.400000000000000133e-01,2.637473000000000000e+09
2.700000000000000000e+01,4.800000000000000000e+01,2.480000000000000000e+02,1.750000000000000000e+02,4.100000000000000000e+01,3.400000000000000000e+01,2.400000000000000000e+01,3.100000000000000000e+01,6.400000000000000133e-01,2.655182000000000000e+09
2.800000000000000000e+01,4.600000000000000000e+01,2.500000000000000000e+02,1.690000000000000000e+02,4.000000000000000000e+01,3.300000000000000000e+01,2.400000000000000000e+01,3.200000000000000000e+01,6.400000000000000133e-01,2.672373700000000000e+09
3.000000000000000000e+01,5.000000000000000000e+01,2.660000000000000000e+02,1.740000000000000000e+02,4.000000000000000000e+01,3.200000000000000000e+01,2.400000000000000000e+01,3.500000000000000000e+01,6.400000000000000133e-01,2.689677500000000000e+09
2.800000000000000000e+01,4.900000000000000000e+01,2.590000000000000000e+02,1.710000000000000000e+02,3.800000000000000000e+01,3.500000000000000000e+01,2.300000000000000000e+01,3.400000000000000000e+01,6.400000000000000133e-01,2.705936600000000000e+09
2.800000000000000000e+01,5.000000000000000000e+01,2.470000000000000000e+02,1.700000000000000000e+02,3.800000000000000000e+01,3.300000000000000000e+01,2.100000000000000000e+01,3.300000000000000000e+01,6.500000000000000222e-01,2.722464600000000000e+09
3.000000000000000000e+01,5.100000000000000000e+01,2.380000000000000000e+02,1.620000000000000000e+02,3.400000000000000000e+01,3.300000000000000000e+01,2.500000000000000000e+01,3.900000000000000000e+01,6.500000000000000222e-01,2.740872200000000000e+09
3.100000000000000000e+01,5.100000000000000000e+01,2.230000000000000000e+02,1.780000000000000000e+02,3.400000000000000000e+01,3.300000000000000000e+01,2.400000000000000000e+01,4.100000000000000000e+01,6.500000000000000222e-01,2.759930800000000000e+09
2.700000000000000000e+01,4.200000000000000000e+01,2.010000000000000000e+02,1.720000000000000000e+02,3.500000000000000000e+01,3.500000000000000000e+01,2.400000000000000000e+01,3.800000000000000000e+01,6.500000000000000222e-01,2.777137500000000000e+09
2.900000000000000000e+01,4.400000000000000000e+01,1.830000000000000000e+02,1.820000000000000000e+02,3.300000000000000000e+01,3.100000000000000000e+01,2.300000000000000000e+01,3.700000000000000000e+01,6.500000000000000222e-01,2.793930100000000000e+09
2.800000000000000000e+01,4.300000000000000000e+01,1.840000000000000000e+02,1.860000000000000000e+02,3.400000000000000000e+01,3.100000000000000000e+01,2.500000000000000000e+01,3.800000000000000000e+01,6.500000000000000222e-01,2.810652100000000000e+09
2.800000000000000000e+01,4.400000000000000000e+01,2.780000000000000000e+02,1.850000000000000000e+02,3.300000000000000000e+01,3.100000000000000000e+01,2.200000000000000000e+01,3.500000000000000000e+01,6.500000000000000222e-01,2.828106800000000000e+09
2.500000000000000000e+01,4.400000000000000000e+01,2.500000000000000000e+02,1.580000000000000000e+02,3.200000000000000000e+01,3.000000000000000000e+01,2.100000000000000000e+01,3.300000000000000000e+01,6.500000000000000222e-01,2.845491000000000000e+09
2.700000000000000000e+01,4.500000000000000000e+01,2.520000000000000000e+02,1.690000000000000000e+02,3.600000000000000000e+01,2.800000000000000000e+01,2.100000000000000000e+01,3.300000000000000000e+01,6.600000000000000311e-01,2.863240800000000000e+09
2.900000000000000000e+01,4.400000000000000000e+01,2.590000000000000000e+02,1.490000000000000000e+02,3.600000000000000000e+01,2.800000000000000000e+01,2.200000000000000000e+01,3.300000000000000000e+01,6.600000000000000311e-01,2.880294400000000000e+09
2.600000000000000000e+01,4.300000000000000000e+01,2.900000000000000000e+02,1.570000000000000000e+02,3.700000000000000000e+01,2.800000000000000000e+01,2.000000000000000000e+01,3.300000000000000000e+01,6.500000000000000222e-01,2.897667200000000000e+09
2.400000000000000000e+01,4.000000000000000000e+01,2.120000000000000000e+02,1.270000000000000000e+02,3.600000000000000000e+01,2.800000000000000000e+01,2.000000000000000000e+01,2.700000000000000000e+01,6.500000000000000222e-01,2.914454900000000000e+09
2.600000000000000000e+01,3.900000000000000000e+01,2.100000000000000000e+02,1.230000000000000000e+02,3.500000000000000000e+01,3.000000000000000000e+01,2.000000000000000000e+01,2.600000000000000000e+01,6.500000000000000222e-01,2.931497600000000000e+09
2.600000000000000000e+01,3.500000000000000000e+01,2.290000000000000000e+02,1.160000000000000000e+02,3.200000000000000000e+01,2.900000000000000000e+01,2.400000000000000000e+01,2.800000000000000000e+01,6.500000000000000222e-01,2.950673000000000000e+09
2.400000000000000000e+01,3.600000000000000000e+01,2.270000000000000000e+02,1.180000000000000000e+02,3.100000000000000000e+01,2.800000000000000000e+01,2.300000000000000000e+01,2.700000000000000000e+01,6.500000000000000222e-01,2.968637100000000000e+09
2.500000000000000000e+01,3.500000000000000000e+01,2.090000000000000000e+02,1.160000000000000000e+02,3.100000000000000000e+01,2.800000000000000000e+01,2.400000000000000000e+01,2.800000000000000000e+01,6.400000000000000133e-01,2.985376900000000000e+09
2.500000000000000000e+01,3.600000000000000000e+01,1.970000000000000000e+02,1.470000000000000000e+02,3.200000000000000000e+01,2.600000000000000000e+01,2.300000000000000000e+01,2.800000000000000000e+01,6.400000000000000133e-01,3.003627000000000000e+09
2.300000000000000000e+01,3.800000000000000000e+01,2.150000000000000000e+02,1.520000000000000000e+02,3.200000000000000000e+01,2.400000000000000000e+01,2.300000000000000000e+01,2.600000000000000000e+01,6.400000000000000133e-01,3.020662400000000000e+09
2.300000000000000000e+01,4.100000000000000000e+01,1.870000000000000000e+02,1.440000000000000000e+02,3.400000000000000000e+01,2.400000000000000000e+01,1.900000000000000000e+01,2.800000000000000000e+01,6.400000000000000133e-01,3.037506400000000000e+09
2.400000000000000000e+01,4.300000000000000000e+01,2.470000000000000000e+02,1.710000000000000000e+02,3.500000000000000000e+01,2.500000000000000000e+01,2.200000000000000000e+01,3.000000000000000000e+01,6.400000000000000133e-01,3.054636700000000000e+09
2.600000000000000000e+01,4.400000000000000000e+01,2.690000000000000000e+02,1.650000000000000000e+02,3.400000000000000000e+01,2.700000000000000000e+01,1.900000000000000000e+01,2.900000000000000000e+01,6.300000000000000044e-01,3.071743500000000000e+09
2.600000000000000000e+01,4.300000000000000000e+01,2.640000000000000000e+02,1.410000000000000000e+02,3.200000000000000000e+01,3.100000000000000000e+01,2.200000000000000000e+01,3.200000000000000000e+01,6.300000000000000044e-01,3.089862000000000000e+09
2.500000000000000000e+01,4.300000000000000000e+01,2.670000000000000000e+02,1.610000000000000000e+02,3.500000000000000000e+01,3.300000000000000000e+01,2.300000000000000000e+01,3.400000000000000000e+01,6.300000000000000044e-01,3.106770500000000000e+09
2.500000000000000000e+01,4.000000000000000000e+01,2.720000000000000000e+02,1.600000000000000000e+02,3.200000000000000000e+01,3.100000000000000000e+01,2.400000000000000000e+01,3.200000000000000000e+01,6.400000000000000133e-01,3.124013100000000000e+09
2.400000000000000000e+01,4.200000000000000000e+01,2.790000000000000000e+02,1.680000000000000000e+02,3.600000000000000000e+01,3.100000000000000000e+01,2.200000000000000000e+01,3.000000000000000000e+01,6.400000000000000133e-01,3.140863900000000000e+09
2.300000000000000000e+01,4.000000000000000000e+01,2.450000000000000000e+02,1.680000000000000000e+02,3.600000000000000000e+01,2.900000000000000000e+01,2.500000000000000000e+01,3.100000000000000000e+01,6.400000000000000133e-01,3.157465300000000000e+09
2.400000000000000000e+01,4.100000000000000000e+01,2.450000000000000000e+02,1.660000000000000000e+02,3.700000000000000000e+01,2.600000000000000000e+01,2.400000000000000000e+01,3.100000000000000000e+01,6.400000000000000133e-01,3.175686600000000000e+09
2.400000000000000000e+01,3.800000000000000000e+01,2.340000000000000000e+02,1.410000000000000000e+02,3.600000000000000000e+01,2.300000000000000000e+01,2.300000000000000000e+01,2.900000000000000000e+01,6.400000000000000133e-01,3.192652800000000000e+09
2.400000000000000000e+01,3.900000000000000000e+01,2.390000000000000000e+02,1.450000000000000000e+02,3.600000000000000000e+01,2.300000000000000000e+01,2.200000000000000000e+01,2.800000000000000000e+01,6.400000000000000133e-01,3.210011400000000000e+09
2.400000000000000000e+01,3.500000000000000000e+01,1.590000000000000000e+02,1.040000000000000000e+02,3.000000000000000000e+01,2.700000000000000000e+01,2.600000000000000000e+01,3.500000000000000000e+01,6.400000000000000133e-01,3.229368700000000000e+09
2.300000000000000000e+01,3.600000000000000000e+01,1.540000000000000000e+02,1.400000000000000000e+02,3.500000000000000000e+01,2.700000000000000000e+01,2.500000000000000000e+01,3.200000000000000000e+01,6.400000000000000133e-01,3.247383600000000000e+09
2.200000000000000000e+01,3.700000000000000000e+01,1.530000000000000000e+02,1.400000000000000000e+02,3.500000000000000000e+01,2.700000000000000000e+01,2.500000000000000000e+01,3.100000000000000000e+01,6.400000000000000133e-01,3.265513600000000000e+09
2.400000000000000000e+01,4.400000000000000000e+01,2.000000000000000000e+02,1.560000000000000000e+02,3.300000000000000000e+01,2.900000000000000000e+01,2.600000000000000000e+01,3.600000000000000000e+01,6.400000000000000133e-01,3.284028000000000000e+09
2.400000000000000000e+01,4.400000000000000000e+01,1.930000000000000000e+02,1.720000000000000000e+02,3.400000000000000000e+01,3.200000000000000000e+01,2.600000000000000000e+01,3.900000000000000000e+01,6.400000000000000133e-01,3.302601800000000000e+09
2.600000000000000000e+01,4.500000000000000000e+01,1.940000000000000000e+02,1.690000000000000000e+02,3.400000000000000000e+01,3.000000000000000000e+01,2.400000000000000000e+01,3.700000000000000000e+01,6.400000000000000133e-01,3.320314500000000000e+09
2.800000000000000000e+01,4.200000000000000000e+01,2.190000000000000000e+02,1.380000000000000000e+02,2.900000000000000000e+01,2.900000000000000000e+01,2.400000000000000000e+01,4.000000000000000000e+01,6.400000000000000133e-01,3.337119200000000000e+09
2.900000000000000000e+01,4.300000000000000000e+01,2.210000000000000000e+02,1.520000000000000000e+02,3.200000000000000000e+01,3.100000000000000000e+01,2.500000000000000000e+01,4.000000000000000000e+01,6.400000000000000133e-01,3.354536300000000000e+09
2.800000000000000000e+01,3.600000000000000000e+01,2.000000000000000000e+02,1.520000000000000000e+02,3.200000000000000000e+01,3.200000000000000000e+01,2.600000000000000000e+01,3.800000000000000000e+01,6.400000000000000133e-01,3.374074100000000000e+09
2.900000000000000000e+01,3.600000000000000000e+01,1.910000000000000000e+02,1.290000000000000000e+02,3.100000000000000000e+01,3.000000000000000000e+01,2.600000000000000000e+01,3.700000000000000000e+01,6.400000000000000133e-01,3.392597900000000000e+09
2.800000000000000000e+01,3.400000000000000000e+01,2.190000000000000000e+02,1.450000000000000000e+02,3.200000000000000000e+01,2.900000000000000000e+01,2.700000000000000000e+01,3.600000000000000000e+01,6.400000000000000133e-01,3.410166500000000000e+09
2.900000000000000000e+01,3.700000000000000000e+01,2.000000000000000000e+02,1.500000000000000000e+02,3.300000000000000000e+01,3.000000000000000000e+01,2.800000000000000000e+01,4.100000000000000000e+01,6.400000000000000133e-01,3.429096700000000000e+09
2.900000000000000000e+01,3.900000000000000000e+01,2.080000000000000000e+02,1.350000000000000000e+02,3.000000000000000000e+01,2.800000000000000000e+01,2.700000000000000000e+01,4.200000000000000000e+01,6.400000000000000133e-01,3.447845000000000000e+09
2.800000000000000000e+01,4.300000000000000000e+01,2.210000000000000000e+02,1.370000000000000000e+02,3.100000000000000000e+01,2.700000000000000000e+01,2.700000000000000000e+01,4.100000000000000000e+01,6.400000000000000133e-01,3.465991700000000000e+09
2.600000000000000000e+01,4.500000000000000000e+01,2.280000000000000000e+02,1.320000000000000000e+02,2.900000000000000000e+01,2.800000000000000000e+01,3.000000000000000000e+01,4.300000000000000000e+01,6.400000000000000133e-01,3.484094500000000000e+09
2.500000000000000000e+01,5.100000000000000000e+01,2.180000000000000000e+02,1.480000000000000000e+02,3.200000000000000000e+01,2.600000000000000000e+01,2.900000000000000000e+01,4.000000000000000000e+01,6.400000000000000133e-01,3.502019800000000000e+09
2.300000000000000000e+01,5.100000000000000000e+01,2.390000000000000000e+02,1.640000000000000000e+02,3.200000000000000000e+01,3.000000000000000000e+01,2.700000000000000000e+01,3.300000000000000000e+01,6.400000000000000133e-01,3.521496400000000000e+09
2.000000000000000000e+01,4.600000000000000000e+01,2.460000000000000000e+02,1.660000000000000000e+02,3.300000000000000000e+01,2.900000000000000000e+01,2.600000000000000000e+01,3.300000000000000000e+01,6.400000000000000133e-01,3.541205700000000000e+09
2.400000000000000000e+01,4.300000000000000000e+01,2.180000000000000000e+02,1.560000000000000000e+02,3.400000000000000000e+01,2.900000000000000000e+01,2.600000000000000000e+01,3.600000000000000000e+01,6.400000000000000133e-01,3.559138300000000000e+09
2.300000000000000000e+01,4.700000000000000000e+01,2.260000000000000000e+02,1.600000000000000000e+02,3.500000000000000000e+01,2.700000000000000000e+01,2.300000000000000000e+01,3.400000000000000000e+01,6.400000000000000133e-01,3.577823900000000000e+09
2.400000000000000000e+01,4.000000000000000000e+01,2.120000000000000000e+02,1.260000000000000000e+02,3.300000000000000000e+01,2.900000000000000000e+01,2.500000000000000000e+01,3.300000000000000000e+01,6.400000000000000133e-01,3.596903100000000000e+09
2.300000000000000000e+01,3.900000000000000000e+01,2.190000000000000000e+02,1.180000000000000000e+02,3.200000000000000000e+01,2.700000000000000000e+01,2.400000000000000000e+01,3.300000000000000000e+01,6.400000000000000133e-01,3.615386900000000000e+09
2.400000000000000000e+01,4.000000000000000000e+01,2.050000000000000000e+02,1.190000000000000000e+02,3.300000000000000000e+01,2.800000000000000000e+01,2.500000000000000000e+01,3.700000000000000000e+01,6.400000000000000133e-01,3.633195400000000000e+09
2.400000000000000000e+01,4.000000000000000000e+01,1.950000000000000000e+02,1.070000000000000000e+02,3.000000000000000000e+01,2.600000000000000000e+01,2.400000000000000000e+01,3.400000000000000000e+01,6.300000000000000044e-01,3.651205300000000000e+09
2.400000000000000000e+01,3.600000000000000000e+01,1.810000000000000000e+02,1.180000000000000000e+02,3.000000000000000000e+01,2.700000000000000000e+01,2.500000000000000000e+01,3.400000000000000000e+01,6.300000000000000044e-01,3.673283300000000000e+09
2.500000000000000000e+01,4.000000000000000000e+01,2.110000000000000000e+02,1.280000000000000000e+02,3.000000000000000000e+01,3.000000000000000000e+01,2.500000000000000000e+01,3.400000000000000000e+01,6.300000000000000044e-01,3.692526300000000000e+09
2.500000000000000000e+01,3.900000000000000000e+01,1.850000000000000000e+02,1.170000000000000000e+02,3.000000000000000000e+01,3.100000000000000000e+01,2.700000000000000000e+01,3.400000000000000000e+01,6.300000000000000044e-01,3.714896600000000000e+09
2.600000000000000000e+01,4.100000000000000000e+01,1.950000000000000000e+02,1.270000000000000000e+02,3.000000000000000000e+01,3.000000000000000000e+01,2.600000000000000000e+01,3.100000000000000000e+01,6.300000000000000044e-01,3.733003600000000000e+09
2.400000000000000000e+01,4.000000000000000000e+01,1.990000000000000000e+02,1.310000000000000000e+02,3.100000000000000000e+01,2.900000000000000000e+01,2.600000000000000000e+01,3.000000000000000000e+01,6.300000000000000044e-01,3.750542900000000000e+09
2.600000000000000000e+01,4.500000000000000000e+01,2.430000000000000000e+02,1.240000000000000000e+02,3.300000000000000000e+01,3.500000000000000000e+01,2.700000000000000000e+01,3.000000000000000000e+01,6.300000000000000044e-01,3.773165400000000000e+09
2.700000000000000000e+01,4.200000000000000000e+01,2.220000000000000000e+02,1.380000000000000000e+02,3.500000000000000000e+01,3.500000000000000000e+01,2.800000000000000000e+01,3.500000000000000000e+01,6.199999999999999956e-01,3.791692800000000000e+09
2.600000000000000000e+01,4.200000000000000000e+01,2.160000000000000000e+02,1.300000000000000000e+02,3.400000000000000000e+01,3.100000000000000000e+01,2.800000000000000000e+01,3.600000000000000000e+01,6.199999999999999956e-01,3.813660100000000000e+09
2.600000000000000000e+01,4.000000000000000000e+01,2.000000000000000000e+02,1.160000000000000000e+02,3.400000000000000000e+01,3.300000000000000000e+01,2.700000000000000000e+01,3.400000000000000000e+01,6.199999999999999956e-01,3.833206400000000000e+09
2.600000000000000000e+01,4.300000000000000000e+01,2.340000000000000000e+02,1.480000000000000000e+02,3.800000000000000000e+01,3.500000000000000000e+01,2.700000000000000000e+01,3.700000000000000000e+01,6.199999999999999956e-01,3.855028800000000000e+09
2.500000000000000000e+01,3.700000000000000000e+01,2.130000000000000000e+02,1.460000000000000000e+02,3.500000000000000000e+01,3.200000000000000000e+01,2.500000000000000000e+01,3.600000000000000000e+01,6.199999999999999956e-01,3.873583800000000000e+09
2.500000000000000000e+01,4.200000000000000000e+01,2.140000000000000000e+02,1.310000000000000000e+02,3.300000000000000000e+01,2.900000000000000000e+01,2.500000000000000000e+01,3.300000000000000000e+01,6.199999999999999956e-01,3.891638400000000000e+09
2.700000000000000000e+01,4.300000000000000000e+01,2.100000000000000000e+02,1.480000000000000000e+02,3.600000000000000000e+01,3.100000000000000000e+01,2.400000000000000000e+01,3.400000000000000000e+01,6.199999999999999956e-01,3.912779500000000000e+09
2.800000000000000000e+01,4.000000000000000000e+01,2.450000000000000000e+02,1.580000000000000000e+02,3.400000000000000000e+01,3.100000000000000000e+01,2.300000000000000000e+01,3.600000000000000000e+01,6.300000000000000044e-01,3.933372500000000000e+09
2.800000000000000000e+01,3.800000000000000000e+01,2.230000000000000000e+02,1.410000000000000000e+02,3.100000000000000000e+01,3.400000000000000000e+01,2.300000000000000000e+01,3.400000000000000000e+01,6.300000000000000044e-01,3.955181000000000000e+09
2.800000000000000000e+01,3.500000000000000000e+01,2.040000000000000000e+02,1.400000000000000000e+02,3.100000000000000000e+01,3.100000000000000000e+01,2.500000000000000000e+01,3.500000000000000000e+01,6.300000000000000044e-01,3.973488900000000000e+09
3.000000000000000000e+01,3.700000000000000000e+01,2.140000000000000000e+02,1.400000000000000000e+02,3.000000000000000000e+01,3.200000000000000000e+01,2.200000000000000000e+01,3.400000000000000000e+01,6.300000000000000044e-01,3.991825600000000000e+09
2.800000000000000000e+01,4.500000000000000000e+01,2.730000000000000000e+02,1.630000000000000000e+02,3.000000000000000000e+01,3.200000000000000000e+01,2.600000000000000000e+01,3.900000000000000000e+01,6.300000000000000044e-01,4.013517200000000000e+09
2.900000000000000000e+01,4.800000000000000000e+01,2.480000000000000000e+02,1.520000000000000000e+02,3.000000000000000000e+01,3.200000000000000000e+01,2.600000000000000000e+01,3.600000000000000000e+01,6.300000000000000044e-01,4.033926500000000000e+09
2.900000000000000000e+01,4.700000000000000000e+01,2.390000000000000000e+02,1.420000000000000000e+02,3.000000000000000000e+01,3.000000000000000000e+01,2.600000000000000000e+01,3.700000000000000000e+01,6.400000000000000133e-01,4.054939100000000000e+09
2.800000000000000000e+01,4.900000000000000000e+01,2.790000000000000000e+02,1.510000000000000000e+02,3.200000000000000000e+01,3.000000000000000000e+01,2.400000000000000000e+01,3.600000000000000000e+01,6.400000000000000133e-01,4.073862900000000000e+09
2.600000000000000000e+01,4.400000000000000000e+01,2.780000000000000000e+02,1.560000000000000000e+02,3.600000000000000000e+01,3.400000000000000000e+01,2.500000000000000000e+01,4.000000000000000000e+01,6.400000000000000133e-01,4.092287600000000000e+09
2.700000000000000000e+01,3.600000000000000000e+01,2.300000000000000000e+02,1.350000000000000000e+02,3.300000000000000000e+01,3.300000000000000000e+01,2.400000000000000000e+01,3.300000000000000000e+01,6.400000000000000133e-01,4.112787900000000000e+09
2.500000000000000000e+01,3.900000000000000000e+01,2.410000000000000000e+02,1.420000000000000000e+02,3.500000000000000000e+01,3.300000000000000000e+01,2.500000000000000000e+01,3.600000000000000000e+01,6.400000000000000133e-01,4.130707200000000000e+09
2.500000000000000000e+01,3.900000000000000000e+01,2.400000000000000000e+02,1.520000000000000000e+02,3.600000000000000000e+01,3.300000000000000000e+01,2.400000000000000000e+01,3.500000000000000000e+01,6.400000000000000133e-01,4.153880700000000000e+09
2.800000000000000000e+01,3.600000000000000000e+01,1.870000000000000000e+02,1.410000000000000000e+02,3.400000000000000000e+01,3.300000000000000000e+01,2.600000000000000000e+01,3.800000000000000000e+01,6.400000000000000133e-01,4.173653900000000000e+09
2.600000000000000000e+01,3.800000000000000000e+01,2.220000000000000000e+02,1.550000000000000000e+02,3.300000000000000000e+01,2.900000000000000000e+01,2.600000000000000000e+01,3.200000000000000000e+01,6.400000000000000133e-01,4.194799600000000000e+09
2.800000000000000000e+01,4.300000000000000000e+01,2.870000000000000000e+02,1.860000000000000000e+02,3.800000000000000000e+01,3.200000000000000000e+01,2.400000000000000000e+01,3.300000000000000000e+01,6.400000000000000133e-01,4.213315800000000000e+09
2.700000000000000000e+01,4.200000000000000000e+01,2.750000000000000000e+02,1.830000000000000000e+02,3.600000000000000000e+01,2.900000000000000000e+01,2.400000000000000000e+01,4.000000000000000000e+01,6.400000000000000133e-01,4.232548800000000000e+09
2.800000000000000000e+01,4.600000000000000000e+01,2.900000000000000000e+02,2.010000000000000000e+02,3.600000000000000000e+01,2.900000000000000000e+01,2.500000000000000000e+01,3.900000000000000000e+01,6.400000000000000133e-01,4.252416500000000000e+09
2.800000000000000000e+01,4.700000000000000000e+01,3.520000000000000000e+02,2.300000000000000000e+02,3.900000000000000000e+01,3.000000000000000000e+01,2.600000000000000000e+01,3.700000000000000000e+01,6.500000000000000222e-01,4.271230600000000000e+09
2.900000000000000000e+01,4.700000000000000000e+01,3.280000000000000000e+02,2.260000000000000000e+02,3.800000000000000000e+01,3.000000000000000000e+01,2.400000000000000000e+01,4.100000000000000000e+01,6.500000000000000222e-01,4.293695900000000000e+09
2.800000000000000000e+01,4.200000000000000000e+01,2.690000000000000000e+02,1.930000000000000000e+02,3.500000000000000000e+01,2.800000000000000000e+01,2.600000000000000000e+01,4.600000000000000000e+01,6.500000000000000222e-01,4.312657900000000000e+09
3.000000000000000000e+01,3.900000000000000000e+01,3.050000000000000000e+02,2.010000000000000000e+02,3.700000000000000000e+01,3.000000000000000000e+01,2.400000000000000000e+01,3.900000000000000000e+01,6.500000000000000222e-01,4.334840400000000000e+09
3.100000000000000000e+01,3.700000000000000000e+01,3.010000000000000000e+02,2.010000000000000000e+02,4.000000000000000000e+01,3.300000000000000000e+01,2.700000000000000000e+01,4.200000000000000000e+01,6.500000000000000222e-01,4.353466800000000000e+09
3.100000000000000000e+01,3.600000000000000000e+01,2.250000000000000000e+02,1.650000000000000000e+02,3.800000000000000000e+01,3.800000000000000000e+01,2.900000000000000000e+01,4.800000000000000000e+01,6.600000000000000311e-01,4.375875200000000000e+09
3.200000000000000000e+01,3.800000000000000000e+01,2.160000000000000000e+02,1.740000000000000000e+02,4.100000000000000000e+01,3.700000000000000000e+01,3.000000000000000000e+01,4.700000000000000000e+01,6.600000000000000311e-01,4.395741800000000000e+09
3.200000000000000000e+01,3.900000000000000000e+01,2.270000000000000000e+02,1.830000000000000000e+02,4.200000000000000000e+01,3.800000000000000000e+01,2.900000000000000000e+01,4.100000000000000000e+01,6.600000000000000311e-01,4.414996600000000000e+09
2.900000000000000000e+01,5.000000000000000000e+01,2.310000000000000000e+02,1.800000000000000000e+02,4.200000000000000000e+01,3.600000000000000000e+01,2.900000000000000000e+01,4.000000000000000000e+01,6.600000000000000311e-01,4.434212500000000000e+09
2.700000000000000000e+01,5.000000000000000000e+01,2.270000000000000000e+02,1.580000000000000000e+02,3.900000000000000000e+01,3.600000000000000000e+01,2.900000000000000000e+01,4.300000000000000000e+01,6.600000000000000311e-01,4.453243800000000000e+09
2.600000000000000000e+01,5.100000000000000000e+01,2.290000000000000000e+02,1.670000000000000000e+02,3.800000000000000000e+01,2.900000000000000000e+01,2.600000000000000000e+01,3.600000000000000000e+01,6.600000000000000311e-01,4.473087800000000000e+09
2.400000000000000000e+01,4.800000000000000000e+01,2.600000000000000000e+02,1.570000000000000000e+02,3.700000000000000000e+01,2.900000000000000000e+01,2.600000000000000000e+01,3.500000000000000000e+01,6.600000000000000311e-01,4.491227100000000000e+09
2.400000000000000000e+01,4.600000000000000000e+01,2.430000000000000000e+02,1.430000000000000000e+02,3.500000000000000000e+01,2.800000000000000000e+01,2.600000000000000000e+01,3.600000000000000000e+01,6.600000000000000311e-01,4.519031900000000000e+09
2.500000000000000000e+01,3.700000000000000000e+01,1.970000000000000000e+02,1.360000000000000000e+02,3.300000000000000000e+01,2.800000000000000000e+01,2.500000000000000000e+01,3.700000000000000000e+01,6.500000000000000222e-01,4.538409900000000000e+09
2.700000000000000000e+01,3.900000000000000000e+01,1.880000000000000000e+02,1.420000000000000000e+02,3.800000000000000000e+01,2.800000000000000000e+01,2.300000000000000000e+01,3.300000000000000000e+01,6.500000000000000222e-01,4.556964100000000000e+09
2.600000000000000000e+01,3.900000000000000000e+01,2.040000000000000000e+02,1.400000000000000000e+02,3.600000000000000000e+01,2.700000000000000000e+01,2.300000000000000000e+01,3.000000000000000000e+01,6.500000000000000222e-01,4.575382600000000000e+09
2.500000000000000000e+01,4.000000000000000000e+01,1.740000000000000000e+02,1.340000000000000000e+02,3.400000000000000000e+01,2.800000000000000000e+01,2.100000000000000000e+01,3.100000000000000000e+01,6.500000000000000222e-01,4.594955800000000000e+09
2.600000000000000000e+01,4.500000000000000000e+01,1.810000000000000000e+02,1.370000000000000000e+02,3.600000000000000000e+01,2.800000000000000000e+01,2.200000000000000000e+01,2.900000000000000000e+01,6.500000000000000222e-01,4.613401700000000000e+09
2.800000000000000000e+01,4.700000000000000000e+01,2.100000000000000000e+02,1.440000000000000000e+02,3.600000000000000000e+01,2.800000000000000000e+01,2.200000000000000000e+01,2.700000000000000000e+01,6.500000000000000222e-01,4.632228600000000000e+09
2.800000000000000000e+01,4.700000000000000000e+01,2.470000000000000000e+02,1.600000000000000000e+02,3.200000000000000000e+01,2.500000000000000000e+01,2.300000000000000000e+01,2.900000000000000000e+01,6.500000000000000222e-01,4.653196300000000000e+09
2.700000000000000000e+01,4.800000000000000000e+01,2.310000000000000000e+02,1.540000000000000000e+02,3.200000000000000000e+01,2.500000000000000000e+01,2.400000000000000000e+01,3.300000000000000000e+01,6.500000000000000222e-01,4.672211600000000000e+09
3.000000000000000000e+01,4.600000000000000000e+01,2.180000000000000000e+02,1.430000000000000000e+02,3.300000000000000000e+01,2.700000000000000000e+01,2.500000000000000000e+01,3.100000000000000000e+01,6.400000000000000133e-01,4.694315200000000000e+09
2.800000000000000000e+01,4.500000000000000000e+01,2.360000000000000000e+02,1.730000000000000000e+02,3.300000000000000000e+01,2.600000000000000000e+01,2.400000000000000000e+01,3.000000000000000000e+01,6.400000000000000133e-01,4.712855600000000000e+09
2.700000000000000000e+01,4.600000000000000000e+01,2.040000000000000000e+02,1.660000000000000000e+02,3.100000000000000000e+01,2.600000000000000000e+01,2.600000000000000000e+01,3.200000000000000000e+01,6.400000000000000133e-01,4.735474200000000000e+09
2.600000000000000000e+01,4.400000000000000000e+01,1.910000000000000000e+02,1.730000000000000000e+02,3.400000000000000000e+01,2.700000000000000000e+01,2.500000000000000000e+01,2.900000000000000000e+01,6.400000000000000133e-01,4.755523700000000000e+09
2.500000000000000000e+01,4.300000000000000000e+01,2.340000000000000000e+02,1.950000000000000000e+02,3.800000000000000000e+01,3.000000000000000000e+01,2.400000000000000000e+01,2.600000000000000000e+01,6.500000000000000222e-01,4.774588400000000000e+09
2.400000000000000000e+01,4.400000000000000000e+01,2.430000000000000000e+02,1.950000000000000000e+02,3.600000000000000000e+01,2.600000000000000000e+01,2.500000000000000000e+01,2.800000000000000000e+01,6.500000000000000222e-01,4.794091200000000000e+09
2.500000000000000000e+01,5.000000000000000000e+01,2.440000000000000000e+02,1.760000000000000000e+02,3.400000000000000000e+01,2.900000000000000000e+01,2.600000000000000000e+01,3.200000000000000000e+01,6.500000000000000222e-01,4.813944300000000000e+09
2.600000000000000000e+01,4.700000000000000000e+01,2.610000000000000000e+02,1.870000000000000000e+02,3.700000000000000000e+01,2.900000000000000000e+01,2.600000000000000000e+01,3.100000000000000000e+01,6.500000000000000222e-01,4.834339800000000000e+09
2.600000000000000000e+01,5.000000000000000000e+01,2.640000000000000000e+02,1.710000000000000000e+02,3.400000000000000000e+01,3.000000000000000000e+01,2.600000000000000000e+01,3.100000000000000000e+01,6.500000000000000222e-01,4.854537300000000000e+09
2.700000000000000000e+01,4.900000000000000000e+01,2.340000000000000000e+02,1.760000000000000000e+02,3.200000000000000000e+01,2.800000000000000000e+01,2.700000000000000000e+01,3.700000000000000000e+01,6.500000000000000222e-01,4.876147000000000000e+09
2.600000000000000000e+01,5.400000000000000000e+01,2.440000000000000000e+02,1.740000000000000000e+02,3.400000000000000000e+01,3.000000000000000000e+01,2.600000000000000000e+01,3.700000000000000000e+01,6.600000000000000311e-01,4.894894400000000000e+09
2.600000000000000000e+01,4.700000000000000000e+01,2.250000000000000000e+02,1.730000000000000000e+02,3.500000000000000000e+01,2.700000000000000000e+01,2.700000000000000000e+01,3.500000000000000000e+01,6.600000000000000311e-01,4.913381000000000000e+09
2.500000000000000000e+01,4.700000000000000000e+01,2.150000000000000000e+02,1.640000000000000000e+02,3.300000000000000000e+01,2.600000000000000000e+01,2.400000000000000000e+01,3.200000000000000000e+01,6.600000000000000311e-01,4.932810000000000000e+09
2.300000000000000000e+01,4.200000000000000000e+01,1.820000000000000000e+02,1.460000000000000000e+02,3.400000000000000000e+01,2.500000000000000000e+01,2.500000000000000000e+01,3.500000000000000000e+01,6.600000000000000311e-01,4.952142800000000000e+09
2.600000000000000000e+01,5.100000000000000000e+01,2.060000000000000000e+02,1.270000000000000000e+02,3.600000000000000000e+01,2.700000000000000000e+01,2.400000000000000000e+01,3.400000000000000000e+01,6.600000000000000311e-01,4.975346700000000000e+09
2.600000000000000000e+01,4.600000000000000000e+01,1.920000000000000000e+02,1.330000000000000000e+02,3.500000000000000000e+01,2.500000000000000000e+01,2.400000000000000000e+01,3.400000000000000000e+01,6.600000000000000311e-01,4.994734000000000000e+09
2.500000000000000000e+01,4.600000000000000000e+01,2.080000000000000000e+02,1.360000000000000000e+02,3.600000000000000000e+01,2.600000000000000000e+01,2.300000000000000000e+01,3.400000000000000000e+01,6.500000000000000222e-01,5.013152400000000000e+09
2.700000000000000000e+01,4.500000000000000000e+01,2.010000000000000000e+02,1.330000000000000000e+02,3.500000000000000000e+01,2.800000000000000000e+01,2.300000000000000000e+01,3.600000000000000000e+01,6.500000000000000222e-01,5.032956100000000000e+09
2.900000000000000000e+01,4.500000000000000000e+01,2.170000000000000000e+02,1.350000000000000000e+02,3.400000000000000000e+01,2.900000000000000000e+01,2.200000000000000000e+01,3.700000000000000000e+01,6.500000000000000222e-01,5.052167700000000000e+09
2.800000000000000000e+01,3.700000000000000000e+01,2.100000000000000000e+02,1.230000000000000000e+02,3.000000000000000000e+01,2.800000000000000000e+01,2.100000000000000000e+01,3.300000000000000000e+01,6.500000000000000222e-01,5.074057900000000000e+09
2.900000000000000000e+01,3.900000000000000000e+01,2.070000000000000000e+02,1.200000000000000000e+02,3.100000000000000000e+01,2.900000000000000000e+01,2.300000000000000000e+01,3.500000000000000000e+01,6.500000000000000222e-01,5.092734800000000000e+09
2.900000000000000000e+01,4.300000000000000000e+01,2.220000000000000000e+02,1.200000000000000000e+02,3.100000000000000000e+01,2.800000000000000000e+01,2.300000000000000000e+01,3.500000000000000000e+01,6.400000000000000133e-01,5.115275000000000000e+09
2.800000000000000000e+01,4.100000000000000000e+01,2.140000000000000000e+02,1.210000000000000000e+02,3.200000000000000000e+01,2.700000000000000000e+01,2.300000000000000000e+01,3.500000000000000000e+01,6.400000000000000133e-01,5.133751500000000000e+09
2.500000000000000000e+01,4.200000000000000000e+01,2.080000000000000000e+02,1.210000000000000000e+02,3.500000000000000000e+01,2.700000000000000000e+01,2.400000000000000000e+01,3.200000000000000000e+01,6.400000000000000133e-01,5.152036800000000000e+09
2.500000000000000000e+01,4.200000000000000000e+01,1.870000000000000000e+02,1.140000000000000000e+02,3.500000000000000000e+01,2.600000000000000000e+01,2.300000000000000000e+01,3.500000000000000000e+01,6.400000000000000133e-01,5.172509400000000000e+09
2.300000000000000000e+01,4.000000000000000000e+01,1.850000000000000000e+02,1.140000000000000000e+02,3.300000000000000000e+01,2.300000000000000000e+01,2.100000000000000000e+01,3.200000000000000000e+01,6.300000000000000044e-01,5.191279000000000000e+09
2.200000000000000000e+01,3.800000000000000000e+01,1.640000000000000000e+02,1.050000000000000000e+02,3.300000000000000000e+01,2.400000000000000000e+01,2.200000000000000000e+01,3.200000000000000000e+01,6.300000000000000044e-01,5.214140600000000000e+09
2.400000000000000000e+01,3.900000000000000000e+01,1.990000000000000000e+02,1.180000000000000000e+02,3.100000000000000000e+01,2.500000000000000000e+01,2.500000000000000000e+01,3.200000000000000000e+01,6.300000000000000044e-01,5.234312500000000000e+09
2.400000000000000000e+01,4.000000000000000000e+01,1.870000000000000000e+02,1.360000000000000000e+02,2.800000000000000000e+01,2.400000000000000000e+01,2.400000000000000000e+01,3.600000000000000000e+01,6.300000000000000044e-01,5.255135200000000000e+09
2.300000000000000000e+01,3.800000000000000000e+01,1.810000000000000000e+02,1.420000000000000000e+02,2.900000000000000000e+01,2.500000000000000000e+01,2.400000000000000000e+01,3.400000000000000000e+01,6.300000000000000044e-01,5.277059600000000000e+09
2.400000000000000000e+01,3.600000000000000000e+01,2.150000000000000000e+02,1.480000000000000000e+02,2.900000000000000000e+01,2.600000000000000000e+01,2.500000000000000000e+01,3.500000000000000000e+01,6.300000000000000044e-01,5.296971400000000000e+09
2.400000000000000000e+01,3.300000000000000000e+01,2.490000000000000000e+02,1.500000000000000000e+02,2.700000000000000000e+01,2.500000000000000000e+01,2.600000000000000000e+01,3.700000000000000000e+01,6.300000000000000044e-01,5.315860600000000000e+09
2.100000000000000000e+01,3.100000000000000000e+01,2.390000000000000000e+02,1.580000000000000000e+02,2.900000000000000000e+01,2.600000000000000000e+01,2.300000000000000000e+01,3.600000000000000000e+01,6.300000000000000044e-01,5.334643900000000000e+09
2.200000000000000000e+01,3.200000000000000000e+01,2.430000000000000000e+02,1.340000000000000000e+02,2.800000000000000000e+01,2.700000000000000000e+01,2.400000000000000000e+01,3.100000000000000000e+01,6.300000000000000044e-01,5.356145400000000000e+09
2.400000000000000000e+01,3.400000000000000000e+01,2.670000000000000000e+02,1.330000000000000000e+02,2.900000000000000000e+01,2.800000000000000000e+01,2.600000000000000000e+01,3.300000000000000000e+01,6.300000000000000044e-01,5.376194000000000000e+09
2.400000000000000000e+01,3.500000000000000000e+01,2.530000000000000000e+02,1.350000000000000000e+02,3.300000000000000000e+01,3.000000000000000000e+01,2.500000000000000000e+01,3.500000000000000000e+01,6.300000000000000044e-01,5.395846300000000000e+09
2.500000000000000000e+01,3.500000000000000000e+01,2.050000000000000000e+02,1.230000000000000000e+02,3.500000000000000000e+01,3.000000000000000000e+01,2.600000000000000000e+01,3.300000000000000000e+01,6.300000000000000044e-01,5.416062300000000000e+09
2.500000000000000000e+01,3.600000000000000000e+01,1.970000000000000000e+02,1.320000000000000000e+02,3.500000000000000000e+01,3.000000000000000000e+01,2.600000000000000000e+01,3.200000000000000000e+01,6.300000000000000044e-01,5.434473100000000000e+09
2.300000000000000000e+01,3.500000000000000000e+01,1.960000000000000000e+02,1.420000000000000000e+02,3.500000000000000000e+01,2.900000000000000000e+01,2.600000000000000000e+01,3.500000000000000000e+01,6.300000000000000044e-01,5.454164500000000000e+09
2.400000000000000000e+01,3.900000000000000000e+01,2.450000000000000000e+02,1.600000000000000000e+02,3.800000000000000000e+01,3.400000000000000000e+01,2.700000000000000000e+01,3.500000000000000000e+01,6.300000000000000044e-01,5.474460700000000000e+09
2.400000000000000000e+01,4.300000000000000000e+01,2.580000000000000000e+02,1.670000000000000000e+02,3.600000000000000000e+01,3.300000000000000000e+01,2.900000000000000000e+01,3.200000000000000000e+01,6.300000000000000044e-01,5.495868100000000000e+09
2.500000000000000000e+01,4.900000000000000000e+01,2.700000000000000000e+02,1.720000000000000000e+02,3.600000000000000000e+01,3.400000000000000000e+01,2.700000000000000000e+01,3.100000000000000000e+01,6.300000000000000044e-01,5.515156500000000000e+09
2.600000000000000000e+01,4.800000000000000000e+01,2.620000000000000000e+02,1.520000000000000000e+02,3.700000000000000000e+01,3.200000000000000000e+01,2.700000000000000000e+01,3.100000000000000000e+01,6.300000000000000044e-01,5.533442900000000000e+09
2.500000000000000000e+01,4.900000000000000000e+01,2.710000000000000000e+02,1.620000000000000000e+02,3.800000000000000000e+01,3.200000000000000000e+01,2.700000000000000000e+01,3.100000000000000000e+01,6.300000000000000044e-01,5.553261100000000000e+09
2.300000000000000000e+01,4.500000000000000000e+01,2.020000000000000000e+02,1.420000000000000000e+02,3.300000000000000000e+01,2.500000000000000000e+01,2.300000000000000000e+01,2.700000000000000000e+01,6.300000000000000044e-01,5.572180200000000000e+09
2.300000000000000000e+01,4.100000000000000000e+01,1.810000000000000000e+02,1.200000000000000000e+02,3.300000000000000000e+01,2.500000000000000000e+01,2.300000000000000000e+01,2.700000000000000000e+01,6.300000000000000044e-01,5.594448900000000000e+09
2.200000000000000000e+01,4.100000000000000000e+01,1.640000000000000000e+02,1.230000000000000000e+02,3.200000000000000000e+01,2.600000000000000000e+01,2.100000000000000000e+01,2.800000000000000000e+01,6.300000000000000044e-01,5.612877000000000000e+09
2.100000000000000000e+01,4.300000000000000000e+01,1.690000000000000000e+02,1.240000000000000000e+02,3.000000000000000000e+01,2.600000000000000000e+01,2.200000000000000000e+01,3.100000000000000000e+01,6.300000000000000044e-01,5.636238600000000000e+09
2.300000000000000000e+01,4.100000000000000000e+01,1.770000000000000000e+02,1.160000000000000000e+02,3.200000000000000000e+01,2.800000000000000000e+01,2.200000000000000000e+01,3.000000000000000000e+01,6.300000000000000044e-01,5.655980400000000000e+09
2.300000000000000000e+01,4.000000000000000000e+01,2.240000000000000000e+02,1.340000000000000000e+02,3.400000000000000000e+01,2.700000000000000000e+01,2.300000000000000000e+01,3.100000000000000000e+01,6.300000000000000044e-01,5.675359000000000000e+09
2.600000000000000000e+01,4.400000000000000000e+01,2.180000000000000000e+02,1.340000000000000000e+02,3.200000000000000000e+01,2.900000000000000000e+01,2.100000000000000000e+01,3.300000000000000000e+01,6.300000000000000044e-01,5.695085100000000000e+09
2.500000000000000000e+01,3.600000000000000000e+01,2.170000000000000000e+02,1.220000000000000000e+02,3.100000000000000000e+01,2.800000000000000000e+01,2.200000000000000000e+01,3.500000000000000000e+01,6.300000000000000044e-01,5.713934200000000000e+09
2.500000000000000000e+01,3.700000000000000000e+01,2.210000000000000000e+02,1.330000000000000000e+02,3.000000000000000000e+01,3.100000000000000000e+01,2.000000000000000000e+01,3.200000000000000000e+01,6.300000000000000044e-01,5.734970900000000000e+09
2.300000000000000000e+01,3.800000000000000000e+01,2.290000000000000000e+02,1.390000000000000000e+02,2.700000000000000000e+01,2.900000000000000000e+01,2.000000000000000000e+01,3.100000000000000000e+01,6.300000000000000044e-01,5.754387000000000000e+09
2.600000000000000000e+01,3.800000000000000000e+01,1.890000000000000000e+02,1.350000000000000000e+02,2.600000000000000000e+01,3.300000000000000000e+01,2.100000000000000000e+01,4.000000000000000000e+01,6.300000000000000044e-01,5.773228900000000000e+09
2.300000000000000000e+01,3.500000000000000000e+01,1.800000000000000000e+02,1.380000000000000000e+02,2.600000000000000000e+01,2.900000000000000000e+01,2.100000000000000000e+01,3.800000000000000000e+01,6.300000000000000044e-01,5.792582200000000000e+09
2.200000000000000000e+01,3.400000000000000000e+01,1.890000000000000000e+02,1.590000000000000000e+02,2.700000000000000000e+01,2.800000000000000000e+01,2.100000000000000000e+01,3.600000000000000000e+01,6.300000000000000044e-01,5.816346200000000000e+09
2.500000000000000000e+01,4.000000000000000000e+01,2.290000000000000000e+02,1.520000000000000000e+02,2.700000000000000000e+01,2.800000000000000000e+01,2.400000000000000000e+01,3.600000000000000000e+01,6.300000000000000044e-01,5.835069000000000000e+09
2.700000000000000000e+01,4.100000000000000000e+01,2.120000000000000000e+02,1.440000000000000000e+02,3.300000000000000000e+01,2.800000000000000000e+01,2.600000000000000000e+01,4.600000000000000000e+01,6.300000000000000044e-01,5.854838200000000000e+09
2.600000000000000000e+01,4.000000000000000000e+01,2.170000000000000000e+02,1.490000000000000000e+02,3.400000000000000000e+01,2.500000000000000000e+01,2.600000000000000000e+01,3.900000000000000000e+01,6.300000000000000044e-01,5.874610000000000000e+09
2.700000000000000000e+01,4.100000000000000000e+01,2.250000000000000000e+02,1.550000000000000000e+02,3.500000000000000000e+01,2.600000000000000000e+01,2.800000000000000000e+01,3.900000000000000000e+01,6.300000000000000044e-01,5.896065000000000000e+09
2.900000000000000000e+01,4.300000000000000000e+01,2.670000000000000000e+02,1.490000000000000000e+02,3.600000000000000000e+01,2.700000000000000000e+01,2.700000000000000000e+01,4.100000000000000000e+01,6.300000000000000044e-01,5.916910700000000000e+09
2.800000000000000000e+01,3.600000000000000000e+01,2.320000000000000000e+02,1.600000000000000000e+02,3.700000000000000000e+01,2.900000000000000000e+01,2.700000000000000000e+01,4.300000000000000000e+01,6.400000000000000133e-01,5.935954700000000000e+09
2.700000000000000000e+01,3.400000000000000000e+01,2.210000000000000000e+02,1.500000000000000000e+02,3.200000000000000000e+01,2.900000000000000000e+01,2.500000000000000000e+01,3.300000000000000000e+01,6.400000000000000133e-01,5.955629100000000000e+09
3.000000000000000000e+01,3.800000000000000000e+01,3.050000000000000000e+02,2.120000000000000000e+02,3.800000000000000000e+01,3.100000000000000000e+01,2.600000000000000000e+01,3.200000000000000000e+01,6.400000000000000133e-01,5.976745200000000000e+09
3.000000000000000000e+01,3.600000000000000000e+01,3.090000000000000000e+02,2.110000000000000000e+02,3.500000000000000000e+01,3.100000000000000000e+01,2.500000000000000000e+01,3.400000000000000000e+01,6.400000000000000133e-01,5.996139700000000000e+09
2.700000000000000000e+01,3.600000000000000000e+01,2.750000000000000000e+02,2.040000000000000000e+02,3.400000000000000000e+01,3.200000000000000000e+01,2.600000000000000000e+01,3.700000000000000000e+01,6.400000000000000133e-01,6.015475600000000000e+09
2.700000000000000000e+01,3.900000000000000000e+01,2.760000000000000000e+02,2.110000000000000000e+02,3.700000000000000000e+01,3.000000000000000000e+01,2.600000000000000000e+01,3.400000000000000000e+01,6.400000000000000133e-01,6.035610400000000000e+09
2.600000000000000000e+01,3.900000000000000000e+01,2.880000000000000000e+02,2.110000000000000000e+02,3.500000000000000000e+01,2.900000000000000000e+01,2.600000000000000000e+01,3.100000000000000000e+01,6.500000000000000222e-01,6.053933300000000000e+09
2.200000000000000000e+01,3.600000000000000000e+01,2.000000000000000000e+02,1.330000000000000000e+02,3.000000000000000000e+01,2.800000000000000000e+01,2.800000000000000000e+01,3.100000000000000000e+01,6.500000000000000222e-01,6.074340800000000000e+09
2.100000000000000000e+01,3.400000000000000000e+01,1.940000000000000000e+02,1.250000000000000000e+02,3.200000000000000000e+01,2.900000000000000000e+01,2.900000000000000000e+01,3.900000000000000000e+01,6.500000000000000222e-01,6.094228300000000000e+09
2.400000000000000000e+01,3.500000000000000000e+01,2.050000000000000000e+02,1.370000000000000000e+02,3.300000000000000000e+01,2.700000000000000000e+01,2.800000000000000000e+01,3.500000000000000000e+01,6.500000000000000222e-01,6.114396300000000000e+09
2.300000000000000000e+01,3.300000000000000000e+01,2.150000000000000000e+02,1.110000000000000000e+02,3.000000000000000000e+01,2.800000000000000000e+01,2.700000000000000000e+01,3.800000000000000000e+01,6.500000000000000222e-01,6.134425200000000000e+09
2.300000000000000000e+01,3.200000000000000000e+01,2.100000000000000000e+02,1.300000000000000000e+02,3.600000000000000000e+01,3.000000000000000000e+01,2.700000000000000000e+01,3.900000000000000000e+01,6.500000000000000222e-01,6.155241100000000000e+09
2.100000000000000000e+01,3.600000000000000000e+01,2.080000000000000000e+02,1.300000000000000000e+02,3.500000000000000000e+01,2.900000000000000000e+01,2.400000000000000000e+01,4.000000000000000000e+01,6.400000000000000133e-01,6.174437200000000000e+09
2.200000000000000000e+01,3.700000000000000000e+01,2.160000000000000000e+02,1.350000000000000000e+02,3.500000000000000000e+01,2.900000000000000000e+01,2.200000000000000000e+01,3.100000000000000000e+01,6.400000000000000133e-01,6.193272000000000000e+09
2.100000000000000000e+01,3.600000000000000000e+01,1.950000000000000000e+02,1.270000000000000000e+02,3.600000000000000000e+01,2.800000000000000000e+01,2.200000000000000000e+01,3.000000000000000000e+01,6.400000000000000133e-01,6.212992200000000000e+09
2.200000000000000000e+01,3.600000000000000000e+01,1.770000000000000000e+02,1.280000000000000000e+02,3.800000000000000000e+01,2.600000000000000000e+01,2.000000000000000000e+01,3.100000000000000000e+01,6.400000000000000133e-01,6.231838300000000000e+09
2.400000000000000000e+01,3.800000000000000000e+01,1.570000000000000000e+02,1.080000000000000000e+02,3.200000000000000000e+01,2.300000000000000000e+01,2.100000000000000000e+01,3.100000000000000000e+01,6.300000000000000044e-01,6.254500700000000000e+09
2.600000000000000000e+01,3.400000000000000000e+01,1.590000000000000000e+02,1.220000000000000000e+02,3.400000000000000000e+01,2.700000000000000000e+01,2.100000000000000000e+01,2.900000000000000000e+01,6.300000000000000044e-01,6.274934500000000000e+09
2.700000000000000000e+01,3.400000000000000000e+01,1.290000000000000000e+02,1.200000000000000000e+02,3.600000000000000000e+01,3.000000000000000000e+01,1.900000000000000000e+01,3.000000000000000000e+01,6.300000000000000044e-01,6.295551000000000000e+09
2.600000000000000000e+01,3.400000000000000000e+01,1.470000000000000000e+02,1.240000000000000000e+02,3.600000000000000000e+01,3.100000000000000000e+01,2.100000000000000000e+01,3.300000000000000000e+01,6.199999999999999956e-01,6.315746200000000000e+09
2.600000000000000000e+01,3.600000000000000000e+01,1.440000000000000000e+02,1.140000000000000000e+02,3.300000000000000000e+01,3.000000000000000000e+01,2.200000000000000000e+01,3.400000000000000000e+01,6.199999999999999956e-01,6.336718500000000000e+09
2.800000000000000000e+01,3.700000000000000000e+01,1.410000000000000000e+02,1.150000000000000000e+02,3.700000000000000000e+01,3.100000000000000000e+01,2.100000000000000000e+01,3.400000000000000000e+01,6.199999999999999956e-01,6.354751900000000000e+09
2.800000000000000000e+01,3.700000000000000000e+01,1.210000000000000000e+02,1.020000000000000000e+02,4.100000000000000000e+01,3.200000000000000000e+01,2.200000000000000000e+01,3.500000000000000000e+01,6.199999999999999956e-01,6.374220100000000000e+09
2.700000000000000000e+01,3.900000000000000000e+01,1.370000000000000000e+02,1.120000000000000000e+02,4.300000000000000000e+01,3.100000000000000000e+01,2.200000000000000000e+01,3.400000000000000000e+01,6.099999999999999867e-01,6.394721200000000000e+09
2.800000000000000000e+01,3.700000000000000000e+01,1.080000000000000000e+02,9.700000000000000000e+01,4.000000000000000000e+01,2.900000000000000000e+01,2.100000000000000000e+01,3.400000000000000000e+01,6.099999999999999867e-01,6.415857500000000000e+09
2.800000000000000000e+01,3.600000000000000000e+01,1.470000000000000000e+02,1.110000000000000000e+02,4.100000000000000000e+01,3.200000000000000000e+01,2.300000000000000000e+01,2.900000000000000000e+01,6.099999999999999867e-01,6.435956200000000000e+09
2.600000000000000000e+01,3.100000000000000000e+01,1.460000000000000000e+02,1.110000000000000000e+02,4.100000000000000000e+01,3.300000000000000000e+01,2.500000000000000000e+01,3.300000000000000000e+01,5.999999999999999778e-01,6.455460400000000000e+09
2.300000000000000000e+01,3.100000000000000000e+01,1.480000000000000000e+02,1.030000000000000000e+02,3.600000000000000000e+01,3.100000000000000000e+01,2.600000000000000000e+01,3.400000000000000000e+01,5.999999999999999778e-01,6.475421900000000000e+09
2.300000000000000000e+01,3.000000000000000000e+01,1.590000000000000000e+02,1.020000000000000000e+02,3.400000000000000000e+01,3.000000000000000000e+01,2.700000000000000000e+01,3.500000000000000000e+01,5.999999999999999778e-01,6.496538600000000000e+09
2.600000000000000000e+01,2.900000000000000000e+01,1.560000000000000000e+02,1.040000000000000000e+02,3.500000000000000000e+01,3.200000000000000000e+01,2.600000000000000000e+01,3.600000000000000000e+01,5.999999999999999778e-01,6.517880700000000000e+09
2.600000000000000000e+01,2.900000000000000000e+01,1.270000000000000000e+02,8.900000000000000000e+01,3.400000000000000000e+01,2.900000000000000000e+01,2.400000000000000000e+01,3.800000000000000000e+01,5.899999999999999689e-01,6.537626200000000000e+09
2.600000000000000000e+01,3.000000000000000000e+01,1.370000000000000000e+02,1.160000000000000000e+02,3.300000000000000000e+01,3.000000000000000000e+01,2.300000000000000000e+01,3.600000000000000000e+01,5.899999999999999689e-01,6.557138400000000000e+09
2.600000000000000000e+01,4.000000000000000000e+01,1.480000000000000000e+02,1.200000000000000000e+02,3.400000000000000000e+01,2.900000000000000000e+01,2.300000000000000000e+01,3.400000000000000000e+01,5.899999999999999689e-01,6.576859400000000000e+09
2.600000000000000000e+01,3.900000000000000000e+01,1.440000000000000000e+02,1.170000000000000000e+02,3.300000000000000000e+01,3.000000000000000000e+01,2.400000000000000000e+01,3.600000000000000000e+01,5.899999999999999689e-01,6.595856800000000000e+09
2.300000000000000000e+01,4.000000000000000000e+01,1.710000000000000000e+02,1.240000000000000000e+02,3.300000000000000000e+01,2.700000000000000000e+01,2.600000000000000000e+01,3.400000000000000000e+01,5.899999999999999689e-01,6.614524000000000000e+09
2.100000000000000000e+01,4.000000000000000000e+01,1.690000000000000000e+02,1.250000000000000000e+02,3.400000000000000000e+01,3.500000000000000000e+01,2.800000000000000000e+01,3.100000000000000000e+01,5.899999999999999689e-01,6.634411200000000000e+09
2.200000000000000000e+01,3.900000000000000000e+01,1.670000000000000000e+02,1.120000000000000000e+02,3.400000000000000000e+01,3.300000000000000000e+01,2.900000000000000000e+01,3.500000000000000000e+01,5.899999999999999689e-01,6.655752600000000000e+09
2.100000000000000000e+01,3.300000000000000000e+01,1.740000000000000000e+02,1.250000000000000000e+02,3.400000000000000000e+01,3.700000000000000000e+01,2.800000000000000000e+01,3.400000000000000000e+01,5.999999999999999778e-01,6.676058300000000000e+09
2.100000000000000000e+01,3.700000000000000000e+01,1.880000000000000000e+02,1.310000000000000000e+02,3.400000000000000000e+01,3.700000000000000000e+01,2.900000000000000000e+01,3.200000000000000000e+01,5.999999999999999778e-01,6.695141500000000000e+09
2.000000000000000000e+01,4.000000000000000000e+01,1.780000000000000000e+02,1.340000000000000000e+02,3.500000000000000000e+01,3.700000000000000000e+01,2.800000000000000000e+01,3.200000000000000000e+01,5.999999999999999778e-01,6.714422100000000000e+09
2.100000000000000000e+01,4.000000000000000000e+01,1.800000000000000000e+02,1.320000000000000000e+02,3.200000000000000000e+01,3.300000000000000000e+01,2.800000000000000000e+01,3.600000000000000000e+01,5.999999999999999778e-01,6.732715900000000000e+09
2.100000000000000000e+01,4.200000000000000000e+01,1.770000000000000000e+02,1.210000000000000000e+02,3.000000000000000000e+01,3.500000000000000000e+01,2.800000000000000000e+01,3.000000000000000000e+01,6.099999999999999867e-01,6.753052800000000000e+09
2.200000000000000000e+01,4.100000000000000000e+01,1.920000000000000000e+02,1.150000000000000000e+02,3.100000000000000000e+01,3.000000000000000000e+01,2.800000000000000000e+01,3.100000000000000000e+01,6.099999999999999867e-01,6.773338400000000000e+09
2.300000000000000000e+01,3.500000000000000000e+01,1.750000000000000000e+02,1.140000000000000000e+02,3.000000000000000000e+01,2.800000000000000000e+01,2.700000000000000000e+01,3.300000000000000000e+01,6.099999999999999867e-01,6.792653700000000000e+09
2.500000000000000000e+01,3.200000000000000000e+01,1.700000000000000000e+02,1.310000000000000000e+02,3.300000000000000000e+01,3.200000000000000000e+01,2.700000000000000000e+01,3.500000000000000000e+01,6.099999999999999867e-01,6.814394400000000000e+09
2.500000000000000000e+01,3.200000000000000000e+01,1.650000000000000000e+02,1.340000000000000000e+02,3.400000000000000000e+01,3.100000000000000000e+01,2.600000000000000000e+01,3.000000000000000000e+01,6.099999999999999867e-01,6.834522400000000000e+09
2.500000000000000000e+01,2.900000000000000000e+01,1.820000000000000000e+02,1.350000000000000000e+02,3.700000000000000000e+01,2.800000000000000000e+01,2.600000000000000000e+01,3.200000000000000000e+01,6.099999999999999867e-01,6.856030200000000000e+09
2.700000000000000000e+01,3.300000000000000000e+01,1.560000000000000000e+02,1.410000000000000000e+02,3.600000000000000000e+01,2.800000000000000000e+01,2.500000000000000000e+01,3.700000000000000000e+01,6.099999999999999867e-01,6.877659900000000000e+09
2.800000000000000000e+01,3.400000000000000000e+01,1.460000000000000000e+02,1.290000000000000000e+02,3.500000000000000000e+01,3.100000000000000000e+01,2.500000000000000000e+01,3.500000000000000000e+01,6.099999999999999867e-01,6.897316900000000000e+09
2.700000000000000000e+01,3.300000000000000000e+01,1.510000000000000000e+02,1.160000000000000000e+02,3.500000000000000000e+01,2.700000000000000000e+01,2.400000000000000000e+01,3.200000000000000000e+01,6.099999999999999867e-01,6.915733800000000000e+09
2.600000000000000000e+01,3.500000000000000000e+01,1.710000000000000000e+02,1.380000000000000000e+02,3.600000000000000000e+01,2.600000000000000000e+01,2.400000000000000000e+01,3.500000000000000000e+01,6.099999999999999867e-01,6.937502400000000000e+09
2.600000000000000000e+01,3.600000000000000000e+01,1.870000000000000000e+02,1.450000000000000000e+02,3.200000000000000000e+01,2.700000000000000000e+01,2.400000000000000000e+01,3.500000000000000000e+01,6.099999999999999867e-01,6.956874900000000000e+09
2.500000000000000000e+01,3.500000000000000000e+01,1.900000000000000000e+02,1.490000000000000000e+02,3.200000000000000000e+01,2.700000000000000000e+01,2.600000000000000000e+01,3.000000000000000000e+01,6.099999999999999867e-01,6.976423400000000000e+09
2.600000000000000000e+01,3.500000000000000000e+01,1.960000000000000000e+02,1.520000000000000000e+02,3.200000000000000000e+01,2.600000000000000000e+01,2.600000000000000000e+01,3.300000000000000000e+01,6.199999999999999956e-01,6.996261300000000000e+09
2.800000000000000000e+01,3.600000000000000000e+01,1.980000000000000000e+02,1.430000000000000000e+02,2.700000000000000000e+01,2.600000000000000000e+01,2.600000000000000000e+01,3.600000000000000000e+01,6.199999999999999956e-01,7.016783000000000000e+09
2.800000000000000000e+01,3.600000000000000000e+01,2.210000000000000000e+02,1.380000000000000000e+02,3.400000000000000000e+01,2.700000000000000000e+01,2.800000000000000000e+01,3.500000000000000000e+01,6.199999999999999956e-01,7.037706500000000000e+09
2.800000000000000000e+01,3.600000000000000000e+01,2.020000000000000000e+02,1.340000000000000000e+02,3.400000000000000000e+01,2.500000000000000000e+01,2.800000000000000000e+01,3.200000000000000000e+01,6.199999999999999956e-01,7.057694200000000000e+09
2.700000000000000000e+01,3.500000000000000000e+01,2.040000000000000000e+02,1.300000000000000000e+02,3.600000000000000000e+01,2.900000000000000000e+01,2.500000000000000000e+01,3.500000000000000000e+01,6.199999999999999956e-01,7.080562500000000000e+09
2.600000000000000000e+01,3.500000000000000000e+01,2.040000000000000000e+02,1.350000000000000000e+02,3.600000000000000000e+01,3.000000000000000000e+01,2.500000000000000000e+01,3.300000000000000000e+01,6.199999999999999956e-01,7.100503800000000000e+09
2.500000000000000000e+01,3.700000000000000000e+01,2.140000000000000000e+02,1.350000000000000000e+02,3.600000000000000000e+01,2.900000000000000000e+01,2.600000000000000000e+01,2.900000000000000000e+01,6.199999999999999956e-01,7.120480300000000000e+09
2.700000000000000000e+01,3.500000000000000000e+01,1.820000000000000000e+02,1.330000000000000000e+02,3.300000000000000000e+01,2.900000000000000000e+01,2.200000000000000000e+01,3.100000000000000000e+01,6.300000000000000044e-01,7.139258200000000000e+09
2.700000000000000000e+01,3.500000000000000000e+01,1.710000000000000000e+02,1.290000000000000000e+02,3.200000000000000000e+01,3.000000000000000000e+01,2.200000000000000000e+01,3.500000000000000000e+01,6.300000000000000044e-01,7.159000400000000000e+09
2.700000000000000000e+01,3.100000000000000000e+01,1.550000000000000000e+02,1.170000000000000000e+02,3.000000000000000000e+01,2.600000000000000000e+01,2.300000000000000000e+01,3.100000000000000000e+01,6.199999999999999956e-01,7.177732900000000000e+09
2.900000000000000000e+01,3.200000000000000000e+01,1.760000000000000000e+02,1.300000000000000000e+02,3.400000000000000000e+01,2.500000000000000000e+01,2.200000000000000000e+01,3.300000000000000000e+01,6.199999999999999956e-01,7.196610800000000000e+09
2.700000000000000000e+01,3.600000000000000000e+01,1.510000000000000000e+02,1.280000000000000000e+02,3.500000000000000000e+01,2.800000000000000000e+01,2.200000000000000000e+01,3.400000000000000000e+01,6.199999999999999956e-01,7.215235800000000000e+09
2.600000000000000000e+01,3.700000000000000000e+01,1.450000000000000000e+02,1.140000000000000000e+02,3.100000000000000000e+01,2.800000000000000000e+01,2.400000000000000000e+01,3.400000000000000000e+01,6.199999999999999956e-01,7.234775100000000000e+09
2.700000000000000000e+01,4.100000000000000000e+01,1.500000000000000000e+02,1.180000000000000000e+02,3.400000000000000000e+01,2.900000000000000000e+01,2.300000000000000000e+01,3.300000000000000000e+01,6.199999999999999956e-01,7.254380800000000000e+09
2.600000000000000000e+01,4.200000000000000000e+01,1.520000000000000000e+02,1.250000000000000000e+02,3.300000000000000000e+01,2.800000000000000000e+01,2.100000000000000000e+01,3.400000000000000000e+01,6.199999999999999956e-01,7.276376400000000000e+09
2.500000000000000000e+01,4.300000000000000000e+01,1.350000000000000000e+02,1.280000000000000000e+02,3.200000000000000000e+01,2.600000000000000000e+01,2.300000000000000000e+01,3.700000000000000000e+01,6.199999999999999956e-01,7.297078900000000000e+09
2.600000000000000000e+01,3.700000000000000000e+01,1.320000000000000000e+02,1.230000000000000000e+02,3.100000000000000000e+01,2.300000000000000000e+01,2.100000000000000000e+01,3.700000000000000000e+01,6.199999999999999956e-01,7.316929300000000000e+09
2.500000000000000000e+01,3.800000000000000000e+01,1.260000000000000000e+02,1.530000000000000000e+02,3.200000000000000000e+01,2.500000000000000000e+01,2.100000000000000000e+01,3.600000000000000000e+01,6.199999999999999956e-01,7.337071900000000000e+09
2.500000000000000000e+01,3.500000000000000000e+01,1.510000000000000000e+02,1.510000000000000000e+02,3.100000000000000000e+01,2.400000000000000000e+01,2.500000000000000000e+01,3.700000000000000000e+01,6.199999999999999956e-01,7.355512600000000000e+09
2.700000000000000000e+01,3.500000000000000000e+01,1.580000000000000000e+02,1.440000000000000000e+02,3.100000000000000000e+01,2.400000000000000000e+01,2.600000000000000000e+01,3.800000000000000000e+01,6.199999999999999956e-01,7.376987900000000000e+09
2.500000000000000000e+01,3.800000000000000000e+01,1.450000000000000000e+02,1.370000000000000000e+02,2.700000000000000000e+01,2.600000000000000000e+01,2.700000000000000000e+01,3.200000000000000000e+01,6.199999999999999956e-01,7.396261500000000000e+09
2.600000000000000000e+01,4.100000000000000000e+01,1.490000000000000000e+02,1.400000000000000000e+02,2.700000000000000000e+01,2.700000000000000000e+01,2.700000000000000000e+01,3.200000000000000000e+01,6.199999999999999956e-01,7.415609200000000000e+09
2.400000000000000000e+01,3.900000000000000000e+01,1.500000000000000000e+02,1.100000000000000000e+02,2.700000000000000000e+01,2.800000000000000000e+01,3.000000000000000000e+01,3.400000000000000000e+01,6.199999999999999956e-01,7.436559700000000000e+09
2.300000000000000000e+01,4.000000000000000000e+01,1.240000000000000000e+02,1.210000000000000000e+02,2.700000000000000000e+01,2.800000000000000000e+01,2.600000000000000000e+01,3.200000000000000000e+01,6.199999999999999956e-01,7.455345700000000000e+09
2.300000000000000000e+01,3.900000000000000000e+01,1.430000000000000000e+02,1.360000000000000000e+02,2.800000000000000000e+01,2.900000000000000000e+01,2.600000000000000000e+01,3.400000000000000000e+01,6.300000000000000044e-01,7.474474000000000000e+09
2.500000000000000000e+01,3.400000000000000000e+01,1.340000000000000000e+02,1.170000000000000000e+02,2.700000000000000000e+01,2.600000000000000000e+01,2.500000000000000000e+01,3.400000000000000000e+01,6.199999999999999956e-01,7.494667800000000000e+09
2.400000000000000000e+01,3.100000000000000000e+01,1.470000000000000000e+02,1.280000000000000000e+02,2.800000000000000000e+01,3.000000000000000000e+01,2.700000000000000000e+01,3.800000000000000000e+01,6.300000000000000044e-01,7.515447000000000000e+09
2.700000000000000000e+01,3.500000000000000000e+01,1.750000000000000000e+02,1.330000000000000000e+02,2.900000000000000000e+01,2.800000000000000000e+01,2.600000000000000000e+01,3.700000000000000000e+01,6.300000000000000044e-01,7.536526100000000000e+09
2.800000000000000000e+01,4.000000000000000000e+01,1.780000000000000000e+02,1.240000000000000000e+02,2.700000000000000000e+01,3.000000000000000000e+01,2.700000000000000000e+01,3.400000000000000000e+01,6.300000000000000044e-01,7.558437500000000000e+09
3.000000000000000000e+01,4.100000000000000000e+01,1.560000000000000000e+02,1.130000000000000000e+02,2.800000000000000000e+01,2.700000000000000000e+01,2.600000000000000000e+01,4.000000000000000000e+01,6.199999999999999956e-01,7.577696600000000000e+09
2.900000000000000000e+01,4.100000000000000000e+01,1.840000000000000000e+02,1.500000000000000000e+02,3.000000000000000000e+01,2.900000000000000000e+01,2.600000000000000000e+01,4.100000000000000000e+01,6.199999999999999956e-01,7.597418200000000000e+09
2.900000000000000000e+01,4.300000000000000000e+01,1.990000000000000000e+02,1.480000000000000000e+02,3.200000000000000000e+01,2.800000000000000000e+01,2.700000000000000000e+01,3.700000000000000000e+01,6.199999999999999956e-01,7.617963000000000000e+09
2.900000000000000000e+01,4.000000000000000000e+01,1.850000000000000000e+02,1.600000000000000000e+02,3.200000000000000000e+01,2.900000000000000000e+01,2.600000000000000000e+01,3.800000000000000000e+01,6.199999999999999956e-01,7.637857700000000000e+09
3.000000000000000000e+01,3.400000000000000000e+01,1.800000000000000000e+02,1.590000000000000000e+02,3.500000000000000000e+01,2.900000000000000000e+01,2.600000000000000000e+01,4.000000000000000000e+01,6.300000000000000044e-01,7.657130500000000000e+09
2.700000000000000000e+01,3.500000000000000000e+01,1.960000000000000000e+02,1.740000000000000000e+02,3.500000000000000000e+01,3.100000000000000000e+01,2.600000000000000000e+01,3.400000000000000000e+01,6.300000000000000044e-01,7.677095000000000000e+09
2.900000000000000000e+01,3.600000000000000000e+01,1.800000000000000000e+02,1.680000000000000000e+02,3.600000000000000000e+01,3.200000000000000000e+01,2.400000000000000000e+01,3.200000000000000000e+01,6.300000000000000044e-01,7.698162900000000000e+09
3.000000000000000000e+01,3.500000000000000000e+01,1.740000000000000000e+02,1.650000000000000000e+02,3.600000000000000000e+01,3.000000000000000000e+01,2.200000000000000000e+01,4.000000000000000000e+01,6.300000000000000044e-01,7.717090600000000000e+09
2.800000000000000000e+01,3.800000000000000000e+01,1.770000000000000000e+02,1.540000000000000000e+02,3.600000000000000000e+01,2.900000000000000000e+01,2.300000000000000000e+01,4.000000000000000000e+01,6.300000000000000044e-01,7.735903900000000000e+09
2.700000000000000000e+01,3.900000000000000000e+01,1.800000000000000000e+02,1.520000000000000000e+02,3.300000000000000000e+01,2.900000000000000000e+01,2.200000000000000000e+01,3.800000000000000000e+01,6.300000000000000044e-01,7.756074100000000000e+09
2.800000000000000000e+01,4.000000000000000000e+01,1.690000000000000000e+02,1.300000000000000000e+02,3.100000000000000000e+01,2.800000000000000000e+01,2.300000000000000000e+01,3.900000000000000000e+01,6.300000000000000044e-01,7.775359400000000000e+09
2.700000000000000000e+01,4.100000000000000000e+01,2.080000000000000000e+02,1.090000000000000000e+02,2.700000000000000000e+01,2.400000000000000000e+01,2.300000000000000000e+01,4.100000000000000000e+01,6.300000000000000044e-01,7.796599700000000000e+09
2.600000000000000000e+01,4.100000000000000000e+01,1.990000000000000000e+02,1.100000000000000000e+02,2.700000000000000000e+01,3.100000000000000000e+01,2.300000000000000000e+01,3.400000000000000000e+01,6.300000000000000044e-01,7.816585200000000000e+09
2.600000000000000000e+01,4.000000000000000000e+01,1.860000000000000000e+02,1.120000000000000000e+02,2.500000000000000000e+01,3.000000000000000000e+01,2.100000000000000000e+01,3.100000000000000000e+01,6.300000000000000044e-01,7.835866200000000000e+09
2.600000000000000000e+01,3.700000000000000000e+01,1.880000000000000000e+02,1.170000000000000000e+02,2.600000000000000000e+01,2.900000000000000000e+01,2.100000000000000000e+01,3.900000000000000000e+01,6.300000000000000044e-01,7.857364600000000000e+09
2.500000000000000000e+01,3.400000000000000000e+01,1.960000000000000000e+02,1.160000000000000000e+02,2.700000000000000000e+01,2.900000000000000000e+01,2.300000000000000000e+01,3.800000000000000000e+01,6.300000000000000044e-01,7.878616400000000000e+09
2.500000000000000000e+01,3.100000000000000000e+01,1.460000000000000000e+02,1.310000000000000000e+02,3.400000000000000000e+01,3.100000000000000000e+01,2.400000000000000000e+01,3.600000000000000000e+01,6.199999999999999956e-01,7.897448800000000000e+09
2.300000000000000000e+01,4.000000000000000000e+01,1.420000000000000000e+02,1.240000000000000000e+02,3.300000000000000000e+01,2.700000000000000000e+01,2.500000000000000000e+01,3.800000000000000000e+01,6.199999999999999956e-01,7.916796000000000000e+09
2.300000000000000000e+01,3.800000000000000000e+01,1.470000000000000000e+02,1.210000000000000000e+02,3.500000000000000000e+01,2.700000000000000000e+01,2.600000000000000000e+01,4.000000000000000000e+01,6.199999999999999956e-01,7.937026200000000000e+09
2.300000000000000000e+01,4.000000000000000000e+01,1.770000000000000000e+02,1.180000000000000000e+02,3.400000000000000000e+01,2.800000000000000000e+01,2.900000000000000000e+01,3.400000000000000000e+01,6.199999999999999956e-01,7.955595900000000000e+09
2.500000000000000000e+01,4.200000000000000000e+01,1.640000000000000000e+02,1.210000000000000000e+02,3.400000000000000000e+01,2.500000000000000000e+01,2.700000000000000000e+01,3.300000000000000000e+01,6.199999999999999956e-01,7.974726400000000000e+09
2.900000000000000000e+01,4.400000000000000000e+01,1.730000000000000000e+02,1.110000000000000000e+02,3.500000000000000000e+01,2.600000000000000000e+01,2.600000000000000000e+01,3.200000000000000000e+01,6.099999999999999867e-01,7.994217700000000000e+09
3.000000000000000000e+01,4.100000000000000000e+01,1.640000000000000000e+02,1.220000000000000000e+02,3.600000000000000000e+01,2.400000000000000000e+01,2.500000000000000000e+01,3.300000000000000000e+01,6.099999999999999867e-01,8.013906700000000000e+09
3.000000000000000000e+01,4.200000000000000000e+01,1.870000000000000000e+02,1.270000000000000000e+02,3.700000000000000000e+01,2.700000000000000000e+01,2.500000000000000000e+01,3.400000000000000000e+01,6.099999999999999867e-01,8.034660400000000000e+09
3.000000000000000000e+01,4.100000000000000000e+01,1.640000000000000000e+02,1.290000000000000000e+02,3.600000000000000000e+01,2.800000000000000000e+01,2.200000000000000000e+01,3.400000000000000000e+01,6.199999999999999956e-01,8.054380500000000000e+09
3.200000000000000000e+01,4.000000000000000000e+01,1.750000000000000000e+02,1.290000000000000000e+02,3.700000000000000000e+01,3.000000000000000000e+01,2.100000000000000000e+01,3.900000000000000000e+01,6.199999999999999956e-01,8.076158900000000000e+09
2.700000000000000000e+01,3.800000000000000000e+01,1.720000000000000000e+02,1.300000000000000000e+02,3.700000000000000000e+01,2.900000000000000000e+01,2.100000000000000000e+01,3.900000000000000000e+01,6.199999999999999956e-01,8.096128700000000000e+09
2.600000000000000000e+01,3.200000000000000000e+01,1.730000000000000000e+02,1.240000000000000000e+02,3.800000000000000000e+01,3.000000000000000000e+01,2.100000000000000000e+01,3.900000000000000000e+01,6.199999999999999956e-01,8.115806900000000000e+09
2.800000000000000000e+01,3.400000000000000000e+01,1.710000000000000000e+02,1.210000000000000000e+02,3.600000000000000000e+01,2.900000000000000000e+01,2.000000000000000000e+01,3.700000000000000000e+01,6.199999999999999956e-01,8.136914600000000000e+09
2.800000000000000000e+01,3.400000000000000000e+01,1.740000000000000000e+02,1.330000000000000000e+02,4.100000000000000000e+01,2.800000000000000000e+01,2.200000000000000000e+01,3.700000000000000000e+01,6.199999999999999956e-01,8.156716300000000000e+09
2.700000000000000000e+01,3.100000000000000000e+01,1.600000000000000000e+02,1.300000000000000000e+02,3.800000000000000000e+01,2.700000000000000000e+01,2.300000000000000000e+01,3.500000000000000000e+01,6.199999999999999956e-01,8.176360300000000000e+09
2.700000000000000000e+01,3.000000000000000000e+01,1.510000000000000000e+02,1.450000000000000000e+02,3.500000000000000000e+01,2.600000000000000000e+01,2.400000000000000000e+01,3.600000000000000000e+01,6.199999999999999956e-01,8.195776900000000000e+09
2.800000000000000000e+01,3.200000000000000000e+01,1.630000000000000000e+02,1.470000000000000000e+02,3.200000000000000000e+01,2.500000000000000000e+01,2.700000000000000000e+01,4.000000000000000000e+01,6.199999999999999956e-01,8.216457600000000000e+09
2.900000000000000000e+01,3.400000000000000000e+01,1.400000000000000000e+02,1.350000000000000000e+02,3.000000000000000000e+01,2.700000000000000000e+01,3.000000000000000000e+01,4.000000000000000000e+01,6.199999999999999956e-01,8.236777800000000000e+09
3.100000000000000000e+01,3.200000000000000000e+01,1.350000000000000000e+02,1.600000000000000000e+02,3.300000000000000000e+01,2.800000000000000000e+01,2.900000000000000000e+01,4.000000000000000000e+01,6.199999999999999956e-01,8.259155800000000000e+09
2.800000000000000000e+01,3.400000000000000000e+01,1.380000000000000000e+02,1.640000000000000000e+02,3.400000000000000000e+01,3.000000000000000000e+01,2.900000000000000000e+01,3.800000000000000000e+01,6.199999999999999956e-01,8.279988700000000000e+09
2.800000000000000000e+01,3.500000000000000000e+01,1.400000000000000000e+02,1.410000000000000000e+02,3.400000000000000000e+01,2.900000000000000000e+01,2.800000000000000000e+01,3.800000000000000000e+01,6.199999999999999956e-01,8.301815300000000000e+09
2.700000000000000000e+01,3.900000000000000000e+01,1.520000000000000000e+02,1.540000000000000000e+02,3.500000000000000000e+01,2.800000000000000000e+01,2.300000000000000000e+01,3.200000000000000000e+01,6.199999999999999956e-01,8.320526100000000000e+09
2.500000000000000000e+01,3.400000000000000000e+01,1.520000000000000000e+02,1.560000000000000000e+02,3.800000000000000000e+01,2.700000000000000000e+01,2.300000000000000000e+01,3.400000000000000000e+01,6.300000000000000044e-01,8.340420400000000000e+09
2.200000000000000000e+01,3.600000000000000000e+01,1.600000000000000000e+02,1.260000000000000000e+02,3.300000000000000000e+01,2.400000000000000000e+01,2.400000000000000000e+01,3.300000000000000000e+01,6.300000000000000044e-01,8.359293800000000000e+09
2.300000000000000000e+01,3.700000000000000000e+01,1.960000000000000000e+02,1.240000000000000000e+02,3.400000000000000000e+01,2.200000000000000000e+01,2.500000000000000000e+01,3.700000000000000000e+01,6.300000000000000044e-01,8.380188400000000000e+09
2.500000000000000000e+01,3.900000000000000000e+01,1.930000000000000000e+02,1.230000000000000000e+02,3.300000000000000000e+01,2.200000000000000000e+01,2.500000000000000000e+01,3.400000000000000000e+01,6.300000000000000044e-01,8.399996000000000000e+09
2.600000000000000000e+01,3.600000000000000000e+01,1.720000000000000000e+02,1.400000000000000000e+02,3.400000000000000000e+01,2.300000000000000000e+01,2.700000000000000000e+01,3.600000000000000000e+01,6.300000000000000044e-01,8.418548400000000000e+09
2.500000000000000000e+01,3.800000000000000000e+01,1.810000000000000000e+02,1.390000000000000000e+02,3.100000000000000000e+01,2.400000000000000000e+01,2.500000000000000000e+01,3.600000000000000000e+01,6.300000000000000044e-01,8.439565900000000000e+09
2.500000000000000000e+01,3.900000000000000000e+01,1.910000000000000000e+02,1.470000000000000000e+02,3.000000000000000000e+01,2.400000000000000000e+01,2.400000000000000000e+01,3.500000000000000000e+01,6.300000000000000044e-01,8.458373300000000000e+09
2.600000000000000000e+01,3.700000000000000000e+01,1.600000000000000000e+02,1.560000000000000000e+02,2.900000000000000000e+01,2.300000000000000000e+01,2.200000000000000000e+01,3.100000000000000000e+01,6.300000000000000044e-01,8.477540200000000000e+09
2.500000000000000000e+01,3.700000000000000000e+01,1.620000000000000000e+02,1.600000000000000000e+02,3.300000000000000000e+01,2.400000000000000000e+01,2.500000000000000000e+01,3.300000000000000000e+01,6.300000000000000044e-01,8.497395700000000000e+09
2.400000000000000000e+01,3.400000000000000000e+01,1.630000000000000000e+02,1.370000000000000000e+02,3.200000000000000000e+01,2.700000000000000000e+01,2.500000000000000000e+01,3.200000000000000000e+01,6.300000000000000044e-01,8.518285000000000000e+09
2.500000000000000000e+01,3.500000000000000000e+01,1.600000000000000000e+02,1.360000000000000000e+02,3.300000000000000000e+01,2.700000000000000000e+01,2.700000000000000000e+01,3.100000000000000000e+01,6.300000000000000044e-01,8.539227900000000000e+09
2.900000000000000000e+01,3.900000000000000000e+01,1.530000000000000000e+02,1.410000000000000000e+02,3.300000000000000000e+01,2.800000000000000000e+01,2.600000000000000000e+01,3.300000000000000000e+01,6.300000000000000044e-01,8.558603400000000000e+09
2.600000000000000000e+01,4.100000000000000000e+01,1.500000000000000000e+02,1.350000000000000000e+02,3.400000000000000000e+01,3.000000000000000000e+01,2.600000000000000000e+01,3.700000000000000000e+01,6.300000000000000044e-01,8.576603000000000000e+09
2.900000000000000000e+01,4.000000000000000000e+01,1.430000000000000000e+02,1.280000000000000000e+02,2.900000000000000000e+01,3.100000000000000000e+01,2.400000000000000000e+01,3.700000000000000000e+01,6.300000000000000044e-01,8.596924800000000000e+09
2.800000000000000000e+01,3.900000000000000000e+01,1.390000000000000000e+02,1.250000000000000000e+02,3.000000000000000000e+01,2.900000000000000000e+01,2.500000000000000000e+01,3.500000000000000000e+01,6.300000000000000044e-01,8.616931300000000000e+09
2.700000000000000000e+01,3.900000000000000000e+01,1.480000000000000000e+02,1.340000000000000000e+02,3.200000000000000000e+01,2.800000000000000000e+01,2.600000000000000000e+01,3.800000000000000000e+01,6.300000000000000044e-01,8.636669900000000000e+09
2.400000000000000000e+01,3.800000000000000000e+01,1.290000000000000000e+02,1.080000000000000000e+02,3.100000000000000000e+01,2.900000000000000000e+01,2.700000000000000000e+01,3.700000000000000000e+01,6.300000000000000044e-01,8.656180500000000000e+09
2.800000000000000000e+01,3.700000000000000000e+01,1.350000000000000000e+02,1.260000000000000000e+02,2.800000000000000000e+01,2.900000000000000000e+01,2.600000000000000000e+01,3.100000000000000000e+01,6.300000000000000044e-01,8.676929800000000000e+09
2.400000000000000000e+01,3.600000000000000000e+01,1.430000000000000000e+02,1.270000000000000000e+02,3.000000000000000000e+01,3.200000000000000000e+01,2.700000000000000000e+01,3.200000000000000000e+01,6.300000000000000044e-01,8.696718100000000000e+09
2.500000000000000000e+01,4.100000000000000000e+01,1.960000000000000000e+02,1.570000000000000000e+02,3.400000000000000000e+01,3.100000000000000000e+01,2.700000000000000000e+01,3.400000000000000000e+01,6.300000000000000044e-01,8.716225700000000000e+09
2.600000000000000000e+01,4.000000000000000000e+01,1.790000000000000000e+02,1.520000000000000000e+02,3.400000000000000000e+01,3.100000000000000000e+01,2.600000000000000000e+01,3.000000000000000000e+01,6.300000000000000044e-01,8.735491100000000000e+09
2.800000000000000000e+01,3.700000000000000000e+01,1.820000000000000000e+02,1.590000000000000000e+02,3.500000000000000000e+01,3.200000000000000000e+01,2.600000000000000000e+01,3.100000000000000000e+01,6.300000000000000044e-01,8.756769000000000000e+09
2.900000000000000000e+01,4.200000000000000000e+01,1.860000000000000000e+02,1.550000000000000000e+02,3.800000000000000000e+01,3.400000000000000000e+01,2.900000000000000000e+01,3.600000000000000000e+01,6.300000000000000044e-01,8.775503400000000000e+09
3.300000000000000000e+01,4.500000000000000000e+01,1.960000000000000000e+02,1.540000000000000000e+02,3.700000000000000000e+01,3.100000000000000000e+01,2.900000000000000000e+01,3.500000000000000000e+01,6.300000000000000044e-01,8.795866400000000000e+09
3.200000000000000000e+01,4.500000000000000000e+01,1.650000000000000000e+02,1.290000000000000000e+02,3.200000000000000000e+01,3.000000000000000000e+01,2.800000000000000000e+01,3.400000000000000000e+01,6.300000000000000044e-01,8.815963900000000000e+09
3.200000000000000000e+01,4.400000000000000000e+01,1.620000000000000000e+02,1.260000000000000000e+02,3.100000000000000000e+01,3.000000000000000000e+01,2.700000000000000000e+01,3.500000000000000000e+01,6.300000000000000044e-01,8.836702000000000000e+09
3.200000000000000000e+01,4.300000000000000000e+01,1.590000000000000000e+02,1.370000000000000000e+02,3.200000000000000000e+01,3.200000000000000000e+01,2.800000000000000000e+01,3.600000000000000000e+01,6.300000000000000044e-01,8.857789900000000000e+09
2.900000000000000000e+01,3.800000000000000000e+01,1.730000000000000000e+02,1.210000000000000000e+02,3.100000000000000000e+01,2.900000000000000000e+01,2.600000000000000000e+01,3.000000000000000000e+01,6.300000000000000044e-01,8.876683800000000000e+09
2.700000000000000000e+01,3.500000000000000000e+01,1.680000000000000000e+02,1.240000000000000000e+02,3.200000000000000000e+01,3.100000000000000000e+01,2.400000000000000000e+01,3.200000000000000000e+01,6.300000000000000044e-01,8.896727100000000000e+09
2.600000000000000000e+01,3.200000000000000000e+01,1.650000000000000000e+02,1.460000000000000000e+02,3.400000000000000000e+01,3.000000000000000000e+01,2.500000000000000000e+01,3.500000000000000000e+01,6.300000000000000044e-01,8.916151300000000000e+09
2.500000000000000000e+01,3.800000000000000000e+01,1.690000000000000000e+02,1.500000000000000000e+02,3.300000000000000000e+01,3.200000000000000000e+01,2.400000000000000000e+01,3.600000000000000000e+01,6.300000000000000044e-01,8.941098300000000000e+09
2.500000000000000000e+01,3.700000000000000000e+01,1.900000000000000000e+02,1.460000000000000000e+02,3.200000000000000000e+01,2.900000000000000000e+01,2.500000000000000000e+01,3.300000000000000000e+01,6.300000000000000044e-01,8.961521300000000000e+09
2.500000000000000000e+01,3.600000000000000000e+01,1.630000000000000000e+02,1.470000000000000000e+02,3.100000000000000000e+01,2.800000000000000000e+01,2.400000000000000000e+01,3.500000000000000000e+01,6.300000000000000044e-01,8.980830600000000000e+09
2.300000000000000000e+01,3.600000000000000000e+01,1.490000000000000000e+02,1.430000000000000000e+02,3.000000000000000000e+01,2.500000000000000000e+01,2.600000000000000000e+01,3.600000000000000000e+01,6.300000000000000044e-01,8.999373100000000000e+09
2.600000000000000000e+01,3.600000000000000000e+01,1.550000000000000000e+02,1.260000000000000000e+02,3.100000000000000000e+01,3.000000000000000000e+01,2.800000000000000000e+01,3.200000000000000000e+01,6.300000000000000044e-01,9.020186300000000000e+09
2.600000000000000000e+01,3.500000000000000000e+01,1.890000000000000000e+02,1.280000000000000000e+02,3.100000000000000000e+01,2.900000000000000000e+01,2.800000000000000000e+01,3.300000000000000000e+01,6.300000000000000044e-01,9.040386100000000000e+09
2.400000000000000000e+01,3.600000000000000000e+01,1.740000000000000000e+02,1.490000000000000000e+02,3.600000000000000000e+01,3.100000000000000000e+01,2.800000000000000000e+01,3.400000000000000000e+01,6.300000000000000044e-01,9.060397500000000000e+09
2.400000000000000000e+01,3.500000000000000000e+01,1.770000000000000000e+02,1.510000000000000000e+02,3.600000000000000000e+01,3.000000000000000000e+01,2.900000000000000000e+01,3.300000000000000000e+01,6.300000000000000044e-01,9.080132000000000000e+09
2.500000000000000000e+01,3.500000000000000000e+01,1.780000000000000000e+02,1.560000000000000000e+02,3.600000000000000000e+01,3.000000000000000000e+01,2.600000000000000000e+01,2.900000000000000000e+01,6.300000000000000044e-01,9.099495300000000000e+09
2.300000000000000000e+01,3.600000000000000000e+01,2.140000000000000000e+02,1.570000000000000000e+02,3.300000000000000000e+01,2.700000000000000000e+01,2.400000000000000000e+01,2.900000000000000000e+01,6.400000000000000133e-01,9.119948000000000000e+09
2.300000000000000000e+01,3.100000000000000000e+01,2.000000000000000000e+02,1.620000000000000000e+02,3.600000000000000000e+01,2.400000000000000000e+01,2.200000000000000000e+01,3.100000000000000000e+01,6.400000000000000133e-01,9.140030700000000000e+09
2.600000000000000000e+01,3.600000000000000000e+01,2.080000000000000000e+02,1.380000000000000000e+02,3.100000000000000000e+01,2.300000000000000000e+01,2.200000000000000000e+01,3.100000000000000000e+01,6.400000000000000133e-01,9.158926600000000000e+09
2.500000000000000000e+01,3.900000000000000000e+01,2.170000000000000000e+02,1.580000000000000000e+02,3.500000000000000000e+01,2.600000000000000000e+01,2.000000000000000000e+01,3.200000000000000000e+01,6.400000000000000133e-01,9.178481200000000000e+09
2.400000000000000000e+01,4.100000000000000000e+01,2.360000000000000000e+02,1.620000000000000000e+02,3.600000000000000000e+01,2.500000000000000000e+01,2.100000000000000000e+01,3.300000000000000000e+01,6.400000000000000133e-01,9.198062300000000000e+09
2.400000000000000000e+01,4.000000000000000000e+01,2.030000000000000000e+02,1.550000000000000000e+02,3.400000000000000000e+01,2.500000000000000000e+01,2.100000000000000000e+01,3.800000000000000000e+01,6.400000000000000133e-01,9.218600300000000000e+09
2.400000000000000000e+01,4.400000000000000000e+01,1.850000000000000000e+02,1.450000000000000000e+02,3.200000000000000000e+01,2.500000000000000000e+01,2.200000000000000000e+01,3.600000000000000000e+01,6.400000000000000133e-01,9.237377600000000000e+09
2.400000000000000000e+01,4.000000000000000000e+01,1.700000000000000000e+02,1.410000000000000000e+02,3.300000000000000000e+01,2.700000000000000000e+01,2.300000000000000000e+01,3.600000000000000000e+01,6.400000000000000133e-01,9.256220700000000000e+09
2.600000000000000000e+01,4.500000000000000000e+01,1.680000000000000000e+02,1.340000000000000000e+02,3.000000000000000000e+01,2.500000000000000000e+01,2.400000000000000000e+01,3.400000000000000000e+01,6.400000000000000133e-01,9.276350600000000000e+09
2.500000000000000000e+01,4.600000000000000000e+01,1.520000000000000000e+02,1.390000000000000000e+02,2.900000000000000000e+01,2.600000000000000000e+01,2.400000000000000000e+01,3.600000000000000000e+01,6.400000000000000133e-01,9.296196600000000000e+09
2.700000000000000000e+01,4.600000000000000000e+01,1.330000000000000000e+02,1.370000000000000000e+02,3.200000000000000000e+01,2.800000000000000000e+01,2.600000000000000000e+01,3.300000000000000000e+01,6.400000000000000133e-01,9.316246700000000000e+09
2.700000000000000000e+01,4.500000000000000000e+01,1.680000000000000000e+02,1.480000000000000000e+02,3.400000000000000000e+01,2.900000000000000000e+01,2.500000000000000000e+01,3.200000000000000000e+01,6.400000000000000133e-01,9.336492300000000000e+09
2.600000000000000000e+01,4.700000000000000000e+01,1.760000000000000000e+02,1.540000000000000000e+02,3.600000000000000000e+01,2.600000000000000000e+01,2.400000000000000000e+01,3.200000000000000000e+01,6.400000000000000133e-01,9.356502800000000000e+09
2.500000000000000000e+01,4.100000000000000000e+01,1.710000000000000000e+02,1.460000000000000000e+02,3.500000000000000000e+01,3.000000000000000000e+01,2.500000000000000000e+01,3.900000000000000000e+01,6.400000000000000133e-01,9.376908300000000000e+09
2.800000000000000000e+01,3.800000000000000000e+01,1.610000000000000000e+02,1.490000000000000000e+02,3.800000000000000000e+01,3.100000000000000000e+01,2.400000000000000000e+01,3.500000000000000000e+01,6.400000000000000133e-01,9.398578300000000000e+09
2.500000000000000000e+01,3.800000000000000000e+01,1.890000000000000000e+02,1.480000000000000000e+02,3.700000000000000000e+01,3.000000000000000000e+01,2.300000000000000000e+01,3.400000000000000000e+01,6.400000000000000133e-01,9.417969700000000000e+09
2.600000000000000000e+01,3.600000000000000000e+01,1.630000000000000000e+02,1.400000000000000000e+02,3.600000000000000000e+01,3.000000000000000000e+01,2.400000000000000000e+01,3.300000000000000000e+01,6.400000000000000133e-01,9.436500000000000000e+09
2.600000000000000000e+01,3.100000000000000000e+01,1.550000000000000000e+02,1.350000000000000000e+02,3.300000000000000000e+01,3.200000000000000000e+01,2.600000000000000000e+01,3.200000000000000000e+01,6.400000000000000133e-01,9.455235300000000000e+09
2.800000000000000000e+01,2.800000000000000000e+01,1.560000000000000000e+02,1.320000000000000000e+02,3.300000000000000000e+01,3.000000000000000000e+01,2.500000000000000000e+01,2.700000000000000000e+01,6.400000000000000133e-01,9.476257200000000000e+09
2.600000000000000000e+01,2.800000000000000000e+01,1.560000000000000000e+02,1.150000000000000000e+02,3.300000000000000000e+01,3.000000000000000000e+01,2.400000000000000000e+01,2.900000000000000000e+01,6.400000000000000133e-01,9.495143900000000000e+09
2.600000000000000000e+01,3.200000000000000000e+01,1.500000000000000000e+02,1.260000000000000000e+02,3.500000000000000000e+01,3.100000000000000000e+01,2.200000000000000000e+01,3.000000000000000000e+01,6.300000000000000044e-01,9.514696300000000000e+09
2.800000000000000000e+01,3.100000000000000000e+01,1.500000000000000000e+02,1.260000000000000000e+02,3.600000000000000000e+01,3.200000000000000000e+01,2.500000000000000000e+01,3.400000000000000000e+01,6.300000000000000044e-01,9.534063100000000000e+09
2.600000000000000000e+01,3.400000000000000000e+01,1.610000000000000000e+02,1.280000000000000000e+02,3.800000000000000000e+01,3.400000000000000000e+01,2.400000000000000000e+01,3.800000000000000000e+01,6.300000000000000044e-01,9.555717900000000000e+09
2.500000000000000000e+01,3.500000000000000000e+01,1.610000000000000000e+02,1.360000000000000000e+02,3.900000000000000000e+01,3.400000000000000000e+01,2.400000000000000000e+01,3.600000000000000000e+01,6.300000000000000044e-01,9.576502200000000000e+09
2.500000000000000000e+01,3.500000000000000000e+01,1.790000000000000000e+02,1.420000000000000000e+02,3.800000000000000000e+01,3.400000000000000000e+01,2.600000000000000000e+01,3.400000000000000000e+01,6.300000000000000044e-01,9.597247400000000000e+09
2.400000000000000000e+01,3.200000000000000000e+01,1.610000000000000000e+02,1.250000000000000000e+02,3.600000000000000000e+01,3.200000000000000000e+01,2.600000000000000000e+01,3.400000000000000000e+01,6.300000000000000044e-01,9.615967400000000000e+09
2.200000000000000000e+01,3.600000000000000000e+01,2.110000000000000000e+02,1.520000000000000000e+02,3.500000000000000000e+01,3.000000000000000000e+01,2.500000000000000000e+01,3.400000000000000000e+01,6.300000000000000044e-01,9.636282600000000000e+09
2.400000000000000000e+01,3.800000000000000000e+01,2.320000000000000000e+02,1.520000000000000000e+02,3.400000000000000000e+01,2.600000000000000000e+01,2.400000000000000000e+01,3.100000000000000000e+01,6.300000000000000044e-01,9.656901000000000000e+09
2.300000000000000000e+01,4.000000000000000000e+01,2.330000000000000000e+02,1.420000000000000000e+02,3.300000000000000000e+01,2.400000000000000000e+01,2.300000000000000000e+01,3.000000000000000000e+01,6.300000000000000044e-01,9.676054600000000000e+09
2.300000000000000000e+01,3.900000000000000000e+01,2.230000000000000000e+02,1.440000000000000000e+02,3.400000000000000000e+01,2.400000000000000000e+01,2.400000000000000000e+01,3.600000000000000000e+01,6.300000000000000044e-01,9.698070800000000000e+09
2.400000000000000000e+01,4.000000000000000000e+01,2.220000000000000000e+02,1.560000000000000000e+02,3.900000000000000000e+01,2.500000000000000000e+01,2.500000000000000000e+01,3.900000000000000000e+01,6.300000000000000044e-01,9.718088100000000000e+09
2.300000000000000000e+01,3.600000000000000000e+01,1.940000000000000000e+02,1.440000000000000000e+02,4.000000000000000000e+01,2.700000000000000000e+01,2.200000000000000000e+01,3.800000000000000000e+01,6.300000000000000044e-01,9.738150000000000000e+09
2.300000000000000000e+01,3.600000000000000000e+01,1.520000000000000000e+02,1.370000000000000000e+02,3.900000000000000000e+01,2.700000000000000000e+01,2.300000000000000000e+01,3.700000000000000000e+01,6.300000000000000044e-01,9.756894200000000000e+09
2.400000000000000000e+01,3.700000000000000000e+01,1.430000000000000000e+02,1.530000000000000000e+02,4.100000000000000000e+01,2.800000000000000000e+01,2.300000000000000000e+01,3.900000000000000000e+01,6.300000000000000044e-01,9.776215100000000000e+09
2.500000000000000000e+01,4.000000000000000000e+01,1.850000000000000000e+02,1.650000000000000000e+02,3.900000000000000000e+01,2.700000000000000000e+01,2.100000000000000000e+01,4.000000000000000000e+01,6.300000000000000044e-01,9.797746200000000000e+09
2.400000000000000000e+01,4.000000000000000000e+01,1.830000000000000000e+02,1.580000000000000000e+02,3.400000000000000000e+01,2.500000000000000000e+01,2.100000000000000000e+01,3.700000000000000000e+01,6.300000000000000044e-01,9.818206200000000000e+09
2.600000000000000000e+01,4.300000000000000000e+01,1.610000000000000000e+02,1.450000000000000000e+02,3.100000000000000000e+01,2.400000000000000000e+01,2.000000000000000000e+01,3.400000000000000000e+01,6.300000000000000044e-01,9.838817100000000000e+09
2.600000000000000000e+01,4.000000000000000000e+01,1.630000000000000000e+02,1.480000000000000000e+02,3.100000000000000000e+01,2.300000000000000000e+01,2.100000000000000000e+01,3.600000000000000000e+01,6.300000000000000044e-01,9.858552700000000000e+09
2.400000000000000000e+01,3.900000000000000000e+01,1.800000000000000000e+02,1.450000000000000000e+02,3.300000000000000000e+01,2.300000000000000000e+01,2.100000000000000000e+01,3.600000000000000000e+01,6.400000000000000133e-01,9.877193200000000000e+09
2.400000000000000000e+01,3.700000000000000000e+01,1.370000000000000000e+02,1.180000000000000000e+02,3.200000000000000000e+01,2.200000000000000000e+01,2.100000000000000000e+01,3.100000000000000000e+01,6.300000000000000044e-01,9.896365000000000000e+09
2.400000000000000000e+01,3.700000000000000000e+01,1.450000000000000000e+02,1.310000000000000000e+02,3.300000000000000000e+01,2.200000000000000000e+01,2.100000000000000000e+01,3.100000000000000000e+01,6.300000000000000044e-01,9.915542600000000000e+09
2.400000000000000000e+01,3.400000000000000000e+01,1.570000000000000000e+02,1.270000000000000000e+02,3.400000000000000000e+01,2.300000000000000000e+01,2.200000000000000000e+01,3.000000000000000000e+01,6.300000000000000044e-01,9.935826400000000000e+09
2.700000000000000000e+01,3.900000000000000000e+01,1.850000000000000000e+02,1.180000000000000000e+02,3.400000000000000000e+01,2.500000000000000000e+01,2.100000000000000000e+01,3.400000000000000000e+01,6.300000000000000044e-01,9.954462900000000000e+09
2.800000000000000000e+01,3.800000000000000000e+01,1.750000000000000000e+02,1.420000000000000000e+02,3.200000000000000000e+01,2.500000000000000000e+01,2.300000000000000000e+01,3.700000000000000000e+01,6.300000000000000044e-01,9.974691800000000000e+09
2.600000000000000000e+01,4.100000000000000000e+01,1.830000000000000000e+02,1.400000000000000000e+02,3.400000000000000000e+01,2.800000000000000000e+01,2.200000000000000000e+01,3.400000000000000000e+01,6.300000000000000044e-01,9.994307400000000000e+09
2.700000000000000000e+01,4.000000000000000000e+01,2.110000000000000000e+02,1.460000000000000000e+02,3.300000000000000000e+01,2.700000000000000000e+01,2.200000000000000000e+01,3.500000000000000000e+01,6.300000000000000044e-01,1.001287950000000000e+10
2.700000000000000000e+01,4.100000000000000000e+01,2.030000000000000000e+02,1.470000000000000000e+02,3.300000000000000000e+01,2.700000000000000000e+01,2.100000000000000000e+01,3.900000000000000000e+01,6.300000000000000044e-01,1.003229240000000000e+10
2.200000000000000000e+01,3.700000000000000000e+01,1.900000000000000000e+02,1.630000000000000000e+02,3.100000000000000000e+01,2.600000000000000000e+01,2.100000000000000000e+01,3.500000000000000000e+01,6.300000000000000044e-01,1.005292380000000000e+10
2.000000000000000000e+01,3.700000000000000000e+01,1.860000000000000000e+02,1.280000000000000000e+02,2.700000000000000000e+01,2.500000000000000000e+01,2.000000000000000000e+01,3.000000000000000000e+01,6.300000000000000044e-01,1.007346190000000000e+10
2.500000000000000000e+01,3.400000000000000000e+01,1.910000000000000000e+02,1.410000000000000000e+02,2.700000000000000000e+01,2.600000000000000000e+01,2.400000000000000000e+01,3.100000000000000000e+01,6.300000000000000044e-01,1.009401840000000000e+10
2.500000000000000000e+01,3.400000000000000000e+01,1.560000000000000000e+02,1.270000000000000000e+02,2.800000000000000000e+01,2.600000000000000000e+01,2.400000000000000000e+01,3.200000000000000000e+01,6.300000000000000044e-01,1.011503360000000000e+10
