1.150000000000000000e+02,1.010000000000000000e+02,4.630000000000000000e+02,1.540000000000000000e+02,3.300000000000000000e+01,2.800000000000000000e+01,7.400000000000000000e+01,3.450000000000000000e+02,4.799999999999999822e-01,4.609937000000000000e+08
1.120000000000000000e+02,1.130000000000000000e+02,5.150000000000000000e+02,1.660000000000000000e+02,3.700000000000000000e+01,3.100000000000000000e+01,7.900000000000000000e+01,3.620000000000000000e+02,4.799999999999999822e-01,4.890236000000000000e+08
9.000000000000000000e+01,1.060000000000000000e+02,5.440000000000000000e+02,1.680000000000000000e+02,3.900000000000000000e+01,3.800000000000000000e+01,8.500000000000000000e+01,3.130000000000000000e+02,4.899999999999999911e-01,8.753138000000000000e+08
9.000000000000000000e+01,1.000000000000000000e+02,4.570000000000000000e+02,1.350000000000000000e+02,3.600000000000000000e+01,3.700000000000000000e+01,8.600000000000000000e+01,3.430000000000000000e+02,4.899999999999999911e-01,8.920373000000000000e+08
8.900000000000000000e+01,1.100000000000000000e+02,4.990000000000000000e+02,1.550000000000000000e+02,4.100000000000000000e+01,4.100000000000000000e+01,9.000000000000000000e+01,3.460000000000000000e+02,4.899999999999999911e-01,9.106752000000000000e+08
8.600000000000000000e+01,1.230000000000000000e+02,5.260000000000000000e+02,1.900000000000000000e+02,4.500000000000000000e+01,4.400000000000000000e+01,9.700000000000000000e+01,3.790000000000000000e+02,5.000000000000000000e-01,9.270407000000000000e+08
8.600000000000000000e+01,1.320000000000000000e+02,5.330000000000000000e+02,1.800000000000000000e+02,4.300000000000000000e+01,4.200000000000000000e+01,9.700000000000000000e+01,3.160000000000000000e+02,4.899999999999999911e-01,9.453200000000000000e+08
8.400000000000000000e+01,1.520000000000000000e+02,5.480000000000000000e+02,1.950000000000000000e+02,4.500000000000000000e+01,3.900000000000000000e+01,1.000000000000000000e+02,3.100000000000000000e+02,4.899999999999999911e-01,9.613903000000000000e+08
7.900000000000000000e+01,1.630000000000000000e+02,5.290000000000000000e+02,2.060000000000000000e+02,4.700000000000000000e+01,3.900000000000000000e+01,1.000000000000000000e+02,3.410000000000000000e+02,4.899999999999999911e-01,9.778522000000000000e+08
8.400000000000000000e+01,1.730000000000000000e+02,5.370000000000000000e+02,2.250000000000000000e+02,5.000000000000000000e+01,4.000000000000000000e+01,1.050000000000000000e+02,3.410000000000000000e+02,4.899999999999999911e-01,9.937551000000000000e+08
8.300000000000000000e+01,1.830000000000000000e+02,5.140000000000000000e+02,2.090000000000000000e+02,5.000000000000000000e+01,3.900000000000000000e+01,1.030000000000000000e+02,2.880000000000000000e+02,4.899999999999999911e-01,1.010106500000000000e+09
9.700000000000000000e+01,1.660000000000000000e+02,4.490000000000000000e+02,2.220000000000000000e+02,5.200000000000000000e+01,3.900000000000000000e+01,1.030000000000000000e+02,3.790000000000000000e+02,4.899999999999999911e-01,1.027061500000000000e+09
1.000000000000000000e+02,1.530000000000000000e+02,5.740000000000000000e+02,2.580000000000000000e+02,5.500000000000000000e+01,3.900000000000000000e+01,9.800000000000000000e+01,4.630000000000000000e+02,4.899999999999999911e-01,1.044037000000000000e+09
1.570000000000000000e+02,1.470000000000000000e+02,6.420000000000000000e+02,2.620000000000000000e+02,6.200000000000000000e+01,4.300000000000000000e+01,1.110000000000000000e+02,4.560000000000000000e+02,4.899999999999999911e-01,1.060901800000000000e+09
1.540000000000000000e+02,1.430000000000000000e+02,6.620000000000000000e+02,2.460000000000000000e+02,5.700000000000000000e+01,3.900000000000000000e+01,1.090000000000000000e+02,4.650000000000000000e+02,5.000000000000000000e-01,1.077310900000000000e+09
1.600000000000000000e+02,1.350000000000000000e+02,7.360000000000000000e+02,2.530000000000000000e+02,5.400000000000000000e+01,3.800000000000000000e+01,1.040000000000000000e+02,5.330000000000000000e+02,5.000000000000000000e-01,1.093708400000000000e+09
1.570000000000000000e+02,1.560000000000000000e+02,7.360000000000000000e+02,2.460000000000000000e+02,5.400000000000000000e+01,4.200000000000000000e+01,1.010000000000000000e+02,4.820000000000000000e+02,5.000000000000000000e-01,1.110020200000000000e+09
1.540000000000000000e+02,1.560000000000000000e+02,7.020000000000000000e+02,2.100000000000000000e+02,5.000000000000000000e+01,4.000000000000000000e+01,1.020000000000000000e+02,4.120000000000000000e+02,5.100000000000000089e-01,1.126181800000000000e+09
1.240000000000000000e+02,1.550000000000000000e+02,6.630000000000000000e+02,1.920000000000000000e+02,4.200000000000000000e+01,3.800000000000000000e+01,9.200000000000000000e+01,4.290000000000000000e+02,5.100000000000000089e-01,1.148737400000000000e+09
1.340000000000000000e+02,1.690000000000000000e+02,6.910000000000000000e+02,1.800000000000000000e+02,3.900000000000000000e+01,3.800000000000000000e+01,8.500000000000000000e+01,4.540000000000000000e+02,5.100000000000000089e-01,1.166275200000000000e+09
1.330000000000000000e+02,1.610000000000000000e+02,6.040000000000000000e+02,1.550000000000000000e+02,3.900000000000000000e+01,3.600000000000000000e+01,7.600000000000000000e+01,3.800000000000000000e+02,5.100000000000000089e-01,1.182901900000000000e+09
1.300000000000000000e+02,1.520000000000000000e+02,6.040000000000000000e+02,1.580000000000000000e+02,3.900000000000000000e+01,3.100000000000000000e+01,7.700000000000000000e+01,4.500000000000000000e+02,5.100000000000000089e-01,1.199620100000000000e+09
1.430000000000000000e+02,1.620000000000000000e+02,6.250000000000000000e+02,1.560000000000000000e+02,3.500000000000000000e+01,3.200000000000000000e+01,7.600000000000000000e+01,4.590000000000000000e+02,5.100000000000000089e-01,1.216305300000000000e+09
1.200000000000000000e+02,1.660000000000000000e+02,6.370000000000000000e+02,1.610000000000000000e+02,3.600000000000000000e+01,2.900000000000000000e+01,6.200000000000000000e+01,4.380000000000000000e+02,5.200000000000000178e-01,1.232495600000000000e+09
1.150000000000000000e+02,1.450000000000000000e+02,6.220000000000000000e+02,1.960000000000000000e+02,3.900000000000000000e+01,2.900000000000000000e+01,5.900000000000000000e+01,3.850000000000000000e+02,5.200000000000000178e-01,1.249405700000000000e+09
1.160000000000000000e+02,1.550000000000000000e+02,6.610000000000000000e+02,2.140000000000000000e+02,3.900000000000000000e+01,3.100000000000000000e+01,8.700000000000000000e+01,4.620000000000000000e+02,5.200000000000000178e-01,1.265886200000000000e+09
1.230000000000000000e+02,1.520000000000000000e+02,7.180000000000000000e+02,2.140000000000000000e+02,4.100000000000000000e+01,3.500000000000000000e+01,9.500000000000000000e+01,3.980000000000000000e+02,5.200000000000000178e-01,1.283672500000000000e+09
1.160000000000000000e+02,1.560000000000000000e+02,7.040000000000000000e+02,2.330000000000000000e+02,4.700000000000000000e+01,4.400000000000000000e+01,1.290000000000000000e+02,4.040000000000000000e+02,5.200000000000000178e-01,1.300379800000000000e+09
1.290000000000000000e+02,1.470000000000000000e+02,6.910000000000000000e+02,2.310000000000000000e+02,4.400000000000000000e+01,4.300000000000000000e+01,1.400000000000000000e+02,3.770000000000000000e+02,5.200000000000000178e-01,1.316291400000000000e+09
1.260000000000000000e+02,1.450000000000000000e+02,6.690000000000000000e+02,2.070000000000000000e+02,4.400000000000000000e+01,4.200000000000000000e+01,1.410000000000000000e+02,4.090000000000000000e+02,5.200000000000000178e-01,1.332515500000000000e+09
1.150000000000000000e+02,1.300000000000000000e+02,7.030000000000000000e+02,2.150000000000000000e+02,4.400000000000000000e+01,4.300000000000000000e+01,1.270000000000000000e+02,3.220000000000000000e+02,5.200000000000000178e-01,1.349810400000000000e+09
1.060000000000000000e+02,1.260000000000000000e+02,6.950000000000000000e+02,2.140000000000000000e+02,4.300000000000000000e+01,4.100000000000000000e+01,1.320000000000000000e+02,3.240000000000000000e+02,5.200000000000000178e-01,1.368269700000000000e+09
1.130000000000000000e+02,1.070000000000000000e+02,6.490000000000000000e+02,2.010000000000000000e+02,4.000000000000000000e+01,3.400000000000000000e+01,1.140000000000000000e+02,3.240000000000000000e+02,5.200000000000000178e-01,1.387046600000000000e+09
1.190000000000000000e+02,1.060000000000000000e+02,6.810000000000000000e+02,2.100000000000000000e+02,4.200000000000000000e+01,3.300000000000000000e+01,1.100000000000000000e+02,3.390000000000000000e+02,5.300000000000000266e-01,1.405058400000000000e+09
1.170000000000000000e+02,1.100000000000000000e+02,6.540000000000000000e+02,2.040000000000000000e+02,3.800000000000000000e+01,3.300000000000000000e+01,1.290000000000000000e+02,4.090000000000000000e+02,5.300000000000000266e-01,1.422336200000000000e+09
1.140000000000000000e+02,1.170000000000000000e+02,5.950000000000000000e+02,1.670000000000000000e+02,3.700000000000000000e+01,3.400000000000000000e+01,1.340000000000000000e+02,4.380000000000000000e+02,5.300000000000000266e-01,1.438893200000000000e+09
1.110000000000000000e+02,1.210000000000000000e+02,5.340000000000000000e+02,1.800000000000000000e+02,3.900000000000000000e+01,3.500000000000000000e+01,1.260000000000000000e+02,4.360000000000000000e+02,5.300000000000000266e-01,1.456459200000000000e+09
9.900000000000000000e+01,1.170000000000000000e+02,4.940000000000000000e+02,1.440000000000000000e+02,3.400000000000000000e+01,3.200000000000000000e+01,1.140000000000000000e+02,4.250000000000000000e+02,5.200000000000000178e-01,1.477167500000000000e+09
9.200000000000000000e+01,1.330000000000000000e+02,4.930000000000000000e+02,1.410000000000000000e+02,3.300000000000000000e+01,3.700000000000000000e+01,1.230000000000000000e+02,4.060000000000000000e+02,5.200000000000000178e-01,1.497395100000000000e+09
9.200000000000000000e+01,1.360000000000000000e+02,4.690000000000000000e+02,1.480000000000000000e+02,3.700000000000000000e+01,4.300000000000000000e+01,1.130000000000000000e+02,3.840000000000000000e+02,5.200000000000000178e-01,1.517068300000000000e+09
9.600000000000000000e+01,1.460000000000000000e+02,4.990000000000000000e+02,1.510000000000000000e+02,3.800000000000000000e+01,4.100000000000000000e+01,1.080000000000000000e+02,3.960000000000000000e+02,5.100000000000000089e-01,1.538788800000000000e+09
9.700000000000000000e+01,1.400000000000000000e+02,5.450000000000000000e+02,1.350000000000000000e+02,3.100000000000000000e+01,4.000000000000000000e+01,1.130000000000000000e+02,3.850000000000000000e+02,5.100000000000000089e-01,1.558599600000000000e+09
9.900000000000000000e+01,1.490000000000000000e+02,5.440000000000000000e+02,1.610000000000000000e+02,3.400000000000000000e+01,4.100000000000000000e+01,1.120000000000000000e+02,3.800000000000000000e+02,5.100000000000000089e-01,1.577463000000000000e+09
7.900000000000000000e+01,1.320000000000000000e+02,4.960000000000000000e+02,1.410000000000000000e+02,3.300000000000000000e+01,3.700000000000000000e+01,1.060000000000000000e+02,4.240000000000000000e+02,5.000000000000000000e-01,1.596785500000000000e+09
7.700000000000000000e+01,1.290000000000000000e+02,5.250000000000000000e+02,1.340000000000000000e+02,2.900000000000000000e+01,3.000000000000000000e+01,9.600000000000000000e+01,3.560000000000000000e+02,4.899999999999999911e-01,1.614414600000000000e+09
7.500000000000000000e+01,1.160000000000000000e+02,5.150000000000000000e+02,1.370000000000000000e+02,2.800000000000000000e+01,3.200000000000000000e+01,9.800000000000000000e+01,3.030000000000000000e+02,4.899999999999999911e-01,1.632791100000000000e+09
7.700000000000000000e+01,1.150000000000000000e+02,5.650000000000000000e+02,1.320000000000000000e+02,3.200000000000000000e+01,3.200000000000000000e+01,9.200000000000000000e+01,3.280000000000000000e+02,4.799999999999999822e-01,1.651737400000000000e+09
6.800000000000000000e+01,1.070000000000000000e+02,5.670000000000000000e+02,1.050000000000000000e+02,3.000000000000000000e+01,3.100000000000000000e+01,9.300000000000000000e+01,3.100000000000000000e+02,4.799999999999999822e-01,1.668942900000000000e+09
6.500000000000000000e+01,1.030000000000000000e+02,5.450000000000000000e+02,1.170000000000000000e+02,3.400000000000000000e+01,3.600000000000000000e+01,9.100000000000000000e+01,2.780000000000000000e+02,4.799999999999999822e-01,1.686788800000000000e+09
7.400000000000000000e+01,1.180000000000000000e+02,5.870000000000000000e+02,1.200000000000000000e+02,3.500000000000000000e+01,3.600000000000000000e+01,1.020000000000000000e+02,2.740000000000000000e+02,4.799999999999999822e-01,1.704732300000000000e+09
7.100000000000000000e+01,1.330000000000000000e+02,5.840000000000000000e+02,1.150000000000000000e+02,3.400000000000000000e+01,3.600000000000000000e+01,1.050000000000000000e+02,2.720000000000000000e+02,4.699999999999999734e-01,1.724874000000000000e+09
7.100000000000000000e+01,1.460000000000000000e+02,5.060000000000000000e+02,1.080000000000000000e+02,3.300000000000000000e+01,3.500000000000000000e+01,1.060000000000000000e+02,2.940000000000000000e+02,4.699999999999999734e-01,1.743442800000000000e+09
7.900000000000000000e+01,1.500000000000000000e+02,4.900000000000000000e+02,1.030000000000000000e+02,3.400000000000000000e+01,3.700000000000000000e+01,1.090000000000000000e+02,3.290000000000000000e+02,4.699999999999999734e-01,1.762836700000000000e+09
8.100000000000000000e+01,1.540000000000000000e+02,5.310000000000000000e+02,1.220000000000000000e+02,2.800000000000000000e+01,3.400000000000000000e+01,9.000000000000000000e+01,2.950000000000000000e+02,4.699999999999999734e-01,1.780554800000000000e+09
7.400000000000000000e+01,1.480000000000000000e+02,4.480000000000000000e+02,1.260000000000000000e+02,2.900000000000000000e+01,3.500000000000000000e+01,8.000000000000000000e+01,3.120000000000000000e+02,4.699999999999999734e-01,1.798402000000000000e+09
7.400000000000000000e+01,1.240000000000000000e+02,4.170000000000000000e+02,1.260000000000000000e+02,3.100000000000000000e+01,3.100000000000000000e+01,7.000000000000000000e+01,2.990000000000000000e+02,4.699999999999999734e-01,1.817458500000000000e+09
7.400000000000000000e+01,1.220000000000000000e+02,4.570000000000000000e+02,1.790000000000000000e+02,3.400000000000000000e+01,3.200000000000000000e+01,6.400000000000000000e+01,2.300000000000000000e+02,4.699999999999999734e-01,1.837239400000000000e+09
7.400000000000000000e+01,1.120000000000000000e+02,5.360000000000000000e+02,1.860000000000000000e+02,3.700000000000000000e+01,3.000000000000000000e+01,6.300000000000000000e+01,3.320000000000000000e+02,4.799999999999999822e-01,1.854565100000000000e+09
6.800000000000000000e+01,1.090000000000000000e+02,5.330000000000000000e+02,1.740000000000000000e+02,4.200000000000000000e+01,3.400000000000000000e+01,7.000000000000000000e+01,3.410000000000000000e+02,4.799999999999999822e-01,1.872306300000000000e+09
8.800000000000000000e+01,1.330000000000000000e+02,5.740000000000000000e+02,1.780000000000000000e+02,4.200000000000000000e+01,3.200000000000000000e+01,7.700000000000000000e+01,3.430000000000000000e+02,4.799999999999999822e-01,1.889972500000000000e+09
9.000000000000000000e+01,1.370000000000000000e+02,5.740000000000000000e+02,1.800000000000000000e+02,4.100000000000000000e+01,3.200000000000000000e+01,8.100000000000000000e+01,3.640000000000000000e+02,4.799999999999999822e-01,1.907784800000000000e+09
8.800000000000000000e+01,1.310000000000000000e+02,5.560000000000000000e+02,1.300000000000000000e+02,3.900000000000000000e+01,3.300000000000000000e+01,8.500000000000000000e+01,3.680000000000000000e+02,4.799999999999999822e-01,1.925504100000000000e+09
7.900000000000000000e+01,1.350000000000000000e+02,5.140000000000000000e+02,1.440000000000000000e+02,3.700000000000000000e+01,3.100000000000000000e+01,7.900000000000000000e+01,2.340000000000000000e+02,4.799999999999999822e-01,1.943778400000000000e+09
8.300000000000000000e+01,1.460000000000000000e+02,5.000000000000000000e+02,1.400000000000000000e+02,3.600000000000000000e+01,2.800000000000000000e+01,7.900000000000000000e+01,2.600000000000000000e+02,4.799999999999999822e-01,1.961836700000000000e+09
6.200000000000000000e+01,1.140000000000000000e+02,5.220000000000000000e+02,1.350000000000000000e+02,3.400000000000000000e+01,2.700000000000000000e+01,7.200000000000000000e+01,2.940000000000000000e+02,4.899999999999999911e-01,1.979889000000000000e+09
5.800000000000000000e+01,1.120000000000000000e+02,5.260000000000000000e+02,1.350000000000000000e+02,3.300000000000000000e+01,2.800000000000000000e+01,7.000000000000000000e+01,2.880000000000000000e+02,4.899999999999999911e-01,1.998808300000000000e+09
6.500000000000000000e+01,1.200000000000000000e+02,5.130000000000000000e+02,1.330000000000000000e+02,3.200000000000000000e+01,2.700000000000000000e+01,6.500000000000000000e+01,2.970000000000000000e+02,4.899999999999999911e-01,2.016411700000000000e+09
7.800000000000000000e+01,1.170000000000000000e+02,5.140000000000000000e+02,1.190000000000000000e+02,3.200000000000000000e+01,2.900000000000000000e+01,7.100000000000000000e+01,3.490000000000000000e+02,4.899999999999999911e-01,2.034619700000000000e+09
7.400000000000000000e+01,1.070000000000000000e+02,5.020000000000000000e+02,1.180000000000000000e+02,3.000000000000000000e+01,2.800000000000000000e+01,6.300000000000000000e+01,3.430000000000000000e+02,4.799999999999999822e-01,2.052867200000000000e+09
7.400000000000000000e+01,1.100000000000000000e+02,4.100000000000000000e+02,1.260000000000000000e+02,3.200000000000000000e+01,2.900000000000000000e+01,6.500000000000000000e+01,3.260000000000000000e+02,4.799999999999999822e-01,2.071086000000000000e+09
8.400000000000000000e+01,1.420000000000000000e+02,4.720000000000000000e+02,1.520000000000000000e+02,4.000000000000000000e+01,3.000000000000000000e+01,7.000000000000000000e+01,3.190000000000000000e+02,4.799999999999999822e-01,2.089465900000000000e+09
8.100000000000000000e+01,1.460000000000000000e+02,4.520000000000000000e+02,1.530000000000000000e+02,3.900000000000000000e+01,3.100000000000000000e+01,6.900000000000000000e+01,3.640000000000000000e+02,4.799999999999999822e-01,2.108339100000000000e+09
7.100000000000000000e+01,1.440000000000000000e+02,3.940000000000000000e+02,1.500000000000000000e+02,3.800000000000000000e+01,2.900000000000000000e+01,6.400000000000000000e+01,3.150000000000000000e+02,4.799999999999999822e-01,2.126254400000000000e+09
7.300000000000000000e+01,1.470000000000000000e+02,4.800000000000000000e+02,1.530000000000000000e+02,3.600000000000000000e+01,3.200000000000000000e+01,6.700000000000000000e+01,3.020000000000000000e+02,4.899999999999999911e-01,2.144279200000000000e+09
6.900000000000000000e+01,1.410000000000000000e+02,5.050000000000000000e+02,1.400000000000000000e+02,3.700000000000000000e+01,3.200000000000000000e+01,6.200000000000000000e+01,2.680000000000000000e+02,4.899999999999999911e-01,2.164055600000000000e+09
5.900000000000000000e+01,1.180000000000000000e+02,4.640000000000000000e+02,1.000000000000000000e+02,2.900000000000000000e+01,3.200000000000000000e+01,5.800000000000000000e+01,2.640000000000000000e+02,4.899999999999999911e-01,2.181941100000000000e+09
5.800000000000000000e+01,1.070000000000000000e+02,4.990000000000000000e+02,1.260000000000000000e+02,3.500000000000000000e+01,3.100000000000000000e+01,5.700000000000000000e+01,2.110000000000000000e+02,4.899999999999999911e-01,2.201034500000000000e+09
5.800000000000000000e+01,1.110000000000000000e+02,5.140000000000000000e+02,1.220000000000000000e+02,3.500000000000000000e+01,3.300000000000000000e+01,5.600000000000000000e+01,2.710000000000000000e+02,4.899999999999999911e-01,2.218359500000000000e+09
6.500000000000000000e+01,1.040000000000000000e+02,4.410000000000000000e+02,1.230000000000000000e+02,3.800000000000000000e+01,3.800000000000000000e+01,7.500000000000000000e+01,2.620000000000000000e+02,4.899999999999999911e-01,2.236048000000000000e+09
6.700000000000000000e+01,1.160000000000000000e+02,4.320000000000000000e+02,1.430000000000000000e+02,3.500000000000000000e+01,3.700000000000000000e+01,8.600000000000000000e+01,2.820000000000000000e+02,4.899999999999999911e-01,2.253949500000000000e+09
6.600000000000000000e+01,1.060000000000000000e+02,4.610000000000000000e+02,1.500000000000000000e+02,3.600000000000000000e+01,3.800000000000000000e+01,8.800000000000000000e+01,2.870000000000000000e+02,4.899999999999999911e-01,2.271927900000000000e+09
7.000000000000000000e+01,9.200000000000000000e+01,4.210000000000000000e+02,1.230000000000000000e+02,3.000000000000000000e+01,3.800000000000000000e+01,9.800000000000000000e+01,3.120000000000000000e+02,4.899999999999999911e-01,2.291138100000000000e+09
7.100000000000000000e+01,8.600000000000000000e+01,4.110000000000000000e+02,1.300000000000000000e+02,3.100000000000000000e+01,3.700000000000000000e+01,9.700000000000000000e+01,2.660000000000000000e+02,4.899999999999999911e-01,2.310982800000000000e+09
6.700000000000000000e+01,8.700000000000000000e+01,4.500000000000000000e+02,1.310000000000000000e+02,2.800000000000000000e+01,3.100000000000000000e+01,8.400000000000000000e+01,2.600000000000000000e+02,4.899999999999999911e-01,2.328807800000000000e+09
6.900000000000000000e+01,6.900000000000000000e+01,4.400000000000000000e+02,1.120000000000000000e+02,2.800000000000000000e+01,2.900000000000000000e+01,7.800000000000000000e+01,2.720000000000000000e+02,4.899999999999999911e-01,2.346275500000000000e+09
7.200000000000000000e+01,8.500000000000000000e+01,3.760000000000000000e+02,1.170000000000000000e+02,2.900000000000000000e+01,2.600000000000000000e+01,7.200000000000000000e+01,2.590000000000000000e+02,4.899999999999999911e-01,2.364531200000000000e+09
6.600000000000000000e+01,1.090000000000000000e+02,5.250000000000000000e+02,1.620000000000000000e+02,3.500000000000000000e+01,3.100000000000000000e+01,6.600000000000000000e+01,2.040000000000000000e+02,4.899999999999999911e-01,2.382629300000000000e+09
6.900000000000000000e+01,1.110000000000000000e+02,5.530000000000000000e+02,1.650000000000000000e+02,3.500000000000000000e+01,3.000000000000000000e+01,6.600000000000000000e+01,1.980000000000000000e+02,4.899999999999999911e-01,2.401228600000000000e+09
6.900000000000000000e+01,1.100000000000000000e+02,5.150000000000000000e+02,1.580000000000000000e+02,3.400000000000000000e+01,2.900000000000000000e+01,6.800000000000000000e+01,2.540000000000000000e+02,4.899999999999999911e-01,2.421294100000000000e+09
6.600000000000000000e+01,1.220000000000000000e+02,5.030000000000000000e+02,1.630000000000000000e+02,3.600000000000000000e+01,3.200000000000000000e+01,6.100000000000000000e+01,2.650000000000000000e+02,4.899999999999999911e-01,2.440292700000000000e+09
6.100000000000000000e+01,1.090000000000000000e+02,5.030000000000000000e+02,1.560000000000000000e+02,3.500000000000000000e+01,3.200000000000000000e+01,6.200000000000000000e+01,2.690000000000000000e+02,5.000000000000000000e-01,2.457930300000000000e+09
6.200000000000000000e+01,9.100000000000000000e+01,3.410000000000000000e+02,1.120000000000000000e+02,2.800000000000000000e+01,2.800000000000000000e+01,6.600000000000000000e+01,2.710000000000000000e+02,4.899999999999999911e-01,2.475592100000000000e+09
6.900000000000000000e+01,9.200000000000000000e+01,3.320000000000000000e+02,1.190000000000000000e+02,3.300000000000000000e+01,2.700000000000000000e+01,6.900000000000000000e+01,2.710000000000000000e+02,4.899999999999999911e-01,2.493014400000000000e+09
6.700000000000000000e+01,8.700000000000000000e+01,3.150000000000000000e+02,1.180000000000000000e+02,3.300000000000000000e+01,2.800000000000000000e+01,6.200000000000000000e+01,2.110000000000000000e+02,5.000000000000000000e-01,2.511109700000000000e+09
6.500000000000000000e+01,8.000000000000000000e+01,3.260000000000000000e+02,1.220000000000000000e+02,3.200000000000000000e+01,2.600000000000000000e+01,5.900000000000000000e+01,2.170000000000000000e+02,5.000000000000000000e-01,2.528527500000000000e+09
8.600000000000000000e+01,9.000000000000000000e+01,3.620000000000000000e+02,1.380000000000000000e+02,3.400000000000000000e+01,3.100000000000000000e+01,8.500000000000000000e+01,2.510000000000000000e+02,5.000000000000000000e-01,2.546602000000000000e+09
8.400000000000000000e+01,9.700000000000000000e+01,4.110000000000000000e+02,1.360000000000000000e+02,3.400000000000000000e+01,3.200000000000000000e+01,7.700000000000000000e+01,2.450000000000000000e+02,5.000000000000000000e-01,2.566372200000000000e+09
7.800000000000000000e+01,9.200000000000000000e+01,3.780000000000000000e+02,1.450000000000000000e+02,3.400000000000000000e+01,3.300000000000000000e+01,7.400000000000000000e+01,2.470000000000000000e+02,5.000000000000000000e-01,2.583815200000000000e+09
7.800000000000000000e+01,9.300000000000000000e+01,3.820000000000000000e+02,1.450000000000000000e+02,3.300000000000000000e+01,3.300000000000000000e+01,7.400000000000000000e+01,2.500000000000000000e+02,5.000000000000000000e-01,2.601715300000000000e+09
9.000000000000000000e+01,1.090000000000000000e+02,4.000000000000000000e+02,1.400000000000000000e+02,3.000000000000000000e+01,3.300000000000000000e+01,8.100000000000000000e+01,2.540000000000000000e+02,5.000000000000000000e-01,2.619796000000000000e+09
7.800000000000000000e+01,1.030000000000000000e+02,4.390000000000000000e+02,1.390000000000000000e+02,3.000000000000000000e+01,3.000000000000000000e+01,5.400000000000000000e+01,2.160000000000000000e+02,5.000000000000000000e-01,2.638479600000000000e+09
7.900000000000000000e+01,9.400000000000000000e+01,4.880000000000000000e+02,1.670000000000000000e+02,3.200000000000000000e+01,3.100000000000000000e+01,6.400000000000000000e+01,2.850000000000000000e+02,5.000000000000000000e-01,2.657169600000000000e+09
7.700000000000000000e+01,9.800000000000000000e+01,5.530000000000000000e+02,1.540000000000000000e+02,3.100000000000000000e+01,3.100000000000000000e+01,6.900000000000000000e+01,3.040000000000000000e+02,5.000000000000000000e-01,2.675407500000000000e+09
7.900000000000000000e+01,9.600000000000000000e+01,5.770000000000000000e+02,1.540000000000000000e+02,3.200000000000000000e+01,3.300000000000000000e+01,7.000000000000000000e+01,3.310000000000000000e+02,5.100000000000000089e-01,2.693452100000000000e+09
7.200000000000000000e+01,7.000000000000000000e+01,5.680000000000000000e+02,1.620000000000000000e+02,3.300000000000000000e+01,3.200000000000000000e+01,6.300000000000000000e+01,3.030000000000000000e+02,5.100000000000000089e-01,2.710567000000000000e+09
7.700000000000000000e+01,6.800000000000000000e+01,5.220000000000000000e+02,1.480000000000000000e+02,3.100000000000000000e+01,2.900000000000000000e+01,6.500000000000000000e+01,3.290000000000000000e+02,5.100000000000000089e-01,2.727927600000000000e+09
8.200000000000000000e+01,7.000000000000000000e+01,4.690000000000000000e+02,1.210000000000000000e+02,3.100000000000000000e+01,3.200000000000000000e+01,5.700000000000000000e+01,3.270000000000000000e+02,5.100000000000000089e-01,2.744946100000000000e+09
8.200000000000000000e+01,6.500000000000000000e+01,4.110000000000000000e+02,1.190000000000000000e+02,2.800000000000000000e+01,2.900000000000000000e+01,6.900000000000000000e+01,3.080000000000000000e+02,5.100000000000000089e-01,2.763224000000000000e+09
7.700000000000000000e+01,6.600000000000000000e+01,3.870000000000000000e+02,1.230000000000000000e+02,3.200000000000000000e+01,2.800000000000000000e+01,7.100000000000000000e+01,3.240000000000000000e+02,5.000000000000000000e-01,2.780567700000000000e+09
7.200000000000000000e+01,6.400000000000000000e+01,3.890000000000000000e+02,1.070000000000000000e+02,3.300000000000000000e+01,2.900000000000000000e+01,6.900000000000000000e+01,3.020000000000000000e+02,5.000000000000000000e-01,2.798149700000000000e+09
5.800000000000000000e+01,6.100000000000000000e+01,3.700000000000000000e+02,1.120000000000000000e+02,3.100000000000000000e+01,3.000000000000000000e+01,6.900000000000000000e+01,3.200000000000000000e+02,5.000000000000000000e-01,2.815062800000000000e+09
5.200000000000000000e+01,6.800000000000000000e+01,3.680000000000000000e+02,1.390000000000000000e+02,3.300000000000000000e+01,2.500000000000000000e+01,6.400000000000000000e+01,2.640000000000000000e+02,5.000000000000000000e-01,2.832055600000000000e+09
6.700000000000000000e+01,1.030000000000000000e+02,3.640000000000000000e+02,1.370000000000000000e+02,3.400000000000000000e+01,2.500000000000000000e+01,4.400000000000000000e+01,2.730000000000000000e+02,4.899999999999999911e-01,2.850069700000000000e+09
7.400000000000000000e+01,1.260000000000000000e+02,3.590000000000000000e+02,1.450000000000000000e+02,3.500000000000000000e+01,2.900000000000000000e+01,3.800000000000000000e+01,2.240000000000000000e+02,5.000000000000000000e-01,2.867113700000000000e+09
8.100000000000000000e+01,1.270000000000000000e+02,3.530000000000000000e+02,1.570000000000000000e+02,3.600000000000000000e+01,2.900000000000000000e+01,3.400000000000000000e+01,2.390000000000000000e+02,5.000000000000000000e-01,2.884161500000000000e+09
8.200000000000000000e+01,1.350000000000000000e+02,3.860000000000000000e+02,1.610000000000000000e+02,4.000000000000000000e+01,3.300000000000000000e+01,3.200000000000000000e+01,1.720000000000000000e+02,5.000000000000000000e-01,2.900347900000000000e+09
8.000000000000000000e+01,1.280000000000000000e+02,3.380000000000000000e+02,1.420000000000000000e+02,3.700000000000000000e+01,3.300000000000000000e+01,3.100000000000000000e+01,1.860000000000000000e+02,5.000000000000000000e-01,2.917481600000000000e+09
7.500000000000000000e+01,1.120000000000000000e+02,3.250000000000000000e+02,1.440000000000000000e+02,3.600000000000000000e+01,3.400000000000000000e+01,3.000000000000000000e+01,2.230000000000000000e+02,5.100000000000000089e-01,2.934083000000000000e+09
7.100000000000000000e+01,8.800000000000000000e+01,3.060000000000000000e+02,1.340000000000000000e+02,3.400000000000000000e+01,3.000000000000000000e+01,2.900000000000000000e+01,2.220000000000000000e+02,5.100000000000000089e-01,2.950700600000000000e+09
6.400000000000000000e+01,8.900000000000000000e+01,3.310000000000000000e+02,1.710000000000000000e+02,3.600000000000000000e+01,3.100000000000000000e+01,3.600000000000000000e+01,2.410000000000000000e+02,5.100000000000000089e-01,2.967299800000000000e+09
6.600000000000000000e+01,8.200000000000000000e+01,3.050000000000000000e+02,1.690000000000000000e+02,3.400000000000000000e+01,2.900000000000000000e+01,3.500000000000000000e+01,2.780000000000000000e+02,5.100000000000000089e-01,2.984140200000000000e+09
7.300000000000000000e+01,9.200000000000000000e+01,3.430000000000000000e+02,1.590000000000000000e+02,3.700000000000000000e+01,2.800000000000000000e+01,3.500000000000000000e+01,3.060000000000000000e+02,5.100000000000000089e-01,3.001235200000000000e+09
6.800000000000000000e+01,9.200000000000000000e+01,4.720000000000000000e+02,1.770000000000000000e+02,3.900000000000000000e+01,3.300000000000000000e+01,3.700000000000000000e+01,2.800000000000000000e+02,5.200000000000000178e-01,3.018718100000000000e+09
6.600000000000000000e+01,1.040000000000000000e+02,5.060000000000000000e+02,1.780000000000000000e+02,3.700000000000000000e+01,3.100000000000000000e+01,3.800000000000000000e+01,2.900000000000000000e+02,5.200000000000000178e-01,3.036257100000000000e+09
6.200000000000000000e+01,1.030000000000000000e+02,4.920000000000000000e+02,1.410000000000000000e+02,3.500000000000000000e+01,3.000000000000000000e+01,3.000000000000000000e+01,2.580000000000000000e+02,5.200000000000000178e-01,3.052517700000000000e+09
5.900000000000000000e+01,1.030000000000000000e+02,5.540000000000000000e+02,1.680000000000000000e+02,3.600000000000000000e+01,2.900000000000000000e+01,3.100000000000000000e+01,2.170000000000000000e+02,5.200000000000000178e-01,3.069429300000000000e+09
5.800000000000000000e+01,9.600000000000000000e+01,5.700000000000000000e+02,1.690000000000000000e+02,3.400000000000000000e+01,3.200000000000000000e+01,3.500000000000000000e+01,2.810000000000000000e+02,5.200000000000000178e-01,3.086501700000000000e+09
5.800000000000000000e+01,8.700000000000000000e+01,5.030000000000000000e+02,1.520000000000000000e+02,3.300000000000000000e+01,2.900000000000000000e+01,3.100000000000000000e+01,2.790000000000000000e+02,5.100000000000000089e-01,3.103585600000000000e+09
5.700000000000000000e+01,7.000000000000000000e+01,4.990000000000000000e+02,1.560000000000000000e+02,3.300000000000000000e+01,3.100000000000000000e+01,3.200000000000000000e+01,2.850000000000000000e+02,5.100000000000000089e-01,3.120803300000000000e+09
7.300000000000000000e+01,9.700000000000000000e+01,5.240000000000000000e+02,1.650000000000000000e+02,3.400000000000000000e+01,3.000000000000000000e+01,3.200000000000000000e+01,2.880000000000000000e+02,5.100000000000000089e-01,3.137770600000000000e+09
8.000000000000000000e+01,1.080000000000000000e+02,5.230000000000000000e+02,1.480000000000000000e+02,3.200000000000000000e+01,3.000000000000000000e+01,3.300000000000000000e+01,3.420000000000000000e+02,5.100000000000000089e-01,3.154979600000000000e+09
7.700000000000000000e+01,1.090000000000000000e+02,5.290000000000000000e+02,1.580000000000000000e+02,3.200000000000000000e+01,2.900000000000000000e+01,2.800000000000000000e+01,2.680000000000000000e+02,5.100000000000000089e-01,3.172673600000000000e+09
8.800000000000000000e+01,1.110000000000000000e+02,4.910000000000000000e+02,1.490000000000000000e+02,3.200000000000000000e+01,3.100000000000000000e+01,3.200000000000000000e+01,2.840000000000000000e+02,5.100000000000000089e-01,3.189857300000000000e+09
9.000000000000000000e+01,1.110000000000000000e+02,4.750000000000000000e+02,1.420000000000000000e+02,3.400000000000000000e+01,2.800000000000000000e+01,3.000000000000000000e+01,2.790000000000000000e+02,5.100000000000000089e-01,3.207254100000000000e+09
7.700000000000000000e+01,1.240000000000000000e+02,5.310000000000000000e+02,1.370000000000000000e+02,3.400000000000000000e+01,2.900000000000000000e+01,3.200000000000000000e+01,3.180000000000000000e+02,5.100000000000000089e-01,3.225401000000000000e+09
6.900000000000000000e+01,1.160000000000000000e+02,4.560000000000000000e+02,1.190000000000000000e+02,3.300000000000000000e+01,2.700000000000000000e+01,2.900000000000000000e+01,2.640000000000000000e+02,5.100000000000000089e-01,3.242162000000000000e+09
7.400000000000000000e+01,1.170000000000000000e+02,4.100000000000000000e+02,1.020000000000000000e+02,3.200000000000000000e+01,2.800000000000000000e+01,2.800000000000000000e+01,2.460000000000000000e+02,5.100000000000000089e-01,3.260119600000000000e+09
6.000000000000000000e+01,1.170000000000000000e+02,4.410000000000000000e+02,1.300000000000000000e+02,3.000000000000000000e+01,2.500000000000000000e+01,2.600000000000000000e+01,2.270000000000000000e+02,5.100000000000000089e-01,3.277359300000000000e+09
5.900000000000000000e+01,1.280000000000000000e+02,4.480000000000000000e+02,1.450000000000000000e+02,3.100000000000000000e+01,2.900000000000000000e+01,3.200000000000000000e+01,2.750000000000000000e+02,5.100000000000000089e-01,3.294357700000000000e+09
6.400000000000000000e+01,9.600000000000000000e+01,3.660000000000000000e+02,1.300000000000000000e+02,2.800000000000000000e+01,2.800000000000000000e+01,3.100000000000000000e+01,2.620000000000000000e+02,5.100000000000000089e-01,3.312129700000000000e+09
6.900000000000000000e+01,9.000000000000000000e+01,3.970000000000000000e+02,1.480000000000000000e+02,3.300000000000000000e+01,3.100000000000000000e+01,3.200000000000000000e+01,2.790000000000000000e+02,5.100000000000000089e-01,3.330443100000000000e+09
6.400000000000000000e+01,9.100000000000000000e+01,4.120000000000000000e+02,1.620000000000000000e+02,3.600000000000000000e+01,3.000000000000000000e+01,3.100000000000000000e+01,2.790000000000000000e+02,5.100000000000000089e-01,3.348936600000000000e+09
6.200000000000000000e+01,1.180000000000000000e+02,3.900000000000000000e+02,1.430000000000000000e+02,3.500000000000000000e+01,3.000000000000000000e+01,3.100000000000000000e+01,2.710000000000000000e+02,5.100000000000000089e-01,3.368951800000000000e+09
6.200000000000000000e+01,1.070000000000000000e+02,3.810000000000000000e+02,1.470000000000000000e+02,3.600000000000000000e+01,3.300000000000000000e+01,2.500000000000000000e+01,2.020000000000000000e+02,5.100000000000000089e-01,3.391231200000000000e+09
6.000000000000000000e+01,1.080000000000000000e+02,3.770000000000000000e+02,1.490000000000000000e+02,3.400000000000000000e+01,3.200000000000000000e+01,2.800000000000000000e+01,2.990000000000000000e+02,5.000000000000000000e-01,3.408903600000000000e+09
5.700000000000000000e+01,1.110000000000000000e+02,3.810000000000000000e+02,1.380000000000000000e+02,3.200000000000000000e+01,3.100000000000000000e+01,2.700000000000000000e+01,2.840000000000000000e+02,5.000000000000000000e-01,3.427498700000000000e+09
5.600000000000000000e+01,1.150000000000000000e+02,3.510000000000000000e+02,1.330000000000000000e+02,3.300000000000000000e+01,3.200000000000000000e+01,2.900000000000000000e+01,2.920000000000000000e+02,5.000000000000000000e-01,3.446772000000000000e+09
5.100000000000000000e+01,1.060000000000000000e+02,3.870000000000000000e+02,1.430000000000000000e+02,3.300000000000000000e+01,3.100000000000000000e+01,2.600000000000000000e+01,2.950000000000000000e+02,5.000000000000000000e-01,3.469008500000000000e+09
5.100000000000000000e+01,1.140000000000000000e+02,4.440000000000000000e+02,1.470000000000000000e+02,3.700000000000000000e+01,2.500000000000000000e+01,2.700000000000000000e+01,2.940000000000000000e+02,5.000000000000000000e-01,3.491197300000000000e+09
4.800000000000000000e+01,1.170000000000000000e+02,4.610000000000000000e+02,1.500000000000000000e+02,3.900000000000000000e+01,2.600000000000000000e+01,2.400000000000000000e+01,1.890000000000000000e+02,5.000000000000000000e-01,3.509922600000000000e+09
5.800000000000000000e+01,1.240000000000000000e+02,4.520000000000000000e+02,1.440000000000000000e+02,3.800000000000000000e+01,2.400000000000000000e+01,2.400000000000000000e+01,1.860000000000000000e+02,5.000000000000000000e-01,3.528108800000000000e+09
5.500000000000000000e+01,1.210000000000000000e+02,4.680000000000000000e+02,1.520000000000000000e+02,4.000000000000000000e+01,2.800000000000000000e+01,2.400000000000000000e+01,1.720000000000000000e+02,5.100000000000000089e-01,3.547003700000000000e+09
6.300000000000000000e+01,1.160000000000000000e+02,4.910000000000000000e+02,1.530000000000000000e+02,4.400000000000000000e+01,2.900000000000000000e+01,2.500000000000000000e+01,1.730000000000000000e+02,5.100000000000000089e-01,3.568907300000000000e+09
6.200000000000000000e+01,1.070000000000000000e+02,4.360000000000000000e+02,1.390000000000000000e+02,4.000000000000000000e+01,2.700000000000000000e+01,2.300000000000000000e+01,1.720000000000000000e+02,5.200000000000000178e-01,3.591095000000000000e+09
6.600000000000000000e+01,1.080000000000000000e+02,4.080000000000000000e+02,1.260000000000000000e+02,3.900000000000000000e+01,2.800000000000000000e+01,2.300000000000000000e+01,1.160000000000000000e+02,5.200000000000000178e-01,3.608508900000000000e+09
6.300000000000000000e+01,1.050000000000000000e+02,3.830000000000000000e+02,1.320000000000000000e+02,3.800000000000000000e+01,2.900000000000000000e+01,2.300000000000000000e+01,1.260000000000000000e+02,5.300000000000000266e-01,3.626980600000000000e+09
6.900000000000000000e+01,1.120000000000000000e+02,3.860000000000000000e+02,1.330000000000000000e+02,3.400000000000000000e+01,2.700000000000000000e+01,2.400000000000000000e+01,1.830000000000000000e+02,5.300000000000000266e-01,3.646783400000000000e+09
7.000000000000000000e+01,9.500000000000000000e+01,3.760000000000000000e+02,1.270000000000000000e+02,3.000000000000000000e+01,2.600000000000000000e+01,2.700000000000000000e+01,1.880000000000000000e+02,5.400000000000000355e-01,3.668818200000000000e+09
7.300000000000000000e+01,1.040000000000000000e+02,4.070000000000000000e+02,1.280000000000000000e+02,3.100000000000000000e+01,2.700000000000000000e+01,2.700000000000000000e+01,1.900000000000000000e+02,5.500000000000000444e-01,3.691054200000000000e+09
7.200000000000000000e+01,1.060000000000000000e+02,4.280000000000000000e+02,1.320000000000000000e+02,3.300000000000000000e+01,2.700000000000000000e+01,2.900000000000000000e+01,1.950000000000000000e+02,5.500000000000000444e-01,3.708812500000000000e+09
6.800000000000000000e+01,1.030000000000000000e+02,4.550000000000000000e+02,1.270000000000000000e+02,3.700000000000000000e+01,3.100000000000000000e+01,3.100000000000000000e+01,2.460000000000000000e+02,5.600000000000000533e-01,3.727016400000000000e+09
7.000000000000000000e+01,1.020000000000000000e+02,4.810000000000000000e+02,1.310000000000000000e+02,3.700000000000000000e+01,2.900000000000000000e+01,3.200000000000000000e+01,2.230000000000000000e+02,5.600000000000000533e-01,3.747257400000000000e+09
6.700000000000000000e+01,1.010000000000000000e+02,4.340000000000000000e+02,1.280000000000000000e+02,3.500000000000000000e+01,2.800000000000000000e+01,3.000000000000000000e+01,2.190000000000000000e+02,5.600000000000000533e-01,3.770005000000000000e+09
6.700000000000000000e+01,9.400000000000000000e+01,3.920000000000000000e+02,1.160000000000000000e+02,3.400000000000000000e+01,2.700000000000000000e+01,3.000000000000000000e+01,2.200000000000000000e+02,5.600000000000000533e-01,3.787605600000000000e+09
6.600000000000000000e+01,8.300000000000000000e+01,3.590000000000000000e+02,1.200000000000000000e+02,3.300000000000000000e+01,2.600000000000000000e+01,3.000000000000000000e+01,2.180000000000000000e+02,5.600000000000000533e-01,3.806182100000000000e+09
7.000000000000000000e+01,7.800000000000000000e+01,3.560000000000000000e+02,1.200000000000000000e+02,3.200000000000000000e+01,2.500000000000000000e+01,2.900000000000000000e+01,2.190000000000000000e+02,5.500000000000000444e-01,3.827418400000000000e+09
6.800000000000000000e+01,7.000000000000000000e+01,3.550000000000000000e+02,1.170000000000000000e+02,3.100000000000000000e+01,2.600000000000000000e+01,2.800000000000000000e+01,2.160000000000000000e+02,5.500000000000000444e-01,3.850397600000000000e+09
6.900000000000000000e+01,8.000000000000000000e+01,3.490000000000000000e+02,1.230000000000000000e+02,3.100000000000000000e+01,2.700000000000000000e+01,3.000000000000000000e+01,2.160000000000000000e+02,5.500000000000000444e-01,3.868645300000000000e+09
6.800000000000000000e+01,8.400000000000000000e+01,4.140000000000000000e+02,1.340000000000000000e+02,3.100000000000000000e+01,2.600000000000000000e+01,2.900000000000000000e+01,2.240000000000000000e+02,5.500000000000000444e-01,3.886307500000000000e+09
6.400000000000000000e+01,8.700000000000000000e+01,4.090000000000000000e+02,1.290000000000000000e+02,3.100000000000000000e+01,2.700000000000000000e+01,2.800000000000000000e+01,2.220000000000000000e+02,5.500000000000000444e-01,3.907435600000000000e+09
5.600000000000000000e+01,8.900000000000000000e+01,3.870000000000000000e+02,1.230000000000000000e+02,2.600000000000000000e+01,2.400000000000000000e+01,2.700000000000000000e+01,1.480000000000000000e+02,5.500000000000000444e-01,3.929669000000000000e+09
5.000000000000000000e+01,9.600000000000000000e+01,3.580000000000000000e+02,1.030000000000000000e+02,2.600000000000000000e+01,2.400000000000000000e+01,2.400000000000000000e+01,1.170000000000000000e+02,5.500000000000000444e-01,3.951788300000000000e+09
5.100000000000000000e+01,9.000000000000000000e+01,3.780000000000000000e+02,1.050000000000000000e+02,3.100000000000000000e+01,2.600000000000000000e+01,2.000000000000000000e+01,9.800000000000000000e+01,5.500000000000000444e-01,3.969856000000000000e+09
5.000000000000000000e+01,9.400000000000000000e+01,3.540000000000000000e+02,1.120000000000000000e+02,3.400000000000000000e+01,2.700000000000000000e+01,2.300000000000000000e+01,6.300000000000000000e+01,5.600000000000000533e-01,3.987839500000000000e+09
5.000000000000000000e+01,9.500000000000000000e+01,3.530000000000000000e+02,1.120000000000000000e+02,3.400000000000000000e+01,2.700000000000000000e+01,2.400000000000000000e+01,5.700000000000000000e+01,5.600000000000000533e-01,4.007251500000000000e+09
6.300000000000000000e+01,9.300000000000000000e+01,3.640000000000000000e+02,1.210000000000000000e+02,3.700000000000000000e+01,3.000000000000000000e+01,2.400000000000000000e+01,5.300000000000000000e+01,5.600000000000000533e-01,4.029500000000000000e+09
6.000000000000000000e+01,8.400000000000000000e+01,3.470000000000000000e+02,1.180000000000000000e+02,3.700000000000000000e+01,2.900000000000000000e+01,2.500000000000000000e+01,3.500000000000000000e+01,5.699999999999999512e-01,4.051489800000000000e+09
6.400000000000000000e+01,9.500000000000000000e+01,3.700000000000000000e+02,1.330000000000000000e+02,3.700000000000000000e+01,2.900000000000000000e+01,2.700000000000000000e+01,4.100000000000000000e+01,5.699999999999999512e-01,4.069314200000000000e+09
6.600000000000000000e+01,1.000000000000000000e+02,3.310000000000000000e+02,1.220000000000000000e+02,3.500000000000000000e+01,2.800000000000000000e+01,2.500000000000000000e+01,4.300000000000000000e+01,5.799999999999999600e-01,4.087819600000000000e+09
6.500000000000000000e+01,9.600000000000000000e+01,3.240000000000000000e+02,1.190000000000000000e+02,3.500000000000000000e+01,2.800000000000000000e+01,2.400000000000000000e+01,4.300000000000000000e+01,5.799999999999999600e-01,4.107029500000000000e+09
5.500000000000000000e+01,9.200000000000000000e+01,3.030000000000000000e+02,1.100000000000000000e+02,3.300000000000000000e+01,2.600000000000000000e+01,2.400000000000000000e+01,4.200000000000000000e+01,5.899999999999999689e-01,4.129308000000000000e+09
5.300000000000000000e+01,8.800000000000000000e+01,2.820000000000000000e+02,1.060000000000000000e+02,3.200000000000000000e+01,2.400000000000000000e+01,2.400000000000000000e+01,4.300000000000000000e+01,5.899999999999999689e-01,4.151419100000000000e+09
4.000000000000000000e+01,7.300000000000000000e+01,1.860000000000000000e+02,6.200000000000000000e+01,2.700000000000000000e+01,2.300000000000000000e+01,2.400000000000000000e+01,3.300000000000000000e+01,5.899999999999999689e-01,4.169365700000000000e+09
2.700000000000000000e+01,6.600000000000000000e+01,1.470000000000000000e+02,3.700000000000000000e+01,2.500000000000000000e+01,2.400000000000000000e+01,2.200000000000000000e+01,3.100000000000000000e+01,5.899999999999999689e-01,4.188379600000000000e+09
2.600000000000000000e+01,6.900000000000000000e+01,1.240000000000000000e+02,5.200000000000000000e+01,2.400000000000000000e+01,2.300000000000000000e+01,2.200000000000000000e+01,3.000000000000000000e+01,5.799999999999999600e-01,4.207518100000000000e+09
2.000000000000000000e+01,8.200000000000000000e+01,1.260000000000000000e+02,8.200000000000000000e+01,2.500000000000000000e+01,2.300000000000000000e+01,2.000000000000000000e+01,2.400000000000000000e+01,5.799999999999999600e-01,4.229371000000000000e+09
2.500000000000000000e+01,9.800000000000000000e+01,3.100000000000000000e+02,1.090000000000000000e+02,2.800000000000000000e+01,2.500000000000000000e+01,2.300000000000000000e+01,2.700000000000000000e+01,5.799999999999999600e-01,4.251600900000000000e+09
3.300000000000000000e+01,1.180000000000000000e+02,4.690000000000000000e+02,2.080000000000000000e+02,4.100000000000000000e+01,3.300000000000000000e+01,2.600000000000000000e+01,2.900000000000000000e+01,5.899999999999999689e-01,4.270030300000000000e+09
6.600000000000000000e+01,1.800000000000000000e+02,6.120000000000000000e+02,3.330000000000000000e+02,6.600000000000000000e+01,4.900000000000000000e+01,3.400000000000000000e+01,4.100000000000000000e+01,5.899999999999999689e-01,4.287965100000000000e+09
8.500000000000000000e+01,2.490000000000000000e+02,8.380000000000000000e+02,4.420000000000000000e+02,8.000000000000000000e+01,5.500000000000000000e+01,3.500000000000000000e+01,4.900000000000000000e+01,5.799999999999999600e-01,4.307025400000000000e+09
9.000000000000000000e+01,2.630000000000000000e+02,9.660000000000000000e+02,5.090000000000000000e+02,8.900000000000000000e+01,6.000000000000000000e+01,3.900000000000000000e+01,5.100000000000000000e+01,5.699999999999999512e-01,4.329233800000000000e+09
1.080000000000000000e+02,2.960000000000000000e+02,9.970000000000000000e+02,6.290000000000000000e+02,1.250000000000000000e+02,7.900000000000000000e+01,4.400000000000000000e+01,7.600000000000000000e+01,5.600000000000000533e-01,4.351540700000000000e+09
1.370000000000000000e+02,3.360000000000000000e+02,1.062000000000000000e+03,7.370000000000000000e+02,1.660000000000000000e+02,1.070000000000000000e+02,5.900000000000000000e+01,1.630000000000000000e+02,5.500000000000000444e-01,4.370111100000000000e+09
1.300000000000000000e+02,3.200000000000000000e+02,1.094000000000000000e+03,7.440000000000000000e+02,1.640000000000000000e+02,1.040000000000000000e+02,5.800000000000000000e+01,1.650000000000000000e+02,5.300000000000000266e-01,4.388279800000000000e+09
1.500000000000000000e+02,3.370000000000000000e+02,9.880000000000000000e+02,7.620000000000000000e+02,1.940000000000000000e+02,1.250000000000000000e+02,6.900000000000000000e+01,1.710000000000000000e+02,5.200000000000000178e-01,4.407123500000000000e+09
1.630000000000000000e+02,3.730000000000000000e+02,1.096000000000000000e+03,8.440000000000000000e+02,2.390000000000000000e+02,1.470000000000000000e+02,7.800000000000000000e+01,1.760000000000000000e+02,5.000000000000000000e-01,4.429310400000000000e+09
1.600000000000000000e+02,3.600000000000000000e+02,1.110000000000000000e+03,8.670000000000000000e+02,2.520000000000000000e+02,1.540000000000000000e+02,8.000000000000000000e+01,1.740000000000000000e+02,4.899999999999999911e-01,4.451717200000000000e+09
1.510000000000000000e+02,3.640000000000000000e+02,1.184000000000000000e+03,8.420000000000000000e+02,2.400000000000000000e+02,1.430000000000000000e+02,7.300000000000000000e+01,1.010000000000000000e+02,4.699999999999999734e-01,4.470483700000000000e+09
1.810000000000000000e+02,4.190000000000000000e+02,1.188000000000000000e+03,1.023000000000000000e+03,2.720000000000000000e+02,1.710000000000000000e+02,9.000000000000000000e+01,1.130000000000000000e+02,4.500000000000000111e-01,4.488823400000000000e+09
1.740000000000000000e+02,4.420000000000000000e+02,1.286000000000000000e+03,1.138000000000000000e+03,3.000000000000000000e+02,1.800000000000000000e+02,9.100000000000000000e+01,1.080000000000000000e+02,4.199999999999999845e-01,4.506862600000000000e+09
1.780000000000000000e+02,4.340000000000000000e+02,1.132000000000000000e+03,1.150000000000000000e+03,3.250000000000000000e+02,1.860000000000000000e+02,9.400000000000000000e+01,1.100000000000000000e+02,3.900000000000000133e-01,4.525337000000000000e+09
1.880000000000000000e+02,4.690000000000000000e+02,1.197000000000000000e+03,1.132000000000000000e+03,3.330000000000000000e+02,1.860000000000000000e+02,9.800000000000000000e+01,1.090000000000000000e+02,3.699999999999999956e-01,4.546377600000000000e+09
2.250000000000000000e+02,5.740000000000000000e+02,1.115000000000000000e+03,1.154000000000000000e+03,3.750000000000000000e+02,2.140000000000000000e+02,1.110000000000000000e+02,1.260000000000000000e+02,3.499999999999999778e-01,4.568407900000000000e+09
2.240000000000000000e+02,5.690000000000000000e+02,1.093000000000000000e+03,1.051000000000000000e+03,3.710000000000000000e+02,2.120000000000000000e+02,1.060000000000000000e+02,1.230000000000000000e+02,3.300000000000000155e-01,4.590844500000000000e+09
2.700000000000000000e+02,6.760000000000000000e+02,1.090000000000000000e+03,9.770000000000000000e+02,3.930000000000000000e+02,2.210000000000000000e+02,1.160000000000000000e+02,1.440000000000000000e+02,3.200000000000000067e-01,4.610169500000000000e+09
2.930000000000000000e+02,7.010000000000000000e+02,1.185000000000000000e+03,1.015000000000000000e+03,3.780000000000000000e+02,2.280000000000000000e+02,1.200000000000000000e+02,1.540000000000000000e+02,2.999999999999999889e-01,4.628408400000000000e+09
2.930000000000000000e+02,6.930000000000000000e+02,1.136000000000000000e+03,1.025000000000000000e+03,4.120000000000000000e+02,2.360000000000000000e+02,1.240000000000000000e+02,1.520000000000000000e+02,2.800000000000000266e-01,4.647332400000000000e+09
2.850000000000000000e+02,6.620000000000000000e+02,1.218000000000000000e+03,1.033000000000000000e+03,4.020000000000000000e+02,2.320000000000000000e+02,1.300000000000000000e+02,1.500000000000000000e+02,2.700000000000000178e-01,4.669094900000000000e+09
3.090000000000000000e+02,6.860000000000000000e+02,1.202000000000000000e+03,1.161000000000000000e+03,4.500000000000000000e+02,2.550000000000000000e+02,1.400000000000000000e+02,1.670000000000000000e+02,2.600000000000000089e-01,4.690569800000000000e+09
2.840000000000000000e+02,5.960000000000000000e+02,1.194000000000000000e+03,1.174000000000000000e+03,4.220000000000000000e+02,2.400000000000000000e+02,1.350000000000000000e+02,1.590000000000000000e+02,2.500000000000000000e-01,4.710330500000000000e+09
2.550000000000000000e+02,5.970000000000000000e+02,1.176000000000000000e+03,1.114000000000000000e+03,4.030000000000000000e+02,2.210000000000000000e+02,1.250000000000000000e+02,1.430000000000000000e+02,2.399999999999999911e-01,4.728727400000000000e+09
2.670000000000000000e+02,6.350000000000000000e+02,1.161000000000000000e+03,1.132000000000000000e+03,3.750000000000000000e+02,2.240000000000000000e+02,1.270000000000000000e+02,1.510000000000000000e+02,2.300000000000000100e-01,4.749704700000000000e+09
2.520000000000000000e+02,6.200000000000000000e+02,1.094000000000000000e+03,1.077000000000000000e+03,3.660000000000000000e+02,2.110000000000000000e+02,1.100000000000000000e+02,1.430000000000000000e+02,2.200000000000000011e-01,4.768532900000000000e+09
2.280000000000000000e+02,5.910000000000000000e+02,1.190000000000000000e+03,9.010000000000000000e+02,3.190000000000000000e+02,1.820000000000000000e+02,1.020000000000000000e+02,1.260000000000000000e+02,2.099999999999999922e-01,4.790556900000000000e+09
2.080000000000000000e+02,5.930000000000000000e+02,1.214000000000000000e+03,8.760000000000000000e+02,2.940000000000000000e+02,1.750000000000000000e+02,9.000000000000000000e+01,1.150000000000000000e+02,2.000000000000000111e-01,4.808797300000000000e+09
2.180000000000000000e+02,6.010000000000000000e+02,1.213000000000000000e+03,9.240000000000000000e+02,3.040000000000000000e+02,1.850000000000000000e+02,1.020000000000000000e+02,1.190000000000000000e+02,1.900000000000000022e-01,4.827975600000000000e+09
2.030000000000000000e+02,5.790000000000000000e+02,1.256000000000000000e+03,9.040000000000000000e+02,2.940000000000000000e+02,1.830000000000000000e+02,9.900000000000000000e+01,1.100000000000000000e+02,1.900000000000000022e-01,4.846782900000000000e+09
1.960000000000000000e+02,5.240000000000000000e+02,1.299000000000000000e+03,9.820000000000000000e+02,3.080000000000000000e+02,1.810000000000000000e+02,1.010000000000000000e+02,1.070000000000000000e+02,1.799999999999999933e-01,4.868459800000000000e+09
1.960000000000000000e+02,5.570000000000000000e+02,1.231000000000000000e+03,1.010000000000000000e+03,3.310000000000000000e+02,1.980000000000000000e+02,1.090000000000000000e+02,1.100000000000000000e+02,1.799999999999999933e-01,4.890749000000000000e+09
2.090000000000000000e+02,5.270000000000000000e+02,1.236000000000000000e+03,1.051000000000000000e+03,3.560000000000000000e+02,2.170000000000000000e+02,1.150000000000000000e+02,1.230000000000000000e+02,1.799999999999999933e-01,4.909355100000000000e+09
2.090000000000000000e+02,5.230000000000000000e+02,1.175000000000000000e+03,1.009000000000000000e+03,3.520000000000000000e+02,2.120000000000000000e+02,1.090000000000000000e+02,1.250000000000000000e+02,1.799999999999999933e-01,4.928988600000000000e+09
1.990000000000000000e+02,5.060000000000000000e+02,1.106000000000000000e+03,9.540000000000000000e+02,3.360000000000000000e+02,2.000000000000000000e+02,1.050000000000000000e+02,1.210000000000000000e+02,1.700000000000000122e-01,4.947932600000000000e+09
1.910000000000000000e+02,4.940000000000000000e+02,1.032000000000000000e+03,8.600000000000000000e+02,2.930000000000000000e+02,1.900000000000000000e+02,9.900000000000000000e+01,1.180000000000000000e+02,1.700000000000000122e-01,4.970163700000000000e+09
1.660000000000000000e+02,4.470000000000000000e+02,1.023000000000000000e+03,8.450000000000000000e+02,2.370000000000000000e+02,1.520000000000000000e+02,7.900000000000000000e+01,1.020000000000000000e+02,1.700000000000000122e-01,4.989028100000000000e+09
1.520000000000000000e+02,4.280000000000000000e+02,9.180000000000000000e+02,6.890000000000000000e+02,2.100000000000000000e+02,1.330000000000000000e+02,8.200000000000000000e+01,8.500000000000000000e+01,1.600000000000000033e-01,5.007126500000000000e+09
1.490000000000000000e+02,3.770000000000000000e+02,9.680000000000000000e+02,6.660000000000000000e+02,2.130000000000000000e+02,1.310000000000000000e+02,8.500000000000000000e+01,8.600000000000000000e+01,1.600000000000000033e-01,5.027196600000000000e+09
1.440000000000000000e+02,3.480000000000000000e+02,9.920000000000000000e+02,7.550000000000000000e+02,2.230000000000000000e+02,1.200000000000000000e+02,7.500000000000000000e+01,8.100000000000000000e+01,1.600000000000000033e-01,5.050128500000000000e+09
1.520000000000000000e+02,3.750000000000000000e+02,1.020000000000000000e+03,7.640000000000000000e+02,2.380000000000000000e+02,1.210000000000000000e+02,7.500000000000000000e+01,8.400000000000000000e+01,1.600000000000000033e-01,5.067828100000000000e+09
1.450000000000000000e+02,3.460000000000000000e+02,9.950000000000000000e+02,7.550000000000000000e+02,2.310000000000000000e+02,1.190000000000000000e+02,7.200000000000000000e+01,8.000000000000000000e+01,1.600000000000000033e-01,5.085946500000000000e+09
1.340000000000000000e+02,3.120000000000000000e+02,9.440000000000000000e+02,7.570000000000000000e+02,2.250000000000000000e+02,1.100000000000000000e+02,6.500000000000000000e+01,7.900000000000000000e+01,1.600000000000000033e-01,5.106936200000000000e+09
1.400000000000000000e+02,3.420000000000000000e+02,9.880000000000000000e+02,7.160000000000000000e+02,2.400000000000000000e+02,1.220000000000000000e+02,6.700000000000000000e+01,8.100000000000000000e+01,1.600000000000000033e-01,5.129119000000000000e+09
1.430000000000000000e+02,3.600000000000000000e+02,1.009000000000000000e+03,6.220000000000000000e+02,2.310000000000000000e+02,1.210000000000000000e+02,6.900000000000000000e+01,8.300000000000000000e+01,1.600000000000000033e-01,5.151228000000000000e+09
1.390000000000000000e+02,3.480000000000000000e+02,9.660000000000000000e+02,6.200000000000000000e+02,2.180000000000000000e+02,1.300000000000000000e+02,7.000000000000000000e+01,7.900000000000000000e+01,1.600000000000000033e-01,5.170129800000000000e+09
1.410000000000000000e+02,3.420000000000000000e+02,1.064000000000000000e+03,5.580000000000000000e+02,2.270000000000000000e+02,1.350000000000000000e+02,7.200000000000000000e+01,8.200000000000000000e+01,1.600000000000000033e-01,5.188143200000000000e+09
1.370000000000000000e+02,3.450000000000000000e+02,1.115000000000000000e+03,5.360000000000000000e+02,2.180000000000000000e+02,1.380000000000000000e+02,6.700000000000000000e+01,7.800000000000000000e+01,1.499999999999999944e-01,5.207155700000000000e+09
1.160000000000000000e+02,3.240000000000000000e+02,1.189000000000000000e+03,5.610000000000000000e+02,1.770000000000000000e+02,1.230000000000000000e+02,5.400000000000000000e+01,6.700000000000000000e+01,1.499999999999999944e-01,5.228952500000000000e+09
1.230000000000000000e+02,3.250000000000000000e+02,1.172000000000000000e+03,5.540000000000000000e+02,1.850000000000000000e+02,1.290000000000000000e+02,5.300000000000000000e+01,7.000000000000000000e+01,1.600000000000000033e-01,5.251137000000000000e+09
1.290000000000000000e+02,3.290000000000000000e+02,1.156000000000000000e+03,5.680000000000000000e+02,1.810000000000000000e+02,1.180000000000000000e+02,5.500000000000000000e+01,7.500000000000000000e+01,1.600000000000000033e-01,5.269976100000000000e+09
1.340000000000000000e+02,3.300000000000000000e+02,1.124000000000000000e+03,5.660000000000000000e+02,1.850000000000000000e+02,1.350000000000000000e+02,6.400000000000000000e+01,7.900000000000000000e+01,1.600000000000000033e-01,5.287686500000000000e+09
1.410000000000000000e+02,3.330000000000000000e+02,1.071000000000000000e+03,5.730000000000000000e+02,1.970000000000000000e+02,1.370000000000000000e+02,7.100000000000000000e+01,8.100000000000000000e+01,1.600000000000000033e-01,5.306368700000000000e+09
1.360000000000000000e+02,3.030000000000000000e+02,1.010000000000000000e+03,4.950000000000000000e+02,1.900000000000000000e+02,1.300000000000000000e+02,7.300000000000000000e+01,7.900000000000000000e+01,1.499999999999999944e-01,5.328859400000000000e+09
1.420000000000000000e+02,2.870000000000000000e+02,9.990000000000000000e+02,5.640000000000000000e+02,1.910000000000000000e+02,1.340000000000000000e+02,7.800000000000000000e+01,8.200000000000000000e+01,1.499999999999999944e-01,5.350938300000000000e+09
1.340000000000000000e+02,2.710000000000000000e+02,9.960000000000000000e+02,5.300000000000000000e+02,1.870000000000000000e+02,1.320000000000000000e+02,7.300000000000000000e+01,7.600000000000000000e+01,1.600000000000000033e-01,5.369138600000000000e+09
1.240000000000000000e+02,2.740000000000000000e+02,9.630000000000000000e+02,4.930000000000000000e+02,1.650000000000000000e+02,1.050000000000000000e+02,6.200000000000000000e+01,6.900000000000000000e+01,1.600000000000000033e-01,5.387102800000000000e+09
1.080000000000000000e+02,2.630000000000000000e+02,9.610000000000000000e+02,4.740000000000000000e+02,1.370000000000000000e+02,8.700000000000000000e+01,5.200000000000000000e+01,6.000000000000000000e+01,1.700000000000000122e-01,5.406592700000000000e+09
1.010000000000000000e+02,2.500000000000000000e+02,8.740000000000000000e+02,4.730000000000000000e+02,1.370000000000000000e+02,8.600000000000000000e+01,4.700000000000000000e+01,5.500000000000000000e+01,1.799999999999999933e-01,5.428870100000000000e+09
7.000000000000000000e+01,2.180000000000000000e+02,8.620000000000000000e+02,3.540000000000000000e+02,1.000000000000000000e+02,7.700000000000000000e+01,3.400000000000000000e+01,3.800000000000000000e+01,2.000000000000000111e-01,5.451474200000000000e+09
6.400000000000000000e+01,2.190000000000000000e+02,9.350000000000000000e+02,2.910000000000000000e+02,9.500000000000000000e+01,7.900000000000000000e+01,3.900000000000000000e+01,3.900000000000000000e+01,2.099999999999999922e-01,5.469178000000000000e+09
5.700000000000000000e+01,1.880000000000000000e+02,9.290000000000000000e+02,2.750000000000000000e+02,8.700000000000000000e+01,8.300000000000000000e+01,3.600000000000000000e+01,3.700000000000000000e+01,2.200000000000000011e-01,5.487405900000000000e+09
5.600000000000000000e+01,1.680000000000000000e+02,9.500000000000000000e+02,2.740000000000000000e+02,9.000000000000000000e+01,8.300000000000000000e+01,3.600000000000000000e+01,3.700000000000000000e+01,2.300000000000000100e-01,5.506828100000000000e+09
5.700000000000000000e+01,1.640000000000000000e+02,9.170000000000000000e+02,2.550000000000000000e+02,8.500000000000000000e+01,8.400000000000000000e+01,3.600000000000000000e+01,4.400000000000000000e+01,2.500000000000000000e-01,5.528807000000000000e+09
6.300000000000000000e+01,1.540000000000000000e+02,8.820000000000000000e+02,2.080000000000000000e+02,7.500000000000000000e+01,6.100000000000000000e+01,4.100000000000000000e+01,3.340000000000000000e+02,2.600000000000000089e-01,5.550850000000000000e+09
5.900000000000000000e+01,1.110000000000000000e+02,7.030000000000000000e+02,1.900000000000000000e+02,7.200000000000000000e+01,7.700000000000000000e+01,8.500000000000000000e+01,3.420000000000000000e+02,2.700000000000000178e-01,5.568468500000000000e+09
6.000000000000000000e+01,1.060000000000000000e+02,5.780000000000000000e+02,1.560000000000000000e+02,6.300000000000000000e+01,7.900000000000000000e+01,9.800000000000000000e+01,3.560000000000000000e+02,2.899999999999999800e-01,5.586897300000000000e+09
6.600000000000000000e+01,1.100000000000000000e+02,4.870000000000000000e+02,1.210000000000000000e+02,4.600000000000000000e+01,9.600000000000000000e+01,1.150000000000000000e+02,3.630000000000000000e+02,2.999999999999999889e-01,5.606688100000000000e+09
7.000000000000000000e+01,9.800000000000000000e+01,5.030000000000000000e+02,1.670000000000000000e+02,5.400000000000000000e+01,1.250000000000000000e+02,1.320000000000000000e+02,3.830000000000000000e+02,3.099999999999999978e-01,5.628765600000000000e+09
6.100000000000000000e+01,9.400000000000000000e+01,4.630000000000000000e+02,1.640000000000000000e+02,5.600000000000000000e+01,1.380000000000000000e+02,1.470000000000000000e+02,2.070000000000000000e+02,3.300000000000000155e-01,5.650985400000000000e+09
6.200000000000000000e+01,8.900000000000000000e+01,4.710000000000000000e+02,1.640000000000000000e+02,5.300000000000000000e+01,1.280000000000000000e+02,1.340000000000000000e+02,1.980000000000000000e+02,3.400000000000000244e-01,5.668758200000000000e+09
6.200000000000000000e+01,8.700000000000000000e+01,4.880000000000000000e+02,1.620000000000000000e+02,5.800000000000000000e+01,1.280000000000000000e+02,1.270000000000000000e+02,1.780000000000000000e+02,3.599999999999999867e-01,5.686679600000000000e+09
6.200000000000000000e+01,7.900000000000000000e+01,4.760000000000000000e+02,1.600000000000000000e+02,5.800000000000000000e+01,1.380000000000000000e+02,1.630000000000000000e+02,1.730000000000000000e+02,3.699999999999999956e-01,5.706301300000000000e+09
5.900000000000000000e+01,6.500000000000000000e+01,3.530000000000000000e+02,9.000000000000000000e+01,4.200000000000000000e+01,1.310000000000000000e+02,1.540000000000000000e+02,1.240000000000000000e+02,3.800000000000000044e-01,5.728833400000000000e+09
6.000000000000000000e+01,5.900000000000000000e+01,3.280000000000000000e+02,8.900000000000000000e+01,4.000000000000000000e+01,1.260000000000000000e+02,1.420000000000000000e+02,1.010000000000000000e+02,4.000000000000000222e-01,5.751033200000000000e+09
5.900000000000000000e+01,7.000000000000000000e+01,3.760000000000000000e+02,8.600000000000000000e+01,4.400000000000000000e+01,1.260000000000000000e+02,1.360000000000000000e+02,8.900000000000000000e+01,4.099999999999999756e-01,5.770103900000000000e+09
5.200000000000000000e+01,7.000000000000000000e+01,4.120000000000000000e+02,8.200000000000000000e+01,3.900000000000000000e+01,1.250000000000000000e+02,1.370000000000000000e+02,7.400000000000000000e+01,4.199999999999999845e-01,5.789466300000000000e+09
5.100000000000000000e+01,8.300000000000000000e+01,4.790000000000000000e+02,1.330000000000000000e+02,4.500000000000000000e+01,1.010000000000000000e+02,6.800000000000000000e+01,5.100000000000000000e+01,4.400000000000000022e-01,5.807457900000000000e+09
4.500000000000000000e+01,8.400000000000000000e+01,4.950000000000000000e+02,1.380000000000000000e+02,4.600000000000000000e+01,8.900000000000000000e+01,1.210000000000000000e+02,4.400000000000000000e+01,4.600000000000000200e-01,5.828622900000000000e+09
4.700000000000000000e+01,8.100000000000000000e+01,4.840000000000000000e+02,1.360000000000000000e+02,4.200000000000000000e+01,1.030000000000000000e+02,1.210000000000000000e+02,4.100000000000000000e+01,4.799999999999999822e-01,5.850974200000000000e+09
4.500000000000000000e+01,7.100000000000000000e+01,4.510000000000000000e+02,1.380000000000000000e+02,3.700000000000000000e+01,1.030000000000000000e+02,1.220000000000000000e+02,4.500000000000000000e+01,4.899999999999999911e-01,5.869597200000000000e+09
4.600000000000000000e+01,6.800000000000000000e+01,4.240000000000000000e+02,1.440000000000000000e+02,3.700000000000000000e+01,1.000000000000000000e+02,1.210000000000000000e+02,4.500000000000000000e+01,5.100000000000000089e-01,5.887614800000000000e+09
3.900000000000000000e+01,5.600000000000000000e+01,4.500000000000000000e+02,1.080000000000000000e+02,3.200000000000000000e+01,9.600000000000000000e+01,1.230000000000000000e+02,4.100000000000000000e+01,5.200000000000000178e-01,5.906714800000000000e+09
4.500000000000000000e+01,6.100000000000000000e+01,4.430000000000000000e+02,1.150000000000000000e+02,3.400000000000000000e+01,8.500000000000000000e+01,6.700000000000000000e+01,4.400000000000000000e+01,5.300000000000000266e-01,5.928700200000000000e+09
4.100000000000000000e+01,6.200000000000000000e+01,4.630000000000000000e+02,1.250000000000000000e+02,3.600000000000000000e+01,5.200000000000000000e+01,5.800000000000000000e+01,3.800000000000000000e+01,5.400000000000000355e-01,5.951404400000000000e+09
4.000000000000000000e+01,7.000000000000000000e+01,4.550000000000000000e+02,1.230000000000000000e+02,3.700000000000000000e+01,4.700000000000000000e+01,5.200000000000000000e+01,3.100000000000000000e+01,5.500000000000000444e-01,5.970615900000000000e+09
3.700000000000000000e+01,6.900000000000000000e+01,4.450000000000000000e+02,1.190000000000000000e+02,3.500000000000000000e+01,4.200000000000000000e+01,4.700000000000000000e+01,3.000000000000000000e+01,5.600000000000000533e-01,5.989185800000000000e+09
3.700000000000000000e+01,7.300000000000000000e+01,4.090000000000000000e+02,1.240000000000000000e+02,3.200000000000000000e+01,4.300000000000000000e+01,3.800000000000000000e+01,3.100000000000000000e+01,5.699999999999999512e-01,6.007914000000000000e+09
4.400000000000000000e+01,6.800000000000000000e+01,4.310000000000000000e+02,1.180000000000000000e+02,3.300000000000000000e+01,3.200000000000000000e+01,3.200000000000000000e+01,4.900000000000000000e+01,5.799999999999999600e-01,6.028561200000000000e+09
4.500000000000000000e+01,6.500000000000000000e+01,4.120000000000000000e+02,1.040000000000000000e+02,3.100000000000000000e+01,2.800000000000000000e+01,2.600000000000000000e+01,4.800000000000000000e+01,5.799999999999999600e-01,6.050533800000000000e+09
4.500000000000000000e+01,5.800000000000000000e+01,4.550000000000000000e+02,1.120000000000000000e+02,3.200000000000000000e+01,2.900000000000000000e+01,2.500000000000000000e+01,5.000000000000000000e+01,5.899999999999999689e-01,6.068599200000000000e+09
4.700000000000000000e+01,6.500000000000000000e+01,4.710000000000000000e+02,1.110000000000000000e+02,3.100000000000000000e+01,3.000000000000000000e+01,2.400000000000000000e+01,5.100000000000000000e+01,5.899999999999999689e-01,6.086833300000000000e+09
4.700000000000000000e+01,5.700000000000000000e+01,4.290000000000000000e+02,1.030000000000000000e+02,3.300000000000000000e+01,3.000000000000000000e+01,2.500000000000000000e+01,5.100000000000000000e+01,5.999999999999999778e-01,6.106392600000000000e+09
3.500000000000000000e+01,6.300000000000000000e+01,4.240000000000000000e+02,1.550000000000000000e+02,3.700000000000000000e+01,2.800000000000000000e+01,2.200000000000000000e+01,2.800000000000000000e+01,5.999999999999999778e-01,6.128538700000000000e+09
5.000000000000000000e+01,1.120000000000000000e+02,5.630000000000000000e+02,2.910000000000000000e+02,5.500000000000000000e+01,3.500000000000000000e+01,2.700000000000000000e+01,3.600000000000000000e+01,6.099999999999999867e-01,6.150629000000000000e+09
5.100000000000000000e+01,1.140000000000000000e+02,5.370000000000000000e+02,2.930000000000000000e+02,5.400000000000000000e+01,3.400000000000000000e+01,2.600000000000000000e+01,3.400000000000000000e+01,6.099999999999999867e-01,6.168734100000000000e+09
4.900000000000000000e+01,1.100000000000000000e+02,5.090000000000000000e+02,2.930000000000000000e+02,5.500000000000000000e+01,3.400000000000000000e+01,2.600000000000000000e+01,3.100000000000000000e+01,6.199999999999999956e-01,6.188158600000000000e+09
4.800000000000000000e+01,1.130000000000000000e+02,4.950000000000000000e+02,2.960000000000000000e+02,5.600000000000000000e+01,3.400000000000000000e+01,2.500000000000000000e+01,3.100000000000000000e+01,6.300000000000000044e-01,6.205868800000000000e+09
4.700000000000000000e+01,1.090000000000000000e+02,4.450000000000000000e+02,2.940000000000000000e+02,5.400000000000000000e+01,3.400000000000000000e+01,2.500000000000000000e+01,3.100000000000000000e+01,6.300000000000000044e-01,6.228323200000000000e+09
3.200000000000000000e+01,8.000000000000000000e+01,3.430000000000000000e+02,1.770000000000000000e+02,4.200000000000000000e+01,3.000000000000000000e+01,2.400000000000000000e+01,2.300000000000000000e+01,6.400000000000000133e-01,6.250360500000000000e+09
3.300000000000000000e+01,8.000000000000000000e+01,3.950000000000000000e+02,2.010000000000000000e+02,4.800000000000000000e+01,3.200000000000000000e+01,2.600000000000000000e+01,2.600000000000000000e+01,6.400000000000000133e-01,6.268992300000000000e+09
3.600000000000000000e+01,8.700000000000000000e+01,4.390000000000000000e+02,2.240000000000000000e+02,5.000000000000000000e+01,3.100000000000000000e+01,2.700000000000000000e+01,2.700000000000000000e+01,6.500000000000000222e-01,6.286696000000000000e+09
3.200000000000000000e+01,8.200000000000000000e+01,4.380000000000000000e+02,2.180000000000000000e+02,4.700000000000000000e+01,2.600000000000000000e+01,2.500000000000000000e+01,2.300000000000000000e+01,6.500000000000000222e-01,6.305973800000000000e+09
3.300000000000000000e+01,8.100000000000000000e+01,4.920000000000000000e+02,1.930000000000000000e+02,4.300000000000000000e+01,2.900000000000000000e+01,2.700000000000000000e+01,2.400000000000000000e+01,6.600000000000000311e-01,6.328089000000000000e+09
3.100000000000000000e+01,6.100000000000000000e+01,4.710000000000000000e+02,1.810000000000000000e+02,3.900000000000000000e+01,2.700000000000000000e+01,2.300000000000000000e+01,2.300000000000000000e+01,6.600000000000000311e-01,6.350485100000000000e+09
2.800000000000000000e+01,5.600000000000000000e+01,4.540000000000000000e+02,1.510000000000000000e+02,3.300000000000000000e+01,2.300000000000000000e+01,2.200000000000000000e+01,2.000000000000000000e+01,6.700000000000000400e-01,6.368596100000000000e+09
2.600000000000000000e+01,5.300000000000000000e+01,4.580000000000000000e+02,1.120000000000000000e+02,3.000000000000000000e+01,2.400000000000000000e+01,2.200000000000000000e+01,2.100000000000000000e+01,6.700000000000000400e-01,6.386564100000000000e+09
2.800000000000000000e+01,5.200000000000000000e+01,4.640000000000000000e+02,1.180000000000000000e+02,3.400000000000000000e+01,2.900000000000000000e+01,2.500000000000000000e+01,2.400000000000000000e+01,6.700000000000000400e-01,6.406595100000000000e+09
2.500000000000000000e+01,5.300000000000000000e+01,4.360000000000000000e+02,1.180000000000000000e+02,3.300000000000000000e+01,2.500000000000000000e+01,2.400000000000000000e+01,2.300000000000000000e+01,6.700000000000000400e-01,6.428449000000000000e+09
2.700000000000000000e+01,5.800000000000000000e+01,4.870000000000000000e+02,1.290000000000000000e+02,3.200000000000000000e+01,2.800000000000000000e+01,2.500000000000000000e+01,2.400000000000000000e+01,6.600000000000000311e-01,6.451071100000000000e+09
2.900000000000000000e+01,5.800000000000000000e+01,4.720000000000000000e+02,1.250000000000000000e+02,3.400000000000000000e+01,2.900000000000000000e+01,2.600000000000000000e+01,2.400000000000000000e+01,6.600000000000000311e-01,6.469775400000000000e+09
2.700000000000000000e+01,4.900000000000000000e+01,4.270000000000000000e+02,1.220000000000000000e+02,3.300000000000000000e+01,3.000000000000000000e+01,2.500000000000000000e+01,2.400000000000000000e+01,6.600000000000000311e-01,6.487662500000000000e+09
2.900000000000000000e+01,6.000000000000000000e+01,4.350000000000000000e+02,1.300000000000000000e+02,3.100000000000000000e+01,2.800000000000000000e+01,2.400000000000000000e+01,2.500000000000000000e+01,6.600000000000000311e-01,6.506136000000000000e+09
2.900000000000000000e+01,6.300000000000000000e+01,4.480000000000000000e+02,1.320000000000000000e+02,3.300000000000000000e+01,2.800000000000000000e+01,2.400000000000000000e+01,2.300000000000000000e+01,6.600000000000000311e-01,6.528959200000000000e+09
2.800000000000000000e+01,6.500000000000000000e+01,3.590000000000000000e+02,1.210000000000000000e+02,3.500000000000000000e+01,2.500000000000000000e+01,2.300000000000000000e+01,2.200000000000000000e+01,6.500000000000000222e-01,6.550690900000000000e+09
3.200000000000000000e+01,6.700000000000000000e+01,3.640000000000000000e+02,1.160000000000000000e+02,3.300000000000000000e+01,2.500000000000000000e+01,2.100000000000000000e+01,2.400000000000000000e+01,6.500000000000000222e-01,6.569101100000000000e+09
3.300000000000000000e+01,6.900000000000000000e+01,3.820000000000000000e+02,1.230000000000000000e+02,3.300000000000000000e+01,2.600000000000000000e+01,2.000000000000000000e+01,2.300000000000000000e+01,6.500000000000000222e-01,6.587079200000000000e+09
3.200000000000000000e+01,6.700000000000000000e+01,3.840000000000000000e+02,1.030000000000000000e+02,3.300000000000000000e+01,2.400000000000000000e+01,2.100000000000000000e+01,3.400000000000000000e+01,6.500000000000000222e-01,6.606468500000000000e+09
3.400000000000000000e+01,6.400000000000000000e+01,3.920000000000000000e+02,8.900000000000000000e+01,3.200000000000000000e+01,2.500000000000000000e+01,2.100000000000000000e+01,3.700000000000000000e+01,6.500000000000000222e-01,6.628178000000000000e+09
3.800000000000000000e+01,5.700000000000000000e+01,4.710000000000000000e+02,1.050000000000000000e+02,3.100000000000000000e+01,3.100000000000000000e+01,5.500000000000000000e+01,1.200000000000000000e+02,6.400000000000000133e-01,6.651091700000000000e+09
4.900000000000000000e+01,7.000000000000000000e+01,4.580000000000000000e+02,1.040000000000000000e+02,3.300000000000000000e+01,5.400000000000000000e+01,8.200000000000000000e+01,2.120000000000000000e+02,6.400000000000000133e-01,6.670398500000000000e+09
5.300000000000000000e+01,7.600000000000000000e+01,4.500000000000000000e+02,1.000000000000000000e+02,3.200000000000000000e+01,6.300000000000000000e+01,8.800000000000000000e+01,2.480000000000000000e+02,6.300000000000000044e-01,6.688947100000000000e+09
5.900000000000000000e+01,7.400000000000000000e+01,4.760000000000000000e+02,1.230000000000000000e+02,3.400000000000000000e+01,6.300000000000000000e+01,8.900000000000000000e+01,2.520000000000000000e+02,6.199999999999999956e-01,6.707272400000000000e+09
6.300000000000000000e+01,1.100000000000000000e+02,5.040000000000000000e+02,1.330000000000000000e+02,3.400000000000000000e+01,6.400000000000000000e+01,9.000000000000000000e+01,2.680000000000000000e+02,6.099999999999999867e-01,6.727885400000000000e+09
6.200000000000000000e+01,1.200000000000000000e+02,4.520000000000000000e+02,1.200000000000000000e+02,3.200000000000000000e+01,6.600000000000000000e+01,7.500000000000000000e+01,2.510000000000000000e+02,5.999999999999999778e-01,6.750104100000000000e+09
5.300000000000000000e+01,1.190000000000000000e+02,4.730000000000000000e+02,1.260000000000000000e+02,3.200000000000000000e+01,5.200000000000000000e+01,5.000000000000000000e+01,2.350000000000000000e+02,5.999999999999999778e-01,6.772046700000000000e+09
5.100000000000000000e+01,1.150000000000000000e+02,5.540000000000000000e+02,1.480000000000000000e+02,3.400000000000000000e+01,4.400000000000000000e+01,9.600000000000000000e+01,2.030000000000000000e+02,5.899999999999999689e-01,6.791863500000000000e+09
4.500000000000000000e+01,1.120000000000000000e+02,5.860000000000000000e+02,1.420000000000000000e+02,3.200000000000000000e+01,4.600000000000000000e+01,1.000000000000000000e+02,1.980000000000000000e+02,5.799999999999999600e-01,6.809697400000000000e+09
3.900000000000000000e+01,9.500000000000000000e+01,5.490000000000000000e+02,1.430000000000000000e+02,3.400000000000000000e+01,4.600000000000000000e+01,1.030000000000000000e+02,1.820000000000000000e+02,5.699999999999999512e-01,6.828446000000000000e+09
5.900000000000000000e+01,9.700000000000000000e+01,5.460000000000000000e+02,1.410000000000000000e+02,3.500000000000000000e+01,4.000000000000000000e+01,1.070000000000000000e+02,1.730000000000000000e+02,5.699999999999999512e-01,6.849735300000000000e+09
5.700000000000000000e+01,8.700000000000000000e+01,5.140000000000000000e+02,1.360000000000000000e+02,3.200000000000000000e+01,3.500000000000000000e+01,1.040000000000000000e+02,8.900000000000000000e+01,5.699999999999999512e-01,6.872109900000000000e+09
5.900000000000000000e+01,9.700000000000000000e+01,4.430000000000000000e+02,1.190000000000000000e+02,3.200000000000000000e+01,3.300000000000000000e+01,5.800000000000000000e+01,8.000000000000000000e+01,5.600000000000000533e-01,6.890194100000000000e+09
5.700000000000000000e+01,9.900000000000000000e+01,4.100000000000000000e+02,1.180000000000000000e+02,3.300000000000000000e+01,3.300000000000000000e+01,4.800000000000000000e+01,7.400000000000000000e+01,5.600000000000000533e-01,6.909029000000000000e+09
5.800000000000000000e+01,8.200000000000000000e+01,4.100000000000000000e+02,1.370000000000000000e+02,3.300000000000000000e+01,3.300000000000000000e+01,4.300000000000000000e+01,6.000000000000000000e+01,5.699999999999999512e-01,6.928096900000000000e+09
3.500000000000000000e+01,6.400000000000000000e+01,4.470000000000000000e+02,1.590000000000000000e+02,2.900000000000000000e+01,3.200000000000000000e+01,3.000000000000000000e+01,5.400000000000000000e+01,5.799999999999999600e-01,6.949663000000000000e+09
4.200000000000000000e+01,8.700000000000000000e+01,4.700000000000000000e+02,2.010000000000000000e+02,3.800000000000000000e+01,3.600000000000000000e+01,2.900000000000000000e+01,4.600000000000000000e+01,5.799999999999999600e-01,6.967541300000000000e+09
4.000000000000000000e+01,8.300000000000000000e+01,5.050000000000000000e+02,2.110000000000000000e+02,3.800000000000000000e+01,3.600000000000000000e+01,2.800000000000000000e+01,4.100000000000000000e+01,5.899999999999999689e-01,6.985939800000000000e+09
4.500000000000000000e+01,1.120000000000000000e+02,6.320000000000000000e+02,2.560000000000000000e+02,4.900000000000000000e+01,4.400000000000000000e+01,3.300000000000000000e+01,4.100000000000000000e+01,5.999999999999999778e-01,7.005401600000000000e+09
5.600000000000000000e+01,1.360000000000000000e+02,7.950000000000000000e+02,4.030000000000000000e+02,7.200000000000000000e+01,5.400000000000000000e+01,3.700000000000000000e+01,3.900000000000000000e+01,5.999999999999999778e-01,7.027387500000000000e+09
6.000000000000000000e+01,1.450000000000000000e+02,7.840000000000000000e+02,4.230000000000000000e+02,8.000000000000000000e+01,5.800000000000000000e+01,3.900000000000000000e+01,3.900000000000000000e+01,5.999999999999999778e-01,7.049904000000000000e+09
5.800000000000000000e+01,1.360000000000000000e+02,8.400000000000000000e+02,4.160000000000000000e+02,8.000000000000000000e+01,5.600000000000000000e+01,3.700000000000000000e+01,3.900000000000000000e+01,5.999999999999999778e-01,7.067752900000000000e+09
7.300000000000000000e+01,1.740000000000000000e+02,9.100000000000000000e+02,4.900000000000000000e+02,9.500000000000000000e+01,6.700000000000000000e+01,3.700000000000000000e+01,4.300000000000000000e+01,5.999999999999999778e-01,7.086402000000000000e+09
8.800000000000000000e+01,1.950000000000000000e+02,9.070000000000000000e+02,5.060000000000000000e+02,1.050000000000000000e+02,6.900000000000000000e+01,8.900000000000000000e+01,5.000000000000000000e+01,5.999999999999999778e-01,7.106039800000000000e+09
1.140000000000000000e+02,2.630000000000000000e+02,8.880000000000000000e+02,5.870000000000000000e+02,1.310000000000000000e+02,7.500000000000000000e+01,9.900000000000000000e+01,6.100000000000000000e+01,5.899999999999999689e-01,7.125649800000000000e+09
1.290000000000000000e+02,2.830000000000000000e+02,9.180000000000000000e+02,6.370000000000000000e+02,1.640000000000000000e+02,9.000000000000000000e+01,1.060000000000000000e+02,7.400000000000000000e+01,5.699999999999999512e-01,7.147101200000000000e+09
1.330000000000000000e+02,2.870000000000000000e+02,9.350000000000000000e+02,6.870000000000000000e+02,1.790000000000000000e+02,1.040000000000000000e+02,1.110000000000000000e+02,7.700000000000000000e+01,5.600000000000000533e-01,7.169020600000000000e+09
1.280000000000000000e+02,2.750000000000000000e+02,9.000000000000000000e+02,6.840000000000000000e+02,1.750000000000000000e+02,1.000000000000000000e+02,1.110000000000000000e+02,7.800000000000000000e+01,5.400000000000000355e-01,7.191289000000000000e+09
1.170000000000000000e+02,2.580000000000000000e+02,8.660000000000000000e+02,7.040000000000000000e+02,1.730000000000000000e+02,9.800000000000000000e+01,7.900000000000000000e+01,7.300000000000000000e+01,5.300000000000000266e-01,7.208992700000000000e+09
1.200000000000000000e+02,2.380000000000000000e+02,9.460000000000000000e+02,7.030000000000000000e+02,1.970000000000000000e+02,1.110000000000000000e+02,7.200000000000000000e+01,8.300000000000000000e+01,5.100000000000000089e-01,7.227332500000000000e+09
1.300000000000000000e+02,2.640000000000000000e+02,1.054000000000000000e+03,7.130000000000000000e+02,2.000000000000000000e+02,1.270000000000000000e+02,7.000000000000000000e+01,8.500000000000000000e+01,4.899999999999999911e-01,7.246892800000000000e+09
1.340000000000000000e+02,2.910000000000000000e+02,1.105000000000000000e+03,7.920000000000000000e+02,2.010000000000000000e+02,1.250000000000000000e+02,6.900000000000000000e+01,8.800000000000000000e+01,4.600000000000000200e-01,7.269086500000000000e+09
1.360000000000000000e+02,3.010000000000000000e+02,1.167000000000000000e+03,8.130000000000000000e+02,2.030000000000000000e+02,1.270000000000000000e+02,7.200000000000000000e+01,8.700000000000000000e+01,4.400000000000000022e-01,7.291286800000000000e+09
1.530000000000000000e+02,3.260000000000000000e+02,1.206000000000000000e+03,8.770000000000000000e+02,2.230000000000000000e+02,1.350000000000000000e+02,7.700000000000000000e+01,9.500000000000000000e+01,4.199999999999999845e-01,7.309881800000000000e+09
1.590000000000000000e+02,3.630000000000000000e+02,1.096000000000000000e+03,8.250000000000000000e+02,2.090000000000000000e+02,1.330000000000000000e+02,7.900000000000000000e+01,9.300000000000000000e+01,4.000000000000000222e-01,7.327589600000000000e+09
1.620000000000000000e+02,3.670000000000000000e+02,1.048000000000000000e+03,8.040000000000000000e+02,2.040000000000000000e+02,1.250000000000000000e+02,7.900000000000000000e+01,9.300000000000000000e+01,3.800000000000000044e-01,7.346792600000000000e+09
1.820000000000000000e+02,3.890000000000000000e+02,1.107000000000000000e+03,7.420000000000000000e+02,2.160000000000000000e+02,1.340000000000000000e+02,8.700000000000000000e+01,1.030000000000000000e+02,3.699999999999999956e-01,7.368963600000000000e+09
1.940000000000000000e+02,4.200000000000000000e+02,1.167000000000000000e+03,7.350000000000000000e+02,2.220000000000000000e+02,1.400000000000000000e+02,9.100000000000000000e+01,1.090000000000000000e+02,3.499999999999999778e-01,7.391342600000000000e+09
2.000000000000000000e+02,4.590000000000000000e+02,1.183000000000000000e+03,7.490000000000000000e+02,2.390000000000000000e+02,1.450000000000000000e+02,9.100000000000000000e+01,1.090000000000000000e+02,3.400000000000000244e-01,7.409472100000000000e+09
1.870000000000000000e+02,4.230000000000000000e+02,1.262000000000000000e+03,8.660000000000000000e+02,2.290000000000000000e+02,1.400000000000000000e+02,8.900000000000000000e+01,1.040000000000000000e+02,3.200000000000000067e-01,7.428493700000000000e+09
1.860000000000000000e+02,4.190000000000000000e+02,1.268000000000000000e+03,9.080000000000000000e+02,2.340000000000000000e+02,1.480000000000000000e+02,9.000000000000000000e+01,1.060000000000000000e+02,3.099999999999999978e-01,7.446742800000000000e+09
1.790000000000000000e+02,4.080000000000000000e+02,1.232000000000000000e+03,9.050000000000000000e+02,2.290000000000000000e+02,1.430000000000000000e+02,8.800000000000000000e+01,1.030000000000000000e+02,2.999999999999999889e-01,7.469213400000000000e+09
1.750000000000000000e+02,3.860000000000000000e+02,1.133000000000000000e+03,9.160000000000000000e+02,2.460000000000000000e+02,1.470000000000000000e+02,8.700000000000000000e+01,1.040000000000000000e+02,2.899999999999999800e-01,7.491691800000000000e+09
1.710000000000000000e+02,3.280000000000000000e+02,1.088000000000000000e+03,8.940000000000000000e+02,2.180000000000000000e+02,1.410000000000000000e+02,8.300000000000000000e+01,1.070000000000000000e+02,2.800000000000000266e-01,7.509500200000000000e+09
1.830000000000000000e+02,3.640000000000000000e+02,1.107000000000000000e+03,8.900000000000000000e+02,2.350000000000000000e+02,1.500000000000000000e+02,8.400000000000000000e+01,1.130000000000000000e+02,2.800000000000000266e-01,7.527935400000000000e+09
1.830000000000000000e+02,3.860000000000000000e+02,1.143000000000000000e+03,8.530000000000000000e+02,2.330000000000000000e+02,1.430000000000000000e+02,8.600000000000000000e+01,1.110000000000000000e+02,2.700000000000000178e-01,7.548417900000000000e+09
1.790000000000000000e+02,3.960000000000000000e+02,1.148000000000000000e+03,8.860000000000000000e+02,2.330000000000000000e+02,1.430000000000000000e+02,8.000000000000000000e+01,1.070000000000000000e+02,2.600000000000000089e-01,7.570753500000000000e+09
1.900000000000000000e+02,4.290000000000000000e+02,1.166000000000000000e+03,9.230000000000000000e+02,2.530000000000000000e+02,1.520000000000000000e+02,8.600000000000000000e+01,1.120000000000000000e+02,2.600000000000000089e-01,7.588528300000000000e+09
1.950000000000000000e+02,4.700000000000000000e+02,1.179000000000000000e+03,8.830000000000000000e+02,2.810000000000000000e+02,1.840000000000000000e+02,1.000000000000000000e+02,1.170000000000000000e+02,2.500000000000000000e-01,7.608422400000000000e+09
1.910000000000000000e+02,4.540000000000000000e+02,1.147000000000000000e+03,7.840000000000000000e+02,2.880000000000000000e+02,1.840000000000000000e+02,1.040000000000000000e+02,1.150000000000000000e+02,2.500000000000000000e-01,7.627353500000000000e+09
2.120000000000000000e+02,4.830000000000000000e+02,1.088000000000000000e+03,8.240000000000000000e+02,3.100000000000000000e+02,2.050000000000000000e+02,1.140000000000000000e+02,1.300000000000000000e+02,2.399999999999999911e-01,7.649810900000000000e+09
2.210000000000000000e+02,4.870000000000000000e+02,9.970000000000000000e+02,8.210000000000000000e+02,3.180000000000000000e+02,2.080000000000000000e+02,1.180000000000000000e+02,1.340000000000000000e+02,2.399999999999999911e-01,7.668453800000000000e+09
2.090000000000000000e+02,4.580000000000000000e+02,9.740000000000000000e+02,7.590000000000000000e+02,2.860000000000000000e+02,1.960000000000000000e+02,1.120000000000000000e+02,1.260000000000000000e+02,2.300000000000000100e-01,7.687135500000000000e+09
1.950000000000000000e+02,4.240000000000000000e+02,9.590000000000000000e+02,7.560000000000000000e+02,2.560000000000000000e+02,1.620000000000000000e+02,9.800000000000000000e+01,1.150000000000000000e+02,2.300000000000000100e-01,7.705544900000000000e+09
1.950000000000000000e+02,4.340000000000000000e+02,9.540000000000000000e+02,7.310000000000000000e+02,2.360000000000000000e+02,1.530000000000000000e+02,9.200000000000000000e+01,1.130000000000000000e+02,2.200000000000000011e-01,7.728327100000000000e+09
1.650000000000000000e+02,3.770000000000000000e+02,9.490000000000000000e+02,7.210000000000000000e+02,2.010000000000000000e+02,1.170000000000000000e+02,7.400000000000000000e+01,9.100000000000000000e+01,2.099999999999999922e-01,7.750823000000000000e+09
1.540000000000000000e+02,3.820000000000000000e+02,1.012000000000000000e+03,7.060000000000000000e+02,2.370000000000000000e+02,1.390000000000000000e+02,7.700000000000000000e+01,9.300000000000000000e+01,2.099999999999999922e-01,7.770534800000000000e+09
1.690000000000000000e+02,4.800000000000000000e+02,1.156000000000000000e+03,7.950000000000000000e+02,2.510000000000000000e+02,1.710000000000000000e+02,8.000000000000000000e+01,9.700000000000000000e+01,2.000000000000000111e-01,7.789244800000000000e+09
1.920000000000000000e+02,5.260000000000000000e+02,1.190000000000000000e+03,7.930000000000000000e+02,2.830000000000000000e+02,1.950000000000000000e+02,9.400000000000000000e+01,1.100000000000000000e+02,1.900000000000000022e-01,7.807374000000000000e+09
2.000000000000000000e+02,5.400000000000000000e+02,1.177000000000000000e+03,8.200000000000000000e+02,2.920000000000000000e+02,2.010000000000000000e+02,9.700000000000000000e+01,1.150000000000000000e+02,1.799999999999999933e-01,7.826262600000000000e+09
2.030000000000000000e+02,5.330000000000000000e+02,1.205000000000000000e+03,8.520000000000000000e+02,3.040000000000000000e+02,2.050000000000000000e+02,1.040000000000000000e+02,1.190000000000000000e+02,1.799999999999999933e-01,7.848451300000000000e+09
2.220000000000000000e+02,5.650000000000000000e+02,1.223000000000000000e+03,8.920000000000000000e+02,2.910000000000000000e+02,1.960000000000000000e+02,1.020000000000000000e+02,1.230000000000000000e+02,1.799999999999999933e-01,7.871225100000000000e+09
2.120000000000000000e+02,4.940000000000000000e+02,1.108000000000000000e+03,8.380000000000000000e+02,2.870000000000000000e+02,1.720000000000000000e+02,9.900000000000000000e+01,1.190000000000000000e+02,1.700000000000000122e-01,7.891263100000000000e+09
2.030000000000000000e+02,4.540000000000000000e+02,1.042000000000000000e+03,8.530000000000000000e+02,2.600000000000000000e+02,1.490000000000000000e+02,8.800000000000000000e+01,1.120000000000000000e+02,1.700000000000000122e-01,7.909072200000000000e+09
1.880000000000000000e+02,4.680000000000000000e+02,1.058000000000000000e+03,8.500000000000000000e+02,2.410000000000000000e+02,1.450000000000000000e+02,8.500000000000000000e+01,1.030000000000000000e+02,1.700000000000000122e-01,7.927705200000000000e+09
1.850000000000000000e+02,5.080000000000000000e+02,1.044000000000000000e+03,8.380000000000000000e+02,2.440000000000000000e+02,1.490000000000000000e+02,7.600000000000000000e+01,1.010000000000000000e+02,1.700000000000000122e-01,7.948379000000000000e+09
1.550000000000000000e+02,4.400000000000000000e+02,9.630000000000000000e+02,7.540000000000000000e+02,2.140000000000000000e+02,1.390000000000000000e+02,7.200000000000000000e+01,8.700000000000000000e+01,1.600000000000000033e-01,7.970760400000000000e+09
1.490000000000000000e+02,4.450000000000000000e+02,9.930000000000000000e+02,7.830000000000000000e+02,2.140000000000000000e+02,1.440000000000000000e+02,7.400000000000000000e+01,8.500000000000000000e+01,1.600000000000000033e-01,7.988324600000000000e+09
1.300000000000000000e+02,4.320000000000000000e+02,1.133000000000000000e+03,8.000000000000000000e+02,2.080000000000000000e+02,1.390000000000000000e+02,7.300000000000000000e+01,7.800000000000000000e+01,1.600000000000000033e-01,8.007292900000000000e+09
1.180000000000000000e+02,3.540000000000000000e+02,1.055000000000000000e+03,7.610000000000000000e+02,2.060000000000000000e+02,1.290000000000000000e+02,6.800000000000000000e+01,7.300000000000000000e+01,1.600000000000000033e-01,8.026476200000000000e+09
9.700000000000000000e+01,2.970000000000000000e+02,1.065000000000000000e+03,6.780000000000000000e+02,1.680000000000000000e+02,1.100000000000000000e+02,6.500000000000000000e+01,5.900000000000000000e+01,1.600000000000000033e-01,8.048538700000000000e+09
1.090000000000000000e+02,3.510000000000000000e+02,1.060000000000000000e+03,7.220000000000000000e+02,1.770000000000000000e+02,1.120000000000000000e+02,7.000000000000000000e+01,6.900000000000000000e+01,1.600000000000000033e-01,8.070536800000000000e+09
1.240000000000000000e+02,3.350000000000000000e+02,1.019000000000000000e+03,6.950000000000000000e+02,1.730000000000000000e+02,1.170000000000000000e+02,6.900000000000000000e+01,7.400000000000000000e+01,1.700000000000000122e-01,8.088681100000000000e+09
1.620000000000000000e+02,3.720000000000000000e+02,8.860000000000000000e+02,6.470000000000000000e+02,1.900000000000000000e+02,1.350000000000000000e+02,7.400000000000000000e+01,9.600000000000000000e+01,1.700000000000000122e-01,8.106888500000000000e+09
1.660000000000000000e+02,3.690000000000000000e+02,9.160000000000000000e+02,6.160000000000000000e+02,1.820000000000000000e+02,1.350000000000000000e+02,7.300000000000000000e+01,9.900000000000000000e+01,1.700000000000000122e-01,8.126082000000000000e+09
1.660000000000000000e+02,3.580000000000000000e+02,8.560000000000000000e+02,6.110000000000000000e+02,1.790000000000000000e+02,1.340000000000000000e+02,7.000000000000000000e+01,1.000000000000000000e+02,1.700000000000000122e-01,8.151310500000000000e+09
1.560000000000000000e+02,3.260000000000000000e+02,9.090000000000000000e+02,5.140000000000000000e+02,1.600000000000000000e+02,1.250000000000000000e+02,6.300000000000000000e+01,9.100000000000000000e+01,1.700000000000000122e-01,8.171201300000000000e+09
1.400000000000000000e+02,3.160000000000000000e+02,8.870000000000000000e+02,4.380000000000000000e+02,1.440000000000000000e+02,1.060000000000000000e+02,5.700000000000000000e+01,8.600000000000000000e+01,1.799999999999999933e-01,8.188997300000000000e+09
1.000000000000000000e+02,2.620000000000000000e+02,8.690000000000000000e+02,4.230000000000000000e+02,1.170000000000000000e+02,8.600000000000000000e+01,4.900000000000000000e+01,6.500000000000000000e+01,1.900000000000000022e-01,8.207531700000000000e+09
9.300000000000000000e+01,2.620000000000000000e+02,8.100000000000000000e+02,4.130000000000000000e+02,1.190000000000000000e+02,8.400000000000000000e+01,4.600000000000000000e+01,6.200000000000000000e+01,2.000000000000000111e-01,8.226416500000000000e+09
9.600000000000000000e+01,2.500000000000000000e+02,8.860000000000000000e+02,3.910000000000000000e+02,1.170000000000000000e+02,8.000000000000000000e+01,4.900000000000000000e+01,6.200000000000000000e+01,2.099999999999999922e-01,8.248838100000000000e+09
8.800000000000000000e+01,2.080000000000000000e+02,8.200000000000000000e+02,4.080000000000000000e+02,1.070000000000000000e+02,7.800000000000000000e+01,4.400000000000000000e+01,5.700000000000000000e+01,2.200000000000000011e-01,8.270952800000000000e+09
8.800000000000000000e+01,1.800000000000000000e+02,8.280000000000000000e+02,3.510000000000000000e+02,1.070000000000000000e+02,8.000000000000000000e+01,4.700000000000000000e+01,5.700000000000000000e+01,2.399999999999999911e-01,8.289328400000000000e+09
7.500000000000000000e+01,1.690000000000000000e+02,7.880000000000000000e+02,2.770000000000000000e+02,9.700000000000000000e+01,6.700000000000000000e+01,4.100000000000000000e+01,4.800000000000000000e+01,2.500000000000000000e-01,8.307782200000000000e+09
7.200000000000000000e+01,1.640000000000000000e+02,7.680000000000000000e+02,2.580000000000000000e+02,9.100000000000000000e+01,6.200000000000000000e+01,3.900000000000000000e+01,4.900000000000000000e+01,2.700000000000000178e-01,8.327178400000000000e+09
6.400000000000000000e+01,1.570000000000000000e+02,5.990000000000000000e+02,2.350000000000000000e+02,8.300000000000000000e+01,6.000000000000000000e+01,3.400000000000000000e+01,4.600000000000000000e+01,2.899999999999999800e-01,8.349926500000000000e+09
6.200000000000000000e+01,1.410000000000000000e+02,5.910000000000000000e+02,1.790000000000000000e+02,7.200000000000000000e+01,5.200000000000000000e+01,3.200000000000000000e+01,4.800000000000000000e+01,3.099999999999999978e-01,8.369028600000000000e+09
6.000000000000000000e+01,1.300000000000000000e+02,4.620000000000000000e+02,1.470000000000000000e+02,5.800000000000000000e+01,4.100000000000000000e+01,2.700000000000000000e+01,8.900000000000000000e+01,3.300000000000000155e-01,8.387334300000000000e+09
5.900000000000000000e+01,9.800000000000000000e+01,3.930000000000000000e+02,1.250000000000000000e+02,4.900000000000000000e+01,4.000000000000000000e+01,3.300000000000000000e+01,2.460000000000000000e+02,3.499999999999999778e-01,8.405592300000000000e+09
5.900000000000000000e+01,1.280000000000000000e+02,3.530000000000000000e+02,1.130000000000000000e+02,4.500000000000000000e+01,4.500000000000000000e+01,5.100000000000000000e+01,2.920000000000000000e+02,3.699999999999999956e-01,8.427337300000000000e+09
6.400000000000000000e+01,1.230000000000000000e+02,4.040000000000000000e+02,9.400000000000000000e+01,3.900000000000000000e+01,6.800000000000000000e+01,1.230000000000000000e+02,3.310000000000000000e+02,3.800000000000000044e-01,8.449524000000000000e+09
7.500000000000000000e+01,1.370000000000000000e+02,3.560000000000000000e+02,8.300000000000000000e+01,3.700000000000000000e+01,8.900000000000000000e+01,1.300000000000000000e+02,3.470000000000000000e+02,3.900000000000000133e-01,8.467819400000000000e+09
9.600000000000000000e+01,1.410000000000000000e+02,4.830000000000000000e+02,1.180000000000000000e+02,4.600000000000000000e+01,9.200000000000000000e+01,1.320000000000000000e+02,3.830000000000000000e+02,4.000000000000000222e-01,8.486488600000000000e+09
9.700000000000000000e+01,1.390000000000000000e+02,4.910000000000000000e+02,1.190000000000000000e+02,4.500000000000000000e+01,1.170000000000000000e+02,1.640000000000000000e+02,3.360000000000000000e+02,4.099999999999999756e-01,8.507219400000000000e+09
1.010000000000000000e+02,1.010000000000000000e+02,4.930000000000000000e+02,1.210000000000000000e+02,4.500000000000000000e+01,1.220000000000000000e+02,1.810000000000000000e+02,3.260000000000000000e+02,4.099999999999999756e-01,8.527562500000000000e+09
1.050000000000000000e+02,9.900000000000000000e+01,4.420000000000000000e+02,1.210000000000000000e+02,4.900000000000000000e+01,1.510000000000000000e+02,1.830000000000000000e+02,3.800000000000000000e+02,4.099999999999999756e-01,8.549869300000000000e+09
1.390000000000000000e+02,1.090000000000000000e+02,5.240000000000000000e+02,1.840000000000000000e+02,5.400000000000000000e+01,1.590000000000000000e+02,2.230000000000000000e+02,5.990000000000000000e+02,4.099999999999999756e-01,8.571744000000000000e+09
1.870000000000000000e+02,1.380000000000000000e+02,4.910000000000000000e+02,2.450000000000000000e+02,6.600000000000000000e+01,1.640000000000000000e+02,3.130000000000000000e+02,6.710000000000000000e+02,4.199999999999999845e-01,8.589903800000000000e+09
1.970000000000000000e+02,1.460000000000000000e+02,5.250000000000000000e+02,2.610000000000000000e+02,6.800000000000000000e+01,1.610000000000000000e+02,4.400000000000000000e+02,7.390000000000000000e+02,4.199999999999999845e-01,8.608212000000000000e+09
2.030000000000000000e+02,1.490000000000000000e+02,5.280000000000000000e+02,2.640000000000000000e+02,6.900000000000000000e+01,1.720000000000000000e+02,4.820000000000000000e+02,7.500000000000000000e+02,4.099999999999999756e-01,8.627680100000000000e+09
2.000000000000000000e+02,1.500000000000000000e+02,5.260000000000000000e+02,2.690000000000000000e+02,6.800000000000000000e+01,1.430000000000000000e+02,4.870000000000000000e+02,7.340000000000000000e+02,4.199999999999999845e-01,8.649788300000000000e+09
1.770000000000000000e+02,1.370000000000000000e+02,4.350000000000000000e+02,2.320000000000000000e+02,6.000000000000000000e+01,1.210000000000000000e+02,4.740000000000000000e+02,5.670000000000000000e+02,4.199999999999999845e-01,8.671672500000000000e+09
1.160000000000000000e+02,1.110000000000000000e+02,3.410000000000000000e+02,1.490000000000000000e+02,3.700000000000000000e+01,1.160000000000000000e+02,4.280000000000000000e+02,4.540000000000000000e+02,4.199999999999999845e-01,8.689999500000000000e+09
9.600000000000000000e+01,1.050000000000000000e+02,3.430000000000000000e+02,1.320000000000000000e+02,3.200000000000000000e+01,1.000000000000000000e+02,2.810000000000000000e+02,3.060000000000000000e+02,4.199999999999999845e-01,8.708222300000000000e+09
8.000000000000000000e+01,1.090000000000000000e+02,3.620000000000000000e+02,1.300000000000000000e+02,3.500000000000000000e+01,6.800000000000000000e+01,1.830000000000000000e+02,2.460000000000000000e+02,4.299999999999999933e-01,8.728307400000000000e+09
7.700000000000000000e+01,1.060000000000000000e+02,3.760000000000000000e+02,1.360000000000000000e+02,3.600000000000000000e+01,5.700000000000000000e+01,1.240000000000000000e+02,1.490000000000000000e+02,4.299999999999999933e-01,8.750296200000000000e+09
6.300000000000000000e+01,9.700000000000000000e+01,3.730000000000000000e+02,1.310000000000000000e+02,3.400000000000000000e+01,5.200000000000000000e+01,9.800000000000000000e+01,1.270000000000000000e+02,4.400000000000000022e-01,8.773095500000000000e+09
5.600000000000000000e+01,1.090000000000000000e+02,5.060000000000000000e+02,1.490000000000000000e+02,3.700000000000000000e+01,5.200000000000000000e+01,7.200000000000000000e+01,1.450000000000000000e+02,4.500000000000000111e-01,8.791149500000000000e+09
5.500000000000000000e+01,1.100000000000000000e+02,4.950000000000000000e+02,1.600000000000000000e+02,4.000000000000000000e+01,4.600000000000000000e+01,9.600000000000000000e+01,1.370000000000000000e+02,4.699999999999999734e-01,8.809713300000000000e+09
5.100000000000000000e+01,1.010000000000000000e+02,4.850000000000000000e+02,1.540000000000000000e+02,3.500000000000000000e+01,4.600000000000000000e+01,9.500000000000000000e+01,1.350000000000000000e+02,4.799999999999999822e-01,8.827677900000000000e+09
5.600000000000000000e+01,9.900000000000000000e+01,4.710000000000000000e+02,1.390000000000000000e+02,3.300000000000000000e+01,4.300000000000000000e+01,1.000000000000000000e+02,1.380000000000000000e+02,4.799999999999999822e-01,8.849723500000000000e+09
5.600000000000000000e+01,9.900000000000000000e+01,4.780000000000000000e+02,1.500000000000000000e+02,3.500000000000000000e+01,4.500000000000000000e+01,1.000000000000000000e+02,1.370000000000000000e+02,4.899999999999999911e-01,8.871566800000000000e+09
5.000000000000000000e+01,1.130000000000000000e+02,3.460000000000000000e+02,1.370000000000000000e+02,3.600000000000000000e+01,3.100000000000000000e+01,9.200000000000000000e+01,8.000000000000000000e+01,5.000000000000000000e-01,8.889818200000000000e+09
4.900000000000000000e+01,1.100000000000000000e+02,3.690000000000000000e+02,1.080000000000000000e+02,3.300000000000000000e+01,2.900000000000000000e+01,5.200000000000000000e+01,7.900000000000000000e+01,5.200000000000000178e-01,8.908569500000000000e+09
5.100000000000000000e+01,1.160000000000000000e+02,3.670000000000000000e+02,1.110000000000000000e+02,3.300000000000000000e+01,3.000000000000000000e+01,4.900000000000000000e+01,7.200000000000000000e+01,5.300000000000000266e-01,8.927520300000000000e+09
4.400000000000000000e+01,1.240000000000000000e+02,3.770000000000000000e+02,1.130000000000000000e+02,3.300000000000000000e+01,3.200000000000000000e+01,3.800000000000000000e+01,6.200000000000000000e+01,5.400000000000000355e-01,8.949872800000000000e+09
4.500000000000000000e+01,1.310000000000000000e+02,4.110000000000000000e+02,1.340000000000000000e+02,3.900000000000000000e+01,3.400000000000000000e+01,3.700000000000000000e+01,8.100000000000000000e+01,5.500000000000000444e-01,8.969050300000000000e+09
5.100000000000000000e+01,1.020000000000000000e+02,4.670000000000000000e+02,1.300000000000000000e+02,4.000000000000000000e+01,3.100000000000000000e+01,3.300000000000000000e+01,8.000000000000000000e+01,5.600000000000000533e-01,8.987104200000000000e+09
5.300000000000000000e+01,1.100000000000000000e+02,4.610000000000000000e+02,1.310000000000000000e+02,3.800000000000000000e+01,3.100000000000000000e+01,3.100000000000000000e+01,8.300000000000000000e+01,5.699999999999999512e-01,9.005528500000000000e+09
4.700000000000000000e+01,1.170000000000000000e+02,4.900000000000000000e+02,1.350000000000000000e+02,3.800000000000000000e+01,3.000000000000000000e+01,3.100000000000000000e+01,8.200000000000000000e+01,5.699999999999999512e-01,9.027007700000000000e+09
4.800000000000000000e+01,1.160000000000000000e+02,5.260000000000000000e+02,1.390000000000000000e+02,4.100000000000000000e+01,2.900000000000000000e+01,3.100000000000000000e+01,8.400000000000000000e+01,5.699999999999999512e-01,9.049551700000000000e+09
4.700000000000000000e+01,1.100000000000000000e+02,4.710000000000000000e+02,1.030000000000000000e+02,3.300000000000000000e+01,2.600000000000000000e+01,2.700000000000000000e+01,5.600000000000000000e+01,5.799999999999999600e-01,9.071718200000000000e+09
4.200000000000000000e+01,1.070000000000000000e+02,3.980000000000000000e+02,1.150000000000000000e+02,2.800000000000000000e+01,2.700000000000000000e+01,2.700000000000000000e+01,5.200000000000000000e+01,5.799999999999999600e-01,9.089738400000000000e+09
5.200000000000000000e+01,1.350000000000000000e+02,4.510000000000000000e+02,1.790000000000000000e+02,4.000000000000000000e+01,3.600000000000000000e+01,2.900000000000000000e+01,4.400000000000000000e+01,5.899999999999999689e-01,9.108236000000000000e+09
5.500000000000000000e+01,1.310000000000000000e+02,4.300000000000000000e+02,1.880000000000000000e+02,4.200000000000000000e+01,3.800000000000000000e+01,3.000000000000000000e+01,4.300000000000000000e+01,5.999999999999999778e-01,9.127868800000000000e+09
5.600000000000000000e+01,1.440000000000000000e+02,4.230000000000000000e+02,2.070000000000000000e+02,4.700000000000000000e+01,4.000000000000000000e+01,3.000000000000000000e+01,3.500000000000000000e+01,5.999999999999999778e-01,9.149593300000000000e+09
5.500000000000000000e+01,1.440000000000000000e+02,4.260000000000000000e+02,2.100000000000000000e+02,4.800000000000000000e+01,3.800000000000000000e+01,3.100000000000000000e+01,3.200000000000000000e+01,6.099999999999999867e-01,9.171903700000000000e+09
5.200000000000000000e+01,1.470000000000000000e+02,4.340000000000000000e+02,2.020000000000000000e+02,4.900000000000000000e+01,3.800000000000000000e+01,2.900000000000000000e+01,3.600000000000000000e+01,6.199999999999999956e-01,9.191010900000000000e+09
4.200000000000000000e+01,1.210000000000000000e+02,3.420000000000000000e+02,1.720000000000000000e+02,4.900000000000000000e+01,3.400000000000000000e+01,2.800000000000000000e+01,3.500000000000000000e+01,6.199999999999999956e-01,9.209679600000000000e+09
4.400000000000000000e+01,1.340000000000000000e+02,3.910000000000000000e+02,1.640000000000000000e+02,4.800000000000000000e+01,3.300000000000000000e+01,3.000000000000000000e+01,3.700000000000000000e+01,6.199999999999999956e-01,9.227881700000000000e+09
4.000000000000000000e+01,1.150000000000000000e+02,3.370000000000000000e+02,1.390000000000000000e+02,4.000000000000000000e+01,3.000000000000000000e+01,2.900000000000000000e+01,3.500000000000000000e+01,6.300000000000000044e-01,9.249799700000000000e+09
4.000000000000000000e+01,1.130000000000000000e+02,3.820000000000000000e+02,1.270000000000000000e+02,3.900000000000000000e+01,3.100000000000000000e+01,2.900000000000000000e+01,3.600000000000000000e+01,6.300000000000000044e-01,9.271572300000000000e+09
3.900000000000000000e+01,1.050000000000000000e+02,3.780000000000000000e+02,1.240000000000000000e+02,3.900000000000000000e+01,3.100000000000000000e+01,2.900000000000000000e+01,2.900000000000000000e+01,6.300000000000000044e-01,9.289743800000000000e+09
3.500000000000000000e+01,9.200000000000000000e+01,3.980000000000000000e+02,1.120000000000000000e+02,2.700000000000000000e+01,2.700000000000000000e+01,2.400000000000000000e+01,2.500000000000000000e+01,6.400000000000000133e-01,9.307938600000000000e+09
3.400000000000000000e+01,9.200000000000000000e+01,3.810000000000000000e+02,1.130000000000000000e+02,2.800000000000000000e+01,2.500000000000000000e+01,1.900000000000000000e+01,2.400000000000000000e+01,6.400000000000000133e-01,9.327024400000000000e+09
3.700000000000000000e+01,9.900000000000000000e+01,4.060000000000000000e+02,1.300000000000000000e+02,3.100000000000000000e+01,2.700000000000000000e+01,1.900000000000000000e+01,2.700000000000000000e+01,6.400000000000000133e-01,9.349363700000000000e+09
3.800000000000000000e+01,1.000000000000000000e+02,3.650000000000000000e+02,1.540000000000000000e+02,3.500000000000000000e+01,2.900000000000000000e+01,2.000000000000000000e+01,2.800000000000000000e+01,6.400000000000000133e-01,9.371872800000000000e+09
4.200000000000000000e+01,1.010000000000000000e+02,3.500000000000000000e+02,1.560000000000000000e+02,3.300000000000000000e+01,2.800000000000000000e+01,2.000000000000000000e+01,3.900000000000000000e+01,6.400000000000000133e-01,9.390262200000000000e+09
4.600000000000000000e+01,9.800000000000000000e+01,3.170000000000000000e+02,1.390000000000000000e+02,3.300000000000000000e+01,2.700000000000000000e+01,2.300000000000000000e+01,4.400000000000000000e+01,6.400000000000000133e-01,9.409227300000000000e+09
4.300000000000000000e+01,7.400000000000000000e+01,2.820000000000000000e+02,1.340000000000000000e+02,3.300000000000000000e+01,2.700000000000000000e+01,2.500000000000000000e+01,4.300000000000000000e+01,6.400000000000000133e-01,9.427703700000000000e+09
4.300000000000000000e+01,6.500000000000000000e+01,2.730000000000000000e+02,1.240000000000000000e+02,3.300000000000000000e+01,2.700000000000000000e+01,2.500000000000000000e+01,4.300000000000000000e+01,6.400000000000000133e-01,9.449717000000000000e+09
4.100000000000000000e+01,7.300000000000000000e+01,2.810000000000000000e+02,1.030000000000000000e+02,2.900000000000000000e+01,2.500000000000000000e+01,2.700000000000000000e+01,4.200000000000000000e+01,6.400000000000000133e-01,9.471441700000000000e+09
3.600000000000000000e+01,7.900000000000000000e+01,3.390000000000000000e+02,9.700000000000000000e+01,3.100000000000000000e+01,2.600000000000000000e+01,2.700000000000000000e+01,3.100000000000000000e+01,6.400000000000000133e-01,9.490155300000000000e+09
3.300000000000000000e+01,8.100000000000000000e+01,3.350000000000000000e+02,9.500000000000000000e+01,3.000000000000000000e+01,2.700000000000000000e+01,2.600000000000000000e+01,2.400000000000000000e+01,6.300000000000000044e-01,9.507861800000000000e+09
3.600000000000000000e+01,7.600000000000000000e+01,3.200000000000000000e+02,9.300000000000000000e+01,2.900000000000000000e+01,2.400000000000000000e+01,2.500000000000000000e+01,2.700000000000000000e+01,6.300000000000000044e-01,9.526925200000000000e+09
4.400000000000000000e+01,9.700000000000000000e+01,4.190000000000000000e+02,1.050000000000000000e+02,3.400000000000000000e+01,2.900000000000000000e+01,2.700000000000000000e+01,3.900000000000000000e+01,6.300000000000000044e-01,9.549159400000000000e+09
4.900000000000000000e+01,1.070000000000000000e+02,4.930000000000000000e+02,1.270000000000000000e+02,3.800000000000000000e+01,3.100000000000000000e+01,2.600000000000000000e+01,4.000000000000000000e+01,6.300000000000000044e-01,9.571332700000000000e+09
5.000000000000000000e+01,1.020000000000000000e+02,4.690000000000000000e+02,1.290000000000000000e+02,3.600000000000000000e+01,3.000000000000000000e+01,2.500000000000000000e+01,4.200000000000000000e+01,6.300000000000000044e-01,9.589894500000000000e+09
5.200000000000000000e+01,1.000000000000000000e+02,4.650000000000000000e+02,1.270000000000000000e+02,3.600000000000000000e+01,3.000000000000000000e+01,2.700000000000000000e+01,4.300000000000000000e+01,6.300000000000000044e-01,9.609184500000000000e+09
5.100000000000000000e+01,1.030000000000000000e+02,4.700000000000000000e+02,1.250000000000000000e+02,3.500000000000000000e+01,3.500000000000000000e+01,2.700000000000000000e+01,4.200000000000000000e+01,6.300000000000000044e-01,9.628040800000000000e+09
4.600000000000000000e+01,8.500000000000000000e+01,4.000000000000000000e+02,1.100000000000000000e+02,3.500000000000000000e+01,3.100000000000000000e+01,2.600000000000000000e+01,4.400000000000000000e+01,6.300000000000000044e-01,9.649032500000000000e+09
4.000000000000000000e+01,6.100000000000000000e+01,3.360000000000000000e+02,8.200000000000000000e+01,3.000000000000000000e+01,2.900000000000000000e+01,2.400000000000000000e+01,4.400000000000000000e+01,6.199999999999999956e-01,9.671561100000000000e+09
3.800000000000000000e+01,6.100000000000000000e+01,3.410000000000000000e+02,8.000000000000000000e+01,2.900000000000000000e+01,2.900000000000000000e+01,2.400000000000000000e+01,4.300000000000000000e+01,6.199999999999999956e-01,9.690834000000000000e+09
3.700000000000000000e+01,6.300000000000000000e+01,3.380000000000000000e+02,8.000000000000000000e+01,2.900000000000000000e+01,2.800000000000000000e+01,2.200000000000000000e+01,4.300000000000000000e+01,6.199999999999999956e-01,9.709218700000000000e+09
3.500000000000000000e+01,8.800000000000000000e+01,3.350000000000000000e+02,1.000000000000000000e+02,3.100000000000000000e+01,2.500000000000000000e+01,2.200000000000000000e+01,4.200000000000000000e+01,6.199999999999999956e-01,9.728414900000000000e+09
3.600000000000000000e+01,9.700000000000000000e+01,4.700000000000000000e+02,1.430000000000000000e+02,3.500000000000000000e+01,2.300000000000000000e+01,2.000000000000000000e+01,3.200000000000000000e+01,6.199999999999999956e-01,9.749545800000000000e+09
3.800000000000000000e+01,9.800000000000000000e+01,4.410000000000000000e+02,1.420000000000000000e+02,3.500000000000000000e+01,2.200000000000000000e+01,2.000000000000000000e+01,3.100000000000000000e+01,6.199999999999999956e-01,9.772472600000000000e+09
3.700000000000000000e+01,9.700000000000000000e+01,4.460000000000000000e+02,1.450000000000000000e+02,3.700000000000000000e+01,2.400000000000000000e+01,2.000000000000000000e+01,3.100000000000000000e+01,6.300000000000000044e-01,9.790725000000000000e+09
4.100000000000000000e+01,1.000000000000000000e+02,4.880000000000000000e+02,1.640000000000000000e+02,4.000000000000000000e+01,2.500000000000000000e+01,2.200000000000000000e+01,4.300000000000000000e+01,6.300000000000000044e-01,9.808853900000000000e+09
4.000000000000000000e+01,7.500000000000000000e+01,4.790000000000000000e+02,1.620000000000000000e+02,4.200000000000000000e+01,2.700000000000000000e+01,2.200000000000000000e+01,4.400000000000000000e+01,6.300000000000000044e-01,9.828072000000000000e+09
3.500000000000000000e+01,5.800000000000000000e+01,3.170000000000000000e+02,1.210000000000000000e+02,3.400000000000000000e+01,2.800000000000000000e+01,2.200000000000000000e+01,4.100000000000000000e+01,6.199999999999999956e-01,9.849318000000000000e+09
3.400000000000000000e+01,4.900000000000000000e+01,3.140000000000000000e+02,1.180000000000000000e+02,3.300000000000000000e+01,2.900000000000000000e+01,2.500000000000000000e+01,4.100000000000000000e+01,6.199999999999999956e-01,9.871804600000000000e+09
3.600000000000000000e+01,5.400000000000000000e+01,3.290000000000000000e+02,1.270000000000000000e+02,3.500000000000000000e+01,3.200000000000000000e+01,2.500000000000000000e+01,4.300000000000000000e+01,6.199999999999999956e-01,9.890447800000000000e+09
4.400000000000000000e+01,7.000000000000000000e+01,3.280000000000000000e+02,1.250000000000000000e+02,3.400000000000000000e+01,3.300000000000000000e+01,2.400000000000000000e+01,4.500000000000000000e+01,6.199999999999999956e-01,9.908586600000000000e+09
4.600000000000000000e+01,7.900000000000000000e+01,3.670000000000000000e+02,1.300000000000000000e+02,4.300000000000000000e+01,3.200000000000000000e+01,2.300000000000000000e+01,4.400000000000000000e+01,6.300000000000000044e-01,9.927932100000000000e+09
4.900000000000000000e+01,1.100000000000000000e+02,4.270000000000000000e+02,1.450000000000000000e+02,6.500000000000000000e+01,5.000000000000000000e+01,2.600000000000000000e+01,4.500000000000000000e+01,6.300000000000000044e-01,9.948924900000000000e+09
5.300000000000000000e+01,1.220000000000000000e+02,4.750000000000000000e+02,1.760000000000000000e+02,9.100000000000000000e+01,5.800000000000000000e+01,3.100000000000000000e+01,4.600000000000000000e+01,6.199999999999999956e-01,9.971486800000000000e+09
6.800000000000000000e+01,1.430000000000000000e+02,5.600000000000000000e+02,2.230000000000000000e+02,1.110000000000000000e+02,7.000000000000000000e+01,3.400000000000000000e+01,5.000000000000000000e+01,6.199999999999999956e-01,9.990047000000000000e+09
6.100000000000000000e+01,1.360000000000000000e+02,6.010000000000000000e+02,2.290000000000000000e+02,1.100000000000000000e+02,7.000000000000000000e+01,3.500000000000000000e+01,4.600000000000000000e+01,6.099999999999999867e-01,1.000846520000000000e+10
6.500000000000000000e+01,1.490000000000000000e+02,7.110000000000000000e+02,2.430000000000000000e+02,1.140000000000000000e+02,7.700000000000000000e+01,3.800000000000000000e+01,4.700000000000000000e+01,5.999999999999999778e-01,1.002689180000000000e+10
6.700000000000000000e+01,1.380000000000000000e+02,6.980000000000000000e+02,2.760000000000000000e+02,1.070000000000000000e+02,7.000000000000000000e+01,3.800000000000000000e+01,5.000000000000000000e+01,5.899999999999999689e-01,1.004910460000000000e+10
7.400000000000000000e+01,1.390000000000000000e+02,8.350000000000000000e+02,2.760000000000000000e+02,9.500000000000000000e+01,6.900000000000000000e+01,3.400000000000000000e+01,5.100000000000000000e+01,5.799999999999999600e-01,1.007122740000000000e+10
6.800000000000000000e+01,1.520000000000000000e+02,9.450000000000000000e+02,2.910000000000000000e+02,7.800000000000000000e+01,6.000000000000000000e+01,3.700000000000000000e+01,4.800000000000000000e+01,5.699999999999999512e-01,1.009019800000000000e+10
6.800000000000000000e+01,1.670000000000000000e+02,1.028000000000000000e+03,3.300000000000000000e+02,8.700000000000000000e+01,6.500000000000000000e+01,4.100000000000000000e+01,4.100000000000000000e+01,5.600000000000000533e-01,1.010874150000000000e+10
