9.100000000000000000e+01,2.380000000000000000e+02,3.430000000000000000e+02,1.760000000000000000e+02,5.200000000000000000e+01,5.300000000000000000e+01,4.900000000000000000e+01,5.000000000000000000e+01,6.199999999999999956e-01,4.326155000000000000e+08
9.200000000000000000e+01,2.340000000000000000e+02,3.340000000000000000e+02,1.750000000000000000e+02,4.800000000000000000e+01,4.500000000000000000e+01,4.500000000000000000e+01,5.000000000000000000e+01,6.199999999999999956e-01,4.647311000000000000e+08
9.300000000000000000e+01,2.350000000000000000e+02,3.400000000000000000e+02,1.650000000000000000e+02,4.300000000000000000e+01,3.300000000000000000e+01,3.800000000000000000e+01,4.500000000000000000e+01,6.300000000000000044e-01,7.788099000000000000e+08
9.800000000000000000e+01,2.480000000000000000e+02,3.670000000000000000e+02,1.590000000000000000e+02,4.300000000000000000e+01,4.300000000000000000e+01,5.300000000000000000e+01,4.400000000000000000e+01,6.300000000000000044e-01,7.963543000000000000e+08
8.700000000000000000e+01,2.840000000000000000e+02,3.930000000000000000e+02,1.050000000000000000e+02,4.200000000000000000e+01,8.200000000000000000e+01,6.800000000000000000e+01,3.800000000000000000e+01,6.400000000000000133e-01,8.142698000000000000e+08
8.200000000000000000e+01,2.540000000000000000e+02,3.830000000000000000e+02,9.100000000000000000e+01,3.300000000000000000e+01,9.300000000000000000e+01,7.200000000000000000e+01,3.200000000000000000e+01,6.500000000000000222e-01,8.309600000000000000e+08
8.100000000000000000e+01,2.680000000000000000e+02,4.050000000000000000e+02,9.300000000000000000e+01,4.000000000000000000e+01,9.600000000000000000e+01,7.400000000000000000e+01,3.100000000000000000e+01,6.500000000000000222e-01,8.490051000000000000e+08
7.900000000000000000e+01,2.690000000000000000e+02,4.410000000000000000e+02,9.700000000000000000e+01,4.100000000000000000e+01,1.000000000000000000e+02,7.900000000000000000e+01,3.200000000000000000e+01,6.600000000000000311e-01,8.655581000000000000e+08
6.400000000000000000e+01,2.390000000000000000e+02,3.990000000000000000e+02,9.200000000000000000e+01,4.300000000000000000e+01,1.120000000000000000e+02,8.000000000000000000e+01,3.100000000000000000e+01,6.700000000000000400e-01,8.825800000000000000e+08
6.200000000000000000e+01,2.100000000000000000e+02,3.670000000000000000e+02,8.500000000000000000e+01,4.300000000000000000e+01,9.000000000000000000e+01,6.800000000000000000e+01,3.100000000000000000e+01,6.700000000000000400e-01,8.992994000000000000e+08
5.800000000000000000e+01,2.340000000000000000e+02,3.380000000000000000e+02,1.010000000000000000e+02,4.600000000000000000e+01,7.900000000000000000e+01,6.400000000000000000e+01,2.900000000000000000e+01,6.600000000000000311e-01,9.162194000000000000e+08
5.500000000000000000e+01,2.220000000000000000e+02,3.180000000000000000e+02,1.100000000000000000e+02,4.500000000000000000e+01,7.500000000000000000e+01,6.300000000000000000e+01,3.000000000000000000e+01,6.600000000000000311e-01,9.339581000000000000e+08
6.100000000000000000e+01,2.150000000000000000e+02,2.670000000000000000e+02,1.030000000000000000e+02,4.500000000000000000e+01,8.100000000000000000e+01,9.500000000000000000e+01,6.600000000000000000e+01,6.600000000000000311e-01,9.513344000000000000e+08
6.800000000000000000e+01,2.210000000000000000e+02,2.750000000000000000e+02,1.000000000000000000e+02,4.200000000000000000e+01,7.300000000000000000e+01,8.500000000000000000e+01,6.600000000000000000e+01,6.600000000000000311e-01,9.678380000000000000e+08
6.900000000000000000e+01,2.160000000000000000e+02,2.810000000000000000e+02,1.310000000000000000e+02,4.300000000000000000e+01,6.900000000000000000e+01,8.700000000000000000e+01,6.900000000000000000e+01,6.600000000000000311e-01,9.856704000000000000e+08
6.900000000000000000e+01,1.990000000000000000e+02,2.830000000000000000e+02,1.250000000000000000e+02,4.100000000000000000e+01,6.900000000000000000e+01,8.800000000000000000e+01,7.000000000000000000e+01,6.600000000000000311e-01,1.002220900000000000e+09
7.000000000000000000e+01,1.920000000000000000e+02,2.950000000000000000e+02,1.120000000000000000e+02,4.100000000000000000e+01,2.320000000000000000e+02,9.700000000000000000e+01,1.120000000000000000e+02,6.500000000000000222e-01,1.019825100000000000e+09
6.400000000000000000e+01,1.860000000000000000e+02,3.110000000000000000e+02,1.130000000000000000e+02,4.800000000000000000e+01,2.700000000000000000e+02,7.000000000000000000e+01,1.350000000000000000e+02,6.500000000000000222e-01,1.204450100000000000e+09
6.000000000000000000e+01,1.650000000000000000e+02,2.870000000000000000e+02,1.100000000000000000e+02,4.500000000000000000e+01,2.730000000000000000e+02,6.900000000000000000e+01,1.380000000000000000e+02,6.400000000000000133e-01,1.221390200000000000e+09
7.200000000000000000e+01,1.430000000000000000e+02,2.920000000000000000e+02,7.400000000000000000e+01,4.300000000000000000e+01,2.770000000000000000e+02,6.700000000000000000e+01,1.410000000000000000e+02,6.400000000000000133e-01,1.239287900000000000e+09
7.700000000000000000e+01,1.490000000000000000e+02,3.070000000000000000e+02,6.600000000000000000e+01,4.400000000000000000e+01,2.850000000000000000e+02,7.200000000000000000e+01,1.410000000000000000e+02,6.300000000000000044e-01,1.257544200000000000e+09
8.200000000000000000e+01,1.800000000000000000e+02,3.480000000000000000e+02,1.010000000000000000e+02,4.300000000000000000e+01,2.250000000000000000e+02,7.500000000000000000e+01,1.200000000000000000e+02,6.199999999999999956e-01,1.279197200000000000e+09
8.400000000000000000e+01,1.900000000000000000e+02,3.230000000000000000e+02,1.010000000000000000e+02,4.200000000000000000e+01,2.880000000000000000e+02,9.000000000000000000e+01,8.800000000000000000e+01,6.199999999999999956e-01,1.330644400000000000e+09
8.100000000000000000e+01,2.030000000000000000e+02,3.220000000000000000e+02,1.090000000000000000e+02,4.500000000000000000e+01,3.000000000000000000e+02,1.050000000000000000e+02,8.600000000000000000e+01,6.199999999999999956e-01,1.348627000000000000e+09
7.600000000000000000e+01,2.370000000000000000e+02,3.850000000000000000e+02,1.810000000000000000e+02,5.000000000000000000e+01,2.970000000000000000e+02,1.080000000000000000e+02,8.200000000000000000e+01,6.300000000000000044e-01,1.365663800000000000e+09
7.700000000000000000e+01,2.630000000000000000e+02,3.710000000000000000e+02,1.850000000000000000e+02,5.100000000000000000e+01,2.910000000000000000e+02,1.040000000000000000e+02,8.500000000000000000e+01,6.300000000000000044e-01,1.382830500000000000e+09
7.600000000000000000e+01,2.460000000000000000e+02,3.250000000000000000e+02,1.730000000000000000e+02,5.000000000000000000e+01,2.590000000000000000e+02,9.200000000000000000e+01,7.400000000000000000e+01,6.400000000000000133e-01,1.403076300000000000e+09
7.600000000000000000e+01,2.570000000000000000e+02,3.450000000000000000e+02,1.720000000000000000e+02,4.400000000000000000e+01,1.230000000000000000e+02,6.900000000000000000e+01,5.400000000000000000e+01,6.400000000000000133e-01,1.420716000000000000e+09
7.900000000000000000e+01,2.970000000000000000e+02,3.600000000000000000e+02,1.850000000000000000e+02,4.800000000000000000e+01,6.800000000000000000e+01,4.300000000000000000e+01,5.200000000000000000e+01,6.400000000000000133e-01,1.437178700000000000e+09
7.000000000000000000e+01,3.030000000000000000e+02,3.030000000000000000e+02,1.200000000000000000e+02,4.300000000000000000e+01,6.200000000000000000e+01,3.000000000000000000e+01,4.500000000000000000e+01,6.500000000000000222e-01,1.453300100000000000e+09
6.200000000000000000e+01,2.810000000000000000e+02,4.500000000000000000e+02,1.300000000000000000e+02,4.200000000000000000e+01,5.800000000000000000e+01,3.300000000000000000e+01,3.500000000000000000e+01,6.600000000000000311e-01,1.469868400000000000e+09
6.800000000000000000e+01,2.880000000000000000e+02,5.070000000000000000e+02,1.440000000000000000e+02,5.800000000000000000e+01,1.750000000000000000e+02,6.100000000000000000e+01,5.300000000000000000e+01,6.600000000000000311e-01,1.486521400000000000e+09
7.000000000000000000e+01,2.880000000000000000e+02,5.480000000000000000e+02,1.500000000000000000e+02,6.100000000000000000e+01,2.210000000000000000e+02,6.600000000000000000e+01,5.500000000000000000e+01,6.600000000000000311e-01,1.502930300000000000e+09
6.700000000000000000e+01,2.410000000000000000e+02,5.390000000000000000e+02,1.320000000000000000e+02,5.900000000000000000e+01,2.660000000000000000e+02,6.700000000000000000e+01,5.400000000000000000e+01,6.700000000000000400e-01,1.519361200000000000e+09
6.200000000000000000e+01,2.100000000000000000e+02,5.230000000000000000e+02,1.290000000000000000e+02,5.900000000000000000e+01,2.700000000000000000e+02,7.800000000000000000e+01,5.400000000000000000e+01,6.700000000000000400e-01,1.538991800000000000e+09
6.300000000000000000e+01,1.980000000000000000e+02,4.160000000000000000e+02,1.150000000000000000e+02,5.800000000000000000e+01,2.740000000000000000e+02,7.700000000000000000e+01,5.500000000000000000e+01,6.600000000000000311e-01,1.556175900000000000e+09
5.200000000000000000e+01,1.920000000000000000e+02,4.420000000000000000e+02,1.130000000000000000e+02,4.300000000000000000e+01,2.180000000000000000e+02,6.200000000000000000e+01,3.500000000000000000e+01,6.600000000000000311e-01,1.573297600000000000e+09
5.000000000000000000e+01,1.720000000000000000e+02,3.930000000000000000e+02,1.110000000000000000e+02,4.000000000000000000e+01,1.810000000000000000e+02,6.100000000000000000e+01,2.900000000000000000e+01,6.600000000000000311e-01,1.589687500000000000e+09
6.400000000000000000e+01,1.930000000000000000e+02,4.030000000000000000e+02,1.070000000000000000e+02,4.300000000000000000e+01,1.540000000000000000e+02,6.700000000000000000e+01,3.100000000000000000e+01,6.600000000000000311e-01,1.606536400000000000e+09
6.400000000000000000e+01,2.300000000000000000e+02,4.700000000000000000e+02,1.200000000000000000e+02,4.900000000000000000e+01,1.530000000000000000e+02,5.400000000000000000e+01,3.000000000000000000e+01,6.600000000000000311e-01,1.623620700000000000e+09
6.300000000000000000e+01,2.390000000000000000e+02,4.680000000000000000e+02,1.160000000000000000e+02,4.900000000000000000e+01,1.960000000000000000e+02,7.100000000000000000e+01,6.800000000000000000e+01,6.500000000000000222e-01,1.641117800000000000e+09
6.600000000000000000e+01,2.740000000000000000e+02,3.740000000000000000e+02,9.000000000000000000e+01,4.600000000000000000e+01,2.440000000000000000e+02,8.300000000000000000e+01,7.200000000000000000e+01,6.500000000000000222e-01,1.658388900000000000e+09
8.300000000000000000e+01,2.880000000000000000e+02,4.440000000000000000e+02,9.600000000000000000e+01,4.700000000000000000e+01,2.410000000000000000e+02,8.100000000000000000e+01,7.600000000000000000e+01,6.500000000000000222e-01,1.674895400000000000e+09
7.900000000000000000e+01,2.870000000000000000e+02,5.390000000000000000e+02,1.030000000000000000e+02,4.600000000000000000e+01,2.160000000000000000e+02,7.800000000000000000e+01,7.700000000000000000e+01,6.600000000000000311e-01,1.691287000000000000e+09
7.800000000000000000e+01,2.400000000000000000e+02,5.210000000000000000e+02,9.600000000000000000e+01,3.700000000000000000e+01,2.200000000000000000e+02,9.100000000000000000e+01,7.800000000000000000e+01,6.600000000000000311e-01,1.707789800000000000e+09
8.500000000000000000e+01,2.320000000000000000e+02,5.620000000000000000e+02,1.240000000000000000e+02,4.100000000000000000e+01,1.770000000000000000e+02,7.800000000000000000e+01,5.000000000000000000e+01,6.600000000000000311e-01,1.724270200000000000e+09
9.300000000000000000e+01,2.490000000000000000e+02,5.980000000000000000e+02,1.240000000000000000e+02,4.300000000000000000e+01,9.600000000000000000e+01,6.000000000000000000e+01,4.500000000000000000e+01,6.600000000000000311e-01,1.740845400000000000e+09
9.500000000000000000e+01,2.750000000000000000e+02,5.420000000000000000e+02,1.240000000000000000e+02,4.200000000000000000e+01,8.400000000000000000e+01,6.000000000000000000e+01,4.400000000000000000e+01,6.600000000000000311e-01,1.757399100000000000e+09
8.900000000000000000e+01,2.640000000000000000e+02,4.710000000000000000e+02,1.270000000000000000e+02,4.500000000000000000e+01,9.700000000000000000e+01,7.200000000000000000e+01,4.000000000000000000e+01,6.600000000000000311e-01,1.773583200000000000e+09
9.100000000000000000e+01,2.620000000000000000e+02,4.580000000000000000e+02,1.260000000000000000e+02,4.700000000000000000e+01,1.090000000000000000e+02,6.300000000000000000e+01,3.900000000000000000e+01,6.600000000000000311e-01,1.791614200000000000e+09
8.300000000000000000e+01,2.580000000000000000e+02,4.770000000000000000e+02,1.080000000000000000e+02,4.300000000000000000e+01,1.170000000000000000e+02,6.400000000000000000e+01,3.800000000000000000e+01,6.600000000000000311e-01,1.810502100000000000e+09
7.100000000000000000e+01,1.900000000000000000e+02,4.870000000000000000e+02,1.200000000000000000e+02,4.400000000000000000e+01,1.170000000000000000e+02,6.600000000000000000e+01,3.700000000000000000e+01,6.600000000000000311e-01,1.828838100000000000e+09
4.300000000000000000e+01,1.200000000000000000e+02,5.150000000000000000e+02,1.220000000000000000e+02,4.800000000000000000e+01,1.280000000000000000e+02,6.500000000000000000e+01,3.200000000000000000e+01,6.600000000000000311e-01,1.847425000000000000e+09
4.400000000000000000e+01,1.060000000000000000e+02,4.830000000000000000e+02,1.150000000000000000e+02,4.200000000000000000e+01,1.280000000000000000e+02,7.100000000000000000e+01,3.600000000000000000e+01,6.600000000000000311e-01,1.867225300000000000e+09
4.200000000000000000e+01,1.100000000000000000e+02,4.880000000000000000e+02,1.090000000000000000e+02,4.000000000000000000e+01,2.050000000000000000e+02,7.000000000000000000e+01,6.800000000000000000e+01,6.600000000000000311e-01,1.884554400000000000e+09
4.500000000000000000e+01,1.230000000000000000e+02,4.220000000000000000e+02,1.080000000000000000e+02,4.400000000000000000e+01,2.120000000000000000e+02,6.800000000000000000e+01,7.000000000000000000e+01,6.600000000000000311e-01,1.901532300000000000e+09
4.800000000000000000e+01,1.460000000000000000e+02,3.860000000000000000e+02,9.800000000000000000e+01,4.100000000000000000e+01,2.230000000000000000e+02,7.100000000000000000e+01,8.000000000000000000e+01,6.600000000000000311e-01,1.918751100000000000e+09
6.300000000000000000e+01,1.670000000000000000e+02,4.160000000000000000e+02,8.900000000000000000e+01,4.000000000000000000e+01,2.410000000000000000e+02,8.700000000000000000e+01,1.040000000000000000e+02,6.600000000000000311e-01,1.936209300000000000e+09
6.500000000000000000e+01,1.880000000000000000e+02,4.400000000000000000e+02,8.900000000000000000e+01,4.200000000000000000e+01,2.980000000000000000e+02,9.000000000000000000e+01,1.040000000000000000e+02,6.500000000000000222e-01,1.952979800000000000e+09
6.600000000000000000e+01,1.880000000000000000e+02,3.940000000000000000e+02,8.300000000000000000e+01,3.900000000000000000e+01,2.490000000000000000e+02,8.800000000000000000e+01,9.300000000000000000e+01,6.500000000000000222e-01,1.969766400000000000e+09
7.500000000000000000e+01,1.880000000000000000e+02,4.060000000000000000e+02,1.140000000000000000e+02,4.700000000000000000e+01,2.390000000000000000e+02,8.900000000000000000e+01,9.200000000000000000e+01,6.500000000000000222e-01,1.985928200000000000e+09
7.300000000000000000e+01,1.700000000000000000e+02,4.040000000000000000e+02,1.350000000000000000e+02,4.900000000000000000e+01,2.330000000000000000e+02,9.300000000000000000e+01,8.300000000000000000e+01,6.500000000000000222e-01,2.002277100000000000e+09
6.300000000000000000e+01,1.570000000000000000e+02,3.950000000000000000e+02,1.420000000000000000e+02,4.800000000000000000e+01,2.080000000000000000e+02,8.000000000000000000e+01,5.100000000000000000e+01,6.500000000000000222e-01,2.018567800000000000e+09
7.100000000000000000e+01,1.540000000000000000e+02,3.810000000000000000e+02,1.400000000000000000e+02,5.000000000000000000e+01,1.320000000000000000e+02,6.400000000000000000e+01,4.800000000000000000e+01,6.500000000000000222e-01,2.035185000000000000e+09
8.400000000000000000e+01,2.090000000000000000e+02,3.780000000000000000e+02,1.430000000000000000e+02,5.100000000000000000e+01,1.360000000000000000e+02,8.100000000000000000e+01,6.800000000000000000e+01,6.500000000000000222e-01,2.053909800000000000e+09
7.600000000000000000e+01,2.090000000000000000e+02,3.400000000000000000e+02,1.210000000000000000e+02,4.100000000000000000e+01,1.460000000000000000e+02,8.000000000000000000e+01,7.200000000000000000e+01,6.500000000000000222e-01,2.071021200000000000e+09
7.900000000000000000e+01,2.180000000000000000e+02,4.500000000000000000e+02,1.400000000000000000e+02,4.400000000000000000e+01,1.400000000000000000e+02,8.000000000000000000e+01,7.300000000000000000e+01,6.600000000000000311e-01,2.088161700000000000e+09
7.800000000000000000e+01,2.200000000000000000e+02,4.210000000000000000e+02,1.400000000000000000e+02,4.000000000000000000e+01,1.560000000000000000e+02,8.900000000000000000e+01,7.300000000000000000e+01,6.600000000000000311e-01,2.104948800000000000e+09
8.400000000000000000e+01,2.250000000000000000e+02,4.040000000000000000e+02,1.430000000000000000e+02,4.400000000000000000e+01,2.150000000000000000e+02,1.150000000000000000e+02,1.170000000000000000e+02,6.600000000000000311e-01,2.121057700000000000e+09
1.000000000000000000e+02,1.780000000000000000e+02,4.080000000000000000e+02,1.420000000000000000e+02,4.500000000000000000e+01,2.440000000000000000e+02,1.370000000000000000e+02,2.340000000000000000e+02,6.600000000000000311e-01,2.137569200000000000e+09
1.050000000000000000e+02,1.850000000000000000e+02,4.500000000000000000e+02,1.360000000000000000e+02,5.200000000000000000e+01,2.850000000000000000e+02,1.490000000000000000e+02,2.460000000000000000e+02,6.500000000000000222e-01,2.153959400000000000e+09
1.060000000000000000e+02,1.800000000000000000e+02,3.150000000000000000e+02,8.900000000000000000e+01,5.000000000000000000e+01,2.930000000000000000e+02,1.480000000000000000e+02,2.540000000000000000e+02,6.400000000000000133e-01,2.170167200000000000e+09
1.080000000000000000e+02,1.690000000000000000e+02,3.020000000000000000e+02,9.300000000000000000e+01,5.300000000000000000e+01,2.900000000000000000e+02,1.430000000000000000e+02,2.560000000000000000e+02,6.199999999999999956e-01,2.186480500000000000e+09
9.500000000000000000e+01,1.740000000000000000e+02,4.030000000000000000e+02,1.150000000000000000e+02,5.600000000000000000e+01,2.410000000000000000e+02,1.320000000000000000e+02,2.410000000000000000e+02,6.099999999999999867e-01,2.202768500000000000e+09
7.100000000000000000e+01,1.940000000000000000e+02,5.170000000000000000e+02,1.320000000000000000e+02,6.600000000000000000e+01,2.960000000000000000e+02,1.070000000000000000e+02,1.520000000000000000e+02,5.999999999999999778e-01,2.218868900000000000e+09
6.400000000000000000e+01,2.180000000000000000e+02,5.020000000000000000e+02,1.300000000000000000e+02,6.300000000000000000e+01,2.940000000000000000e+02,9.300000000000000000e+01,1.430000000000000000e+02,5.899999999999999689e-01,2.234988700000000000e+09
6.500000000000000000e+01,2.300000000000000000e+02,5.170000000000000000e+02,1.360000000000000000e+02,6.200000000000000000e+01,3.060000000000000000e+02,9.900000000000000000e+01,1.390000000000000000e+02,5.899999999999999689e-01,2.251999400000000000e+09
8.000000000000000000e+01,2.480000000000000000e+02,5.510000000000000000e+02,1.350000000000000000e+02,6.600000000000000000e+01,3.040000000000000000e+02,1.110000000000000000e+02,1.470000000000000000e+02,5.799999999999999600e-01,2.269108600000000000e+09
9.400000000000000000e+01,2.940000000000000000e+02,6.170000000000000000e+02,1.290000000000000000e+02,6.800000000000000000e+01,3.290000000000000000e+02,1.090000000000000000e+02,1.670000000000000000e+02,5.600000000000000533e-01,2.285943800000000000e+09
1.100000000000000000e+02,3.840000000000000000e+02,6.230000000000000000e+02,2.040000000000000000e+02,8.000000000000000000e+01,2.490000000000000000e+02,1.110000000000000000e+02,1.810000000000000000e+02,5.500000000000000444e-01,2.302564200000000000e+09
1.180000000000000000e+02,3.980000000000000000e+02,6.730000000000000000e+02,2.290000000000000000e+02,8.300000000000000000e+01,2.030000000000000000e+02,1.130000000000000000e+02,1.780000000000000000e+02,5.400000000000000355e-01,2.321681700000000000e+09
1.220000000000000000e+02,3.980000000000000000e+02,7.150000000000000000e+02,2.320000000000000000e+02,8.600000000000000000e+01,1.750000000000000000e+02,1.040000000000000000e+02,1.720000000000000000e+02,5.300000000000000266e-01,2.341476500000000000e+09
1.160000000000000000e+02,3.970000000000000000e+02,8.030000000000000000e+02,2.810000000000000000e+02,9.400000000000000000e+01,1.780000000000000000e+02,9.300000000000000000e+01,1.670000000000000000e+02,5.100000000000000089e-01,2.365793100000000000e+09
1.140000000000000000e+02,3.720000000000000000e+02,7.520000000000000000e+02,3.060000000000000000e+02,9.700000000000000000e+01,1.110000000000000000e+02,7.800000000000000000e+01,1.510000000000000000e+02,5.000000000000000000e-01,2.390299500000000000e+09
1.140000000000000000e+02,3.010000000000000000e+02,7.440000000000000000e+02,2.730000000000000000e+02,9.700000000000000000e+01,1.070000000000000000e+02,5.800000000000000000e+01,9.600000000000000000e+01,4.899999999999999911e-01,2.414904500000000000e+09
1.130000000000000000e+02,2.690000000000000000e+02,8.080000000000000000e+02,3.260000000000000000e+02,9.800000000000000000e+01,9.700000000000000000e+01,4.900000000000000000e+01,8.400000000000000000e+01,4.799999999999999822e-01,2.435655200000000000e+09
1.110000000000000000e+02,2.770000000000000000e+02,8.590000000000000000e+02,3.910000000000000000e+02,1.090000000000000000e+02,9.700000000000000000e+01,5.100000000000000000e+01,8.200000000000000000e+01,4.699999999999999734e-01,2.465414800000000000e+09
1.110000000000000000e+02,3.010000000000000000e+02,7.910000000000000000e+02,3.570000000000000000e+02,1.130000000000000000e+02,8.100000000000000000e+01,4.300000000000000000e+01,7.100000000000000000e+01,4.500000000000000111e-01,2.497538500000000000e+09
1.080000000000000000e+02,2.840000000000000000e+02,7.980000000000000000e+02,3.650000000000000000e+02,1.300000000000000000e+02,8.000000000000000000e+01,4.200000000000000000e+01,6.100000000000000000e+01,4.400000000000000022e-01,2.517708100000000000e+09
8.500000000000000000e+01,2.700000000000000000e+02,8.370000000000000000e+02,3.670000000000000000e+02,1.280000000000000000e+02,8.800000000000000000e+01,3.900000000000000000e+01,4.900000000000000000e+01,4.199999999999999845e-01,2.536784900000000000e+09
7.400000000000000000e+01,2.660000000000000000e+02,7.480000000000000000e+02,3.130000000000000000e+02,1.270000000000000000e+02,7.310000000000000000e+02,4.100000000000000000e+01,4.300000000000000000e+01,4.099999999999999756e-01,2.556524300000000000e+09
7.300000000000000000e+01,2.600000000000000000e+02,6.430000000000000000e+02,2.250000000000000000e+02,1.240000000000000000e+02,9.310000000000000000e+02,5.100000000000000000e+01,5.000000000000000000e+01,4.199999999999999845e-01,2.576999400000000000e+09
6.900000000000000000e+01,2.200000000000000000e+02,6.300000000000000000e+02,2.210000000000000000e+02,1.210000000000000000e+02,1.041000000000000000e+03,9.300000000000000000e+01,1.500000000000000000e+02,4.400000000000000022e-01,2.594872300000000000e+09
6.000000000000000000e+01,2.030000000000000000e+02,5.780000000000000000e+02,1.670000000000000000e+02,1.130000000000000000e+02,1.185000000000000000e+03,1.190000000000000000e+02,1.740000000000000000e+02,4.600000000000000200e-01,2.613670100000000000e+09
6.200000000000000000e+01,1.670000000000000000e+02,4.440000000000000000e+02,1.420000000000000000e+02,1.040000000000000000e+02,1.223000000000000000e+03,1.410000000000000000e+02,1.840000000000000000e+02,4.699999999999999734e-01,2.635265200000000000e+09
8.400000000000000000e+01,1.470000000000000000e+02,4.000000000000000000e+02,1.190000000000000000e+02,1.100000000000000000e+02,1.043000000000000000e+03,2.320000000000000000e+02,3.550000000000000000e+02,4.899999999999999911e-01,2.655521700000000000e+09
8.200000000000000000e+01,1.170000000000000000e+02,4.170000000000000000e+02,1.200000000000000000e+02,1.030000000000000000e+02,8.800000000000000000e+02,2.430000000000000000e+02,4.250000000000000000e+02,4.899999999999999911e-01,2.674270100000000000e+09
8.000000000000000000e+01,1.050000000000000000e+02,4.130000000000000000e+02,1.270000000000000000e+02,9.700000000000000000e+01,7.810000000000000000e+02,2.470000000000000000e+02,4.560000000000000000e+02,5.000000000000000000e-01,2.693805700000000000e+09
9.400000000000000000e+01,1.250000000000000000e+02,4.700000000000000000e+02,1.270000000000000000e+02,8.400000000000000000e+01,5.490000000000000000e+02,2.650000000000000000e+02,5.180000000000000000e+02,5.000000000000000000e-01,2.714495000000000000e+09
1.070000000000000000e+02,1.330000000000000000e+02,4.880000000000000000e+02,1.190000000000000000e+02,8.000000000000000000e+01,4.800000000000000000e+02,2.840000000000000000e+02,5.590000000000000000e+02,5.000000000000000000e-01,2.734748300000000000e+09
9.200000000000000000e+01,1.360000000000000000e+02,5.470000000000000000e+02,1.190000000000000000e+02,7.600000000000000000e+01,6.540000000000000000e+02,2.400000000000000000e+02,4.940000000000000000e+02,5.100000000000000089e-01,2.754674400000000000e+09
9.600000000000000000e+01,1.350000000000000000e+02,5.340000000000000000e+02,1.190000000000000000e+02,8.000000000000000000e+01,1.038000000000000000e+03,2.400000000000000000e+02,4.580000000000000000e+02,5.100000000000000089e-01,2.773557700000000000e+09
1.140000000000000000e+02,1.750000000000000000e+02,5.720000000000000000e+02,1.220000000000000000e+02,8.200000000000000000e+01,1.188000000000000000e+03,2.330000000000000000e+02,4.960000000000000000e+02,5.100000000000000089e-01,2.793472900000000000e+09
1.050000000000000000e+02,1.660000000000000000e+02,5.770000000000000000e+02,1.230000000000000000e+02,8.600000000000000000e+01,1.210000000000000000e+03,2.130000000000000000e+02,4.620000000000000000e+02,5.100000000000000089e-01,2.813325100000000000e+09
9.600000000000000000e+01,1.560000000000000000e+02,5.420000000000000000e+02,1.200000000000000000e+02,9.400000000000000000e+01,1.245000000000000000e+03,2.120000000000000000e+02,4.510000000000000000e+02,5.000000000000000000e-01,2.833225600000000000e+09
1.040000000000000000e+02,1.550000000000000000e+02,5.460000000000000000e+02,1.200000000000000000e+02,9.300000000000000000e+01,1.117000000000000000e+03,2.270000000000000000e+02,5.040000000000000000e+02,5.000000000000000000e-01,2.851704700000000000e+09
9.700000000000000000e+01,1.660000000000000000e+02,5.460000000000000000e+02,1.290000000000000000e+02,8.700000000000000000e+01,7.710000000000000000e+02,2.270000000000000000e+02,5.080000000000000000e+02,4.899999999999999911e-01,2.870099500000000000e+09
8.200000000000000000e+01,1.470000000000000000e+02,4.750000000000000000e+02,1.270000000000000000e+02,8.500000000000000000e+01,5.140000000000000000e+02,2.400000000000000000e+02,4.470000000000000000e+02,4.699999999999999734e-01,2.888400000000000000e+09
8.300000000000000000e+01,1.430000000000000000e+02,4.400000000000000000e+02,1.170000000000000000e+02,8.400000000000000000e+01,4.800000000000000000e+02,2.720000000000000000e+02,4.200000000000000000e+02,4.600000000000000200e-01,2.906348500000000000e+09
7.900000000000000000e+01,1.390000000000000000e+02,4.390000000000000000e+02,1.170000000000000000e+02,7.700000000000000000e+01,3.580000000000000000e+02,2.550000000000000000e+02,4.230000000000000000e+02,4.600000000000000200e-01,2.924352900000000000e+09
7.400000000000000000e+01,1.560000000000000000e+02,4.120000000000000000e+02,1.310000000000000000e+02,7.900000000000000000e+01,3.580000000000000000e+02,2.230000000000000000e+02,3.440000000000000000e+02,4.699999999999999734e-01,2.941987100000000000e+09
7.400000000000000000e+01,1.580000000000000000e+02,4.500000000000000000e+02,1.230000000000000000e+02,8.000000000000000000e+01,3.800000000000000000e+02,2.180000000000000000e+02,3.180000000000000000e+02,4.699999999999999734e-01,2.960120400000000000e+09
8.200000000000000000e+01,1.420000000000000000e+02,4.530000000000000000e+02,1.150000000000000000e+02,9.000000000000000000e+01,3.090000000000000000e+02,2.380000000000000000e+02,3.560000000000000000e+02,4.500000000000000111e-01,2.977992800000000000e+09
9.400000000000000000e+01,1.350000000000000000e+02,4.170000000000000000e+02,1.180000000000000000e+02,8.100000000000000000e+01,2.790000000000000000e+02,2.360000000000000000e+02,4.130000000000000000e+02,4.400000000000000022e-01,2.995641000000000000e+09
9.700000000000000000e+01,1.490000000000000000e+02,4.140000000000000000e+02,1.160000000000000000e+02,9.300000000000000000e+01,2.930000000000000000e+02,2.560000000000000000e+02,3.810000000000000000e+02,4.199999999999999845e-01,3.013095500000000000e+09
9.400000000000000000e+01,1.560000000000000000e+02,3.900000000000000000e+02,1.130000000000000000e+02,1.040000000000000000e+02,2.950000000000000000e+02,2.610000000000000000e+02,3.770000000000000000e+02,4.099999999999999756e-01,3.031870800000000000e+09
9.700000000000000000e+01,1.420000000000000000e+02,3.600000000000000000e+02,1.180000000000000000e+02,1.120000000000000000e+02,2.600000000000000000e+02,2.670000000000000000e+02,3.830000000000000000e+02,3.900000000000000133e-01,3.049024600000000000e+09
1.000000000000000000e+02,1.330000000000000000e+02,4.680000000000000000e+02,1.140000000000000000e+02,1.300000000000000000e+02,2.750000000000000000e+02,2.560000000000000000e+02,3.810000000000000000e+02,3.800000000000000044e-01,3.068644600000000000e+09
9.100000000000000000e+01,1.370000000000000000e+02,4.660000000000000000e+02,1.100000000000000000e+02,1.350000000000000000e+02,3.600000000000000000e+02,2.270000000000000000e+02,3.160000000000000000e+02,3.699999999999999956e-01,3.086779500000000000e+09
9.100000000000000000e+01,1.270000000000000000e+02,4.640000000000000000e+02,1.180000000000000000e+02,1.330000000000000000e+02,5.470000000000000000e+02,1.960000000000000000e+02,3.010000000000000000e+02,3.699999999999999956e-01,3.104758200000000000e+09
9.000000000000000000e+01,1.000000000000000000e+02,4.600000000000000000e+02,1.090000000000000000e+02,1.300000000000000000e+02,1.022000000000000000e+03,1.930000000000000000e+02,2.970000000000000000e+02,3.900000000000000133e-01,3.122644600000000000e+09
8.400000000000000000e+01,9.200000000000000000e+01,5.000000000000000000e+02,9.400000000000000000e+01,1.270000000000000000e+02,1.097000000000000000e+03,1.780000000000000000e+02,2.790000000000000000e+02,4.000000000000000222e-01,3.140031200000000000e+09
7.300000000000000000e+01,1.030000000000000000e+02,4.480000000000000000e+02,9.400000000000000000e+01,1.040000000000000000e+02,1.200000000000000000e+03,1.520000000000000000e+02,2.280000000000000000e+02,4.099999999999999756e-01,3.158530500000000000e+09
7.000000000000000000e+01,9.900000000000000000e+01,5.020000000000000000e+02,9.000000000000000000e+01,1.010000000000000000e+02,1.181000000000000000e+03,1.660000000000000000e+02,2.340000000000000000e+02,4.199999999999999845e-01,3.176283900000000000e+09
6.500000000000000000e+01,9.300000000000000000e+01,5.260000000000000000e+02,9.700000000000000000e+01,9.500000000000000000e+01,1.117000000000000000e+03,1.870000000000000000e+02,2.550000000000000000e+02,4.400000000000000022e-01,3.194812900000000000e+09
6.900000000000000000e+01,1.150000000000000000e+02,5.200000000000000000e+02,9.200000000000000000e+01,8.600000000000000000e+01,7.360000000000000000e+02,1.830000000000000000e+02,2.490000000000000000e+02,4.600000000000000200e-01,3.212193700000000000e+09
7.000000000000000000e+01,1.170000000000000000e+02,4.710000000000000000e+02,1.030000000000000000e+02,8.600000000000000000e+01,8.130000000000000000e+02,1.850000000000000000e+02,2.450000000000000000e+02,4.799999999999999822e-01,3.232114200000000000e+09
6.100000000000000000e+01,1.090000000000000000e+02,4.200000000000000000e+02,1.040000000000000000e+02,8.800000000000000000e+01,9.560000000000000000e+02,1.770000000000000000e+02,2.140000000000000000e+02,5.000000000000000000e-01,3.250691900000000000e+09
6.800000000000000000e+01,1.170000000000000000e+02,3.660000000000000000e+02,1.040000000000000000e+02,1.130000000000000000e+02,1.130000000000000000e+03,1.880000000000000000e+02,2.020000000000000000e+02,5.200000000000000178e-01,3.268644200000000000e+09
7.200000000000000000e+01,1.250000000000000000e+02,3.970000000000000000e+02,1.040000000000000000e+02,1.410000000000000000e+02,1.302000000000000000e+03,1.720000000000000000e+02,1.680000000000000000e+02,5.400000000000000355e-01,3.286320700000000000e+09
6.700000000000000000e+01,9.900000000000000000e+01,3.940000000000000000e+02,1.150000000000000000e+02,1.750000000000000000e+02,1.310000000000000000e+03,1.700000000000000000e+02,1.590000000000000000e+02,5.500000000000000444e-01,3.303855900000000000e+09
6.800000000000000000e+01,1.030000000000000000e+02,4.520000000000000000e+02,1.210000000000000000e+02,1.830000000000000000e+02,1.196000000000000000e+03,1.660000000000000000e+02,1.510000000000000000e+02,5.500000000000000444e-01,3.322440100000000000e+09
6.100000000000000000e+01,1.010000000000000000e+02,4.260000000000000000e+02,1.180000000000000000e+02,1.830000000000000000e+02,1.027000000000000000e+03,1.620000000000000000e+02,1.310000000000000000e+02,5.600000000000000533e-01,3.340340800000000000e+09
5.100000000000000000e+01,9.100000000000000000e+01,4.080000000000000000e+02,1.130000000000000000e+02,1.660000000000000000e+02,8.430000000000000000e+02,1.310000000000000000e+02,1.180000000000000000e+02,5.699999999999999512e-01,3.359013800000000000e+09
4.800000000000000000e+01,7.500000000000000000e+01,3.450000000000000000e+02,9.700000000000000000e+01,1.410000000000000000e+02,5.510000000000000000e+02,1.820000000000000000e+02,1.490000000000000000e+02,5.699999999999999512e-01,3.377123700000000000e+09
4.300000000000000000e+01,7.400000000000000000e+01,3.150000000000000000e+02,9.200000000000000000e+01,9.200000000000000000e+01,4.940000000000000000e+02,1.830000000000000000e+02,1.480000000000000000e+02,5.699999999999999512e-01,3.394904700000000000e+09
5.500000000000000000e+01,6.000000000000000000e+01,1.750000000000000000e+02,7.000000000000000000e+01,6.700000000000000000e+01,4.930000000000000000e+02,2.080000000000000000e+02,1.730000000000000000e+02,5.699999999999999512e-01,3.412926300000000000e+09
1.490000000000000000e+02,7.100000000000000000e+01,1.570000000000000000e+02,6.900000000000000000e+01,6.900000000000000000e+01,3.470000000000000000e+02,2.090000000000000000e+02,1.900000000000000000e+02,5.600000000000000533e-01,3.430600900000000000e+09
6.960000000000000000e+02,7.300000000000000000e+01,1.390000000000000000e+02,7.900000000000000000e+01,9.100000000000000000e+01,2.950000000000000000e+02,1.930000000000000000e+02,1.780000000000000000e+02,5.500000000000000444e-01,3.450033800000000000e+09
7.760000000000000000e+02,7.500000000000000000e+01,1.010000000000000000e+02,8.400000000000000000e+01,1.160000000000000000e+02,1.980000000000000000e+02,1.340000000000000000e+02,1.620000000000000000e+02,5.400000000000000355e-01,3.469835600000000000e+09
8.650000000000000000e+02,6.800000000000000000e+01,1.150000000000000000e+02,7.500000000000000000e+01,1.300000000000000000e+02,1.590000000000000000e+02,1.290000000000000000e+02,1.800000000000000000e+02,5.300000000000000266e-01,3.489088800000000000e+09
8.730000000000000000e+02,8.000000000000000000e+01,2.050000000000000000e+02,8.400000000000000000e+01,1.330000000000000000e+02,1.450000000000000000e+02,7.700000000000000000e+01,1.590000000000000000e+02,5.200000000000000178e-01,3.508932500000000000e+09
8.660000000000000000e+02,8.600000000000000000e+01,2.620000000000000000e+02,9.900000000000000000e+01,1.360000000000000000e+02,1.230000000000000000e+02,7.700000000000000000e+01,1.330000000000000000e+02,5.100000000000000089e-01,3.528282200000000000e+09
5.390000000000000000e+02,9.100000000000000000e+01,3.140000000000000000e+02,1.090000000000000000e+02,1.240000000000000000e+02,8.600000000000000000e+01,1.010000000000000000e+02,1.570000000000000000e+02,5.000000000000000000e-01,3.546140100000000000e+09
4.190000000000000000e+02,8.800000000000000000e+01,3.280000000000000000e+02,1.040000000000000000e+02,1.000000000000000000e+02,9.500000000000000000e+01,1.210000000000000000e+02,1.870000000000000000e+02,4.899999999999999911e-01,3.564201000000000000e+09
1.930000000000000000e+02,9.000000000000000000e+01,3.220000000000000000e+02,1.030000000000000000e+02,8.500000000000000000e+01,1.140000000000000000e+02,1.290000000000000000e+02,1.760000000000000000e+02,4.799999999999999822e-01,3.582760700000000000e+09
1.800000000000000000e+02,1.110000000000000000e+02,2.870000000000000000e+02,1.130000000000000000e+02,2.190000000000000000e+02,1.240000000000000000e+02,1.370000000000000000e+02,1.800000000000000000e+02,4.600000000000000200e-01,3.599874400000000000e+09
1.710000000000000000e+02,1.190000000000000000e+02,2.940000000000000000e+02,2.010000000000000000e+02,2.760000000000000000e+02,1.320000000000000000e+02,1.350000000000000000e+02,1.810000000000000000e+02,4.500000000000000111e-01,3.618526800000000000e+09
1.720000000000000000e+02,1.130000000000000000e+02,3.260000000000000000e+02,2.250000000000000000e+02,2.880000000000000000e+02,1.350000000000000000e+02,1.110000000000000000e+02,1.590000000000000000e+02,4.299999999999999933e-01,3.636576500000000000e+09
1.640000000000000000e+02,1.120000000000000000e+02,3.230000000000000000e+02,2.330000000000000000e+02,2.930000000000000000e+02,1.220000000000000000e+02,8.900000000000000000e+01,9.500000000000000000e+01,4.199999999999999845e-01,3.654757500000000000e+09
1.420000000000000000e+02,1.100000000000000000e+02,3.430000000000000000e+02,2.360000000000000000e+02,2.950000000000000000e+02,9.500000000000000000e+01,8.200000000000000000e+01,8.300000000000000000e+01,4.099999999999999756e-01,3.673195300000000000e+09
1.100000000000000000e+02,8.700000000000000000e+01,3.820000000000000000e+02,2.330000000000000000e+02,2.170000000000000000e+02,7.700000000000000000e+01,1.080000000000000000e+02,7.000000000000000000e+01,4.099999999999999756e-01,3.690365200000000000e+09
1.320000000000000000e+02,7.600000000000000000e+01,3.620000000000000000e+02,1.710000000000000000e+02,1.340000000000000000e+02,9.500000000000000000e+01,1.080000000000000000e+02,7.000000000000000000e+01,4.099999999999999756e-01,3.708301700000000000e+09
1.380000000000000000e+02,9.800000000000000000e+01,4.070000000000000000e+02,1.340000000000000000e+02,1.080000000000000000e+02,1.430000000000000000e+02,1.380000000000000000e+02,1.880000000000000000e+02,4.099999999999999756e-01,3.726218800000000000e+09
1.410000000000000000e+02,1.040000000000000000e+02,4.250000000000000000e+02,1.230000000000000000e+02,9.500000000000000000e+01,1.450000000000000000e+02,1.390000000000000000e+02,1.950000000000000000e+02,4.099999999999999756e-01,3.743349500000000000e+09
1.380000000000000000e+02,1.020000000000000000e+02,4.380000000000000000e+02,1.220000000000000000e+02,8.400000000000000000e+01,1.450000000000000000e+02,1.380000000000000000e+02,1.990000000000000000e+02,4.000000000000000222e-01,3.761179200000000000e+09
1.360000000000000000e+02,1.190000000000000000e+02,5.500000000000000000e+02,1.430000000000000000e+02,7.600000000000000000e+01,1.450000000000000000e+02,1.130000000000000000e+02,2.060000000000000000e+02,4.000000000000000222e-01,3.778090000000000000e+09
1.000000000000000000e+02,1.120000000000000000e+02,6.400000000000000000e+02,1.330000000000000000e+02,7.200000000000000000e+01,1.260000000000000000e+02,1.160000000000000000e+02,2.060000000000000000e+02,4.000000000000000222e-01,3.794673500000000000e+09
7.600000000000000000e+01,9.700000000000000000e+01,6.460000000000000000e+02,1.260000000000000000e+02,7.500000000000000000e+01,8.600000000000000000e+01,8.800000000000000000e+01,1.150000000000000000e+02,4.099999999999999756e-01,3.810879700000000000e+09
6.100000000000000000e+01,9.300000000000000000e+01,6.620000000000000000e+02,1.240000000000000000e+02,9.200000000000000000e+01,1.300000000000000000e+02,1.000000000000000000e+02,1.090000000000000000e+02,4.099999999999999756e-01,3.827311600000000000e+09
6.500000000000000000e+01,1.120000000000000000e+02,6.860000000000000000e+02,1.350000000000000000e+02,1.030000000000000000e+02,1.360000000000000000e+02,9.700000000000000000e+01,1.310000000000000000e+02,4.099999999999999756e-01,3.843129300000000000e+09
5.500000000000000000e+01,9.700000000000000000e+01,5.830000000000000000e+02,1.070000000000000000e+02,1.030000000000000000e+02,1.550000000000000000e+02,1.160000000000000000e+02,1.210000000000000000e+02,4.199999999999999845e-01,3.859076200000000000e+09
5.800000000000000000e+01,1.000000000000000000e+02,4.970000000000000000e+02,9.400000000000000000e+01,1.070000000000000000e+02,2.590000000000000000e+02,2.300000000000000000e+02,1.580000000000000000e+02,4.199999999999999845e-01,3.875717700000000000e+09
6.300000000000000000e+01,9.800000000000000000e+01,4.020000000000000000e+02,9.400000000000000000e+01,1.040000000000000000e+02,2.590000000000000000e+02,2.530000000000000000e+02,1.810000000000000000e+02,4.099999999999999756e-01,3.892664900000000000e+09
6.400000000000000000e+01,9.700000000000000000e+01,3.440000000000000000e+02,9.400000000000000000e+01,9.700000000000000000e+01,2.570000000000000000e+02,2.630000000000000000e+02,1.810000000000000000e+02,4.099999999999999756e-01,3.908966100000000000e+09
6.300000000000000000e+01,7.500000000000000000e+01,2.490000000000000000e+02,8.400000000000000000e+01,1.340000000000000000e+02,2.710000000000000000e+02,2.730000000000000000e+02,1.600000000000000000e+02,4.099999999999999756e-01,3.924968500000000000e+09
6.200000000000000000e+01,6.200000000000000000e+01,2.140000000000000000e+02,8.000000000000000000e+01,1.640000000000000000e+02,2.690000000000000000e+02,2.790000000000000000e+02,1.780000000000000000e+02,4.099999999999999756e-01,3.941152000000000000e+09
6.300000000000000000e+01,7.200000000000000000e+01,1.170000000000000000e+02,8.400000000000000000e+01,1.690000000000000000e+02,1.760000000000000000e+02,2.130000000000000000e+02,1.530000000000000000e+02,4.000000000000000222e-01,3.957989600000000000e+09
6.200000000000000000e+01,7.200000000000000000e+01,8.800000000000000000e+01,9.700000000000000000e+01,1.650000000000000000e+02,1.670000000000000000e+02,1.980000000000000000e+02,1.290000000000000000e+02,4.000000000000000222e-01,3.974528100000000000e+09
6.300000000000000000e+01,7.300000000000000000e+01,1.210000000000000000e+02,9.700000000000000000e+01,1.660000000000000000e+02,1.330000000000000000e+02,1.810000000000000000e+02,1.240000000000000000e+02,4.000000000000000222e-01,3.990689400000000000e+09
1.010000000000000000e+02,9.000000000000000000e+01,2.360000000000000000e+02,1.140000000000000000e+02,1.310000000000000000e+02,9.500000000000000000e+01,1.720000000000000000e+02,1.220000000000000000e+02,4.099999999999999756e-01,4.007019000000000000e+09
1.420000000000000000e+02,9.600000000000000000e+01,2.970000000000000000e+02,1.600000000000000000e+02,1.590000000000000000e+02,8.500000000000000000e+01,1.680000000000000000e+02,1.000000000000000000e+02,4.099999999999999756e-01,4.023046100000000000e+09
1.430000000000000000e+02,9.000000000000000000e+01,3.420000000000000000e+02,1.720000000000000000e+02,1.560000000000000000e+02,9.000000000000000000e+01,1.470000000000000000e+02,9.300000000000000000e+01,4.199999999999999845e-01,4.039877200000000000e+09
1.430000000000000000e+02,8.600000000000000000e+01,3.500000000000000000e+02,1.620000000000000000e+02,1.560000000000000000e+02,1.290000000000000000e+02,1.630000000000000000e+02,1.030000000000000000e+02,4.199999999999999845e-01,4.055943200000000000e+09
1.430000000000000000e+02,9.400000000000000000e+01,3.570000000000000000e+02,1.600000000000000000e+02,1.530000000000000000e+02,1.520000000000000000e+02,2.030000000000000000e+02,1.070000000000000000e+02,4.199999999999999845e-01,4.072807900000000000e+09
1.200000000000000000e+02,8.700000000000000000e+01,3.150000000000000000e+02,1.560000000000000000e+02,1.520000000000000000e+02,1.510000000000000000e+02,2.050000000000000000e+02,1.060000000000000000e+02,4.199999999999999845e-01,4.089876500000000000e+09
7.500000000000000000e+01,9.300000000000000000e+01,3.060000000000000000e+02,1.400000000000000000e+02,8.000000000000000000e+01,1.470000000000000000e+02,1.890000000000000000e+02,9.900000000000000000e+01,4.199999999999999845e-01,4.106754700000000000e+09
7.100000000000000000e+01,9.500000000000000000e+01,2.980000000000000000e+02,1.370000000000000000e+02,6.300000000000000000e+01,1.630000000000000000e+02,1.940000000000000000e+02,9.800000000000000000e+01,4.299999999999999933e-01,4.123223300000000000e+09
7.700000000000000000e+01,9.800000000000000000e+01,3.020000000000000000e+02,1.390000000000000000e+02,6.600000000000000000e+01,1.410000000000000000e+02,1.770000000000000000e+02,7.700000000000000000e+01,4.400000000000000022e-01,4.140141400000000000e+09
8.500000000000000000e+01,9.000000000000000000e+01,2.950000000000000000e+02,1.390000000000000000e+02,7.000000000000000000e+01,1.170000000000000000e+02,1.270000000000000000e+02,7.200000000000000000e+01,4.500000000000000111e-01,4.157042800000000000e+09
8.900000000000000000e+01,7.900000000000000000e+01,3.340000000000000000e+02,1.590000000000000000e+02,7.900000000000000000e+01,1.220000000000000000e+02,1.180000000000000000e+02,7.000000000000000000e+01,4.600000000000000200e-01,4.173904900000000000e+09
8.300000000000000000e+01,7.400000000000000000e+01,3.630000000000000000e+02,1.400000000000000000e+02,7.900000000000000000e+01,1.240000000000000000e+02,1.370000000000000000e+02,7.800000000000000000e+01,4.699999999999999734e-01,4.191442000000000000e+09
7.800000000000000000e+01,6.000000000000000000e+01,3.380000000000000000e+02,1.290000000000000000e+02,9.400000000000000000e+01,9.700000000000000000e+01,1.330000000000000000e+02,7.000000000000000000e+01,4.699999999999999734e-01,4.208590800000000000e+09
6.700000000000000000e+01,5.700000000000000000e+01,3.320000000000000000e+02,1.310000000000000000e+02,1.060000000000000000e+02,9.400000000000000000e+01,1.200000000000000000e+02,7.200000000000000000e+01,4.799999999999999822e-01,4.226064600000000000e+09
5.600000000000000000e+01,5.600000000000000000e+01,3.270000000000000000e+02,1.340000000000000000e+02,1.010000000000000000e+02,9.500000000000000000e+01,1.210000000000000000e+02,6.900000000000000000e+01,4.799999999999999822e-01,4.243889900000000000e+09
4.600000000000000000e+01,5.500000000000000000e+01,2.730000000000000000e+02,9.300000000000000000e+01,9.200000000000000000e+01,9.300000000000000000e+01,1.300000000000000000e+02,7.500000000000000000e+01,4.799999999999999822e-01,4.261178900000000000e+09
3.900000000000000000e+01,4.200000000000000000e+01,1.760000000000000000e+02,8.200000000000000000e+01,8.900000000000000000e+01,8.500000000000000000e+01,1.270000000000000000e+02,6.600000000000000000e+01,4.899999999999999911e-01,4.279135900000000000e+09
4.000000000000000000e+01,4.100000000000000000e+01,1.680000000000000000e+02,7.600000000000000000e+01,8.400000000000000000e+01,7.600000000000000000e+01,1.300000000000000000e+02,6.400000000000000000e+01,4.899999999999999911e-01,4.296414400000000000e+09
3.900000000000000000e+01,4.100000000000000000e+01,1.850000000000000000e+02,7.200000000000000000e+01,9.800000000000000000e+01,6.400000000000000000e+01,1.200000000000000000e+02,5.900000000000000000e+01,4.899999999999999911e-01,4.313565200000000000e+09
4.400000000000000000e+01,5.300000000000000000e+01,2.290000000000000000e+02,1.080000000000000000e+02,1.300000000000000000e+02,6.800000000000000000e+01,1.170000000000000000e+02,6.600000000000000000e+01,4.799999999999999822e-01,4.332388400000000000e+09
4.700000000000000000e+01,6.100000000000000000e+01,2.320000000000000000e+02,1.170000000000000000e+02,1.360000000000000000e+02,6.500000000000000000e+01,1.000000000000000000e+02,6.400000000000000000e+01,4.799999999999999822e-01,4.352378300000000000e+09
5.200000000000000000e+01,7.400000000000000000e+01,4.270000000000000000e+02,1.620000000000000000e+02,1.490000000000000000e+02,6.800000000000000000e+01,7.300000000000000000e+01,6.400000000000000000e+01,4.699999999999999734e-01,4.372641500000000000e+09
5.100000000000000000e+01,7.400000000000000000e+01,4.580000000000000000e+02,1.670000000000000000e+02,1.480000000000000000e+02,6.400000000000000000e+01,5.300000000000000000e+01,5.900000000000000000e+01,4.699999999999999734e-01,4.391620800000000000e+09
5.300000000000000000e+01,7.400000000000000000e+01,4.610000000000000000e+02,1.750000000000000000e+02,1.340000000000000000e+02,6.600000000000000000e+01,5.700000000000000000e+01,5.900000000000000000e+01,4.699999999999999734e-01,4.409976700000000000e+09
4.600000000000000000e+01,6.500000000000000000e+01,5.160000000000000000e+02,1.550000000000000000e+02,1.080000000000000000e+02,5.800000000000000000e+01,5.300000000000000000e+01,4.500000000000000000e+01,4.699999999999999734e-01,4.428314200000000000e+09
4.300000000000000000e+01,7.600000000000000000e+01,5.420000000000000000e+02,1.780000000000000000e+02,1.200000000000000000e+02,5.800000000000000000e+01,5.500000000000000000e+01,3.800000000000000000e+01,4.699999999999999734e-01,4.446443200000000000e+09
3.400000000000000000e+01,6.400000000000000000e+01,4.350000000000000000e+02,1.360000000000000000e+02,1.100000000000000000e+02,5.200000000000000000e+01,5.700000000000000000e+01,2.900000000000000000e+01,4.699999999999999734e-01,4.465207800000000000e+09
3.700000000000000000e+01,6.300000000000000000e+01,4.120000000000000000e+02,1.290000000000000000e+02,1.090000000000000000e+02,5.600000000000000000e+01,8.700000000000000000e+01,3.300000000000000000e+01,4.699999999999999734e-01,4.484630400000000000e+09
3.500000000000000000e+01,6.400000000000000000e+01,4.060000000000000000e+02,1.190000000000000000e+02,1.100000000000000000e+02,5.300000000000000000e+01,8.500000000000000000e+01,3.000000000000000000e+01,4.699999999999999734e-01,4.503908300000000000e+09
3.600000000000000000e+01,6.200000000000000000e+01,3.020000000000000000e+02,1.240000000000000000e+02,1.050000000000000000e+02,5.200000000000000000e+01,8.700000000000000000e+01,3.100000000000000000e+01,4.799999999999999822e-01,4.525785900000000000e+09
3.100000000000000000e+01,3.700000000000000000e+01,2.400000000000000000e+02,6.900000000000000000e+01,9.000000000000000000e+01,4.700000000000000000e+01,8.600000000000000000e+01,2.800000000000000000e+01,4.799999999999999822e-01,4.544998800000000000e+09
3.100000000000000000e+01,3.400000000000000000e+01,1.800000000000000000e+02,7.000000000000000000e+01,8.500000000000000000e+01,4.700000000000000000e+01,8.300000000000000000e+01,2.800000000000000000e+01,4.799999999999999822e-01,4.568093800000000000e+09
2.500000000000000000e+01,3.300000000000000000e+01,1.530000000000000000e+02,7.000000000000000000e+01,9.000000000000000000e+01,4.200000000000000000e+01,7.400000000000000000e+01,2.300000000000000000e+01,4.799999999999999822e-01,4.589169000000000000e+09
2.400000000000000000e+01,3.200000000000000000e+01,1.450000000000000000e+02,7.100000000000000000e+01,8.400000000000000000e+01,3.800000000000000000e+01,7.000000000000000000e+01,2.500000000000000000e+01,4.799999999999999822e-01,4.613923600000000000e+09
2.300000000000000000e+01,3.100000000000000000e+01,1.500000000000000000e+02,5.500000000000000000e+01,8.400000000000000000e+01,4.000000000000000000e+01,6.900000000000000000e+01,2.500000000000000000e+01,4.799999999999999822e-01,4.633652800000000000e+09
2.500000000000000000e+01,3.200000000000000000e+01,2.850000000000000000e+02,7.600000000000000000e+01,8.800000000000000000e+01,4.600000000000000000e+01,7.100000000000000000e+01,2.700000000000000000e+01,4.699999999999999734e-01,4.653455100000000000e+09
2.800000000000000000e+01,4.700000000000000000e+01,3.770000000000000000e+02,1.150000000000000000e+02,8.900000000000000000e+01,4.700000000000000000e+01,6.900000000000000000e+01,3.000000000000000000e+01,4.799999999999999822e-01,4.672032400000000000e+09
2.900000000000000000e+01,5.000000000000000000e+01,3.840000000000000000e+02,1.280000000000000000e+02,1.010000000000000000e+02,4.600000000000000000e+01,3.900000000000000000e+01,2.900000000000000000e+01,4.799999999999999822e-01,4.690396000000000000e+09
2.900000000000000000e+01,5.100000000000000000e+01,4.000000000000000000e+02,1.260000000000000000e+02,1.050000000000000000e+02,4.900000000000000000e+01,4.400000000000000000e+01,3.000000000000000000e+01,4.799999999999999822e-01,4.709273100000000000e+09
2.800000000000000000e+01,5.100000000000000000e+01,4.010000000000000000e+02,1.360000000000000000e+02,1.040000000000000000e+02,4.800000000000000000e+01,4.200000000000000000e+01,2.800000000000000000e+01,4.799999999999999822e-01,4.729225400000000000e+09
4.100000000000000000e+01,7.400000000000000000e+01,3.960000000000000000e+02,1.410000000000000000e+02,1.000000000000000000e+02,4.700000000000000000e+01,4.100000000000000000e+01,3.300000000000000000e+01,4.799999999999999822e-01,4.750148900000000000e+09
3.800000000000000000e+01,6.800000000000000000e+01,3.510000000000000000e+02,1.430000000000000000e+02,1.060000000000000000e+02,4.600000000000000000e+01,3.900000000000000000e+01,2.900000000000000000e+01,4.899999999999999911e-01,4.770717300000000000e+09
3.800000000000000000e+01,6.700000000000000000e+01,3.490000000000000000e+02,1.470000000000000000e+02,1.000000000000000000e+02,4.700000000000000000e+01,3.800000000000000000e+01,3.000000000000000000e+01,4.899999999999999911e-01,4.790394900000000000e+09
3.700000000000000000e+01,6.700000000000000000e+01,3.340000000000000000e+02,1.520000000000000000e+02,9.600000000000000000e+01,4.300000000000000000e+01,3.200000000000000000e+01,2.800000000000000000e+01,5.000000000000000000e-01,4.809815400000000000e+09
4.200000000000000000e+01,8.600000000000000000e+01,4.470000000000000000e+02,1.630000000000000000e+02,9.900000000000000000e+01,4.600000000000000000e+01,3.100000000000000000e+01,3.100000000000000000e+01,5.000000000000000000e-01,4.828417500000000000e+09
3.400000000000000000e+01,7.800000000000000000e+01,4.110000000000000000e+02,1.550000000000000000e+02,9.300000000000000000e+01,3.600000000000000000e+01,2.700000000000000000e+01,2.300000000000000000e+01,5.100000000000000089e-01,4.847080800000000000e+09
4.000000000000000000e+01,8.200000000000000000e+01,4.180000000000000000e+02,1.330000000000000000e+02,9.000000000000000000e+01,3.300000000000000000e+01,2.600000000000000000e+01,2.900000000000000000e+01,5.200000000000000178e-01,4.868890400000000000e+09
3.900000000000000000e+01,8.300000000000000000e+01,4.280000000000000000e+02,1.180000000000000000e+02,7.100000000000000000e+01,4.000000000000000000e+01,2.400000000000000000e+01,2.800000000000000000e+01,5.200000000000000178e-01,4.887466000000000000e+09
3.900000000000000000e+01,8.300000000000000000e+01,4.450000000000000000e+02,1.200000000000000000e+02,6.600000000000000000e+01,4.000000000000000000e+01,2.900000000000000000e+01,3.000000000000000000e+01,5.300000000000000266e-01,4.905763900000000000e+09
3.600000000000000000e+01,7.100000000000000000e+01,3.500000000000000000e+02,1.070000000000000000e+02,6.400000000000000000e+01,4.100000000000000000e+01,3.000000000000000000e+01,2.900000000000000000e+01,5.300000000000000266e-01,4.924857800000000000e+09
3.300000000000000000e+01,6.300000000000000000e+01,3.690000000000000000e+02,1.170000000000000000e+02,7.000000000000000000e+01,4.300000000000000000e+01,2.900000000000000000e+01,3.100000000000000000e+01,5.400000000000000355e-01,4.945168700000000000e+09
3.000000000000000000e+01,6.200000000000000000e+01,3.420000000000000000e+02,1.380000000000000000e+02,7.700000000000000000e+01,5.000000000000000000e+01,2.800000000000000000e+01,2.700000000000000000e+01,5.400000000000000355e-01,4.965414100000000000e+09
3.100000000000000000e+01,6.200000000000000000e+01,3.270000000000000000e+02,1.450000000000000000e+02,7.600000000000000000e+01,4.400000000000000000e+01,2.700000000000000000e+01,2.800000000000000000e+01,5.500000000000000444e-01,4.983855300000000000e+09
3.300000000000000000e+01,6.300000000000000000e+01,3.090000000000000000e+02,1.510000000000000000e+02,7.700000000000000000e+01,4.400000000000000000e+01,2.500000000000000000e+01,2.700000000000000000e+01,5.500000000000000444e-01,5.003271600000000000e+09
3.600000000000000000e+01,7.200000000000000000e+01,3.290000000000000000e+02,1.550000000000000000e+02,7.500000000000000000e+01,4.200000000000000000e+01,2.300000000000000000e+01,3.000000000000000000e+01,5.500000000000000444e-01,5.022411600000000000e+09
3.400000000000000000e+01,6.800000000000000000e+01,2.840000000000000000e+02,1.450000000000000000e+02,7.400000000000000000e+01,4.200000000000000000e+01,2.700000000000000000e+01,2.900000000000000000e+01,5.500000000000000444e-01,5.043923000000000000e+09
3.300000000000000000e+01,7.700000000000000000e+01,2.920000000000000000e+02,1.280000000000000000e+02,5.800000000000000000e+01,3.300000000000000000e+01,2.800000000000000000e+01,2.800000000000000000e+01,5.600000000000000533e-01,5.063004300000000000e+09
3.400000000000000000e+01,8.200000000000000000e+01,3.110000000000000000e+02,1.310000000000000000e+02,5.600000000000000000e+01,3.800000000000000000e+01,2.900000000000000000e+01,2.800000000000000000e+01,5.600000000000000533e-01,5.082299300000000000e+09
3.300000000000000000e+01,8.100000000000000000e+01,3.860000000000000000e+02,1.250000000000000000e+02,7.800000000000000000e+01,4.600000000000000000e+01,2.800000000000000000e+01,2.900000000000000000e+01,5.600000000000000533e-01,5.102006600000000000e+09
3.000000000000000000e+01,8.000000000000000000e+01,4.070000000000000000e+02,1.390000000000000000e+02,9.000000000000000000e+01,4.800000000000000000e+01,2.800000000000000000e+01,2.700000000000000000e+01,5.600000000000000533e-01,5.121716100000000000e+09
3.200000000000000000e+01,8.400000000000000000e+01,4.110000000000000000e+02,1.620000000000000000e+02,9.400000000000000000e+01,5.000000000000000000e+01,2.400000000000000000e+01,2.700000000000000000e+01,5.600000000000000533e-01,5.141253500000000000e+09
3.400000000000000000e+01,7.800000000000000000e+01,4.430000000000000000e+02,1.590000000000000000e+02,9.700000000000000000e+01,5.500000000000000000e+01,2.500000000000000000e+01,2.800000000000000000e+01,5.600000000000000533e-01,5.160973200000000000e+09
3.500000000000000000e+01,7.500000000000000000e+01,4.430000000000000000e+02,1.820000000000000000e+02,9.700000000000000000e+01,5.200000000000000000e+01,2.500000000000000000e+01,2.900000000000000000e+01,5.699999999999999512e-01,5.182611600000000000e+09
3.400000000000000000e+01,7.200000000000000000e+01,3.970000000000000000e+02,1.780000000000000000e+02,8.100000000000000000e+01,4.600000000000000000e+01,2.400000000000000000e+01,2.900000000000000000e+01,5.699999999999999512e-01,5.202264800000000000e+09
3.200000000000000000e+01,6.000000000000000000e+01,3.630000000000000000e+02,1.620000000000000000e+02,6.600000000000000000e+01,4.300000000000000000e+01,2.400000000000000000e+01,2.800000000000000000e+01,5.699999999999999512e-01,5.223276800000000000e+09
3.200000000000000000e+01,6.200000000000000000e+01,4.060000000000000000e+02,1.510000000000000000e+02,6.000000000000000000e+01,4.300000000000000000e+01,2.900000000000000000e+01,3.000000000000000000e+01,5.799999999999999600e-01,5.244708600000000000e+09
3.500000000000000000e+01,6.900000000000000000e+01,3.950000000000000000e+02,1.690000000000000000e+02,6.200000000000000000e+01,4.000000000000000000e+01,2.800000000000000000e+01,3.300000000000000000e+01,5.799999999999999600e-01,5.265725400000000000e+09
3.700000000000000000e+01,7.300000000000000000e+01,4.040000000000000000e+02,1.440000000000000000e+02,6.500000000000000000e+01,4.100000000000000000e+01,3.000000000000000000e+01,3.200000000000000000e+01,5.799999999999999600e-01,5.285999400000000000e+09
3.700000000000000000e+01,7.400000000000000000e+01,3.910000000000000000e+02,1.610000000000000000e+02,7.300000000000000000e+01,4.300000000000000000e+01,2.800000000000000000e+01,3.000000000000000000e+01,5.799999999999999600e-01,5.305125200000000000e+09
3.700000000000000000e+01,7.500000000000000000e+01,3.800000000000000000e+02,1.800000000000000000e+02,7.800000000000000000e+01,4.400000000000000000e+01,2.800000000000000000e+01,3.100000000000000000e+01,5.799999999999999600e-01,5.323994300000000000e+09
3.800000000000000000e+01,8.100000000000000000e+01,4.060000000000000000e+02,1.800000000000000000e+02,8.500000000000000000e+01,4.500000000000000000e+01,2.400000000000000000e+01,2.800000000000000000e+01,5.899999999999999689e-01,5.344290900000000000e+09
4.100000000000000000e+01,9.300000000000000000e+01,5.180000000000000000e+02,1.650000000000000000e+02,9.300000000000000000e+01,5.400000000000000000e+01,2.800000000000000000e+01,2.800000000000000000e+01,5.899999999999999689e-01,5.365364100000000000e+09
3.800000000000000000e+01,9.300000000000000000e+01,5.870000000000000000e+02,1.750000000000000000e+02,1.090000000000000000e+02,5.400000000000000000e+01,2.700000000000000000e+01,3.000000000000000000e+01,5.799999999999999600e-01,5.384654300000000000e+09
4.200000000000000000e+01,9.400000000000000000e+01,6.160000000000000000e+02,1.640000000000000000e+02,1.090000000000000000e+02,5.300000000000000000e+01,2.900000000000000000e+01,3.200000000000000000e+01,5.799999999999999600e-01,5.406255200000000000e+09
4.100000000000000000e+01,9.500000000000000000e+01,6.580000000000000000e+02,1.390000000000000000e+02,1.070000000000000000e+02,5.100000000000000000e+01,2.800000000000000000e+01,3.000000000000000000e+01,5.799999999999999600e-01,5.425465100000000000e+09
4.000000000000000000e+01,8.800000000000000000e+01,6.520000000000000000e+02,1.440000000000000000e+02,1.010000000000000000e+02,5.000000000000000000e+01,2.900000000000000000e+01,3.000000000000000000e+01,5.699999999999999512e-01,5.445219600000000000e+09
3.800000000000000000e+01,6.800000000000000000e+01,5.800000000000000000e+02,1.790000000000000000e+02,9.700000000000000000e+01,4.700000000000000000e+01,2.900000000000000000e+01,2.600000000000000000e+01,5.600000000000000533e-01,5.464553000000000000e+09
4.000000000000000000e+01,6.700000000000000000e+01,5.450000000000000000e+02,1.850000000000000000e+02,8.200000000000000000e+01,5.700000000000000000e+01,3.200000000000000000e+01,2.600000000000000000e+01,5.600000000000000533e-01,5.485260100000000000e+09
3.600000000000000000e+01,6.400000000000000000e+01,5.480000000000000000e+02,1.870000000000000000e+02,8.000000000000000000e+01,9.100000000000000000e+01,7.400000000000000000e+01,2.600000000000000000e+01,5.500000000000000444e-01,5.506155500000000000e+09
3.800000000000000000e+01,6.300000000000000000e+01,5.550000000000000000e+02,2.170000000000000000e+02,8.200000000000000000e+01,1.050000000000000000e+02,8.500000000000000000e+01,3.100000000000000000e+01,5.500000000000000444e-01,5.525610400000000000e+09
3.700000000000000000e+01,6.000000000000000000e+01,5.320000000000000000e+02,2.080000000000000000e+02,7.800000000000000000e+01,1.050000000000000000e+02,8.600000000000000000e+01,3.000000000000000000e+01,5.500000000000000444e-01,5.546645600000000000e+09
3.200000000000000000e+01,6.200000000000000000e+01,4.970000000000000000e+02,2.130000000000000000e+02,7.500000000000000000e+01,1.060000000000000000e+02,8.600000000000000000e+01,2.900000000000000000e+01,5.600000000000000533e-01,5.568157200000000000e+09
4.700000000000000000e+01,8.000000000000000000e+01,6.240000000000000000e+02,2.020000000000000000e+02,8.900000000000000000e+01,1.070000000000000000e+02,8.700000000000000000e+01,3.400000000000000000e+01,5.600000000000000533e-01,5.588237600000000000e+09
5.400000000000000000e+01,9.400000000000000000e+01,6.420000000000000000e+02,2.590000000000000000e+02,1.080000000000000000e+02,9.600000000000000000e+01,6.100000000000000000e+01,4.000000000000000000e+01,5.500000000000000444e-01,5.606780600000000000e+09
5.400000000000000000e+01,9.500000000000000000e+01,6.090000000000000000e+02,2.630000000000000000e+02,1.090000000000000000e+02,8.900000000000000000e+01,5.700000000000000000e+01,3.800000000000000000e+01,5.500000000000000444e-01,5.629777100000000000e+09
5.400000000000000000e+01,1.020000000000000000e+02,6.230000000000000000e+02,2.640000000000000000e+02,1.110000000000000000e+02,1.040000000000000000e+02,5.700000000000000000e+01,3.900000000000000000e+01,5.500000000000000444e-01,5.650194700000000000e+09
6.000000000000000000e+01,1.220000000000000000e+02,7.110000000000000000e+02,2.660000000000000000e+02,1.110000000000000000e+02,1.050000000000000000e+02,5.700000000000000000e+01,4.200000000000000000e+01,5.500000000000000444e-01,5.668843200000000000e+09
4.900000000000000000e+01,1.150000000000000000e+02,6.020000000000000000e+02,2.800000000000000000e+02,1.030000000000000000e+02,1.000000000000000000e+02,5.400000000000000000e+01,3.800000000000000000e+01,5.500000000000000444e-01,5.691242600000000000e+09
4.400000000000000000e+01,1.070000000000000000e+02,6.180000000000000000e+02,2.290000000000000000e+02,7.600000000000000000e+01,9.000000000000000000e+01,6.200000000000000000e+01,3.100000000000000000e+01,5.500000000000000444e-01,5.710248800000000000e+09
5.500000000000000000e+01,1.210000000000000000e+02,6.390000000000000000e+02,2.100000000000000000e+02,8.900000000000000000e+01,8.700000000000000000e+01,5.200000000000000000e+01,3.700000000000000000e+01,5.500000000000000444e-01,5.728788600000000000e+09
5.800000000000000000e+01,1.230000000000000000e+02,6.460000000000000000e+02,2.230000000000000000e+02,9.800000000000000000e+01,8.100000000000000000e+01,5.700000000000000000e+01,3.600000000000000000e+01,5.400000000000000355e-01,5.749055900000000000e+09
6.000000000000000000e+01,1.110000000000000000e+02,6.200000000000000000e+02,2.010000000000000000e+02,9.700000000000000000e+01,9.300000000000000000e+01,6.400000000000000000e+01,3.900000000000000000e+01,5.400000000000000355e-01,5.768623800000000000e+09
6.300000000000000000e+01,1.110000000000000000e+02,6.760000000000000000e+02,2.420000000000000000e+02,9.100000000000000000e+01,1.140000000000000000e+02,6.400000000000000000e+01,4.200000000000000000e+01,5.300000000000000266e-01,5.789206800000000000e+09
6.200000000000000000e+01,1.100000000000000000e+02,6.970000000000000000e+02,2.450000000000000000e+02,9.200000000000000000e+01,1.130000000000000000e+02,5.700000000000000000e+01,4.000000000000000000e+01,5.200000000000000178e-01,5.807583400000000000e+09
6.200000000000000000e+01,1.050000000000000000e+02,7.770000000000000000e+02,2.610000000000000000e+02,9.500000000000000000e+01,1.110000000000000000e+02,5.800000000000000000e+01,4.000000000000000000e+01,5.200000000000000178e-01,5.826747900000000000e+09
6.100000000000000000e+01,1.030000000000000000e+02,8.150000000000000000e+02,2.710000000000000000e+02,8.500000000000000000e+01,1.300000000000000000e+02,6.200000000000000000e+01,4.100000000000000000e+01,5.200000000000000178e-01,5.845264000000000000e+09
5.900000000000000000e+01,9.200000000000000000e+01,8.370000000000000000e+02,2.830000000000000000e+02,8.400000000000000000e+01,1.230000000000000000e+02,5.900000000000000000e+01,3.900000000000000000e+01,5.200000000000000178e-01,5.864631600000000000e+09
5.700000000000000000e+01,1.060000000000000000e+02,8.250000000000000000e+02,2.390000000000000000e+02,8.200000000000000000e+01,1.070000000000000000e+02,6.100000000000000000e+01,3.800000000000000000e+01,5.200000000000000178e-01,5.884700200000000000e+09
5.800000000000000000e+01,1.090000000000000000e+02,7.980000000000000000e+02,2.460000000000000000e+02,8.400000000000000000e+01,1.180000000000000000e+02,7.000000000000000000e+01,3.900000000000000000e+01,5.100000000000000089e-01,5.903281000000000000e+09
6.000000000000000000e+01,1.240000000000000000e+02,7.280000000000000000e+02,2.260000000000000000e+02,8.600000000000000000e+01,1.780000000000000000e+02,7.800000000000000000e+01,4.400000000000000000e+01,5.100000000000000089e-01,5.924078000000000000e+09
7.300000000000000000e+01,1.270000000000000000e+02,7.840000000000000000e+02,2.130000000000000000e+02,9.600000000000000000e+01,1.880000000000000000e+02,7.900000000000000000e+01,6.200000000000000000e+01,5.000000000000000000e-01,5.945451500000000000e+09
7.400000000000000000e+01,1.360000000000000000e+02,7.620000000000000000e+02,2.070000000000000000e+02,9.600000000000000000e+01,1.940000000000000000e+02,7.600000000000000000e+01,6.300000000000000000e+01,4.899999999999999911e-01,5.965047900000000000e+09
7.800000000000000000e+01,1.420000000000000000e+02,8.970000000000000000e+02,2.120000000000000000e+02,9.900000000000000000e+01,1.950000000000000000e+02,7.400000000000000000e+01,6.500000000000000000e+01,4.799999999999999822e-01,5.986738400000000000e+09
8.200000000000000000e+01,1.490000000000000000e+02,9.470000000000000000e+02,1.990000000000000000e+02,9.700000000000000000e+01,1.990000000000000000e+02,7.200000000000000000e+01,6.700000000000000000e+01,4.699999999999999734e-01,6.005836700000000000e+09
7.800000000000000000e+01,1.360000000000000000e+02,9.710000000000000000e+02,2.010000000000000000e+02,7.900000000000000000e+01,1.530000000000000000e+02,7.700000000000000000e+01,6.300000000000000000e+01,4.600000000000000200e-01,6.025238800000000000e+09
6.800000000000000000e+01,1.440000000000000000e+02,1.029000000000000000e+03,2.160000000000000000e+02,7.000000000000000000e+01,1.230000000000000000e+02,7.700000000000000000e+01,5.100000000000000000e+01,4.500000000000000111e-01,6.045266500000000000e+09
6.200000000000000000e+01,1.380000000000000000e+02,1.009000000000000000e+03,2.150000000000000000e+02,7.800000000000000000e+01,1.150000000000000000e+02,8.300000000000000000e+01,4.700000000000000000e+01,4.400000000000000022e-01,6.064355700000000000e+09
6.300000000000000000e+01,1.260000000000000000e+02,9.160000000000000000e+02,2.010000000000000000e+02,8.400000000000000000e+01,1.190000000000000000e+02,9.000000000000000000e+01,5.000000000000000000e+01,4.299999999999999933e-01,6.083646300000000000e+09
6.500000000000000000e+01,1.390000000000000000e+02,8.730000000000000000e+02,2.110000000000000000e+02,9.100000000000000000e+01,1.110000000000000000e+02,9.700000000000000000e+01,4.900000000000000000e+01,4.199999999999999845e-01,6.105095000000000000e+09
7.000000000000000000e+01,1.380000000000000000e+02,8.850000000000000000e+02,2.400000000000000000e+02,1.000000000000000000e+02,1.160000000000000000e+02,9.500000000000000000e+01,5.100000000000000000e+01,4.099999999999999756e-01,6.125303400000000000e+09
7.600000000000000000e+01,1.390000000000000000e+02,7.290000000000000000e+02,2.390000000000000000e+02,1.050000000000000000e+02,1.300000000000000000e+02,1.010000000000000000e+02,4.900000000000000000e+01,4.000000000000000222e-01,6.145067800000000000e+09
8.100000000000000000e+01,1.380000000000000000e+02,7.450000000000000000e+02,2.490000000000000000e+02,1.050000000000000000e+02,1.820000000000000000e+02,1.020000000000000000e+02,4.900000000000000000e+01,4.000000000000000222e-01,6.165736800000000000e+09
8.200000000000000000e+01,1.360000000000000000e+02,6.490000000000000000e+02,2.550000000000000000e+02,1.060000000000000000e+02,1.780000000000000000e+02,1.040000000000000000e+02,4.800000000000000000e+01,4.000000000000000222e-01,6.184491300000000000e+09
7.900000000000000000e+01,1.220000000000000000e+02,7.140000000000000000e+02,2.920000000000000000e+02,1.000000000000000000e+02,1.760000000000000000e+02,9.100000000000000000e+01,4.900000000000000000e+01,4.099999999999999756e-01,6.203394000000000000e+09
8.000000000000000000e+01,1.370000000000000000e+02,7.030000000000000000e+02,3.160000000000000000e+02,1.060000000000000000e+02,1.840000000000000000e+02,8.300000000000000000e+01,4.600000000000000000e+01,4.199999999999999845e-01,6.223549800000000000e+09
7.500000000000000000e+01,1.320000000000000000e+02,7.300000000000000000e+02,3.180000000000000000e+02,1.020000000000000000e+02,1.830000000000000000e+02,7.300000000000000000e+01,4.300000000000000000e+01,4.299999999999999933e-01,6.243451800000000000e+09
8.300000000000000000e+01,1.530000000000000000e+02,8.030000000000000000e+02,3.000000000000000000e+02,1.020000000000000000e+02,1.420000000000000000e+02,6.800000000000000000e+01,4.900000000000000000e+01,4.299999999999999933e-01,6.263432400000000000e+09
1.050000000000000000e+02,1.670000000000000000e+02,8.580000000000000000e+02,3.280000000000000000e+02,1.120000000000000000e+02,1.460000000000000000e+02,6.200000000000000000e+01,6.000000000000000000e+01,4.299999999999999933e-01,6.282620900000000000e+09
1.130000000000000000e+02,1.740000000000000000e+02,8.000000000000000000e+02,3.200000000000000000e+02,1.240000000000000000e+02,1.430000000000000000e+02,6.400000000000000000e+01,6.400000000000000000e+01,4.400000000000000022e-01,6.304266200000000000e+09
1.110000000000000000e+02,1.820000000000000000e+02,8.330000000000000000e+02,2.910000000000000000e+02,1.110000000000000000e+02,1.200000000000000000e+02,6.200000000000000000e+01,6.400000000000000000e+01,4.500000000000000111e-01,6.324210900000000000e+09
1.100000000000000000e+02,1.830000000000000000e+02,9.340000000000000000e+02,2.940000000000000000e+02,1.170000000000000000e+02,1.050000000000000000e+02,7.900000000000000000e+01,6.400000000000000000e+01,4.500000000000000111e-01,6.343547900000000000e+09
1.070000000000000000e+02,1.840000000000000000e+02,8.940000000000000000e+02,3.780000000000000000e+02,1.270000000000000000e+02,9.000000000000000000e+01,8.100000000000000000e+01,6.400000000000000000e+01,4.500000000000000111e-01,6.362601800000000000e+09
9.700000000000000000e+01,1.990000000000000000e+02,9.820000000000000000e+02,3.830000000000000000e+02,1.280000000000000000e+02,8.700000000000000000e+01,8.400000000000000000e+01,6.000000000000000000e+01,4.400000000000000022e-01,6.383076300000000000e+09
9.200000000000000000e+01,1.910000000000000000e+02,9.920000000000000000e+02,3.850000000000000000e+02,1.270000000000000000e+02,8.700000000000000000e+01,8.600000000000000000e+01,5.900000000000000000e+01,4.299999999999999933e-01,6.402356200000000000e+09
1.030000000000000000e+02,1.750000000000000000e+02,1.153000000000000000e+03,4.130000000000000000e+02,1.310000000000000000e+02,9.400000000000000000e+01,9.300000000000000000e+01,6.600000000000000000e+01,4.199999999999999845e-01,6.422601700000000000e+09
1.050000000000000000e+02,1.770000000000000000e+02,1.118000000000000000e+03,4.220000000000000000e+02,1.350000000000000000e+02,9.500000000000000000e+01,8.500000000000000000e+01,6.600000000000000000e+01,4.099999999999999756e-01,6.442810200000000000e+09
1.130000000000000000e+02,1.760000000000000000e+02,1.090000000000000000e+03,3.650000000000000000e+02,1.280000000000000000e+02,8.800000000000000000e+01,8.100000000000000000e+01,7.000000000000000000e+01,4.000000000000000222e-01,6.462675000000000000e+09
1.010000000000000000e+02,1.500000000000000000e+02,1.031000000000000000e+03,3.900000000000000000e+02,1.200000000000000000e+02,8.500000000000000000e+01,7.600000000000000000e+01,6.300000000000000000e+01,4.000000000000000222e-01,6.484108700000000000e+09
1.050000000000000000e+02,1.590000000000000000e+02,1.092000000000000000e+03,4.420000000000000000e+02,1.160000000000000000e+02,8.100000000000000000e+01,7.100000000000000000e+01,6.500000000000000000e+01,3.900000000000000133e-01,6.504484200000000000e+09
9.400000000000000000e+01,1.700000000000000000e+02,9.900000000000000000e+02,4.320000000000000000e+02,1.130000000000000000e+02,7.300000000000000000e+01,6.100000000000000000e+01,5.900000000000000000e+01,3.900000000000000133e-01,6.524456800000000000e+09
9.700000000000000000e+01,2.090000000000000000e+02,1.051000000000000000e+03,4.970000000000000000e+02,1.060000000000000000e+02,7.600000000000000000e+01,5.500000000000000000e+01,6.000000000000000000e+01,3.800000000000000044e-01,6.544151000000000000e+09
8.200000000000000000e+01,2.020000000000000000e+02,1.106000000000000000e+03,5.250000000000000000e+02,1.080000000000000000e+02,8.600000000000000000e+01,5.400000000000000000e+01,5.000000000000000000e+01,3.800000000000000044e-01,6.563493400000000000e+09
9.200000000000000000e+01,2.020000000000000000e+02,1.095000000000000000e+03,5.140000000000000000e+02,1.130000000000000000e+02,8.300000000000000000e+01,5.500000000000000000e+01,5.600000000000000000e+01,3.800000000000000044e-01,6.583503000000000000e+09
9.800000000000000000e+01,2.010000000000000000e+02,1.035000000000000000e+03,4.750000000000000000e+02,1.320000000000000000e+02,9.800000000000000000e+01,6.000000000000000000e+01,5.800000000000000000e+01,3.800000000000000044e-01,6.605013900000000000e+09
1.060000000000000000e+02,1.880000000000000000e+02,9.670000000000000000e+02,4.890000000000000000e+02,1.520000000000000000e+02,1.000000000000000000e+02,6.200000000000000000e+01,6.600000000000000000e+01,3.800000000000000044e-01,6.627236800000000000e+09
1.010000000000000000e+02,1.330000000000000000e+02,8.790000000000000000e+02,4.490000000000000000e+02,1.550000000000000000e+02,9.300000000000000000e+01,5.500000000000000000e+01,6.600000000000000000e+01,3.800000000000000044e-01,6.646598200000000000e+09
1.110000000000000000e+02,1.540000000000000000e+02,8.280000000000000000e+02,4.230000000000000000e+02,1.510000000000000000e+02,8.400000000000000000e+01,5.400000000000000000e+01,6.800000000000000000e+01,3.800000000000000044e-01,6.666657200000000000e+09
1.070000000000000000e+02,1.680000000000000000e+02,9.400000000000000000e+02,4.020000000000000000e+02,1.490000000000000000e+02,8.100000000000000000e+01,5.100000000000000000e+01,6.500000000000000000e+01,3.800000000000000044e-01,6.686753900000000000e+09
1.090000000000000000e+02,1.730000000000000000e+02,9.320000000000000000e+02,4.220000000000000000e+02,1.450000000000000000e+02,6.800000000000000000e+01,5.200000000000000000e+01,6.600000000000000000e+01,3.800000000000000044e-01,6.706257100000000000e+09
1.040000000000000000e+02,1.810000000000000000e+02,8.900000000000000000e+02,3.890000000000000000e+02,1.250000000000000000e+02,7.700000000000000000e+01,5.100000000000000000e+01,6.200000000000000000e+01,3.800000000000000044e-01,6.727106700000000000e+09
1.080000000000000000e+02,1.890000000000000000e+02,8.700000000000000000e+02,3.490000000000000000e+02,1.240000000000000000e+02,7.900000000000000000e+01,5.000000000000000000e+01,6.300000000000000000e+01,3.699999999999999956e-01,6.746002000000000000e+09
1.010000000000000000e+02,1.720000000000000000e+02,9.020000000000000000e+02,3.330000000000000000e+02,1.230000000000000000e+02,7.700000000000000000e+01,4.800000000000000000e+01,6.200000000000000000e+01,3.699999999999999956e-01,6.765219100000000000e+09
9.400000000000000000e+01,1.490000000000000000e+02,7.900000000000000000e+02,3.430000000000000000e+02,1.190000000000000000e+02,7.900000000000000000e+01,4.700000000000000000e+01,5.900000000000000000e+01,3.699999999999999956e-01,6.784210600000000000e+09
7.800000000000000000e+01,1.300000000000000000e+02,8.150000000000000000e+02,3.430000000000000000e+02,1.080000000000000000e+02,7.400000000000000000e+01,3.900000000000000000e+01,4.900000000000000000e+01,3.699999999999999956e-01,6.803321200000000000e+09
8.300000000000000000e+01,1.280000000000000000e+02,8.650000000000000000e+02,3.680000000000000000e+02,1.190000000000000000e+02,6.600000000000000000e+01,4.200000000000000000e+01,5.100000000000000000e+01,3.800000000000000044e-01,6.825249300000000000e+09
7.800000000000000000e+01,1.170000000000000000e+02,8.320000000000000000e+02,3.760000000000000000e+02,1.130000000000000000e+02,6.200000000000000000e+01,3.900000000000000000e+01,4.600000000000000000e+01,3.800000000000000044e-01,6.845159500000000000e+09
7.600000000000000000e+01,1.150000000000000000e+02,7.510000000000000000e+02,4.200000000000000000e+02,1.120000000000000000e+02,6.500000000000000000e+01,3.900000000000000000e+01,4.500000000000000000e+01,3.900000000000000133e-01,6.865733900000000000e+09
8.400000000000000000e+01,1.420000000000000000e+02,7.340000000000000000e+02,4.510000000000000000e+02,1.210000000000000000e+02,6.600000000000000000e+01,3.800000000000000000e+01,5.100000000000000000e+01,4.000000000000000222e-01,6.884354400000000000e+09
8.600000000000000000e+01,1.470000000000000000e+02,7.270000000000000000e+02,4.220000000000000000e+02,1.170000000000000000e+02,6.700000000000000000e+01,3.800000000000000000e+01,5.000000000000000000e+01,4.099999999999999756e-01,6.904134200000000000e+09
7.200000000000000000e+01,1.410000000000000000e+02,7.410000000000000000e+02,4.870000000000000000e+02,1.020000000000000000e+02,7.600000000000000000e+01,3.400000000000000000e+01,4.300000000000000000e+01,4.199999999999999845e-01,6.923544300000000000e+09
7.200000000000000000e+01,1.370000000000000000e+02,7.120000000000000000e+02,4.740000000000000000e+02,1.000000000000000000e+02,7.400000000000000000e+01,3.300000000000000000e+01,4.400000000000000000e+01,4.299999999999999933e-01,6.943252000000000000e+09
8.000000000000000000e+01,1.430000000000000000e+02,7.480000000000000000e+02,4.260000000000000000e+02,9.900000000000000000e+01,7.400000000000000000e+01,3.300000000000000000e+01,4.800000000000000000e+01,4.400000000000000022e-01,6.962484900000000000e+09
7.200000000000000000e+01,1.190000000000000000e+02,7.170000000000000000e+02,3.720000000000000000e+02,7.700000000000000000e+01,9.000000000000000000e+01,4.700000000000000000e+01,5.600000000000000000e+01,4.600000000000000200e-01,6.983317300000000000e+09
7.500000000000000000e+01,1.240000000000000000e+02,7.180000000000000000e+02,3.500000000000000000e+02,7.100000000000000000e+01,1.210000000000000000e+02,6.500000000000000000e+01,1.160000000000000000e+02,4.699999999999999734e-01,7.005419400000000000e+09
8.200000000000000000e+01,1.370000000000000000e+02,6.040000000000000000e+02,1.800000000000000000e+02,7.000000000000000000e+01,1.530000000000000000e+02,8.300000000000000000e+01,1.400000000000000000e+02,4.799999999999999822e-01,7.024222500000000000e+09
1.090000000000000000e+02,1.390000000000000000e+02,5.860000000000000000e+02,1.630000000000000000e+02,9.000000000000000000e+01,3.590000000000000000e+02,1.590000000000000000e+02,2.660000000000000000e+02,4.899999999999999911e-01,7.044126900000000000e+09
1.220000000000000000e+02,1.240000000000000000e+02,5.200000000000000000e+02,1.460000000000000000e+02,9.200000000000000000e+01,3.700000000000000000e+02,3.050000000000000000e+02,4.710000000000000000e+02,4.799999999999999822e-01,7.065497900000000000e+09
1.300000000000000000e+02,1.630000000000000000e+02,4.540000000000000000e+02,1.260000000000000000e+02,9.800000000000000000e+01,4.720000000000000000e+02,4.230000000000000000e+02,5.860000000000000000e+02,4.699999999999999734e-01,7.084677700000000000e+09
1.320000000000000000e+02,1.630000000000000000e+02,3.050000000000000000e+02,1.110000000000000000e+02,1.000000000000000000e+02,5.030000000000000000e+02,4.580000000000000000e+02,6.220000000000000000e+02,4.699999999999999734e-01,7.104333200000000000e+09
1.440000000000000000e+02,1.460000000000000000e+02,3.000000000000000000e+02,9.100000000000000000e+01,9.700000000000000000e+01,5.350000000000000000e+02,5.110000000000000000e+02,6.790000000000000000e+02,4.699999999999999734e-01,7.123036200000000000e+09
1.420000000000000000e+02,1.460000000000000000e+02,4.790000000000000000e+02,9.500000000000000000e+01,9.400000000000000000e+01,5.240000000000000000e+02,5.280000000000000000e+02,6.670000000000000000e+02,4.600000000000000200e-01,7.144297200000000000e+09
1.410000000000000000e+02,1.470000000000000000e+02,5.040000000000000000e+02,9.700000000000000000e+01,1.070000000000000000e+02,6.570000000000000000e+02,5.060000000000000000e+02,6.430000000000000000e+02,4.500000000000000111e-01,7.164642900000000000e+09
1.520000000000000000e+02,1.270000000000000000e+02,5.020000000000000000e+02,9.000000000000000000e+01,1.000000000000000000e+02,6.120000000000000000e+02,5.100000000000000000e+02,5.860000000000000000e+02,4.400000000000000022e-01,7.183881900000000000e+09
1.540000000000000000e+02,1.280000000000000000e+02,5.070000000000000000e+02,9.600000000000000000e+01,1.010000000000000000e+02,6.460000000000000000e+02,5.920000000000000000e+02,7.490000000000000000e+02,4.299999999999999933e-01,7.205637700000000000e+09
1.710000000000000000e+02,1.330000000000000000e+02,4.870000000000000000e+02,9.300000000000000000e+01,1.010000000000000000e+02,6.540000000000000000e+02,6.170000000000000000e+02,7.320000000000000000e+02,4.099999999999999756e-01,7.225949100000000000e+09
1.840000000000000000e+02,1.940000000000000000e+02,3.970000000000000000e+02,1.060000000000000000e+02,1.050000000000000000e+02,5.940000000000000000e+02,6.230000000000000000e+02,7.700000000000000000e+02,4.000000000000000222e-01,7.248247700000000000e+09
1.860000000000000000e+02,2.040000000000000000e+02,3.700000000000000000e+02,1.110000000000000000e+02,1.050000000000000000e+02,4.830000000000000000e+02,6.470000000000000000e+02,7.120000000000000000e+02,3.900000000000000133e-01,7.267885700000000000e+09
1.780000000000000000e+02,1.870000000000000000e+02,3.810000000000000000e+02,1.150000000000000000e+02,1.070000000000000000e+02,4.720000000000000000e+02,6.140000000000000000e+02,6.980000000000000000e+02,3.900000000000000133e-01,7.287021000000000000e+09
1.870000000000000000e+02,1.850000000000000000e+02,3.680000000000000000e+02,1.090000000000000000e+02,1.020000000000000000e+02,4.090000000000000000e+02,6.540000000000000000e+02,5.150000000000000000e+02,4.000000000000000222e-01,7.306062500000000000e+09
1.580000000000000000e+02,1.810000000000000000e+02,3.780000000000000000e+02,1.110000000000000000e+02,1.020000000000000000e+02,3.440000000000000000e+02,6.690000000000000000e+02,4.780000000000000000e+02,3.900000000000000133e-01,7.326315100000000000e+09
1.500000000000000000e+02,1.470000000000000000e+02,4.860000000000000000e+02,1.150000000000000000e+02,9.200000000000000000e+01,3.220000000000000000e+02,6.680000000000000000e+02,4.200000000000000000e+02,3.800000000000000044e-01,7.348044500000000000e+09
1.350000000000000000e+02,1.470000000000000000e+02,5.300000000000000000e+02,1.220000000000000000e+02,6.700000000000000000e+01,2.590000000000000000e+02,6.200000000000000000e+02,3.950000000000000000e+02,3.800000000000000044e-01,7.368593500000000000e+09
1.270000000000000000e+02,1.480000000000000000e+02,5.540000000000000000e+02,1.220000000000000000e+02,6.100000000000000000e+01,2.260000000000000000e+02,5.960000000000000000e+02,3.890000000000000000e+02,3.800000000000000044e-01,7.388579400000000000e+09
1.130000000000000000e+02,1.410000000000000000e+02,5.630000000000000000e+02,1.250000000000000000e+02,6.200000000000000000e+01,1.750000000000000000e+02,5.020000000000000000e+02,3.460000000000000000e+02,3.800000000000000044e-01,7.408583100000000000e+09
1.200000000000000000e+02,1.420000000000000000e+02,5.350000000000000000e+02,1.220000000000000000e+02,6.900000000000000000e+01,1.730000000000000000e+02,4.170000000000000000e+02,3.430000000000000000e+02,3.800000000000000044e-01,7.427485500000000000e+09
8.600000000000000000e+01,1.080000000000000000e+02,3.840000000000000000e+02,9.500000000000000000e+01,6.000000000000000000e+01,1.640000000000000000e+02,3.780000000000000000e+02,2.870000000000000000e+02,3.800000000000000044e-01,7.446362500000000000e+09
8.700000000000000000e+01,8.300000000000000000e+01,3.220000000000000000e+02,6.800000000000000000e+01,6.500000000000000000e+01,1.710000000000000000e+02,3.770000000000000000e+02,2.660000000000000000e+02,3.800000000000000044e-01,7.465666600000000000e+09
8.400000000000000000e+01,7.800000000000000000e+01,2.870000000000000000e+02,6.300000000000000000e+01,6.600000000000000000e+01,1.670000000000000000e+02,3.680000000000000000e+02,2.160000000000000000e+02,3.699999999999999956e-01,7.485138000000000000e+09
7.400000000000000000e+01,7.600000000000000000e+01,2.900000000000000000e+02,6.600000000000000000e+01,7.400000000000000000e+01,1.910000000000000000e+02,2.640000000000000000e+02,2.240000000000000000e+02,3.800000000000000044e-01,7.504464400000000000e+09
6.200000000000000000e+01,7.400000000000000000e+01,3.000000000000000000e+02,8.200000000000000000e+01,9.600000000000000000e+01,1.850000000000000000e+02,2.220000000000000000e+02,2.020000000000000000e+02,3.699999999999999956e-01,7.523511200000000000e+09
5.900000000000000000e+01,7.400000000000000000e+01,2.730000000000000000e+02,7.600000000000000000e+01,1.100000000000000000e+02,1.820000000000000000e+02,1.950000000000000000e+02,1.930000000000000000e+02,3.800000000000000044e-01,7.544858800000000000e+09
5.100000000000000000e+01,7.500000000000000000e+01,2.500000000000000000e+02,1.050000000000000000e+02,2.580000000000000000e+02,1.510000000000000000e+02,1.830000000000000000e+02,1.910000000000000000e+02,3.699999999999999956e-01,7.563741400000000000e+09
4.400000000000000000e+01,7.000000000000000000e+01,2.480000000000000000e+02,1.420000000000000000e+02,4.050000000000000000e+02,1.470000000000000000e+02,1.500000000000000000e+02,1.820000000000000000e+02,3.599999999999999867e-01,7.583542800000000000e+09
4.100000000000000000e+01,7.300000000000000000e+01,2.970000000000000000e+02,1.620000000000000000e+02,4.550000000000000000e+02,1.150000000000000000e+02,1.760000000000000000e+02,1.220000000000000000e+02,3.400000000000000244e-01,7.602960600000000000e+09
5.600000000000000000e+01,9.800000000000000000e+01,3.250000000000000000e+02,2.030000000000000000e+02,4.590000000000000000e+02,1.090000000000000000e+02,1.610000000000000000e+02,8.900000000000000000e+01,3.300000000000000155e-01,7.624397100000000000e+09
5.900000000000000000e+01,9.200000000000000000e+01,3.150000000000000000e+02,2.110000000000000000e+02,4.590000000000000000e+02,1.060000000000000000e+02,1.630000000000000000e+02,9.200000000000000000e+01,3.099999999999999978e-01,7.645795300000000000e+09
5.800000000000000000e+01,8.800000000000000000e+01,3.120000000000000000e+02,2.140000000000000000e+02,4.000000000000000000e+02,1.020000000000000000e+02,1.380000000000000000e+02,8.000000000000000000e+01,2.999999999999999889e-01,7.665288000000000000e+09
5.500000000000000000e+01,8.600000000000000000e+01,2.980000000000000000e+02,1.960000000000000000e+02,2.690000000000000000e+02,8.100000000000000000e+01,1.310000000000000000e+02,7.300000000000000000e+01,2.899999999999999800e-01,7.685495500000000000e+09
5.300000000000000000e+01,8.000000000000000000e+01,2.970000000000000000e+02,1.850000000000000000e+02,1.750000000000000000e+02,6.100000000000000000e+01,7.000000000000000000e+01,6.500000000000000000e+01,2.899999999999999800e-01,7.706632200000000000e+09
4.800000000000000000e+01,6.000000000000000000e+01,3.600000000000000000e+02,1.430000000000000000e+02,1.570000000000000000e+02,5.500000000000000000e+01,6.300000000000000000e+01,5.900000000000000000e+01,2.899999999999999800e-01,7.725372800000000000e+09
5.000000000000000000e+01,5.600000000000000000e+01,4.090000000000000000e+02,1.400000000000000000e+02,1.500000000000000000e+02,5.300000000000000000e+01,5.500000000000000000e+01,4.200000000000000000e+01,2.899999999999999800e-01,7.744711600000000000e+09
5.100000000000000000e+01,5.900000000000000000e+01,5.550000000000000000e+02,1.490000000000000000e+02,1.410000000000000000e+02,4.300000000000000000e+01,4.400000000000000000e+01,3.900000000000000000e+01,2.899999999999999800e-01,7.764966000000000000e+09
5.500000000000000000e+01,6.200000000000000000e+01,5.680000000000000000e+02,1.550000000000000000e+02,9.800000000000000000e+01,4.200000000000000000e+01,3.600000000000000000e+01,3.900000000000000000e+01,2.999999999999999889e-01,7.785711100000000000e+09
7.200000000000000000e+01,6.100000000000000000e+01,5.400000000000000000e+02,1.480000000000000000e+02,8.900000000000000000e+01,3.500000000000000000e+01,7.200000000000000000e+01,3.800000000000000000e+01,3.200000000000000067e-01,7.804952100000000000e+09
6.900000000000000000e+01,5.100000000000000000e+01,4.990000000000000000e+02,1.820000000000000000e+02,7.500000000000000000e+01,3.000000000000000000e+01,7.300000000000000000e+01,3.700000000000000000e+01,3.400000000000000244e-01,7.827177600000000000e+09
1.600000000000000000e+02,7.000000000000000000e+01,4.910000000000000000e+02,1.950000000000000000e+02,7.000000000000000000e+01,3.400000000000000000e+01,7.400000000000000000e+01,3.400000000000000000e+01,3.699999999999999956e-01,7.848578600000000000e+09
2.390000000000000000e+02,7.000000000000000000e+01,3.540000000000000000e+02,1.910000000000000000e+02,5.800000000000000000e+01,5.000000000000000000e+01,7.600000000000000000e+01,3.400000000000000000e+01,4.000000000000000222e-01,7.868771500000000000e+09
2.530000000000000000e+02,7.400000000000000000e+01,3.980000000000000000e+02,1.890000000000000000e+02,6.100000000000000000e+01,1.510000000000000000e+02,1.040000000000000000e+02,3.400000000000000000e+01,4.299999999999999933e-01,7.888861900000000000e+09
2.510000000000000000e+02,7.900000000000000000e+01,4.050000000000000000e+02,1.900000000000000000e+02,6.300000000000000000e+01,1.830000000000000000e+02,1.120000000000000000e+02,7.100000000000000000e+01,4.500000000000000111e-01,7.908435100000000000e+09
2.500000000000000000e+02,7.900000000000000000e+01,3.820000000000000000e+02,1.470000000000000000e+02,5.400000000000000000e+01,1.920000000000000000e+02,1.130000000000000000e+02,7.400000000000000000e+01,4.699999999999999734e-01,7.926731000000000000e+09
2.030000000000000000e+02,7.200000000000000000e+01,3.660000000000000000e+02,1.460000000000000000e+02,5.700000000000000000e+01,1.920000000000000000e+02,1.140000000000000000e+02,7.600000000000000000e+01,4.899999999999999911e-01,7.946285600000000000e+09
1.010000000000000000e+02,6.800000000000000000e+01,3.550000000000000000e+02,1.230000000000000000e+02,6.000000000000000000e+01,1.950000000000000000e+02,1.150000000000000000e+02,7.700000000000000000e+01,5.000000000000000000e-01,7.965829700000000000e+09
5.800000000000000000e+01,8.700000000000000000e+01,4.020000000000000000e+02,1.160000000000000000e+02,7.200000000000000000e+01,1.510000000000000000e+02,1.020000000000000000e+02,8.000000000000000000e+01,5.100000000000000089e-01,7.985827400000000000e+09
4.800000000000000000e+01,8.600000000000000000e+01,4.060000000000000000e+02,1.230000000000000000e+02,1.300000000000000000e+02,1.200000000000000000e+02,9.100000000000000000e+01,6.000000000000000000e+01,5.200000000000000178e-01,8.005005500000000000e+09
4.700000000000000000e+01,8.200000000000000000e+01,4.080000000000000000e+02,1.290000000000000000e+02,1.440000000000000000e+02,1.110000000000000000e+02,9.300000000000000000e+01,5.700000000000000000e+01,5.300000000000000266e-01,8.026672400000000000e+09
4.700000000000000000e+01,8.300000000000000000e+01,3.960000000000000000e+02,1.400000000000000000e+02,1.640000000000000000e+02,1.120000000000000000e+02,9.400000000000000000e+01,6.000000000000000000e+01,5.300000000000000266e-01,8.046016800000000000e+09
5.200000000000000000e+01,9.900000000000000000e+01,4.420000000000000000e+02,2.180000000000000000e+02,2.600000000000000000e+02,1.370000000000000000e+02,9.400000000000000000e+01,6.000000000000000000e+01,5.200000000000000178e-01,8.067138400000000000e+09
4.800000000000000000e+01,8.500000000000000000e+01,3.470000000000000000e+02,2.280000000000000000e+02,2.780000000000000000e+02,1.320000000000000000e+02,8.400000000000000000e+01,5.600000000000000000e+01,5.100000000000000089e-01,8.086638300000000000e+09
4.400000000000000000e+01,8.300000000000000000e+01,3.310000000000000000e+02,2.250000000000000000e+02,2.570000000000000000e+02,1.220000000000000000e+02,5.900000000000000000e+01,4.300000000000000000e+01,4.899999999999999911e-01,8.106822700000000000e+09
4.100000000000000000e+01,8.300000000000000000e+01,3.180000000000000000e+02,2.240000000000000000e+02,2.550000000000000000e+02,1.240000000000000000e+02,5.400000000000000000e+01,4.400000000000000000e+01,4.799999999999999822e-01,8.126257000000000000e+09
4.600000000000000000e+01,8.800000000000000000e+01,3.360000000000000000e+02,2.150000000000000000e+02,2.580000000000000000e+02,1.320000000000000000e+02,5.100000000000000000e+01,5.500000000000000000e+01,4.699999999999999734e-01,8.145900000000000000e+09
4.700000000000000000e+01,8.400000000000000000e+01,2.540000000000000000e+02,1.470000000000000000e+02,1.700000000000000000e+02,9.600000000000000000e+01,5.200000000000000000e+01,5.600000000000000000e+01,4.500000000000000111e-01,8.166538200000000000e+09
5.100000000000000000e+01,7.800000000000000000e+01,2.570000000000000000e+02,1.330000000000000000e+02,1.350000000000000000e+02,7.900000000000000000e+01,4.600000000000000000e+01,6.000000000000000000e+01,4.500000000000000111e-01,8.186676200000000000e+09
5.000000000000000000e+01,8.100000000000000000e+01,2.610000000000000000e+02,1.300000000000000000e+02,1.340000000000000000e+02,7.700000000000000000e+01,4.300000000000000000e+01,5.900000000000000000e+01,4.400000000000000022e-01,8.206881200000000000e+09
5.200000000000000000e+01,8.400000000000000000e+01,2.780000000000000000e+02,1.280000000000000000e+02,1.230000000000000000e+02,6.800000000000000000e+01,3.800000000000000000e+01,5.700000000000000000e+01,4.400000000000000022e-01,8.226136100000000000e+09
4.600000000000000000e+01,8.200000000000000000e+01,2.800000000000000000e+02,1.100000000000000000e+02,9.200000000000000000e+01,5.200000000000000000e+01,3.300000000000000000e+01,4.200000000000000000e+01,4.400000000000000022e-01,8.246338800000000000e+09
4.100000000000000000e+01,7.000000000000000000e+01,2.960000000000000000e+02,1.020000000000000000e+02,7.100000000000000000e+01,5.000000000000000000e+01,2.700000000000000000e+01,4.000000000000000000e+01,4.400000000000000022e-01,8.265737000000000000e+09
3.700000000000000000e+01,7.000000000000000000e+01,3.090000000000000000e+02,9.400000000000000000e+01,6.700000000000000000e+01,4.800000000000000000e+01,2.700000000000000000e+01,3.400000000000000000e+01,4.500000000000000111e-01,8.285999700000000000e+09
3.800000000000000000e+01,7.500000000000000000e+01,3.320000000000000000e+02,1.080000000000000000e+02,7.500000000000000000e+01,5.300000000000000000e+01,2.800000000000000000e+01,3.600000000000000000e+01,4.600000000000000200e-01,8.305682000000000000e+09
3.600000000000000000e+01,7.100000000000000000e+01,3.190000000000000000e+02,1.040000000000000000e+02,8.700000000000000000e+01,5.200000000000000000e+01,2.800000000000000000e+01,3.600000000000000000e+01,4.600000000000000200e-01,8.324960900000000000e+09
3.500000000000000000e+01,7.700000000000000000e+01,3.050000000000000000e+02,1.010000000000000000e+02,8.200000000000000000e+01,4.800000000000000000e+01,2.600000000000000000e+01,3.300000000000000000e+01,4.699999999999999734e-01,8.346753100000000000e+09
3.500000000000000000e+01,8.000000000000000000e+01,2.850000000000000000e+02,9.700000000000000000e+01,8.800000000000000000e+01,5.000000000000000000e+01,2.900000000000000000e+01,3.200000000000000000e+01,4.799999999999999822e-01,8.366943100000000000e+09
3.500000000000000000e+01,9.600000000000000000e+01,3.300000000000000000e+02,1.120000000000000000e+02,1.110000000000000000e+02,5.100000000000000000e+01,2.900000000000000000e+01,3.100000000000000000e+01,4.799999999999999822e-01,8.386847000000000000e+09
3.300000000000000000e+01,9.000000000000000000e+01,2.910000000000000000e+02,9.600000000000000000e+01,1.120000000000000000e+02,4.800000000000000000e+01,2.600000000000000000e+01,2.900000000000000000e+01,4.799999999999999822e-01,8.408525100000000000e+09
3.500000000000000000e+01,9.000000000000000000e+01,2.930000000000000000e+02,9.300000000000000000e+01,1.030000000000000000e+02,4.900000000000000000e+01,2.800000000000000000e+01,2.800000000000000000e+01,4.899999999999999911e-01,8.428190100000000000e+09
3.100000000000000000e+01,7.700000000000000000e+01,2.960000000000000000e+02,8.700000000000000000e+01,1.020000000000000000e+02,4.500000000000000000e+01,3.100000000000000000e+01,2.600000000000000000e+01,4.899999999999999911e-01,8.447165500000000000e+09
3.000000000000000000e+01,7.300000000000000000e+01,3.300000000000000000e+02,8.000000000000000000e+01,9.300000000000000000e+01,3.800000000000000000e+01,2.700000000000000000e+01,2.100000000000000000e+01,4.899999999999999911e-01,8.467295100000000000e+09
3.200000000000000000e+01,5.300000000000000000e+01,2.550000000000000000e+02,6.000000000000000000e+01,7.100000000000000000e+01,4.900000000000000000e+01,2.700000000000000000e+01,2.000000000000000000e+01,4.899999999999999911e-01,8.486091000000000000e+09
4.000000000000000000e+01,5.900000000000000000e+01,2.680000000000000000e+02,6.500000000000000000e+01,7.000000000000000000e+01,5.300000000000000000e+01,3.400000000000000000e+01,2.600000000000000000e+01,4.899999999999999911e-01,8.506368700000000000e+09
4.400000000000000000e+01,6.000000000000000000e+01,2.750000000000000000e+02,6.600000000000000000e+01,6.900000000000000000e+01,6.200000000000000000e+01,3.300000000000000000e+01,3.100000000000000000e+01,4.899999999999999911e-01,8.526757800000000000e+09
4.900000000000000000e+01,5.700000000000000000e+01,2.650000000000000000e+02,7.500000000000000000e+01,7.500000000000000000e+01,7.000000000000000000e+01,3.200000000000000000e+01,3.300000000000000000e+01,4.899999999999999911e-01,8.545758300000000000e+09
5.200000000000000000e+01,6.300000000000000000e+01,2.250000000000000000e+02,8.300000000000000000e+01,7.900000000000000000e+01,8.000000000000000000e+01,3.400000000000000000e+01,6.400000000000000000e+01,4.899999999999999911e-01,8.564902500000000000e+09
5.400000000000000000e+01,7.700000000000000000e+01,2.420000000000000000e+02,8.800000000000000000e+01,7.400000000000000000e+01,7.500000000000000000e+01,3.200000000000000000e+01,6.700000000000000000e+01,4.899999999999999911e-01,8.585563900000000000e+09
5.000000000000000000e+01,8.000000000000000000e+01,2.530000000000000000e+02,9.100000000000000000e+01,8.000000000000000000e+01,7.500000000000000000e+01,3.000000000000000000e+01,6.700000000000000000e+01,4.899999999999999911e-01,8.605848700000000000e+09
5.800000000000000000e+01,9.500000000000000000e+01,2.710000000000000000e+02,1.230000000000000000e+02,1.200000000000000000e+02,7.800000000000000000e+01,3.400000000000000000e+01,7.100000000000000000e+01,4.899999999999999911e-01,8.626364700000000000e+09
5.600000000000000000e+01,9.500000000000000000e+01,3.090000000000000000e+02,1.460000000000000000e+02,1.280000000000000000e+02,7.400000000000000000e+01,3.200000000000000000e+01,7.100000000000000000e+01,4.899999999999999911e-01,8.648229500000000000e+09
5.400000000000000000e+01,9.500000000000000000e+01,3.300000000000000000e+02,1.560000000000000000e+02,1.320000000000000000e+02,6.600000000000000000e+01,3.100000000000000000e+01,4.800000000000000000e+01,4.899999999999999911e-01,8.668058000000000000e+09
7.600000000000000000e+01,9.300000000000000000e+01,4.380000000000000000e+02,1.640000000000000000e+02,1.390000000000000000e+02,6.100000000000000000e+01,3.100000000000000000e+01,4.900000000000000000e+01,4.899999999999999911e-01,8.687305800000000000e+09
7.600000000000000000e+01,9.200000000000000000e+01,4.780000000000000000e+02,1.690000000000000000e+02,1.340000000000000000e+02,5.800000000000000000e+01,2.800000000000000000e+01,4.600000000000000000e+01,4.899999999999999911e-01,8.706648400000000000e+09
9.500000000000000000e+01,7.400000000000000000e+01,4.630000000000000000e+02,1.490000000000000000e+02,1.010000000000000000e+02,5.200000000000000000e+01,2.700000000000000000e+01,3.700000000000000000e+01,4.899999999999999911e-01,8.726290100000000000e+09
1.310000000000000000e+02,7.400000000000000000e+01,4.420000000000000000e+02,1.260000000000000000e+02,9.200000000000000000e+01,5.800000000000000000e+01,2.700000000000000000e+01,4.000000000000000000e+01,4.899999999999999911e-01,8.747115000000000000e+09
1.330000000000000000e+02,7.100000000000000000e+01,4.520000000000000000e+02,1.140000000000000000e+02,8.200000000000000000e+01,5.700000000000000000e+01,2.500000000000000000e+01,4.400000000000000000e+01,5.000000000000000000e-01,8.765959400000000000e+09
1.390000000000000000e+02,6.800000000000000000e+01,3.890000000000000000e+02,1.070000000000000000e+02,6.300000000000000000e+01,5.700000000000000000e+01,2.500000000000000000e+01,4.000000000000000000e+01,5.000000000000000000e-01,8.784708600000000000e+09
1.440000000000000000e+02,6.100000000000000000e+01,3.990000000000000000e+02,9.900000000000000000e+01,7.200000000000000000e+01,6.200000000000000000e+01,2.600000000000000000e+01,4.500000000000000000e+01,5.000000000000000000e-01,8.805746300000000000e+09
1.300000000000000000e+02,6.700000000000000000e+01,4.310000000000000000e+02,1.020000000000000000e+02,7.600000000000000000e+01,5.500000000000000000e+01,2.700000000000000000e+01,4.700000000000000000e+01,5.100000000000000089e-01,8.826286100000000000e+09
9.600000000000000000e+01,6.800000000000000000e+01,4.180000000000000000e+02,9.900000000000000000e+01,6.600000000000000000e+01,4.500000000000000000e+01,3.000000000000000000e+01,5.200000000000000000e+01,5.100000000000000089e-01,8.847924000000000000e+09
9.600000000000000000e+01,6.600000000000000000e+01,3.930000000000000000e+02,9.000000000000000000e+01,6.600000000000000000e+01,4.400000000000000000e+01,3.100000000000000000e+01,5.100000000000000000e+01,5.200000000000000178e-01,8.867896300000000000e+09
7.500000000000000000e+01,5.900000000000000000e+01,3.680000000000000000e+02,8.800000000000000000e+01,7.600000000000000000e+01,5.300000000000000000e+01,3.400000000000000000e+01,5.500000000000000000e+01,5.200000000000000178e-01,8.889382800000000000e+09
7.000000000000000000e+01,6.000000000000000000e+01,2.950000000000000000e+02,9.300000000000000000e+01,7.100000000000000000e+01,4.600000000000000000e+01,3.300000000000000000e+01,5.300000000000000000e+01,5.200000000000000178e-01,8.908212500000000000e+09
6.600000000000000000e+01,5.300000000000000000e+01,2.430000000000000000e+02,1.280000000000000000e+02,7.500000000000000000e+01,4.600000000000000000e+01,3.000000000000000000e+01,5.000000000000000000e+01,5.300000000000000266e-01,8.927333900000000000e+09
5.900000000000000000e+01,5.000000000000000000e+01,2.610000000000000000e+02,1.370000000000000000e+02,7.800000000000000000e+01,4.800000000000000000e+01,2.700000000000000000e+01,4.200000000000000000e+01,5.300000000000000266e-01,8.947521700000000000e+09
5.300000000000000000e+01,5.400000000000000000e+01,2.520000000000000000e+02,1.390000000000000000e+02,8.000000000000000000e+01,5.000000000000000000e+01,2.700000000000000000e+01,3.600000000000000000e+01,5.300000000000000266e-01,8.966995500000000000e+09
4.500000000000000000e+01,7.800000000000000000e+01,3.030000000000000000e+02,1.550000000000000000e+02,8.000000000000000000e+01,4.500000000000000000e+01,2.600000000000000000e+01,3.300000000000000000e+01,5.300000000000000266e-01,8.985445900000000000e+09
3.900000000000000000e+01,7.800000000000000000e+01,3.580000000000000000e+02,1.540000000000000000e+02,7.400000000000000000e+01,4.200000000000000000e+01,2.600000000000000000e+01,2.900000000000000000e+01,5.400000000000000355e-01,9.004751800000000000e+09
5.800000000000000000e+01,7.900000000000000000e+01,3.560000000000000000e+02,1.330000000000000000e+02,6.800000000000000000e+01,4.600000000000000000e+01,2.400000000000000000e+01,2.700000000000000000e+01,5.400000000000000355e-01,9.024892000000000000e+09
7.300000000000000000e+01,8.100000000000000000e+01,3.550000000000000000e+02,1.230000000000000000e+02,6.700000000000000000e+01,4.800000000000000000e+01,2.500000000000000000e+01,2.900000000000000000e+01,5.500000000000000444e-01,9.045847800000000000e+09
7.900000000000000000e+01,8.100000000000000000e+01,3.580000000000000000e+02,1.240000000000000000e+02,9.600000000000000000e+01,4.800000000000000000e+01,2.500000000000000000e+01,3.100000000000000000e+01,5.500000000000000444e-01,9.066859300000000000e+09
7.700000000000000000e+01,5.400000000000000000e+01,2.830000000000000000e+02,1.090000000000000000e+02,9.400000000000000000e+01,4.600000000000000000e+01,2.400000000000000000e+01,2.700000000000000000e+01,5.400000000000000355e-01,9.086292500000000000e+09
7.600000000000000000e+01,5.500000000000000000e+01,2.010000000000000000e+02,1.180000000000000000e+02,1.350000000000000000e+02,5.100000000000000000e+01,2.400000000000000000e+01,2.800000000000000000e+01,5.400000000000000355e-01,9.106576300000000000e+09
6.400000000000000000e+01,6.700000000000000000e+01,2.230000000000000000e+02,1.230000000000000000e+02,1.490000000000000000e+02,5.600000000000000000e+01,2.700000000000000000e+01,3.000000000000000000e+01,5.400000000000000355e-01,9.125833000000000000e+09
5.000000000000000000e+01,7.200000000000000000e+01,2.940000000000000000e+02,1.310000000000000000e+02,1.600000000000000000e+02,5.800000000000000000e+01,2.700000000000000000e+01,2.900000000000000000e+01,5.400000000000000355e-01,9.144982900000000000e+09
4.800000000000000000e+01,7.600000000000000000e+01,4.020000000000000000e+02,1.960000000000000000e+02,2.000000000000000000e+02,7.900000000000000000e+01,3.100000000000000000e+01,3.400000000000000000e+01,5.300000000000000266e-01,9.166067800000000000e+09
5.400000000000000000e+01,8.100000000000000000e+01,4.930000000000000000e+02,2.160000000000000000e+02,2.100000000000000000e+02,8.800000000000000000e+01,3.400000000000000000e+01,3.900000000000000000e+01,5.200000000000000178e-01,9.186301400000000000e+09
5.500000000000000000e+01,1.070000000000000000e+02,6.060000000000000000e+02,2.280000000000000000e+02,2.020000000000000000e+02,9.200000000000000000e+01,3.800000000000000000e+01,4.300000000000000000e+01,5.100000000000000089e-01,9.206456600000000000e+09
7.400000000000000000e+01,1.010000000000000000e+02,9.030000000000000000e+02,3.150000000000000000e+02,2.270000000000000000e+02,1.080000000000000000e+02,4.200000000000000000e+01,5.400000000000000000e+01,4.899999999999999911e-01,9.226074600000000000e+09
7.500000000000000000e+01,1.190000000000000000e+02,9.230000000000000000e+02,3.460000000000000000e+02,2.250000000000000000e+02,1.110000000000000000e+02,4.400000000000000000e+01,5.400000000000000000e+01,4.699999999999999734e-01,9.244368100000000000e+09
8.100000000000000000e+01,1.290000000000000000e+02,9.500000000000000000e+02,3.520000000000000000e+02,1.960000000000000000e+02,1.060000000000000000e+02,4.700000000000000000e+01,5.600000000000000000e+01,4.400000000000000022e-01,9.263446900000000000e+09
8.100000000000000000e+01,1.290000000000000000e+02,9.370000000000000000e+02,3.490000000000000000e+02,2.160000000000000000e+02,1.150000000000000000e+02,5.000000000000000000e+01,5.500000000000000000e+01,4.199999999999999845e-01,9.282942000000000000e+09
8.600000000000000000e+01,1.250000000000000000e+02,9.690000000000000000e+02,3.750000000000000000e+02,2.170000000000000000e+02,1.130000000000000000e+02,5.200000000000000000e+01,5.700000000000000000e+01,4.000000000000000222e-01,9.302729900000000000e+09
8.100000000000000000e+01,1.580000000000000000e+02,8.050000000000000000e+02,3.110000000000000000e+02,1.870000000000000000e+02,9.900000000000000000e+01,5.000000000000000000e+01,5.100000000000000000e+01,3.800000000000000044e-01,9.325459200000000000e+09
8.500000000000000000e+01,1.540000000000000000e+02,8.570000000000000000e+02,3.270000000000000000e+02,1.870000000000000000e+02,1.000000000000000000e+02,5.000000000000000000e+01,5.800000000000000000e+01,3.599999999999999867e-01,9.345401500000000000e+09
8.500000000000000000e+01,1.560000000000000000e+02,9.390000000000000000e+02,3.100000000000000000e+02,1.770000000000000000e+02,9.300000000000000000e+01,4.700000000000000000e+01,5.700000000000000000e+01,3.400000000000000244e-01,9.365576100000000000e+09
9.500000000000000000e+01,2.090000000000000000e+02,9.850000000000000000e+02,3.530000000000000000e+02,1.650000000000000000e+02,9.000000000000000000e+01,4.900000000000000000e+01,6.200000000000000000e+01,3.200000000000000067e-01,9.386786900000000000e+09
9.100000000000000000e+01,2.090000000000000000e+02,9.600000000000000000e+02,3.570000000000000000e+02,1.460000000000000000e+02,8.700000000000000000e+01,4.400000000000000000e+01,5.700000000000000000e+01,3.099999999999999978e-01,9.406244600000000000e+09
8.700000000000000000e+01,2.040000000000000000e+02,9.500000000000000000e+02,3.710000000000000000e+02,1.490000000000000000e+02,8.600000000000000000e+01,4.500000000000000000e+01,5.700000000000000000e+01,2.999999999999999889e-01,9.426801300000000000e+09
8.500000000000000000e+01,2.130000000000000000e+02,9.220000000000000000e+02,3.870000000000000000e+02,1.520000000000000000e+02,8.100000000000000000e+01,4.500000000000000000e+01,5.200000000000000000e+01,2.899999999999999800e-01,9.446410100000000000e+09
9.400000000000000000e+01,2.310000000000000000e+02,8.850000000000000000e+02,3.770000000000000000e+02,1.490000000000000000e+02,8.600000000000000000e+01,4.500000000000000000e+01,5.600000000000000000e+01,2.899999999999999800e-01,9.466151900000000000e+09
8.800000000000000000e+01,1.970000000000000000e+02,9.090000000000000000e+02,3.490000000000000000e+02,1.150000000000000000e+02,6.900000000000000000e+01,3.900000000000000000e+01,5.100000000000000000e+01,2.899999999999999800e-01,9.485679900000000000e+09
9.500000000000000000e+01,1.900000000000000000e+02,8.700000000000000000e+02,3.270000000000000000e+02,1.220000000000000000e+02,6.900000000000000000e+01,4.200000000000000000e+01,5.600000000000000000e+01,2.899999999999999800e-01,9.506687800000000000e+09
9.000000000000000000e+01,1.740000000000000000e+02,8.410000000000000000e+02,3.360000000000000000e+02,1.120000000000000000e+02,7.100000000000000000e+01,4.100000000000000000e+01,5.300000000000000000e+01,2.999999999999999889e-01,9.525036500000000000e+09
1.000000000000000000e+02,1.750000000000000000e+02,8.780000000000000000e+02,3.500000000000000000e+02,1.380000000000000000e+02,8.700000000000000000e+01,4.900000000000000000e+01,5.800000000000000000e+01,2.999999999999999889e-01,9.543935000000000000e+09
8.900000000000000000e+01,1.550000000000000000e+02,8.400000000000000000e+02,3.960000000000000000e+02,1.370000000000000000e+02,8.700000000000000000e+01,4.800000000000000000e+01,5.200000000000000000e+01,3.099999999999999978e-01,9.566306500000000000e+09
9.400000000000000000e+01,1.640000000000000000e+02,7.710000000000000000e+02,4.400000000000000000e+02,1.760000000000000000e+02,1.060000000000000000e+02,5.300000000000000000e+01,5.400000000000000000e+01,3.099999999999999978e-01,9.585810100000000000e+09
9.400000000000000000e+01,1.830000000000000000e+02,8.990000000000000000e+02,4.290000000000000000e+02,1.830000000000000000e+02,1.080000000000000000e+02,5.100000000000000000e+01,5.200000000000000000e+01,3.099999999999999978e-01,9.605769900000000000e+09
1.040000000000000000e+02,2.060000000000000000e+02,9.190000000000000000e+02,4.150000000000000000e+02,1.990000000000000000e+02,1.080000000000000000e+02,5.300000000000000000e+01,5.800000000000000000e+01,3.099999999999999978e-01,9.627234500000000000e+09
1.030000000000000000e+02,1.970000000000000000e+02,8.660000000000000000e+02,3.890000000000000000e+02,1.840000000000000000e+02,1.020000000000000000e+02,4.800000000000000000e+01,5.500000000000000000e+01,2.999999999999999889e-01,9.648049300000000000e+09
1.180000000000000000e+02,2.010000000000000000e+02,9.010000000000000000e+02,3.810000000000000000e+02,1.920000000000000000e+02,9.900000000000000000e+01,5.100000000000000000e+01,6.000000000000000000e+01,2.999999999999999889e-01,9.668198300000000000e+09
1.130000000000000000e+02,1.990000000000000000e+02,9.380000000000000000e+02,3.560000000000000000e+02,1.620000000000000000e+02,8.100000000000000000e+01,4.600000000000000000e+01,5.700000000000000000e+01,2.999999999999999889e-01,9.687393300000000000e+09
1.160000000000000000e+02,1.870000000000000000e+02,8.710000000000000000e+02,3.720000000000000000e+02,1.560000000000000000e+02,7.700000000000000000e+01,4.700000000000000000e+01,5.800000000000000000e+01,2.999999999999999889e-01,9.705920900000000000e+09
1.130000000000000000e+02,1.780000000000000000e+02,9.090000000000000000e+02,4.640000000000000000e+02,1.390000000000000000e+02,7.500000000000000000e+01,4.700000000000000000e+01,5.400000000000000000e+01,2.999999999999999889e-01,9.725662800000000000e+09
1.140000000000000000e+02,1.900000000000000000e+02,1.032000000000000000e+03,4.660000000000000000e+02,1.320000000000000000e+02,6.700000000000000000e+01,4.600000000000000000e+01,5.600000000000000000e+01,2.899999999999999800e-01,9.746730400000000000e+09
9.800000000000000000e+01,1.820000000000000000e+02,1.040000000000000000e+03,4.590000000000000000e+02,1.200000000000000000e+02,6.400000000000000000e+01,4.200000000000000000e+01,5.100000000000000000e+01,2.999999999999999889e-01,9.765757800000000000e+09
1.050000000000000000e+02,1.890000000000000000e+02,1.043000000000000000e+03,4.700000000000000000e+02,1.330000000000000000e+02,7.100000000000000000e+01,4.300000000000000000e+01,5.600000000000000000e+01,2.899999999999999800e-01,9.786227500000000000e+09
1.170000000000000000e+02,2.240000000000000000e+02,1.067000000000000000e+03,5.430000000000000000e+02,1.730000000000000000e+02,8.900000000000000000e+01,5.400000000000000000e+01,6.400000000000000000e+01,2.899999999999999800e-01,9.805397700000000000e+09
1.210000000000000000e+02,2.440000000000000000e+02,1.094000000000000000e+03,5.150000000000000000e+02,1.690000000000000000e+02,9.000000000000000000e+01,5.000000000000000000e+01,6.600000000000000000e+01,2.899999999999999800e-01,9.824269100000000000e+09
1.130000000000000000e+02,2.450000000000000000e+02,1.008000000000000000e+03,5.190000000000000000e+02,1.790000000000000000e+02,9.400000000000000000e+01,4.900000000000000000e+01,6.200000000000000000e+01,2.899999999999999800e-01,9.844695900000000000e+09
1.220000000000000000e+02,2.430000000000000000e+02,9.850000000000000000e+02,5.480000000000000000e+02,1.860000000000000000e+02,9.600000000000000000e+01,4.900000000000000000e+01,7.100000000000000000e+01,2.899999999999999800e-01,9.865376100000000000e+09
1.250000000000000000e+02,2.450000000000000000e+02,1.037000000000000000e+03,5.800000000000000000e+02,1.820000000000000000e+02,9.500000000000000000e+01,5.500000000000000000e+01,7.200000000000000000e+01,2.899999999999999800e-01,9.884808600000000000e+09
1.180000000000000000e+02,2.580000000000000000e+02,1.096000000000000000e+03,5.640000000000000000e+02,1.450000000000000000e+02,8.200000000000000000e+01,4.600000000000000000e+01,6.700000000000000000e+01,2.899999999999999800e-01,9.903271500000000000e+09
1.130000000000000000e+02,2.410000000000000000e+02,1.063000000000000000e+03,5.640000000000000000e+02,1.510000000000000000e+02,8.100000000000000000e+01,4.600000000000000000e+01,6.800000000000000000e+01,2.999999999999999889e-01,9.925103200000000000e+09
1.570000000000000000e+02,3.240000000000000000e+02,1.100000000000000000e+03,6.520000000000000000e+02,1.720000000000000000e+02,9.600000000000000000e+01,5.900000000000000000e+01,8.400000000000000000e+01,2.899999999999999800e-01,9.944697100000000000e+09
1.620000000000000000e+02,3.560000000000000000e+02,1.071000000000000000e+03,6.420000000000000000e+02,1.850000000000000000e+02,1.000000000000000000e+02,6.000000000000000000e+01,8.500000000000000000e+01,2.800000000000000266e-01,9.965599200000000000e+09
1.720000000000000000e+02,3.650000000000000000e+02,1.024000000000000000e+03,6.190000000000000000e+02,2.050000000000000000e+02,1.060000000000000000e+02,6.100000000000000000e+01,9.000000000000000000e+01,2.600000000000000089e-01,9.986594600000000000e+09
1.660000000000000000e+02,3.570000000000000000e+02,9.650000000000000000e+02,6.520000000000000000e+02,2.070000000000000000e+02,1.040000000000000000e+02,6.200000000000000000e+01,8.700000000000000000e+01,2.500000000000000000e-01,1.000932170000000000e+10
1.770000000000000000e+02,3.620000000000000000e+02,9.000000000000000000e+02,6.530000000000000000e+02,2.180000000000000000e+02,1.120000000000000000e+02,6.400000000000000000e+01,9.100000000000000000e+01,2.399999999999999911e-01,1.002838050000000000e+10
1.480000000000000000e+02,2.930000000000000000e+02,8.360000000000000000e+02,5.890000000000000000e+02,2.020000000000000000e+02,9.500000000000000000e+01,5.400000000000000000e+01,8.200000000000000000e+01,2.399999999999999911e-01,1.004821670000000000e+10
1.340000000000000000e+02,2.760000000000000000e+02,9.390000000000000000e+02,6.450000000000000000e+02,1.940000000000000000e+02,9.000000000000000000e+01,5.300000000000000000e+01,7.600000000000000000e+01,2.399999999999999911e-01,1.006771360000000000e+10
1.210000000000000000e+02,2.650000000000000000e+02,9.510000000000000000e+02,6.380000000000000000e+02,1.740000000000000000e+02,8.600000000000000000e+01,4.500000000000000000e+01,7.200000000000000000e+01,2.399999999999999911e-01,1.008795650000000000e+10
1.600000000000000000e+02,2.910000000000000000e+02,9.810000000000000000e+02,6.530000000000000000e+02,2.180000000000000000e+02,1.190000000000000000e+02,5.700000000000000000e+01,9.500000000000000000e+01,2.300000000000000100e-01,1.010813140000000000e+10
1.860000000000000000e+02,3.030000000000000000e+02,1.051000000000000000e+03,6.520000000000000000e+02,2.340000000000000000e+02,1.270000000000000000e+02,6.500000000000000000e+01,1.110000000000000000e+02,2.200000000000000011e-01,1.012795560000000000e+10
