5.600000000000000000e+01,1.240000000000000000e+02,4.780000000000000000e+02,2.730000000000000000e+02,1.140000000000000000e+02,1.030000000000000000e+02,2.140000000000000000e+02,3.800000000000000000e+01,5.500000000000000444e-01,4.670609000000000000e+08
4.900000000000000000e+01,1.240000000000000000e+02,4.570000000000000000e+02,2.620000000000000000e+02,1.100000000000000000e+02,1.110000000000000000e+02,2.210000000000000000e+02,4.000000000000000000e+01,5.500000000000000444e-01,4.962277000000000000e+08
4.400000000000000000e+01,1.130000000000000000e+02,3.900000000000000000e+02,2.510000000000000000e+02,1.160000000000000000e+02,1.080000000000000000e+02,2.060000000000000000e+02,3.800000000000000000e+01,5.500000000000000444e-01,7.947867000000000000e+08
4.200000000000000000e+01,1.060000000000000000e+02,3.620000000000000000e+02,2.640000000000000000e+02,1.070000000000000000e+02,1.050000000000000000e+02,2.000000000000000000e+02,3.500000000000000000e+01,5.500000000000000444e-01,8.117372000000000000e+08
3.500000000000000000e+01,8.900000000000000000e+01,3.560000000000000000e+02,2.280000000000000000e+02,8.600000000000000000e+01,9.600000000000000000e+01,2.000000000000000000e+02,2.900000000000000000e+01,5.500000000000000444e-01,8.297967000000000000e+08
4.000000000000000000e+01,9.500000000000000000e+01,3.560000000000000000e+02,2.410000000000000000e+02,7.900000000000000000e+01,9.500000000000000000e+01,1.070000000000000000e+02,3.100000000000000000e+01,5.600000000000000533e-01,8.466329000000000000e+08
4.200000000000000000e+01,9.400000000000000000e+01,3.930000000000000000e+02,2.570000000000000000e+02,8.300000000000000000e+01,8.300000000000000000e+01,8.000000000000000000e+01,3.000000000000000000e+01,5.600000000000000533e-01,8.632190000000000000e+08
3.900000000000000000e+01,8.200000000000000000e+01,3.910000000000000000e+02,2.720000000000000000e+02,7.800000000000000000e+01,8.800000000000000000e+01,7.600000000000000000e+01,2.900000000000000000e+01,5.699999999999999512e-01,8.808737000000000000e+08
4.200000000000000000e+01,7.800000000000000000e+01,3.520000000000000000e+02,2.190000000000000000e+02,7.200000000000000000e+01,1.270000000000000000e+02,1.560000000000000000e+02,8.100000000000000000e+01,5.699999999999999512e-01,8.982093000000000000e+08
4.700000000000000000e+01,8.900000000000000000e+01,3.270000000000000000e+02,2.330000000000000000e+02,6.800000000000000000e+01,1.390000000000000000e+02,1.730000000000000000e+02,1.130000000000000000e+02,5.799999999999999600e-01,9.152108000000000000e+08
5.600000000000000000e+01,8.900000000000000000e+01,3.480000000000000000e+02,2.480000000000000000e+02,7.300000000000000000e+01,1.540000000000000000e+02,2.250000000000000000e+02,1.190000000000000000e+02,5.799999999999999600e-01,9.320073000000000000e+08
5.500000000000000000e+01,9.500000000000000000e+01,2.830000000000000000e+02,2.280000000000000000e+02,7.400000000000000000e+01,1.590000000000000000e+02,2.320000000000000000e+02,1.290000000000000000e+02,5.899999999999999689e-01,9.501281000000000000e+08
7.800000000000000000e+01,1.020000000000000000e+02,3.000000000000000000e+02,2.180000000000000000e+02,7.800000000000000000e+01,1.610000000000000000e+02,2.350000000000000000e+02,1.300000000000000000e+02,5.899999999999999689e-01,9.683374000000000000e+08
7.800000000000000000e+01,1.060000000000000000e+02,3.300000000000000000e+02,2.100000000000000000e+02,7.600000000000000000e+01,1.340000000000000000e+02,2.010000000000000000e+02,1.070000000000000000e+02,5.899999999999999689e-01,9.863198000000000000e+08
7.600000000000000000e+01,9.900000000000000000e+01,3.300000000000000000e+02,1.810000000000000000e+02,7.500000000000000000e+01,1.180000000000000000e+02,1.870000000000000000e+02,7.400000000000000000e+01,5.999999999999999778e-01,1.003793000000000000e+09
7.600000000000000000e+01,1.070000000000000000e+02,2.760000000000000000e+02,1.310000000000000000e+02,6.700000000000000000e+01,8.200000000000000000e+01,1.230000000000000000e+02,6.300000000000000000e+01,5.999999999999999778e-01,1.021100900000000000e+09
7.800000000000000000e+01,1.060000000000000000e+02,2.920000000000000000e+02,1.240000000000000000e+02,6.200000000000000000e+01,7.300000000000000000e+01,1.100000000000000000e+02,4.000000000000000000e+01,5.999999999999999778e-01,1.039666200000000000e+09
5.500000000000000000e+01,1.050000000000000000e+02,3.240000000000000000e+02,1.100000000000000000e+02,5.200000000000000000e+01,5.400000000000000000e+01,9.700000000000000000e+01,3.400000000000000000e+01,5.999999999999999778e-01,1.058144900000000000e+09
5.300000000000000000e+01,1.000000000000000000e+02,3.000000000000000000e+02,1.030000000000000000e+02,4.500000000000000000e+01,5.800000000000000000e+01,9.500000000000000000e+01,3.200000000000000000e+01,5.999999999999999778e-01,1.075986600000000000e+09
5.000000000000000000e+01,9.100000000000000000e+01,2.910000000000000000e+02,9.800000000000000000e+01,4.100000000000000000e+01,6.000000000000000000e+01,9.400000000000000000e+01,2.900000000000000000e+01,5.899999999999999689e-01,1.094074300000000000e+09
4.200000000000000000e+01,9.100000000000000000e+01,2.960000000000000000e+02,1.090000000000000000e+02,4.100000000000000000e+01,6.000000000000000000e+01,8.300000000000000000e+01,2.800000000000000000e+01,5.899999999999999689e-01,1.110910700000000000e+09
3.900000000000000000e+01,9.300000000000000000e+01,2.740000000000000000e+02,1.030000000000000000e+02,3.900000000000000000e+01,5.900000000000000000e+01,8.200000000000000000e+01,2.800000000000000000e+01,5.899999999999999689e-01,1.127677200000000000e+09
3.800000000000000000e+01,8.700000000000000000e+01,1.950000000000000000e+02,9.000000000000000000e+01,3.400000000000000000e+01,5.900000000000000000e+01,8.100000000000000000e+01,2.700000000000000000e+01,5.899999999999999689e-01,1.144241500000000000e+09
3.600000000000000000e+01,8.800000000000000000e+01,1.720000000000000000e+02,8.800000000000000000e+01,3.300000000000000000e+01,4.400000000000000000e+01,4.300000000000000000e+01,2.600000000000000000e+01,5.899999999999999689e-01,1.162188900000000000e+09
3.400000000000000000e+01,8.600000000000000000e+01,1.940000000000000000e+02,1.000000000000000000e+02,4.500000000000000000e+01,4.000000000000000000e+01,3.200000000000000000e+01,2.500000000000000000e+01,5.899999999999999689e-01,1.181919700000000000e+09
3.700000000000000000e+01,8.500000000000000000e+01,4.000000000000000000e+02,3.330000000000000000e+02,7.200000000000000000e+01,4.200000000000000000e+01,3.100000000000000000e+01,2.700000000000000000e+01,5.899999999999999689e-01,1.200265600000000000e+09
4.200000000000000000e+01,1.130000000000000000e+02,5.890000000000000000e+02,4.170000000000000000e+02,7.700000000000000000e+01,4.000000000000000000e+01,2.600000000000000000e+01,2.900000000000000000e+01,5.999999999999999778e-01,1.218103200000000000e+09
4.500000000000000000e+01,1.620000000000000000e+02,7.510000000000000000e+02,4.270000000000000000e+02,7.800000000000000000e+01,3.900000000000000000e+01,2.600000000000000000e+01,3.100000000000000000e+01,5.999999999999999778e-01,1.235559500000000000e+09
5.200000000000000000e+01,1.800000000000000000e+02,8.380000000000000000e+02,4.400000000000000000e+02,8.500000000000000000e+01,4.200000000000000000e+01,2.700000000000000000e+01,3.400000000000000000e+01,5.899999999999999689e-01,1.255087100000000000e+09
5.800000000000000000e+01,2.020000000000000000e+02,8.990000000000000000e+02,4.570000000000000000e+02,8.200000000000000000e+01,3.900000000000000000e+01,2.900000000000000000e+01,3.600000000000000000e+01,5.899999999999999689e-01,1.274703600000000000e+09
5.200000000000000000e+01,2.010000000000000000e+02,8.520000000000000000e+02,3.720000000000000000e+02,6.800000000000000000e+01,3.300000000000000000e+01,2.800000000000000000e+01,3.100000000000000000e+01,5.899999999999999689e-01,1.294363100000000000e+09
5.000000000000000000e+01,1.910000000000000000e+02,7.650000000000000000e+02,3.020000000000000000e+02,6.400000000000000000e+01,3.600000000000000000e+01,2.800000000000000000e+01,3.100000000000000000e+01,5.899999999999999689e-01,1.312237600000000000e+09
5.100000000000000000e+01,1.570000000000000000e+02,6.370000000000000000e+02,2.920000000000000000e+02,6.600000000000000000e+01,3.700000000000000000e+01,2.900000000000000000e+01,3.000000000000000000e+01,5.899999999999999689e-01,1.329524700000000000e+09
4.400000000000000000e+01,1.370000000000000000e+02,5.420000000000000000e+02,3.220000000000000000e+02,5.800000000000000000e+01,3.400000000000000000e+01,2.600000000000000000e+01,2.700000000000000000e+01,5.899999999999999689e-01,1.346824300000000000e+09
3.900000000000000000e+01,1.700000000000000000e+02,4.750000000000000000e+02,3.040000000000000000e+02,5.700000000000000000e+01,3.600000000000000000e+01,2.700000000000000000e+01,2.600000000000000000e+01,5.999999999999999778e-01,1.364331600000000000e+09
4.800000000000000000e+01,1.940000000000000000e+02,5.050000000000000000e+02,2.720000000000000000e+02,5.100000000000000000e+01,3.500000000000000000e+01,2.700000000000000000e+01,3.300000000000000000e+01,5.999999999999999778e-01,1.382397000000000000e+09
5.100000000000000000e+01,2.100000000000000000e+02,5.870000000000000000e+02,2.730000000000000000e+02,5.000000000000000000e+01,3.400000000000000000e+01,2.700000000000000000e+01,3.700000000000000000e+01,6.099999999999999867e-01,1.400385300000000000e+09
5.000000000000000000e+01,2.090000000000000000e+02,6.460000000000000000e+02,3.000000000000000000e+02,4.900000000000000000e+01,3.300000000000000000e+01,2.500000000000000000e+01,3.600000000000000000e+01,5.999999999999999778e-01,1.417542600000000000e+09
5.100000000000000000e+01,2.160000000000000000e+02,6.660000000000000000e+02,2.750000000000000000e+02,4.700000000000000000e+01,3.400000000000000000e+01,2.600000000000000000e+01,3.700000000000000000e+01,5.999999999999999778e-01,1.434737500000000000e+09
5.500000000000000000e+01,1.750000000000000000e+02,6.940000000000000000e+02,2.960000000000000000e+02,5.300000000000000000e+01,3.800000000000000000e+01,2.600000000000000000e+01,4.000000000000000000e+01,6.099999999999999867e-01,1.452914900000000000e+09
4.600000000000000000e+01,1.490000000000000000e+02,6.720000000000000000e+02,2.950000000000000000e+02,4.600000000000000000e+01,3.600000000000000000e+01,2.400000000000000000e+01,3.500000000000000000e+01,6.099999999999999867e-01,1.470461300000000000e+09
4.100000000000000000e+01,1.290000000000000000e+02,6.160000000000000000e+02,2.700000000000000000e+02,4.800000000000000000e+01,3.700000000000000000e+01,2.200000000000000000e+01,3.100000000000000000e+01,6.199999999999999956e-01,1.487982600000000000e+09
4.300000000000000000e+01,1.380000000000000000e+02,5.770000000000000000e+02,2.920000000000000000e+02,5.200000000000000000e+01,3.900000000000000000e+01,2.400000000000000000e+01,3.100000000000000000e+01,6.300000000000000044e-01,1.506846200000000000e+09
4.200000000000000000e+01,1.340000000000000000e+02,5.400000000000000000e+02,2.790000000000000000e+02,5.200000000000000000e+01,3.700000000000000000e+01,2.200000000000000000e+01,3.000000000000000000e+01,6.400000000000000133e-01,1.524090700000000000e+09
3.500000000000000000e+01,1.390000000000000000e+02,5.170000000000000000e+02,2.470000000000000000e+02,4.300000000000000000e+01,3.100000000000000000e+01,2.100000000000000000e+01,2.300000000000000000e+01,6.400000000000000133e-01,1.542675800000000000e+09
4.200000000000000000e+01,1.480000000000000000e+02,5.840000000000000000e+02,3.050000000000000000e+02,5.100000000000000000e+01,3.800000000000000000e+01,2.400000000000000000e+01,3.100000000000000000e+01,6.400000000000000133e-01,1.559537500000000000e+09
4.100000000000000000e+01,1.370000000000000000e+02,5.570000000000000000e+02,3.140000000000000000e+02,4.900000000000000000e+01,3.300000000000000000e+01,2.400000000000000000e+01,3.000000000000000000e+01,6.500000000000000222e-01,1.577773800000000000e+09
3.600000000000000000e+01,1.230000000000000000e+02,5.210000000000000000e+02,2.630000000000000000e+02,4.100000000000000000e+01,2.800000000000000000e+01,2.200000000000000000e+01,2.900000000000000000e+01,6.500000000000000222e-01,1.594782500000000000e+09
3.700000000000000000e+01,1.190000000000000000e+02,5.500000000000000000e+02,2.730000000000000000e+02,4.100000000000000000e+01,3.000000000000000000e+01,2.400000000000000000e+01,3.200000000000000000e+01,6.500000000000000222e-01,1.611297000000000000e+09
4.100000000000000000e+01,1.060000000000000000e+02,5.190000000000000000e+02,2.870000000000000000e+02,4.400000000000000000e+01,3.600000000000000000e+01,2.500000000000000000e+01,3.200000000000000000e+01,6.600000000000000311e-01,1.629321200000000000e+09
3.300000000000000000e+01,8.600000000000000000e+01,4.170000000000000000e+02,2.010000000000000000e+02,3.100000000000000000e+01,2.700000000000000000e+01,2.300000000000000000e+01,2.500000000000000000e+01,6.600000000000000311e-01,1.648193100000000000e+09
3.700000000000000000e+01,7.700000000000000000e+01,3.960000000000000000e+02,2.070000000000000000e+02,3.700000000000000000e+01,3.200000000000000000e+01,2.300000000000000000e+01,2.500000000000000000e+01,6.700000000000000400e-01,1.665511100000000000e+09
3.700000000000000000e+01,8.900000000000000000e+01,4.610000000000000000e+02,2.380000000000000000e+02,3.900000000000000000e+01,3.200000000000000000e+01,2.200000000000000000e+01,2.700000000000000000e+01,6.700000000000000400e-01,1.682343500000000000e+09
3.500000000000000000e+01,8.800000000000000000e+01,4.610000000000000000e+02,2.290000000000000000e+02,4.000000000000000000e+01,3.300000000000000000e+01,2.200000000000000000e+01,2.500000000000000000e+01,6.700000000000000400e-01,1.699425100000000000e+09
3.500000000000000000e+01,8.400000000000000000e+01,5.010000000000000000e+02,2.150000000000000000e+02,3.900000000000000000e+01,2.800000000000000000e+01,2.200000000000000000e+01,2.800000000000000000e+01,6.800000000000000488e-01,1.716332700000000000e+09
3.400000000000000000e+01,7.900000000000000000e+01,5.100000000000000000e+02,2.080000000000000000e+02,3.800000000000000000e+01,2.900000000000000000e+01,2.100000000000000000e+01,2.600000000000000000e+01,6.800000000000000488e-01,1.732927000000000000e+09
3.100000000000000000e+01,8.800000000000000000e+01,5.030000000000000000e+02,1.920000000000000000e+02,3.500000000000000000e+01,2.600000000000000000e+01,2.100000000000000000e+01,2.700000000000000000e+01,6.800000000000000488e-01,1.749654800000000000e+09
3.300000000000000000e+01,8.200000000000000000e+01,4.700000000000000000e+02,1.770000000000000000e+02,3.500000000000000000e+01,2.600000000000000000e+01,2.200000000000000000e+01,2.700000000000000000e+01,6.800000000000000488e-01,1.767310000000000000e+09
4.000000000000000000e+01,9.500000000000000000e+01,5.180000000000000000e+02,2.100000000000000000e+02,4.400000000000000000e+01,3.000000000000000000e+01,2.200000000000000000e+01,3.000000000000000000e+01,6.800000000000000488e-01,1.784846600000000000e+09
3.600000000000000000e+01,9.900000000000000000e+01,5.020000000000000000e+02,2.200000000000000000e+02,4.400000000000000000e+01,2.900000000000000000e+01,1.900000000000000000e+01,2.600000000000000000e+01,6.800000000000000488e-01,1.804035700000000000e+09
3.800000000000000000e+01,1.120000000000000000e+02,5.120000000000000000e+02,2.480000000000000000e+02,4.800000000000000000e+01,2.900000000000000000e+01,2.100000000000000000e+01,2.800000000000000000e+01,6.800000000000000488e-01,1.821697900000000000e+09
4.400000000000000000e+01,1.390000000000000000e+02,5.730000000000000000e+02,2.520000000000000000e+02,5.300000000000000000e+01,3.300000000000000000e+01,2.200000000000000000e+01,3.300000000000000000e+01,6.800000000000000488e-01,1.838945800000000000e+09
4.100000000000000000e+01,1.370000000000000000e+02,5.380000000000000000e+02,2.330000000000000000e+02,5.200000000000000000e+01,3.100000000000000000e+01,2.200000000000000000e+01,3.200000000000000000e+01,6.800000000000000488e-01,1.856263100000000000e+09
4.100000000000000000e+01,1.350000000000000000e+02,4.740000000000000000e+02,2.020000000000000000e+02,5.100000000000000000e+01,3.200000000000000000e+01,2.400000000000000000e+01,3.300000000000000000e+01,6.800000000000000488e-01,1.873507500000000000e+09
4.300000000000000000e+01,1.320000000000000000e+02,4.450000000000000000e+02,1.910000000000000000e+02,4.900000000000000000e+01,3.200000000000000000e+01,2.400000000000000000e+01,3.400000000000000000e+01,6.800000000000000488e-01,1.890374600000000000e+09
4.200000000000000000e+01,1.210000000000000000e+02,4.240000000000000000e+02,1.800000000000000000e+02,4.600000000000000000e+01,3.100000000000000000e+01,2.400000000000000000e+01,3.300000000000000000e+01,6.800000000000000488e-01,1.908801000000000000e+09
3.800000000000000000e+01,8.000000000000000000e+01,3.660000000000000000e+02,2.010000000000000000e+02,3.900000000000000000e+01,2.800000000000000000e+01,2.300000000000000000e+01,3.000000000000000000e+01,6.800000000000000488e-01,1.926634100000000000e+09
3.900000000000000000e+01,7.500000000000000000e+01,3.730000000000000000e+02,2.350000000000000000e+02,3.900000000000000000e+01,3.000000000000000000e+01,2.300000000000000000e+01,3.000000000000000000e+01,6.800000000000000488e-01,1.944167600000000000e+09
2.800000000000000000e+01,5.200000000000000000e+01,3.880000000000000000e+02,2.210000000000000000e+02,2.900000000000000000e+01,2.600000000000000000e+01,2.000000000000000000e+01,2.500000000000000000e+01,6.800000000000000488e-01,1.961475500000000000e+09
2.900000000000000000e+01,5.100000000000000000e+01,4.130000000000000000e+02,2.350000000000000000e+02,3.200000000000000000e+01,2.900000000000000000e+01,2.100000000000000000e+01,2.300000000000000000e+01,6.800000000000000488e-01,1.979373400000000000e+09
3.500000000000000000e+01,7.900000000000000000e+01,5.510000000000000000e+02,2.580000000000000000e+02,4.500000000000000000e+01,3.200000000000000000e+01,2.200000000000000000e+01,2.800000000000000000e+01,6.800000000000000488e-01,1.996718500000000000e+09
3.100000000000000000e+01,8.000000000000000000e+01,5.620000000000000000e+02,2.490000000000000000e+02,4.500000000000000000e+01,3.100000000000000000e+01,2.000000000000000000e+01,2.400000000000000000e+01,6.800000000000000488e-01,2.013762700000000000e+09
3.400000000000000000e+01,8.500000000000000000e+01,6.150000000000000000e+02,2.280000000000000000e+02,4.800000000000000000e+01,3.200000000000000000e+01,2.300000000000000000e+01,2.600000000000000000e+01,6.800000000000000488e-01,2.031786000000000000e+09
3.500000000000000000e+01,8.500000000000000000e+01,6.220000000000000000e+02,2.280000000000000000e+02,4.700000000000000000e+01,3.000000000000000000e+01,2.200000000000000000e+01,2.600000000000000000e+01,6.800000000000000488e-01,2.049363900000000000e+09
3.600000000000000000e+01,8.900000000000000000e+01,5.970000000000000000e+02,2.130000000000000000e+02,4.900000000000000000e+01,2.900000000000000000e+01,2.500000000000000000e+01,2.700000000000000000e+01,6.800000000000000488e-01,2.066432200000000000e+09
3.200000000000000000e+01,7.300000000000000000e+01,4.730000000000000000e+02,1.750000000000000000e+02,3.900000000000000000e+01,2.800000000000000000e+01,2.500000000000000000e+01,2.500000000000000000e+01,6.800000000000000488e-01,2.083522100000000000e+09
3.200000000000000000e+01,7.400000000000000000e+01,4.340000000000000000e+02,1.560000000000000000e+02,3.900000000000000000e+01,2.800000000000000000e+01,2.500000000000000000e+01,2.400000000000000000e+01,6.800000000000000488e-01,2.100515000000000000e+09
2.900000000000000000e+01,7.100000000000000000e+01,3.490000000000000000e+02,1.450000000000000000e+02,3.400000000000000000e+01,2.600000000000000000e+01,2.300000000000000000e+01,2.300000000000000000e+01,6.800000000000000488e-01,2.118582000000000000e+09
3.100000000000000000e+01,7.400000000000000000e+01,3.890000000000000000e+02,1.850000000000000000e+02,3.600000000000000000e+01,2.500000000000000000e+01,2.400000000000000000e+01,2.400000000000000000e+01,6.800000000000000488e-01,2.135374300000000000e+09
3.100000000000000000e+01,7.000000000000000000e+01,5.500000000000000000e+02,2.170000000000000000e+02,3.400000000000000000e+01,2.400000000000000000e+01,2.200000000000000000e+01,2.500000000000000000e+01,6.800000000000000488e-01,2.152212800000000000e+09
3.000000000000000000e+01,6.900000000000000000e+01,5.850000000000000000e+02,2.250000000000000000e+02,3.400000000000000000e+01,2.200000000000000000e+01,2.200000000000000000e+01,2.500000000000000000e+01,6.800000000000000488e-01,2.169040700000000000e+09
2.900000000000000000e+01,6.900000000000000000e+01,5.880000000000000000e+02,2.360000000000000000e+02,3.400000000000000000e+01,2.500000000000000000e+01,2.100000000000000000e+01,2.500000000000000000e+01,6.800000000000000488e-01,2.185592100000000000e+09
3.000000000000000000e+01,7.200000000000000000e+01,6.040000000000000000e+02,2.500000000000000000e+02,3.900000000000000000e+01,2.700000000000000000e+01,2.200000000000000000e+01,2.400000000000000000e+01,6.700000000000000400e-01,2.203836400000000000e+09
2.700000000000000000e+01,7.400000000000000000e+01,6.550000000000000000e+02,2.560000000000000000e+02,3.800000000000000000e+01,3.000000000000000000e+01,2.500000000000000000e+01,2.400000000000000000e+01,6.700000000000000400e-01,2.221175800000000000e+09
3.500000000000000000e+01,8.300000000000000000e+01,6.650000000000000000e+02,2.290000000000000000e+02,4.300000000000000000e+01,3.100000000000000000e+01,2.400000000000000000e+01,2.500000000000000000e+01,6.700000000000000400e-01,2.237980300000000000e+09
3.400000000000000000e+01,7.700000000000000000e+01,6.450000000000000000e+02,2.170000000000000000e+02,4.000000000000000000e+01,3.000000000000000000e+01,2.300000000000000000e+01,2.300000000000000000e+01,6.700000000000000400e-01,2.255513400000000000e+09
3.700000000000000000e+01,8.000000000000000000e+01,6.780000000000000000e+02,2.060000000000000000e+02,4.000000000000000000e+01,2.900000000000000000e+01,2.500000000000000000e+01,2.500000000000000000e+01,6.700000000000000400e-01,2.274966100000000000e+09
3.600000000000000000e+01,7.800000000000000000e+01,6.680000000000000000e+02,2.310000000000000000e+02,3.600000000000000000e+01,2.900000000000000000e+01,2.500000000000000000e+01,2.700000000000000000e+01,6.700000000000000400e-01,2.296311400000000000e+09
3.700000000000000000e+01,7.500000000000000000e+01,5.950000000000000000e+02,2.040000000000000000e+02,3.700000000000000000e+01,2.700000000000000000e+01,2.300000000000000000e+01,2.600000000000000000e+01,6.700000000000000400e-01,2.317245600000000000e+09
3.000000000000000000e+01,7.200000000000000000e+01,4.450000000000000000e+02,2.290000000000000000e+02,3.100000000000000000e+01,2.700000000000000000e+01,2.300000000000000000e+01,2.300000000000000000e+01,6.700000000000000400e-01,2.338140400000000000e+09
3.400000000000000000e+01,1.030000000000000000e+02,4.250000000000000000e+02,2.650000000000000000e+02,3.600000000000000000e+01,3.000000000000000000e+01,2.600000000000000000e+01,2.400000000000000000e+01,6.700000000000000400e-01,2.367230600000000000e+09
3.200000000000000000e+01,1.040000000000000000e+02,4.000000000000000000e+02,2.910000000000000000e+02,3.500000000000000000e+01,3.000000000000000000e+01,2.600000000000000000e+01,2.500000000000000000e+01,6.800000000000000488e-01,2.386564500000000000e+09
3.000000000000000000e+01,1.040000000000000000e+02,4.290000000000000000e+02,2.590000000000000000e+02,3.400000000000000000e+01,2.800000000000000000e+01,2.500000000000000000e+01,2.200000000000000000e+01,6.800000000000000488e-01,2.406317600000000000e+09
3.300000000000000000e+01,1.130000000000000000e+02,4.580000000000000000e+02,2.600000000000000000e+02,3.600000000000000000e+01,3.000000000000000000e+01,2.500000000000000000e+01,2.400000000000000000e+01,6.800000000000000488e-01,2.425974900000000000e+09
3.200000000000000000e+01,1.110000000000000000e+02,4.700000000000000000e+02,2.400000000000000000e+02,3.600000000000000000e+01,2.900000000000000000e+01,2.600000000000000000e+01,2.400000000000000000e+01,6.800000000000000488e-01,2.447166300000000000e+09
2.600000000000000000e+01,8.600000000000000000e+01,4.450000000000000000e+02,2.100000000000000000e+02,3.700000000000000000e+01,2.700000000000000000e+01,2.300000000000000000e+01,2.300000000000000000e+01,6.800000000000000488e-01,2.465416100000000000e+09
2.800000000000000000e+01,8.000000000000000000e+01,4.430000000000000000e+02,1.790000000000000000e+02,4.300000000000000000e+01,3.200000000000000000e+01,2.200000000000000000e+01,2.400000000000000000e+01,6.800000000000000488e-01,2.484488900000000000e+09
2.900000000000000000e+01,9.000000000000000000e+01,5.160000000000000000e+02,1.920000000000000000e+02,4.500000000000000000e+01,3.300000000000000000e+01,2.300000000000000000e+01,2.500000000000000000e+01,6.899999999999999467e-01,2.504328600000000000e+09
2.600000000000000000e+01,7.800000000000000000e+01,5.220000000000000000e+02,1.830000000000000000e+02,4.300000000000000000e+01,3.100000000000000000e+01,2.200000000000000000e+01,2.500000000000000000e+01,6.899999999999999467e-01,2.522763800000000000e+09
2.500000000000000000e+01,7.800000000000000000e+01,5.050000000000000000e+02,1.780000000000000000e+02,4.000000000000000000e+01,2.900000000000000000e+01,2.100000000000000000e+01,2.500000000000000000e+01,6.899999999999999467e-01,2.542043900000000000e+09
2.600000000000000000e+01,7.800000000000000000e+01,5.300000000000000000e+02,2.000000000000000000e+02,4.400000000000000000e+01,2.700000000000000000e+01,2.100000000000000000e+01,2.600000000000000000e+01,6.899999999999999467e-01,2.560111200000000000e+09
2.900000000000000000e+01,8.100000000000000000e+01,5.180000000000000000e+02,2.360000000000000000e+02,4.700000000000000000e+01,3.000000000000000000e+01,2.200000000000000000e+01,2.600000000000000000e+01,6.899999999999999467e-01,2.579321100000000000e+09
2.700000000000000000e+01,6.800000000000000000e+01,4.000000000000000000e+02,2.330000000000000000e+02,4.500000000000000000e+01,2.900000000000000000e+01,2.100000000000000000e+01,2.500000000000000000e+01,6.899999999999999467e-01,2.602510100000000000e+09
2.900000000000000000e+01,7.400000000000000000e+01,3.130000000000000000e+02,2.330000000000000000e+02,4.500000000000000000e+01,2.900000000000000000e+01,2.000000000000000000e+01,2.500000000000000000e+01,6.899999999999999467e-01,2.623560500000000000e+09
2.900000000000000000e+01,6.900000000000000000e+01,3.670000000000000000e+02,2.650000000000000000e+02,4.500000000000000000e+01,2.900000000000000000e+01,2.000000000000000000e+01,2.600000000000000000e+01,6.899999999999999467e-01,2.643655600000000000e+09
3.000000000000000000e+01,7.100000000000000000e+01,3.660000000000000000e+02,2.810000000000000000e+02,4.100000000000000000e+01,3.000000000000000000e+01,2.100000000000000000e+01,2.600000000000000000e+01,6.899999999999999467e-01,2.663069500000000000e+09
2.600000000000000000e+01,6.200000000000000000e+01,3.490000000000000000e+02,2.460000000000000000e+02,3.300000000000000000e+01,2.200000000000000000e+01,2.100000000000000000e+01,2.300000000000000000e+01,6.899999999999999467e-01,2.683508000000000000e+09
3.000000000000000000e+01,6.900000000000000000e+01,3.630000000000000000e+02,2.400000000000000000e+02,3.400000000000000000e+01,2.200000000000000000e+01,2.300000000000000000e+01,2.400000000000000000e+01,6.899999999999999467e-01,2.703703600000000000e+09
2.700000000000000000e+01,6.400000000000000000e+01,3.900000000000000000e+02,2.550000000000000000e+02,3.600000000000000000e+01,2.600000000000000000e+01,2.300000000000000000e+01,2.300000000000000000e+01,6.899999999999999467e-01,2.722315200000000000e+09
2.900000000000000000e+01,6.800000000000000000e+01,3.580000000000000000e+02,2.330000000000000000e+02,3.800000000000000000e+01,2.900000000000000000e+01,2.500000000000000000e+01,2.200000000000000000e+01,6.899999999999999467e-01,2.742076700000000000e+09
3.300000000000000000e+01,7.500000000000000000e+01,3.630000000000000000e+02,1.770000000000000000e+02,3.500000000000000000e+01,3.100000000000000000e+01,2.400000000000000000e+01,2.500000000000000000e+01,6.899999999999999467e-01,2.761063200000000000e+09
3.200000000000000000e+01,7.600000000000000000e+01,3.630000000000000000e+02,1.730000000000000000e+02,3.300000000000000000e+01,3.000000000000000000e+01,2.500000000000000000e+01,2.400000000000000000e+01,6.999999999999999556e-01,2.780417200000000000e+09
3.100000000000000000e+01,7.300000000000000000e+01,4.100000000000000000e+02,1.730000000000000000e+02,3.500000000000000000e+01,3.000000000000000000e+01,2.300000000000000000e+01,2.600000000000000000e+01,6.999999999999999556e-01,2.798979500000000000e+09
3.300000000000000000e+01,7.400000000000000000e+01,4.280000000000000000e+02,1.560000000000000000e+02,3.300000000000000000e+01,2.700000000000000000e+01,2.600000000000000000e+01,2.500000000000000000e+01,6.899999999999999467e-01,2.817966700000000000e+09
3.400000000000000000e+01,7.300000000000000000e+01,4.400000000000000000e+02,1.510000000000000000e+02,3.200000000000000000e+01,2.700000000000000000e+01,2.400000000000000000e+01,2.500000000000000000e+01,6.899999999999999467e-01,2.837580600000000000e+09
2.900000000000000000e+01,6.600000000000000000e+01,4.340000000000000000e+02,1.690000000000000000e+02,3.000000000000000000e+01,2.300000000000000000e+01,2.500000000000000000e+01,2.100000000000000000e+01,6.899999999999999467e-01,2.855814300000000000e+09
3.200000000000000000e+01,7.400000000000000000e+01,5.060000000000000000e+02,1.890000000000000000e+02,3.300000000000000000e+01,2.700000000000000000e+01,2.400000000000000000e+01,2.400000000000000000e+01,6.899999999999999467e-01,2.874114000000000000e+09
3.400000000000000000e+01,7.500000000000000000e+01,4.950000000000000000e+02,2.000000000000000000e+02,3.500000000000000000e+01,3.000000000000000000e+01,2.500000000000000000e+01,2.300000000000000000e+01,6.899999999999999467e-01,2.893448700000000000e+09
3.100000000000000000e+01,7.000000000000000000e+01,4.970000000000000000e+02,1.890000000000000000e+02,3.400000000000000000e+01,3.000000000000000000e+01,2.300000000000000000e+01,2.300000000000000000e+01,6.899999999999999467e-01,2.912434800000000000e+09
3.300000000000000000e+01,7.800000000000000000e+01,4.760000000000000000e+02,1.860000000000000000e+02,3.200000000000000000e+01,3.200000000000000000e+01,2.500000000000000000e+01,2.300000000000000000e+01,6.899999999999999467e-01,2.930934500000000000e+09
3.300000000000000000e+01,8.000000000000000000e+01,4.590000000000000000e+02,1.800000000000000000e+02,3.200000000000000000e+01,3.300000000000000000e+01,2.300000000000000000e+01,2.400000000000000000e+01,6.800000000000000488e-01,2.948896400000000000e+09
3.200000000000000000e+01,8.300000000000000000e+01,3.900000000000000000e+02,1.710000000000000000e+02,3.200000000000000000e+01,3.200000000000000000e+01,2.500000000000000000e+01,2.100000000000000000e+01,6.800000000000000488e-01,2.966766300000000000e+09
3.300000000000000000e+01,8.500000000000000000e+01,4.140000000000000000e+02,1.720000000000000000e+02,3.500000000000000000e+01,3.000000000000000000e+01,2.500000000000000000e+01,2.300000000000000000e+01,6.800000000000000488e-01,2.986303300000000000e+09
3.600000000000000000e+01,9.500000000000000000e+01,3.750000000000000000e+02,1.810000000000000000e+02,3.500000000000000000e+01,3.200000000000000000e+01,2.500000000000000000e+01,2.400000000000000000e+01,6.800000000000000488e-01,3.004560900000000000e+09
3.700000000000000000e+01,9.800000000000000000e+01,3.640000000000000000e+02,1.650000000000000000e+02,3.600000000000000000e+01,2.900000000000000000e+01,2.300000000000000000e+01,2.600000000000000000e+01,6.800000000000000488e-01,3.023508600000000000e+09
4.000000000000000000e+01,9.700000000000000000e+01,3.850000000000000000e+02,1.580000000000000000e+02,3.500000000000000000e+01,2.900000000000000000e+01,2.300000000000000000e+01,2.800000000000000000e+01,6.800000000000000488e-01,3.042066100000000000e+09
3.900000000000000000e+01,8.900000000000000000e+01,4.150000000000000000e+02,1.470000000000000000e+02,3.300000000000000000e+01,2.700000000000000000e+01,2.200000000000000000e+01,2.800000000000000000e+01,6.800000000000000488e-01,3.060290200000000000e+09
3.400000000000000000e+01,8.600000000000000000e+01,3.740000000000000000e+02,1.430000000000000000e+02,2.500000000000000000e+01,2.600000000000000000e+01,2.100000000000000000e+01,2.700000000000000000e+01,6.800000000000000488e-01,3.079575700000000000e+09
3.500000000000000000e+01,8.600000000000000000e+01,4.020000000000000000e+02,1.480000000000000000e+02,2.900000000000000000e+01,2.500000000000000000e+01,2.200000000000000000e+01,2.800000000000000000e+01,6.800000000000000488e-01,3.098618900000000000e+09
2.900000000000000000e+01,7.000000000000000000e+01,4.600000000000000000e+02,1.540000000000000000e+02,2.900000000000000000e+01,2.800000000000000000e+01,2.300000000000000000e+01,2.600000000000000000e+01,6.800000000000000488e-01,3.117534800000000000e+09
2.500000000000000000e+01,7.200000000000000000e+01,5.500000000000000000e+02,1.540000000000000000e+02,3.100000000000000000e+01,2.900000000000000000e+01,2.300000000000000000e+01,2.400000000000000000e+01,6.700000000000000400e-01,3.135589900000000000e+09
2.500000000000000000e+01,7.100000000000000000e+01,5.290000000000000000e+02,1.530000000000000000e+02,3.000000000000000000e+01,2.800000000000000000e+01,2.300000000000000000e+01,2.400000000000000000e+01,6.700000000000000400e-01,3.153959500000000000e+09
2.900000000000000000e+01,7.600000000000000000e+01,5.140000000000000000e+02,1.820000000000000000e+02,3.500000000000000000e+01,2.800000000000000000e+01,2.400000000000000000e+01,2.400000000000000000e+01,6.700000000000000400e-01,3.173018600000000000e+09
3.100000000000000000e+01,8.700000000000000000e+01,5.000000000000000000e+02,2.060000000000000000e+02,3.900000000000000000e+01,2.900000000000000000e+01,2.400000000000000000e+01,2.400000000000000000e+01,6.700000000000000400e-01,3.190871900000000000e+09
3.200000000000000000e+01,9.000000000000000000e+01,4.610000000000000000e+02,2.050000000000000000e+02,3.700000000000000000e+01,2.600000000000000000e+01,2.300000000000000000e+01,2.300000000000000000e+01,6.700000000000000400e-01,3.209955900000000000e+09
3.300000000000000000e+01,1.150000000000000000e+02,3.270000000000000000e+02,1.970000000000000000e+02,3.600000000000000000e+01,2.500000000000000000e+01,2.200000000000000000e+01,2.400000000000000000e+01,6.700000000000000400e-01,3.228922800000000000e+09
3.700000000000000000e+01,1.220000000000000000e+02,3.910000000000000000e+02,2.360000000000000000e+02,4.400000000000000000e+01,2.800000000000000000e+01,2.600000000000000000e+01,3.000000000000000000e+01,6.700000000000000400e-01,3.246588200000000000e+09
3.400000000000000000e+01,1.210000000000000000e+02,4.770000000000000000e+02,2.080000000000000000e+02,4.000000000000000000e+01,2.700000000000000000e+01,2.300000000000000000e+01,2.800000000000000000e+01,6.700000000000000400e-01,3.264223300000000000e+09
3.100000000000000000e+01,1.080000000000000000e+02,5.170000000000000000e+02,1.840000000000000000e+02,3.500000000000000000e+01,2.500000000000000000e+01,2.400000000000000000e+01,2.600000000000000000e+01,6.700000000000000400e-01,3.281895900000000000e+09
3.200000000000000000e+01,1.080000000000000000e+02,5.310000000000000000e+02,1.990000000000000000e+02,3.900000000000000000e+01,2.800000000000000000e+01,2.500000000000000000e+01,2.800000000000000000e+01,6.700000000000000400e-01,3.299149500000000000e+09
3.400000000000000000e+01,8.000000000000000000e+01,5.540000000000000000e+02,2.060000000000000000e+02,4.000000000000000000e+01,2.900000000000000000e+01,2.600000000000000000e+01,2.900000000000000000e+01,6.700000000000000400e-01,3.317553400000000000e+09
3.000000000000000000e+01,8.000000000000000000e+01,5.350000000000000000e+02,1.640000000000000000e+02,3.300000000000000000e+01,2.800000000000000000e+01,2.300000000000000000e+01,2.200000000000000000e+01,6.700000000000000400e-01,3.335764400000000000e+09
3.100000000000000000e+01,7.400000000000000000e+01,5.010000000000000000e+02,1.810000000000000000e+02,3.500000000000000000e+01,3.100000000000000000e+01,2.300000000000000000e+01,2.500000000000000000e+01,6.700000000000000400e-01,3.354202000000000000e+09
3.100000000000000000e+01,8.400000000000000000e+01,4.620000000000000000e+02,1.790000000000000000e+02,3.300000000000000000e+01,2.900000000000000000e+01,2.200000000000000000e+01,2.500000000000000000e+01,6.700000000000000400e-01,3.371307200000000000e+09
3.200000000000000000e+01,8.300000000000000000e+01,4.420000000000000000e+02,1.690000000000000000e+02,3.200000000000000000e+01,2.900000000000000000e+01,2.500000000000000000e+01,2.400000000000000000e+01,6.700000000000000400e-01,3.389752000000000000e+09
3.300000000000000000e+01,9.700000000000000000e+01,4.650000000000000000e+02,1.680000000000000000e+02,3.200000000000000000e+01,3.000000000000000000e+01,2.400000000000000000e+01,2.200000000000000000e+01,6.700000000000000400e-01,3.407961600000000000e+09
3.800000000000000000e+01,9.500000000000000000e+01,4.960000000000000000e+02,1.680000000000000000e+02,3.300000000000000000e+01,2.800000000000000000e+01,2.500000000000000000e+01,2.200000000000000000e+01,6.700000000000000400e-01,3.426111600000000000e+09
3.700000000000000000e+01,1.010000000000000000e+02,4.750000000000000000e+02,1.550000000000000000e+02,3.000000000000000000e+01,2.600000000000000000e+01,2.400000000000000000e+01,2.300000000000000000e+01,6.700000000000000400e-01,3.444438200000000000e+09
3.800000000000000000e+01,9.900000000000000000e+01,5.300000000000000000e+02,1.570000000000000000e+02,3.100000000000000000e+01,2.700000000000000000e+01,2.500000000000000000e+01,2.900000000000000000e+01,6.700000000000000400e-01,3.462677300000000000e+09
3.900000000000000000e+01,9.900000000000000000e+01,5.710000000000000000e+02,1.980000000000000000e+02,3.100000000000000000e+01,2.900000000000000000e+01,2.200000000000000000e+01,2.800000000000000000e+01,6.700000000000000400e-01,3.479614900000000000e+09
3.800000000000000000e+01,8.800000000000000000e+01,5.380000000000000000e+02,2.160000000000000000e+02,3.000000000000000000e+01,2.800000000000000000e+01,2.300000000000000000e+01,2.900000000000000000e+01,6.700000000000000400e-01,3.497091700000000000e+09
3.800000000000000000e+01,1.040000000000000000e+02,5.820000000000000000e+02,2.270000000000000000e+02,3.300000000000000000e+01,2.800000000000000000e+01,2.500000000000000000e+01,3.100000000000000000e+01,6.700000000000000400e-01,3.514893800000000000e+09
4.200000000000000000e+01,1.060000000000000000e+02,5.900000000000000000e+02,2.300000000000000000e+02,3.700000000000000000e+01,3.100000000000000000e+01,2.600000000000000000e+01,3.400000000000000000e+01,6.700000000000000400e-01,3.532816700000000000e+09
4.100000000000000000e+01,1.050000000000000000e+02,5.380000000000000000e+02,2.220000000000000000e+02,3.600000000000000000e+01,3.000000000000000000e+01,2.600000000000000000e+01,2.900000000000000000e+01,6.700000000000000400e-01,3.550186400000000000e+09
4.100000000000000000e+01,1.130000000000000000e+02,5.160000000000000000e+02,1.770000000000000000e+02,3.700000000000000000e+01,2.900000000000000000e+01,2.800000000000000000e+01,3.200000000000000000e+01,6.700000000000000400e-01,3.568435900000000000e+09
4.300000000000000000e+01,1.230000000000000000e+02,6.120000000000000000e+02,1.730000000000000000e+02,4.000000000000000000e+01,3.200000000000000000e+01,2.800000000000000000e+01,3.500000000000000000e+01,6.700000000000000400e-01,3.586595900000000000e+09
3.900000000000000000e+01,1.160000000000000000e+02,5.210000000000000000e+02,1.700000000000000000e+02,3.700000000000000000e+01,3.100000000000000000e+01,2.600000000000000000e+01,3.300000000000000000e+01,6.700000000000000400e-01,3.604572600000000000e+09
4.100000000000000000e+01,1.200000000000000000e+02,5.920000000000000000e+02,2.110000000000000000e+02,3.900000000000000000e+01,3.200000000000000000e+01,2.700000000000000000e+01,3.000000000000000000e+01,6.700000000000000400e-01,3.626801900000000000e+09
4.100000000000000000e+01,1.250000000000000000e+02,6.270000000000000000e+02,2.300000000000000000e+02,4.100000000000000000e+01,3.300000000000000000e+01,2.700000000000000000e+01,3.000000000000000000e+01,6.700000000000000400e-01,3.645116200000000000e+09
3.800000000000000000e+01,1.170000000000000000e+02,6.130000000000000000e+02,2.330000000000000000e+02,3.700000000000000000e+01,3.100000000000000000e+01,2.600000000000000000e+01,2.700000000000000000e+01,6.700000000000000400e-01,3.663168800000000000e+09
3.500000000000000000e+01,1.030000000000000000e+02,5.520000000000000000e+02,2.340000000000000000e+02,4.000000000000000000e+01,3.400000000000000000e+01,2.600000000000000000e+01,2.400000000000000000e+01,6.700000000000000400e-01,3.682394400000000000e+09
3.700000000000000000e+01,1.010000000000000000e+02,5.610000000000000000e+02,2.210000000000000000e+02,4.100000000000000000e+01,3.700000000000000000e+01,2.900000000000000000e+01,2.700000000000000000e+01,6.700000000000000400e-01,3.704669000000000000e+09
2.900000000000000000e+01,9.000000000000000000e+01,5.210000000000000000e+02,1.810000000000000000e+02,3.600000000000000000e+01,3.700000000000000000e+01,2.600000000000000000e+01,2.400000000000000000e+01,6.700000000000000400e-01,3.726767900000000000e+09
2.800000000000000000e+01,7.900000000000000000e+01,5.140000000000000000e+02,1.750000000000000000e+02,3.500000000000000000e+01,3.600000000000000000e+01,2.600000000000000000e+01,2.400000000000000000e+01,6.700000000000000400e-01,3.745784500000000000e+09
3.200000000000000000e+01,7.900000000000000000e+01,5.160000000000000000e+02,1.710000000000000000e+02,3.900000000000000000e+01,3.600000000000000000e+01,2.500000000000000000e+01,2.700000000000000000e+01,6.700000000000000400e-01,3.767356200000000000e+09
3.200000000000000000e+01,8.100000000000000000e+01,5.020000000000000000e+02,1.720000000000000000e+02,3.300000000000000000e+01,3.500000000000000000e+01,2.300000000000000000e+01,2.600000000000000000e+01,6.700000000000000400e-01,3.785860100000000000e+09
3.300000000000000000e+01,1.110000000000000000e+02,5.160000000000000000e+02,1.860000000000000000e+02,3.900000000000000000e+01,3.400000000000000000e+01,2.500000000000000000e+01,2.600000000000000000e+01,6.700000000000000400e-01,3.804993100000000000e+09
3.800000000000000000e+01,1.170000000000000000e+02,4.630000000000000000e+02,1.810000000000000000e+02,3.800000000000000000e+01,3.100000000000000000e+01,2.500000000000000000e+01,3.100000000000000000e+01,6.700000000000000400e-01,3.828674500000000000e+09
4.800000000000000000e+01,1.250000000000000000e+02,4.610000000000000000e+02,1.960000000000000000e+02,4.300000000000000000e+01,3.400000000000000000e+01,2.800000000000000000e+01,4.200000000000000000e+01,6.700000000000000400e-01,3.847372700000000000e+09
4.700000000000000000e+01,1.270000000000000000e+02,5.190000000000000000e+02,2.060000000000000000e+02,4.000000000000000000e+01,3.200000000000000000e+01,2.800000000000000000e+01,4.000000000000000000e+01,6.700000000000000400e-01,3.865359800000000000e+09
5.500000000000000000e+01,1.340000000000000000e+02,5.350000000000000000e+02,1.880000000000000000e+02,4.400000000000000000e+01,3.300000000000000000e+01,3.100000000000000000e+01,1.410000000000000000e+02,6.700000000000000400e-01,3.883547800000000000e+09
5.500000000000000000e+01,1.060000000000000000e+02,5.640000000000000000e+02,1.750000000000000000e+02,3.800000000000000000e+01,3.300000000000000000e+01,2.800000000000000000e+01,1.470000000000000000e+02,6.600000000000000311e-01,3.904396100000000000e+09
6.100000000000000000e+01,1.150000000000000000e+02,6.720000000000000000e+02,2.080000000000000000e+02,4.200000000000000000e+01,3.700000000000000000e+01,3.100000000000000000e+01,1.890000000000000000e+02,6.600000000000000311e-01,3.926607400000000000e+09
5.600000000000000000e+01,1.120000000000000000e+02,6.500000000000000000e+02,2.030000000000000000e+02,4.200000000000000000e+01,4.000000000000000000e+01,3.100000000000000000e+01,1.910000000000000000e+02,6.500000000000000222e-01,3.945391000000000000e+09
5.500000000000000000e+01,1.100000000000000000e+02,5.940000000000000000e+02,2.040000000000000000e+02,4.400000000000000000e+01,4.200000000000000000e+01,3.100000000000000000e+01,1.930000000000000000e+02,6.500000000000000222e-01,3.964106400000000000e+09
5.200000000000000000e+01,1.050000000000000000e+02,6.020000000000000000e+02,2.420000000000000000e+02,4.900000000000000000e+01,3.900000000000000000e+01,3.100000000000000000e+01,1.380000000000000000e+02,6.500000000000000222e-01,3.984492000000000000e+09
5.200000000000000000e+01,1.030000000000000000e+02,6.040000000000000000e+02,2.710000000000000000e+02,5.100000000000000000e+01,3.900000000000000000e+01,3.100000000000000000e+01,1.320000000000000000e+02,6.500000000000000222e-01,4.006117200000000000e+09
4.400000000000000000e+01,8.600000000000000000e+01,4.990000000000000000e+02,2.520000000000000000e+02,5.000000000000000000e+01,3.800000000000000000e+01,2.900000000000000000e+01,5.900000000000000000e+01,6.500000000000000222e-01,4.024577600000000000e+09
4.400000000000000000e+01,7.900000000000000000e+01,4.790000000000000000e+02,2.560000000000000000e+02,4.800000000000000000e+01,3.400000000000000000e+01,2.700000000000000000e+01,1.400000000000000000e+02,6.400000000000000133e-01,4.043192900000000000e+09
4.200000000000000000e+01,1.030000000000000000e+02,5.150000000000000000e+02,2.590000000000000000e+02,4.600000000000000000e+01,3.200000000000000000e+01,2.600000000000000000e+01,1.430000000000000000e+02,6.400000000000000133e-01,4.063061400000000000e+09
3.900000000000000000e+01,1.010000000000000000e+02,4.610000000000000000e+02,2.370000000000000000e+02,4.100000000000000000e+01,3.300000000000000000e+01,2.500000000000000000e+01,1.470000000000000000e+02,6.400000000000000133e-01,4.085805000000000000e+09
4.000000000000000000e+01,1.030000000000000000e+02,4.250000000000000000e+02,2.350000000000000000e+02,4.200000000000000000e+01,3.400000000000000000e+01,2.600000000000000000e+01,1.500000000000000000e+02,6.400000000000000133e-01,4.103822100000000000e+09
3.900000000000000000e+01,1.050000000000000000e+02,4.990000000000000000e+02,2.360000000000000000e+02,4.200000000000000000e+01,3.100000000000000000e+01,2.600000000000000000e+01,1.490000000000000000e+02,6.400000000000000133e-01,4.122657800000000000e+09
3.400000000000000000e+01,1.060000000000000000e+02,5.590000000000000000e+02,2.220000000000000000e+02,3.900000000000000000e+01,2.800000000000000000e+01,2.400000000000000000e+01,7.300000000000000000e+01,6.400000000000000133e-01,4.142652700000000000e+09
4.400000000000000000e+01,9.700000000000000000e+01,5.590000000000000000e+02,2.320000000000000000e+02,4.800000000000000000e+01,3.600000000000000000e+01,2.800000000000000000e+01,7.000000000000000000e+01,6.400000000000000133e-01,4.164976900000000000e+09
5.000000000000000000e+01,1.070000000000000000e+02,5.970000000000000000e+02,2.310000000000000000e+02,5.300000000000000000e+01,3.500000000000000000e+01,2.700000000000000000e+01,6.300000000000000000e+01,6.400000000000000133e-01,4.187247500000000000e+09
4.800000000000000000e+01,1.050000000000000000e+02,5.890000000000000000e+02,2.330000000000000000e+02,5.100000000000000000e+01,3.400000000000000000e+01,2.700000000000000000e+01,5.400000000000000000e+01,6.500000000000000222e-01,4.205543700000000000e+09
4.900000000000000000e+01,1.180000000000000000e+02,5.020000000000000000e+02,2.230000000000000000e+02,5.000000000000000000e+01,3.400000000000000000e+01,2.700000000000000000e+01,1.420000000000000000e+02,6.500000000000000222e-01,4.224041900000000000e+09
5.400000000000000000e+01,1.150000000000000000e+02,5.210000000000000000e+02,2.170000000000000000e+02,5.100000000000000000e+01,3.400000000000000000e+01,3.000000000000000000e+01,1.530000000000000000e+02,6.400000000000000133e-01,4.243078600000000000e+09
5.000000000000000000e+01,1.070000000000000000e+02,5.600000000000000000e+02,2.110000000000000000e+02,4.200000000000000000e+01,2.700000000000000000e+01,2.800000000000000000e+01,1.630000000000000000e+02,6.400000000000000133e-01,4.264909000000000000e+09
4.800000000000000000e+01,1.050000000000000000e+02,5.590000000000000000e+02,2.110000000000000000e+02,4.000000000000000000e+01,2.900000000000000000e+01,3.000000000000000000e+01,1.740000000000000000e+02,6.400000000000000133e-01,4.287071200000000000e+09
5.000000000000000000e+01,1.050000000000000000e+02,5.710000000000000000e+02,2.160000000000000000e+02,4.600000000000000000e+01,3.200000000000000000e+01,3.200000000000000000e+01,1.770000000000000000e+02,6.400000000000000133e-01,4.304965100000000000e+09
4.800000000000000000e+01,9.100000000000000000e+01,6.160000000000000000e+02,2.220000000000000000e+02,4.500000000000000000e+01,3.200000000000000000e+01,3.200000000000000000e+01,1.850000000000000000e+02,6.300000000000000044e-01,4.324078500000000000e+09
4.500000000000000000e+01,8.900000000000000000e+01,5.890000000000000000e+02,2.380000000000000000e+02,4.400000000000000000e+01,3.300000000000000000e+01,2.900000000000000000e+01,1.800000000000000000e+02,6.300000000000000044e-01,4.342764400000000000e+09
5.800000000000000000e+01,1.050000000000000000e+02,5.290000000000000000e+02,2.370000000000000000e+02,4.700000000000000000e+01,3.600000000000000000e+01,3.600000000000000000e+01,2.390000000000000000e+02,6.300000000000000044e-01,4.364935700000000000e+09
5.400000000000000000e+01,9.400000000000000000e+01,5.520000000000000000e+02,2.290000000000000000e+02,4.000000000000000000e+01,3.200000000000000000e+01,3.400000000000000000e+01,2.430000000000000000e+02,6.199999999999999956e-01,4.387049200000000000e+09
5.600000000000000000e+01,9.500000000000000000e+01,5.090000000000000000e+02,1.890000000000000000e+02,3.200000000000000000e+01,2.800000000000000000e+01,3.400000000000000000e+01,2.530000000000000000e+02,6.199999999999999956e-01,4.405639600000000000e+09
5.900000000000000000e+01,9.600000000000000000e+01,4.900000000000000000e+02,1.910000000000000000e+02,3.300000000000000000e+01,2.900000000000000000e+01,3.500000000000000000e+01,2.400000000000000000e+02,6.099999999999999867e-01,4.423948500000000000e+09
6.500000000000000000e+01,1.010000000000000000e+02,4.370000000000000000e+02,1.700000000000000000e+02,3.300000000000000000e+01,2.700000000000000000e+01,3.800000000000000000e+01,2.590000000000000000e+02,6.099999999999999867e-01,4.442710400000000000e+09
5.800000000000000000e+01,8.100000000000000000e+01,4.220000000000000000e+02,1.470000000000000000e+02,3.100000000000000000e+01,2.700000000000000000e+01,3.300000000000000000e+01,2.580000000000000000e+02,5.999999999999999778e-01,4.464797200000000000e+09
6.000000000000000000e+01,8.300000000000000000e+01,3.170000000000000000e+02,1.310000000000000000e+02,3.000000000000000000e+01,2.500000000000000000e+01,3.300000000000000000e+01,2.570000000000000000e+02,5.899999999999999689e-01,4.487038100000000000e+09
6.100000000000000000e+01,9.500000000000000000e+01,3.100000000000000000e+02,1.200000000000000000e+02,2.900000000000000000e+01,2.700000000000000000e+01,3.200000000000000000e+01,2.470000000000000000e+02,5.799999999999999600e-01,4.505801200000000000e+09
5.700000000000000000e+01,1.000000000000000000e+02,2.340000000000000000e+02,9.200000000000000000e+01,2.700000000000000000e+01,2.700000000000000000e+01,2.900000000000000000e+01,2.210000000000000000e+02,5.699999999999999512e-01,4.524509800000000000e+09
4.900000000000000000e+01,9.500000000000000000e+01,2.250000000000000000e+02,6.800000000000000000e+01,2.700000000000000000e+01,2.700000000000000000e+01,2.600000000000000000e+01,1.960000000000000000e+02,5.600000000000000533e-01,4.542649300000000000e+09
4.900000000000000000e+01,1.000000000000000000e+02,2.520000000000000000e+02,1.290000000000000000e+02,3.500000000000000000e+01,2.900000000000000000e+01,2.700000000000000000e+01,1.030000000000000000e+02,5.600000000000000533e-01,4.564798400000000000e+09
5.000000000000000000e+01,1.120000000000000000e+02,3.360000000000000000e+02,1.910000000000000000e+02,4.600000000000000000e+01,3.300000000000000000e+01,2.700000000000000000e+01,7.200000000000000000e+01,5.600000000000000533e-01,4.587015600000000000e+09
7.000000000000000000e+01,1.570000000000000000e+02,5.190000000000000000e+02,3.130000000000000000e+02,7.000000000000000000e+01,4.300000000000000000e+01,3.200000000000000000e+01,6.800000000000000000e+01,5.600000000000000533e-01,4.605017300000000000e+09
7.400000000000000000e+01,1.590000000000000000e+02,5.680000000000000000e+02,3.340000000000000000e+02,7.600000000000000000e+01,4.300000000000000000e+01,3.200000000000000000e+01,5.900000000000000000e+01,5.600000000000000533e-01,4.623592800000000000e+09
8.100000000000000000e+01,1.600000000000000000e+02,5.700000000000000000e+02,3.540000000000000000e+02,7.900000000000000000e+01,4.400000000000000000e+01,3.300000000000000000e+01,5.600000000000000000e+01,5.699999999999999512e-01,4.642561200000000000e+09
7.900000000000000000e+01,1.590000000000000000e+02,6.070000000000000000e+02,3.580000000000000000e+02,7.900000000000000000e+01,4.200000000000000000e+01,3.200000000000000000e+01,5.900000000000000000e+01,5.699999999999999512e-01,4.664758100000000000e+09
8.600000000000000000e+01,1.700000000000000000e+02,6.820000000000000000e+02,3.590000000000000000e+02,8.300000000000000000e+01,4.800000000000000000e+01,3.600000000000000000e+01,6.000000000000000000e+01,5.699999999999999512e-01,4.687019700000000000e+09
6.900000000000000000e+01,1.260000000000000000e+02,6.310000000000000000e+02,2.770000000000000000e+02,6.900000000000000000e+01,4.200000000000000000e+01,3.100000000000000000e+01,5.300000000000000000e+01,5.699999999999999512e-01,4.706018900000000000e+09
7.700000000000000000e+01,1.250000000000000000e+02,6.690000000000000000e+02,3.010000000000000000e+02,6.900000000000000000e+01,4.800000000000000000e+01,3.400000000000000000e+01,5.700000000000000000e+01,5.799999999999999600e-01,4.724513500000000000e+09
7.400000000000000000e+01,1.350000000000000000e+02,7.700000000000000000e+02,2.920000000000000000e+02,6.800000000000000000e+01,5.100000000000000000e+01,3.400000000000000000e+01,5.000000000000000000e+01,5.799999999999999600e-01,4.742708700000000000e+09
7.300000000000000000e+01,1.330000000000000000e+02,8.030000000000000000e+02,3.320000000000000000e+02,7.500000000000000000e+01,5.400000000000000000e+01,3.600000000000000000e+01,4.500000000000000000e+01,5.899999999999999689e-01,4.764675100000000000e+09
6.700000000000000000e+01,1.230000000000000000e+02,7.950000000000000000e+02,4.190000000000000000e+02,7.600000000000000000e+01,5.100000000000000000e+01,3.200000000000000000e+01,4.200000000000000000e+01,5.899999999999999689e-01,4.786980900000000000e+09
8.900000000000000000e+01,1.860000000000000000e+02,8.530000000000000000e+02,5.370000000000000000e+02,9.500000000000000000e+01,7.500000000000000000e+01,4.300000000000000000e+01,5.200000000000000000e+01,5.899999999999999689e-01,4.805351200000000000e+09
9.800000000000000000e+01,2.230000000000000000e+02,8.810000000000000000e+02,6.660000000000000000e+02,1.110000000000000000e+02,7.800000000000000000e+01,4.700000000000000000e+01,6.100000000000000000e+01,5.899999999999999689e-01,4.824215200000000000e+09
1.040000000000000000e+02,2.400000000000000000e+02,9.120000000000000000e+02,8.160000000000000000e+02,1.380000000000000000e+02,8.800000000000000000e+01,5.400000000000000000e+01,6.600000000000000000e+01,5.799999999999999600e-01,4.842446000000000000e+09
1.250000000000000000e+02,2.930000000000000000e+02,9.670000000000000000e+02,9.300000000000000000e+02,1.750000000000000000e+02,1.130000000000000000e+02,7.700000000000000000e+01,7.800000000000000000e+01,5.699999999999999512e-01,4.864652800000000000e+09
1.310000000000000000e+02,3.020000000000000000e+02,9.820000000000000000e+02,9.720000000000000000e+02,1.850000000000000000e+02,1.240000000000000000e+02,8.400000000000000000e+01,8.200000000000000000e+01,5.500000000000000444e-01,4.886898100000000000e+09
1.400000000000000000e+02,3.400000000000000000e+02,1.092000000000000000e+03,9.400000000000000000e+02,1.940000000000000000e+02,1.210000000000000000e+02,8.400000000000000000e+01,8.600000000000000000e+01,5.300000000000000266e-01,4.904855800000000000e+09
1.540000000000000000e+02,3.520000000000000000e+02,1.059000000000000000e+03,8.830000000000000000e+02,2.190000000000000000e+02,1.430000000000000000e+02,9.600000000000000000e+01,9.700000000000000000e+01,5.200000000000000178e-01,4.923830200000000000e+09
1.940000000000000000e+02,4.170000000000000000e+02,1.011000000000000000e+03,7.800000000000000000e+02,2.500000000000000000e+02,1.640000000000000000e+02,1.130000000000000000e+02,1.190000000000000000e+02,5.000000000000000000e-01,4.946394100000000000e+09
1.910000000000000000e+02,4.050000000000000000e+02,1.022000000000000000e+03,7.620000000000000000e+02,2.390000000000000000e+02,1.620000000000000000e+02,1.010000000000000000e+02,1.160000000000000000e+02,4.799999999999999822e-01,4.964588600000000000e+09
1.920000000000000000e+02,4.220000000000000000e+02,9.930000000000000000e+02,7.240000000000000000e+02,2.480000000000000000e+02,1.650000000000000000e+02,1.170000000000000000e+02,1.180000000000000000e+02,4.500000000000000111e-01,4.986877900000000000e+09
1.800000000000000000e+02,3.890000000000000000e+02,9.000000000000000000e+02,7.720000000000000000e+02,2.440000000000000000e+02,1.630000000000000000e+02,1.190000000000000000e+02,1.250000000000000000e+02,4.299999999999999933e-01,5.005034600000000000e+09
1.710000000000000000e+02,3.880000000000000000e+02,9.990000000000000000e+02,7.880000000000000000e+02,2.310000000000000000e+02,1.500000000000000000e+02,1.170000000000000000e+02,1.670000000000000000e+02,4.099999999999999756e-01,5.023788000000000000e+09
1.650000000000000000e+02,3.730000000000000000e+02,1.145000000000000000e+03,8.380000000000000000e+02,2.440000000000000000e+02,1.530000000000000000e+02,1.130000000000000000e+02,1.760000000000000000e+02,3.800000000000000044e-01,5.042439600000000000e+09
1.690000000000000000e+02,4.050000000000000000e+02,1.106000000000000000e+03,7.710000000000000000e+02,2.530000000000000000e+02,1.490000000000000000e+02,1.150000000000000000e+02,1.850000000000000000e+02,3.599999999999999867e-01,5.064608500000000000e+09
1.740000000000000000e+02,4.190000000000000000e+02,1.147000000000000000e+03,7.400000000000000000e+02,2.600000000000000000e+02,1.630000000000000000e+02,1.210000000000000000e+02,1.850000000000000000e+02,3.400000000000000244e-01,5.086883500000000000e+09
1.940000000000000000e+02,4.310000000000000000e+02,1.122000000000000000e+03,7.450000000000000000e+02,2.760000000000000000e+02,1.680000000000000000e+02,1.610000000000000000e+02,3.160000000000000000e+02,3.200000000000000067e-01,5.105500800000000000e+09
1.950000000000000000e+02,4.210000000000000000e+02,1.107000000000000000e+03,7.310000000000000000e+02,2.800000000000000000e+02,1.730000000000000000e+02,1.630000000000000000e+02,3.010000000000000000e+02,3.099999999999999978e-01,5.124265700000000000e+09
1.800000000000000000e+02,3.920000000000000000e+02,9.770000000000000000e+02,7.050000000000000000e+02,2.630000000000000000e+02,1.680000000000000000e+02,1.620000000000000000e+02,2.880000000000000000e+02,2.999999999999999889e-01,5.142803300000000000e+09
1.700000000000000000e+02,3.570000000000000000e+02,9.900000000000000000e+02,6.930000000000000000e+02,2.490000000000000000e+02,1.610000000000000000e+02,1.630000000000000000e+02,2.840000000000000000e+02,2.899999999999999800e-01,5.164513600000000000e+09
1.620000000000000000e+02,3.470000000000000000e+02,1.011000000000000000e+03,6.850000000000000000e+02,2.290000000000000000e+02,1.420000000000000000e+02,1.480000000000000000e+02,2.840000000000000000e+02,2.800000000000000266e-01,5.186721700000000000e+09
1.780000000000000000e+02,4.470000000000000000e+02,1.099000000000000000e+03,7.720000000000000000e+02,2.550000000000000000e+02,1.680000000000000000e+02,1.170000000000000000e+02,1.450000000000000000e+02,2.700000000000000178e-01,5.205188900000000000e+09
1.860000000000000000e+02,4.960000000000000000e+02,1.132000000000000000e+03,7.620000000000000000e+02,2.550000000000000000e+02,1.660000000000000000e+02,1.130000000000000000e+02,1.360000000000000000e+02,2.600000000000000089e-01,5.224300200000000000e+09
1.670000000000000000e+02,4.750000000000000000e+02,1.132000000000000000e+03,7.410000000000000000e+02,2.300000000000000000e+02,1.480000000000000000e+02,1.130000000000000000e+02,1.330000000000000000e+02,2.500000000000000000e-01,5.242436700000000000e+09
1.910000000000000000e+02,4.730000000000000000e+02,1.124000000000000000e+03,7.620000000000000000e+02,2.650000000000000000e+02,1.810000000000000000e+02,1.220000000000000000e+02,1.460000000000000000e+02,2.399999999999999911e-01,5.264543500000000000e+09
2.040000000000000000e+02,4.990000000000000000e+02,1.076000000000000000e+03,7.680000000000000000e+02,2.720000000000000000e+02,1.850000000000000000e+02,1.200000000000000000e+02,1.500000000000000000e+02,2.300000000000000100e-01,5.286782100000000000e+09
1.880000000000000000e+02,4.230000000000000000e+02,9.930000000000000000e+02,6.210000000000000000e+02,2.350000000000000000e+02,1.600000000000000000e+02,1.120000000000000000e+02,1.260000000000000000e+02,2.200000000000000011e-01,5.305663200000000000e+09
1.940000000000000000e+02,3.750000000000000000e+02,9.260000000000000000e+02,6.360000000000000000e+02,2.470000000000000000e+02,1.660000000000000000e+02,1.150000000000000000e+02,1.280000000000000000e+02,2.200000000000000011e-01,5.327423600000000000e+09
2.170000000000000000e+02,4.200000000000000000e+02,8.830000000000000000e+02,8.750000000000000000e+02,2.680000000000000000e+02,1.750000000000000000e+02,1.080000000000000000e+02,1.380000000000000000e+02,2.200000000000000011e-01,5.346855400000000000e+09
2.060000000000000000e+02,4.370000000000000000e+02,8.650000000000000000e+02,9.190000000000000000e+02,2.350000000000000000e+02,1.430000000000000000e+02,9.500000000000000000e+01,1.220000000000000000e+02,2.099999999999999922e-01,5.365065600000000000e+09
1.970000000000000000e+02,4.050000000000000000e+02,9.340000000000000000e+02,9.110000000000000000e+02,2.340000000000000000e+02,1.360000000000000000e+02,9.100000000000000000e+01,1.150000000000000000e+02,2.099999999999999922e-01,5.387756100000000000e+09
1.910000000000000000e+02,4.520000000000000000e+02,1.023000000000000000e+03,9.740000000000000000e+02,2.460000000000000000e+02,1.490000000000000000e+02,8.300000000000000000e+01,1.130000000000000000e+02,2.099999999999999922e-01,5.405757700000000000e+09
1.790000000000000000e+02,4.860000000000000000e+02,1.033000000000000000e+03,1.026000000000000000e+03,2.440000000000000000e+02,1.500000000000000000e+02,7.400000000000000000e+01,1.030000000000000000e+02,2.099999999999999922e-01,5.423811700000000000e+09
1.540000000000000000e+02,4.600000000000000000e+02,1.062000000000000000e+03,8.610000000000000000e+02,2.190000000000000000e+02,1.400000000000000000e+02,7.700000000000000000e+01,9.300000000000000000e+01,2.000000000000000111e-01,5.447502000000000000e+09
1.470000000000000000e+02,4.360000000000000000e+02,1.109000000000000000e+03,8.030000000000000000e+02,2.280000000000000000e+02,1.430000000000000000e+02,7.500000000000000000e+01,8.800000000000000000e+01,2.000000000000000111e-01,5.467056800000000000e+09
2.200000000000000000e+02,5.250000000000000000e+02,1.060000000000000000e+03,8.610000000000000000e+02,3.170000000000000000e+02,1.970000000000000000e+02,1.020000000000000000e+02,1.350000000000000000e+02,2.000000000000000111e-01,5.486640200000000000e+09
2.400000000000000000e+02,5.250000000000000000e+02,1.040000000000000000e+03,8.110000000000000000e+02,3.080000000000000000e+02,1.880000000000000000e+02,1.020000000000000000e+02,1.450000000000000000e+02,1.900000000000000022e-01,5.505793800000000000e+09
2.370000000000000000e+02,4.900000000000000000e+02,1.034000000000000000e+03,8.020000000000000000e+02,3.180000000000000000e+02,1.880000000000000000e+02,1.030000000000000000e+02,1.440000000000000000e+02,1.900000000000000022e-01,5.524258600000000000e+09
2.510000000000000000e+02,5.250000000000000000e+02,1.070000000000000000e+03,8.080000000000000000e+02,3.360000000000000000e+02,2.060000000000000000e+02,1.130000000000000000e+02,1.530000000000000000e+02,1.900000000000000022e-01,5.543080700000000000e+09
2.610000000000000000e+02,5.730000000000000000e+02,1.157000000000000000e+03,8.630000000000000000e+02,3.320000000000000000e+02,2.100000000000000000e+02,1.170000000000000000e+02,1.600000000000000000e+02,1.900000000000000022e-01,5.564355700000000000e+09
2.380000000000000000e+02,5.710000000000000000e+02,1.205000000000000000e+03,9.090000000000000000e+02,2.870000000000000000e+02,1.820000000000000000e+02,1.100000000000000000e+02,1.430000000000000000e+02,1.799999999999999933e-01,5.586519900000000000e+09
2.250000000000000000e+02,5.660000000000000000e+02,1.122000000000000000e+03,9.410000000000000000e+02,3.120000000000000000e+02,1.850000000000000000e+02,1.130000000000000000e+02,1.390000000000000000e+02,1.799999999999999933e-01,5.605190500000000000e+09
2.420000000000000000e+02,5.960000000000000000e+02,1.126000000000000000e+03,9.090000000000000000e+02,3.130000000000000000e+02,1.850000000000000000e+02,1.170000000000000000e+02,1.460000000000000000e+02,1.700000000000000122e-01,5.623274600000000000e+09
2.630000000000000000e+02,6.540000000000000000e+02,1.155000000000000000e+03,9.130000000000000000e+02,3.340000000000000000e+02,1.880000000000000000e+02,1.140000000000000000e+02,1.520000000000000000e+02,1.700000000000000122e-01,5.642300000000000000e+09
2.760000000000000000e+02,6.650000000000000000e+02,1.064000000000000000e+03,9.110000000000000000e+02,3.480000000000000000e+02,1.980000000000000000e+02,1.180000000000000000e+02,1.590000000000000000e+02,1.600000000000000033e-01,5.664291200000000000e+09
2.630000000000000000e+02,5.970000000000000000e+02,1.033000000000000000e+03,8.350000000000000000e+02,3.380000000000000000e+02,2.130000000000000000e+02,1.110000000000000000e+02,1.530000000000000000e+02,1.600000000000000033e-01,5.686537800000000000e+09
2.790000000000000000e+02,5.890000000000000000e+02,1.090000000000000000e+03,8.840000000000000000e+02,3.520000000000000000e+02,2.410000000000000000e+02,1.140000000000000000e+02,1.560000000000000000e+02,1.499999999999999944e-01,5.704769900000000000e+09
2.610000000000000000e+02,5.760000000000000000e+02,1.064000000000000000e+03,8.310000000000000000e+02,3.330000000000000000e+02,2.370000000000000000e+02,1.080000000000000000e+02,1.490000000000000000e+02,1.499999999999999944e-01,5.723703700000000000e+09
2.210000000000000000e+02,4.620000000000000000e+02,9.620000000000000000e+02,7.830000000000000000e+02,2.860000000000000000e+02,2.160000000000000000e+02,9.400000000000000000e+01,1.270000000000000000e+02,1.499999999999999944e-01,5.742364600000000000e+09
1.850000000000000000e+02,3.780000000000000000e+02,8.650000000000000000e+02,6.630000000000000000e+02,2.610000000000000000e+02,1.980000000000000000e+02,8.200000000000000000e+01,1.060000000000000000e+02,1.499999999999999944e-01,5.764191500000000000e+09
1.590000000000000000e+02,3.910000000000000000e+02,8.450000000000000000e+02,6.380000000000000000e+02,2.360000000000000000e+02,1.620000000000000000e+02,7.300000000000000000e+01,9.000000000000000000e+01,1.499999999999999944e-01,5.786487000000000000e+09
1.120000000000000000e+02,3.300000000000000000e+02,8.560000000000000000e+02,4.380000000000000000e+02,1.730000000000000000e+02,1.100000000000000000e+02,6.200000000000000000e+01,7.300000000000000000e+01,1.499999999999999944e-01,5.805233800000000000e+09
1.190000000000000000e+02,2.970000000000000000e+02,8.210000000000000000e+02,4.990000000000000000e+02,1.660000000000000000e+02,1.000000000000000000e+02,5.900000000000000000e+01,7.600000000000000000e+01,1.499999999999999944e-01,5.824393400000000000e+09
1.220000000000000000e+02,2.980000000000000000e+02,7.930000000000000000e+02,4.380000000000000000e+02,1.650000000000000000e+02,9.900000000000000000e+01,5.800000000000000000e+01,7.800000000000000000e+01,1.499999999999999944e-01,5.842713500000000000e+09
1.360000000000000000e+02,3.230000000000000000e+02,8.620000000000000000e+02,4.970000000000000000e+02,1.700000000000000000e+02,1.040000000000000000e+02,6.100000000000000000e+01,8.200000000000000000e+01,1.499999999999999944e-01,5.864498100000000000e+09
1.260000000000000000e+02,2.700000000000000000e+02,8.090000000000000000e+02,4.640000000000000000e+02,1.490000000000000000e+02,9.600000000000000000e+01,5.400000000000000000e+01,7.700000000000000000e+01,1.600000000000000033e-01,5.886384800000000000e+09
1.150000000000000000e+02,2.350000000000000000e+02,7.000000000000000000e+02,4.440000000000000000e+02,1.330000000000000000e+02,8.700000000000000000e+01,5.200000000000000000e+01,7.000000000000000000e+01,1.799999999999999933e-01,5.904603400000000000e+09
9.900000000000000000e+01,2.370000000000000000e+02,7.360000000000000000e+02,3.600000000000000000e+02,1.140000000000000000e+02,9.000000000000000000e+01,4.800000000000000000e+01,5.900000000000000000e+01,1.900000000000000022e-01,5.923566200000000000e+09
9.400000000000000000e+01,2.340000000000000000e+02,7.610000000000000000e+02,3.770000000000000000e+02,1.100000000000000000e+02,1.000000000000000000e+02,1.260000000000000000e+02,8.400000000000000000e+01,2.099999999999999922e-01,5.942253200000000000e+09
7.200000000000000000e+01,1.840000000000000000e+02,6.550000000000000000e+02,2.980000000000000000e+02,9.200000000000000000e+01,9.700000000000000000e+01,1.310000000000000000e+02,8.500000000000000000e+01,2.300000000000000100e-01,5.964157800000000000e+09
7.500000000000000000e+01,2.010000000000000000e+02,6.970000000000000000e+02,3.180000000000000000e+02,9.700000000000000000e+01,9.900000000000000000e+01,1.340000000000000000e+02,8.500000000000000000e+01,2.500000000000000000e-01,5.986294700000000000e+09
6.800000000000000000e+01,1.990000000000000000e+02,6.700000000000000000e+02,3.150000000000000000e+02,8.400000000000000000e+01,9.000000000000000000e+01,1.360000000000000000e+02,8.400000000000000000e+01,2.700000000000000178e-01,6.005722800000000000e+09
6.200000000000000000e+01,1.640000000000000000e+02,6.120000000000000000e+02,2.900000000000000000e+02,7.500000000000000000e+01,7.500000000000000000e+01,1.370000000000000000e+02,8.500000000000000000e+01,2.899999999999999800e-01,6.024200500000000000e+09
6.700000000000000000e+01,1.460000000000000000e+02,5.660000000000000000e+02,2.580000000000000000e+02,7.300000000000000000e+01,6.200000000000000000e+01,7.600000000000000000e+01,6.200000000000000000e+01,3.200000000000000067e-01,6.042834800000000000e+09
7.100000000000000000e+01,1.640000000000000000e+02,5.960000000000000000e+02,2.300000000000000000e+02,6.800000000000000000e+01,5.900000000000000000e+01,6.500000000000000000e+01,1.160000000000000000e+02,3.400000000000000244e-01,6.064196400000000000e+09
6.800000000000000000e+01,1.420000000000000000e+02,5.300000000000000000e+02,1.860000000000000000e+02,5.700000000000000000e+01,5.400000000000000000e+01,6.400000000000000000e+01,1.210000000000000000e+02,3.699999999999999956e-01,6.086276400000000000e+09
6.600000000000000000e+01,1.330000000000000000e+02,4.630000000000000000e+02,1.970000000000000000e+02,5.400000000000000000e+01,5.300000000000000000e+01,9.300000000000000000e+01,1.200000000000000000e+02,4.000000000000000222e-01,6.104620300000000000e+09
6.200000000000000000e+01,1.160000000000000000e+02,3.990000000000000000e+02,1.950000000000000000e+02,5.500000000000000000e+01,5.500000000000000000e+01,9.200000000000000000e+01,1.190000000000000000e+02,4.199999999999999845e-01,6.123761100000000000e+09
5.300000000000000000e+01,1.230000000000000000e+02,3.840000000000000000e+02,1.960000000000000000e+02,5.600000000000000000e+01,5.500000000000000000e+01,9.300000000000000000e+01,1.170000000000000000e+02,4.400000000000000022e-01,6.142295500000000000e+09
4.700000000000000000e+01,1.040000000000000000e+02,5.450000000000000000e+02,2.160000000000000000e+02,5.300000000000000000e+01,4.700000000000000000e+01,9.200000000000000000e+01,5.900000000000000000e+01,4.699999999999999734e-01,6.168145100000000000e+09
3.600000000000000000e+01,1.370000000000000000e+02,5.730000000000000000e+02,2.260000000000000000e+02,4.200000000000000000e+01,5.100000000000000000e+01,9.000000000000000000e+01,4.300000000000000000e+01,4.899999999999999911e-01,6.186410600000000000e+09
3.600000000000000000e+01,1.380000000000000000e+02,5.730000000000000000e+02,2.140000000000000000e+02,4.200000000000000000e+01,5.100000000000000000e+01,5.100000000000000000e+01,3.900000000000000000e+01,5.000000000000000000e-01,6.204542200000000000e+09
3.500000000000000000e+01,1.400000000000000000e+02,5.700000000000000000e+02,2.200000000000000000e+02,4.200000000000000000e+01,4.900000000000000000e+01,4.700000000000000000e+01,3.500000000000000000e+01,5.200000000000000178e-01,6.223028000000000000e+09
3.300000000000000000e+01,1.340000000000000000e+02,5.720000000000000000e+02,2.180000000000000000e+02,4.200000000000000000e+01,4.600000000000000000e+01,3.800000000000000000e+01,2.800000000000000000e+01,5.400000000000000355e-01,6.241861100000000000e+09
2.700000000000000000e+01,1.400000000000000000e+02,3.660000000000000000e+02,1.950000000000000000e+02,3.900000000000000000e+01,4.500000000000000000e+01,3.600000000000000000e+01,2.500000000000000000e+01,5.500000000000000444e-01,6.264031400000000000e+09
2.700000000000000000e+01,1.170000000000000000e+02,4.260000000000000000e+02,1.300000000000000000e+02,4.600000000000000000e+01,4.100000000000000000e+01,4.000000000000000000e+01,2.900000000000000000e+01,5.600000000000000533e-01,6.286272500000000000e+09
3.900000000000000000e+01,1.230000000000000000e+02,5.120000000000000000e+02,1.670000000000000000e+02,5.200000000000000000e+01,4.700000000000000000e+01,3.900000000000000000e+01,3.300000000000000000e+01,5.699999999999999512e-01,6.304539600000000000e+09
4.500000000000000000e+01,1.270000000000000000e+02,5.290000000000000000e+02,1.770000000000000000e+02,5.000000000000000000e+01,4.600000000000000000e+01,3.800000000000000000e+01,3.700000000000000000e+01,5.799999999999999600e-01,6.326811000000000000e+09
1.220000000000000000e+02,1.310000000000000000e+02,5.260000000000000000e+02,1.770000000000000000e+02,4.900000000000000000e+01,4.800000000000000000e+01,6.100000000000000000e+01,1.130000000000000000e+02,5.899999999999999689e-01,6.347145900000000000e+09
1.490000000000000000e+02,1.210000000000000000e+02,5.270000000000000000e+02,1.850000000000000000e+02,4.600000000000000000e+01,4.500000000000000000e+01,6.200000000000000000e+01,1.250000000000000000e+02,5.999999999999999778e-01,6.369391900000000000e+09
1.660000000000000000e+02,9.700000000000000000e+01,3.820000000000000000e+02,1.880000000000000000e+02,3.900000000000000000e+01,3.900000000000000000e+01,5.700000000000000000e+01,1.260000000000000000e+02,5.999999999999999778e-01,6.388414500000000000e+09
1.650000000000000000e+02,9.600000000000000000e+01,2.610000000000000000e+02,1.490000000000000000e+02,3.400000000000000000e+01,3.100000000000000000e+01,5.700000000000000000e+01,1.260000000000000000e+02,6.099999999999999867e-01,6.406849000000000000e+09
1.700000000000000000e+02,1.180000000000000000e+02,2.520000000000000000e+02,1.630000000000000000e+02,4.200000000000000000e+01,3.700000000000000000e+01,5.800000000000000000e+01,1.250000000000000000e+02,6.099999999999999867e-01,6.425175200000000000e+09
1.470000000000000000e+02,1.230000000000000000e+02,3.200000000000000000e+02,1.700000000000000000e+02,4.200000000000000000e+01,3.600000000000000000e+01,3.400000000000000000e+01,6.800000000000000000e+01,6.099999999999999867e-01,6.443316500000000000e+09
1.270000000000000000e+02,1.200000000000000000e+02,3.160000000000000000e+02,1.600000000000000000e+02,4.400000000000000000e+01,3.800000000000000000e+01,3.200000000000000000e+01,4.600000000000000000e+01,6.099999999999999867e-01,6.467821100000000000e+09
1.030000000000000000e+02,1.190000000000000000e+02,3.000000000000000000e+02,1.430000000000000000e+02,4.200000000000000000e+01,3.700000000000000000e+01,3.100000000000000000e+01,4.100000000000000000e+01,6.199999999999999956e-01,6.486202700000000000e+09
1.020000000000000000e+02,1.140000000000000000e+02,2.830000000000000000e+02,1.430000000000000000e+02,3.900000000000000000e+01,3.500000000000000000e+01,3.000000000000000000e+01,3.900000000000000000e+01,6.199999999999999956e-01,6.504303000000000000e+09
1.040000000000000000e+02,9.100000000000000000e+01,2.670000000000000000e+02,1.300000000000000000e+02,3.300000000000000000e+01,3.300000000000000000e+01,3.300000000000000000e+01,4.400000000000000000e+01,6.199999999999999956e-01,6.522802700000000000e+09
8.000000000000000000e+01,1.330000000000000000e+02,2.250000000000000000e+02,1.400000000000000000e+02,3.100000000000000000e+01,3.300000000000000000e+01,3.300000000000000000e+01,4.100000000000000000e+01,6.199999999999999956e-01,6.541704100000000000e+09
8.900000000000000000e+01,1.340000000000000000e+02,2.270000000000000000e+02,1.470000000000000000e+02,2.900000000000000000e+01,3.400000000000000000e+01,3.200000000000000000e+01,4.800000000000000000e+01,6.199999999999999956e-01,6.563838800000000000e+09
9.700000000000000000e+01,1.340000000000000000e+02,2.270000000000000000e+02,1.490000000000000000e+02,2.900000000000000000e+01,3.400000000000000000e+01,3.600000000000000000e+01,6.800000000000000000e+01,6.199999999999999956e-01,6.586129800000000000e+09
1.010000000000000000e+02,1.380000000000000000e+02,2.340000000000000000e+02,1.460000000000000000e+02,3.000000000000000000e+01,3.500000000000000000e+01,4.000000000000000000e+01,8.000000000000000000e+01,6.199999999999999956e-01,6.604508000000000000e+09
9.400000000000000000e+01,1.450000000000000000e+02,2.220000000000000000e+02,1.270000000000000000e+02,2.900000000000000000e+01,3.200000000000000000e+01,3.900000000000000000e+01,8.000000000000000000e+01,6.199999999999999956e-01,6.622699800000000000e+09
9.400000000000000000e+01,1.490000000000000000e+02,1.650000000000000000e+02,1.560000000000000000e+02,2.700000000000000000e+01,2.900000000000000000e+01,4.100000000000000000e+01,9.800000000000000000e+01,6.300000000000000044e-01,6.641619200000000000e+09
8.200000000000000000e+01,1.560000000000000000e+02,1.870000000000000000e+02,1.640000000000000000e+02,3.100000000000000000e+01,2.900000000000000000e+01,5.900000000000000000e+01,1.300000000000000000e+02,6.300000000000000044e-01,6.663894500000000000e+09
7.200000000000000000e+01,1.550000000000000000e+02,1.780000000000000000e+02,1.730000000000000000e+02,3.200000000000000000e+01,2.900000000000000000e+01,6.500000000000000000e+01,1.510000000000000000e+02,6.300000000000000044e-01,6.686105700000000000e+09
6.400000000000000000e+01,1.530000000000000000e+02,1.580000000000000000e+02,1.730000000000000000e+02,3.200000000000000000e+01,3.200000000000000000e+01,6.900000000000000000e+01,1.610000000000000000e+02,6.300000000000000044e-01,6.704095600000000000e+09
5.500000000000000000e+01,1.480000000000000000e+02,1.610000000000000000e+02,1.740000000000000000e+02,3.100000000000000000e+01,3.200000000000000000e+01,6.900000000000000000e+01,1.640000000000000000e+02,6.300000000000000044e-01,6.723417300000000000e+09
5.600000000000000000e+01,1.210000000000000000e+02,2.800000000000000000e+02,1.900000000000000000e+02,4.300000000000000000e+01,3.900000000000000000e+01,7.500000000000000000e+01,1.590000000000000000e+02,6.300000000000000044e-01,6.742053400000000000e+09
5.500000000000000000e+01,1.180000000000000000e+02,2.900000000000000000e+02,2.380000000000000000e+02,5.700000000000000000e+01,4.100000000000000000e+01,6.100000000000000000e+01,1.330000000000000000e+02,6.300000000000000044e-01,6.763852800000000000e+09
5.900000000000000000e+01,1.260000000000000000e+02,4.800000000000000000e+02,2.490000000000000000e+02,6.000000000000000000e+01,4.400000000000000000e+01,5.500000000000000000e+01,1.010000000000000000e+02,6.300000000000000044e-01,6.786029100000000000e+09
6.100000000000000000e+01,1.240000000000000000e+02,5.500000000000000000e+02,2.510000000000000000e+02,6.000000000000000000e+01,4.300000000000000000e+01,4.700000000000000000e+01,7.600000000000000000e+01,6.300000000000000044e-01,6.804173300000000000e+09
7.100000000000000000e+01,1.240000000000000000e+02,6.630000000000000000e+02,2.910000000000000000e+02,7.100000000000000000e+01,4.900000000000000000e+01,4.800000000000000000e+01,6.900000000000000000e+01,6.300000000000000044e-01,6.822065600000000000e+09
6.400000000000000000e+01,1.010000000000000000e+02,6.430000000000000000e+02,2.610000000000000000e+02,6.400000000000000000e+01,4.400000000000000000e+01,3.800000000000000000e+01,5.600000000000000000e+01,6.300000000000000044e-01,6.843174900000000000e+09
5.700000000000000000e+01,1.010000000000000000e+02,6.720000000000000000e+02,2.830000000000000000e+02,5.600000000000000000e+01,4.200000000000000000e+01,3.600000000000000000e+01,5.100000000000000000e+01,6.300000000000000044e-01,6.863794000000000000e+09
5.300000000000000000e+01,9.900000000000000000e+01,5.690000000000000000e+02,2.810000000000000000e+02,5.500000000000000000e+01,4.100000000000000000e+01,3.400000000000000000e+01,4.100000000000000000e+01,6.300000000000000044e-01,6.885951600000000000e+09
5.000000000000000000e+01,9.500000000000000000e+01,5.370000000000000000e+02,2.810000000000000000e+02,5.600000000000000000e+01,4.100000000000000000e+01,3.300000000000000000e+01,3.900000000000000000e+01,6.300000000000000044e-01,6.908959400000000000e+09
3.300000000000000000e+01,8.500000000000000000e+01,4.410000000000000000e+02,2.420000000000000000e+02,4.200000000000000000e+01,3.200000000000000000e+01,2.800000000000000000e+01,3.300000000000000000e+01,6.400000000000000133e-01,6.931821400000000000e+09
3.800000000000000000e+01,1.030000000000000000e+02,5.490000000000000000e+02,2.710000000000000000e+02,4.700000000000000000e+01,3.700000000000000000e+01,2.700000000000000000e+01,3.300000000000000000e+01,6.400000000000000133e-01,6.949528700000000000e+09
3.700000000000000000e+01,9.900000000000000000e+01,6.060000000000000000e+02,1.990000000000000000e+02,4.000000000000000000e+01,3.300000000000000000e+01,2.700000000000000000e+01,3.200000000000000000e+01,6.400000000000000133e-01,6.967539400000000000e+09
3.600000000000000000e+01,8.500000000000000000e+01,6.690000000000000000e+02,2.030000000000000000e+02,3.600000000000000000e+01,3.400000000000000000e+01,2.600000000000000000e+01,3.000000000000000000e+01,6.400000000000000133e-01,6.986224300000000000e+09
3.600000000000000000e+01,8.600000000000000000e+01,6.640000000000000000e+02,1.990000000000000000e+02,3.500000000000000000e+01,3.200000000000000000e+01,2.600000000000000000e+01,3.200000000000000000e+01,6.400000000000000133e-01,7.004343200000000000e+09
3.600000000000000000e+01,8.800000000000000000e+01,6.620000000000000000e+02,1.930000000000000000e+02,3.300000000000000000e+01,3.300000000000000000e+01,2.700000000000000000e+01,3.100000000000000000e+01,6.400000000000000133e-01,7.025924200000000000e+09
3.700000000000000000e+01,6.700000000000000000e+01,6.060000000000000000e+02,1.560000000000000000e+02,2.900000000000000000e+01,4.200000000000000000e+01,8.400000000000000000e+01,5.900000000000000000e+01,6.400000000000000133e-01,7.044028400000000000e+09
3.600000000000000000e+01,7.300000000000000000e+01,6.060000000000000000e+02,1.950000000000000000e+02,3.200000000000000000e+01,5.300000000000000000e+01,9.100000000000000000e+01,8.100000000000000000e+01,6.500000000000000222e-01,7.062026100000000000e+09
4.400000000000000000e+01,8.900000000000000000e+01,5.660000000000000000e+02,1.960000000000000000e+02,3.400000000000000000e+01,5.200000000000000000e+01,9.200000000000000000e+01,1.460000000000000000e+02,6.500000000000000222e-01,7.081567800000000000e+09
5.000000000000000000e+01,9.200000000000000000e+01,5.530000000000000000e+02,1.970000000000000000e+02,3.400000000000000000e+01,5.200000000000000000e+01,9.300000000000000000e+01,1.520000000000000000e+02,6.500000000000000222e-01,7.104830300000000000e+09
5.200000000000000000e+01,9.600000000000000000e+01,5.300000000000000000e+02,2.130000000000000000e+02,3.600000000000000000e+01,6.200000000000000000e+01,9.600000000000000000e+01,1.720000000000000000e+02,6.500000000000000222e-01,7.127924800000000000e+09
6.500000000000000000e+01,1.030000000000000000e+02,5.160000000000000000e+02,2.120000000000000000e+02,4.300000000000000000e+01,5.900000000000000000e+01,1.150000000000000000e+02,2.250000000000000000e+02,6.500000000000000222e-01,7.146768900000000000e+09
7.300000000000000000e+01,9.600000000000000000e+01,5.110000000000000000e+02,1.690000000000000000e+02,4.300000000000000000e+01,5.400000000000000000e+01,1.160000000000000000e+02,2.460000000000000000e+02,6.400000000000000133e-01,7.165590100000000000e+09
7.100000000000000000e+01,8.400000000000000000e+01,4.840000000000000000e+02,1.710000000000000000e+02,4.200000000000000000e+01,5.400000000000000000e+01,1.180000000000000000e+02,2.240000000000000000e+02,6.400000000000000133e-01,7.187715000000000000e+09
7.700000000000000000e+01,9.200000000000000000e+01,5.390000000000000000e+02,1.730000000000000000e+02,4.400000000000000000e+01,5.900000000000000000e+01,1.180000000000000000e+02,2.320000000000000000e+02,6.300000000000000044e-01,7.206156200000000000e+09
7.800000000000000000e+01,9.200000000000000000e+01,5.780000000000000000e+02,1.490000000000000000e+02,4.200000000000000000e+01,5.300000000000000000e+01,1.200000000000000000e+02,2.220000000000000000e+02,6.199999999999999956e-01,7.225652700000000000e+09
7.700000000000000000e+01,7.900000000000000000e+01,5.760000000000000000e+02,1.500000000000000000e+02,3.300000000000000000e+01,6.300000000000000000e+01,1.210000000000000000e+02,2.190000000000000000e+02,6.199999999999999956e-01,7.248471600000000000e+09
7.500000000000000000e+01,1.320000000000000000e+02,4.920000000000000000e+02,1.480000000000000000e+02,3.000000000000000000e+01,6.300000000000000000e+01,1.300000000000000000e+02,1.890000000000000000e+02,6.199999999999999956e-01,7.269026400000000000e+09
7.600000000000000000e+01,1.640000000000000000e+02,4.840000000000000000e+02,1.120000000000000000e+02,3.100000000000000000e+01,6.400000000000000000e+01,1.330000000000000000e+02,2.140000000000000000e+02,6.099999999999999867e-01,7.287427800000000000e+09
7.600000000000000000e+01,1.630000000000000000e+02,5.170000000000000000e+02,1.450000000000000000e+02,3.500000000000000000e+01,6.200000000000000000e+01,1.340000000000000000e+02,2.140000000000000000e+02,5.999999999999999778e-01,7.306335400000000000e+09
7.700000000000000000e+01,1.640000000000000000e+02,4.810000000000000000e+02,1.500000000000000000e+02,3.600000000000000000e+01,6.300000000000000000e+01,1.330000000000000000e+02,2.300000000000000000e+02,5.899999999999999689e-01,7.329500600000000000e+09
6.700000000000000000e+01,1.670000000000000000e+02,4.690000000000000000e+02,1.530000000000000000e+02,3.900000000000000000e+01,4.900000000000000000e+01,8.800000000000000000e+01,1.810000000000000000e+02,5.899999999999999689e-01,7.348973500000000000e+09
6.600000000000000000e+01,1.430000000000000000e+02,5.230000000000000000e+02,1.710000000000000000e+02,4.100000000000000000e+01,4.500000000000000000e+01,6.700000000000000000e+01,2.020000000000000000e+02,5.799999999999999600e-01,7.367419900000000000e+09
6.300000000000000000e+01,1.070000000000000000e+02,5.450000000000000000e+02,1.750000000000000000e+02,3.900000000000000000e+01,4.300000000000000000e+01,5.500000000000000000e+01,1.770000000000000000e+02,5.799999999999999600e-01,7.386887900000000000e+09
6.000000000000000000e+01,1.110000000000000000e+02,4.710000000000000000e+02,1.550000000000000000e+02,3.300000000000000000e+01,3.900000000000000000e+01,5.000000000000000000e+01,1.710000000000000000e+02,5.799999999999999600e-01,7.406072700000000000e+09
5.600000000000000000e+01,1.120000000000000000e+02,5.120000000000000000e+02,1.790000000000000000e+02,3.600000000000000000e+01,3.400000000000000000e+01,4.600000000000000000e+01,1.470000000000000000e+02,5.799999999999999600e-01,7.424217900000000000e+09
5.500000000000000000e+01,1.140000000000000000e+02,5.210000000000000000e+02,1.640000000000000000e+02,3.500000000000000000e+01,3.300000000000000000e+01,3.400000000000000000e+01,1.410000000000000000e+02,5.899999999999999689e-01,7.442171500000000000e+09
5.000000000000000000e+01,1.070000000000000000e+02,5.280000000000000000e+02,1.660000000000000000e+02,3.500000000000000000e+01,3.300000000000000000e+01,3.100000000000000000e+01,1.250000000000000000e+02,5.899999999999999689e-01,7.464828500000000000e+09
5.200000000000000000e+01,1.050000000000000000e+02,5.110000000000000000e+02,1.650000000000000000e+02,3.400000000000000000e+01,3.200000000000000000e+01,3.000000000000000000e+01,1.200000000000000000e+02,5.899999999999999689e-01,7.484222300000000000e+09
4.200000000000000000e+01,9.000000000000000000e+01,4.940000000000000000e+02,1.650000000000000000e+02,3.400000000000000000e+01,3.200000000000000000e+01,3.100000000000000000e+01,1.090000000000000000e+02,5.899999999999999689e-01,7.506836300000000000e+09
5.400000000000000000e+01,1.000000000000000000e+02,4.690000000000000000e+02,1.720000000000000000e+02,3.900000000000000000e+01,3.500000000000000000e+01,2.900000000000000000e+01,1.060000000000000000e+02,5.999999999999999778e-01,7.525917600000000000e+09
5.200000000000000000e+01,9.200000000000000000e+01,6.490000000000000000e+02,1.930000000000000000e+02,3.900000000000000000e+01,3.400000000000000000e+01,2.900000000000000000e+01,1.040000000000000000e+02,5.999999999999999778e-01,7.548243900000000000e+09
5.000000000000000000e+01,8.200000000000000000e+01,6.010000000000000000e+02,2.130000000000000000e+02,4.400000000000000000e+01,3.600000000000000000e+01,2.700000000000000000e+01,8.000000000000000000e+01,5.999999999999999778e-01,7.567438700000000000e+09
5.300000000000000000e+01,9.900000000000000000e+01,6.910000000000000000e+02,2.520000000000000000e+02,4.900000000000000000e+01,3.700000000000000000e+01,2.700000000000000000e+01,5.400000000000000000e+01,5.999999999999999778e-01,7.585632100000000000e+09
5.900000000000000000e+01,1.040000000000000000e+02,7.290000000000000000e+02,3.120000000000000000e+02,5.200000000000000000e+01,3.800000000000000000e+01,2.700000000000000000e+01,4.600000000000000000e+01,6.099999999999999867e-01,7.606479600000000000e+09
5.200000000000000000e+01,9.000000000000000000e+01,7.810000000000000000e+02,3.240000000000000000e+02,4.900000000000000000e+01,3.500000000000000000e+01,2.600000000000000000e+01,3.900000000000000000e+01,6.099999999999999867e-01,7.624907300000000000e+09
5.600000000000000000e+01,1.000000000000000000e+02,6.590000000000000000e+02,3.390000000000000000e+02,5.100000000000000000e+01,3.500000000000000000e+01,2.900000000000000000e+01,3.900000000000000000e+01,6.199999999999999956e-01,7.651708100000000000e+09
5.800000000000000000e+01,1.140000000000000000e+02,6.680000000000000000e+02,3.470000000000000000e+02,5.100000000000000000e+01,3.800000000000000000e+01,2.800000000000000000e+01,3.500000000000000000e+01,6.199999999999999956e-01,7.669741500000000000e+09
5.600000000000000000e+01,1.070000000000000000e+02,6.420000000000000000e+02,3.430000000000000000e+02,5.300000000000000000e+01,4.400000000000000000e+01,2.900000000000000000e+01,3.400000000000000000e+01,6.300000000000000044e-01,7.688007800000000000e+09
6.100000000000000000e+01,1.300000000000000000e+02,7.190000000000000000e+02,4.080000000000000000e+02,6.500000000000000000e+01,5.100000000000000000e+01,2.900000000000000000e+01,3.900000000000000000e+01,6.300000000000000044e-01,7.706694400000000000e+09
6.900000000000000000e+01,1.530000000000000000e+02,7.970000000000000000e+02,5.050000000000000000e+02,7.600000000000000000e+01,5.900000000000000000e+01,3.700000000000000000e+01,4.500000000000000000e+01,6.300000000000000044e-01,7.724773900000000000e+09
7.100000000000000000e+01,1.620000000000000000e+02,9.170000000000000000e+02,5.540000000000000000e+02,8.600000000000000000e+01,6.600000000000000000e+01,3.800000000000000000e+01,4.700000000000000000e+01,6.300000000000000044e-01,7.743271600000000000e+09
7.900000000000000000e+01,1.850000000000000000e+02,9.940000000000000000e+02,6.200000000000000000e+02,9.300000000000000000e+01,6.700000000000000000e+01,4.200000000000000000e+01,5.000000000000000000e+01,6.199999999999999956e-01,7.763532900000000000e+09
1.040000000000000000e+02,2.390000000000000000e+02,1.038000000000000000e+03,7.470000000000000000e+02,1.280000000000000000e+02,8.300000000000000000e+01,5.000000000000000000e+01,6.500000000000000000e+01,6.199999999999999956e-01,7.784247600000000000e+09
1.470000000000000000e+02,3.110000000000000000e+02,1.087000000000000000e+03,8.810000000000000000e+02,1.890000000000000000e+02,1.260000000000000000e+02,7.300000000000000000e+01,9.200000000000000000e+01,5.999999999999999778e-01,7.806384700000000000e+09
1.830000000000000000e+02,4.060000000000000000e+02,1.203000000000000000e+03,9.700000000000000000e+02,2.460000000000000000e+02,1.540000000000000000e+02,8.800000000000000000e+01,1.120000000000000000e+02,5.799999999999999600e-01,7.825305700000000000e+09
2.120000000000000000e+02,4.840000000000000000e+02,1.168000000000000000e+03,1.072000000000000000e+03,2.760000000000000000e+02,1.740000000000000000e+02,9.900000000000000000e+01,1.290000000000000000e+02,5.600000000000000533e-01,7.843737400000000000e+09
2.370000000000000000e+02,5.520000000000000000e+02,1.145000000000000000e+03,1.067000000000000000e+03,3.010000000000000000e+02,1.850000000000000000e+02,1.100000000000000000e+02,1.450000000000000000e+02,5.400000000000000355e-01,7.863094200000000000e+09
2.320000000000000000e+02,5.490000000000000000e+02,1.301000000000000000e+03,1.077000000000000000e+03,3.020000000000000000e+02,1.840000000000000000e+02,1.130000000000000000e+02,1.440000000000000000e+02,5.100000000000000089e-01,7.885399200000000000e+09
2.540000000000000000e+02,5.900000000000000000e+02,1.372000000000000000e+03,1.034000000000000000e+03,3.310000000000000000e+02,2.050000000000000000e+02,1.180000000000000000e+02,1.530000000000000000e+02,4.899999999999999911e-01,7.906401500000000000e+09
2.490000000000000000e+02,5.920000000000000000e+02,1.236000000000000000e+03,9.340000000000000000e+02,3.050000000000000000e+02,1.950000000000000000e+02,1.150000000000000000e+02,1.490000000000000000e+02,4.600000000000000200e-01,7.924769900000000000e+09
2.390000000000000000e+02,5.500000000000000000e+02,1.234000000000000000e+03,8.440000000000000000e+02,3.040000000000000000e+02,1.870000000000000000e+02,1.090000000000000000e+02,1.440000000000000000e+02,4.299999999999999933e-01,7.943845800000000000e+09
2.260000000000000000e+02,5.200000000000000000e+02,1.303000000000000000e+03,8.940000000000000000e+02,2.910000000000000000e+02,1.900000000000000000e+02,1.030000000000000000e+02,1.340000000000000000e+02,4.000000000000000222e-01,7.964754800000000000e+09
2.460000000000000000e+02,5.390000000000000000e+02,1.137000000000000000e+03,9.160000000000000000e+02,3.100000000000000000e+02,1.980000000000000000e+02,1.060000000000000000e+02,1.430000000000000000e+02,3.699999999999999956e-01,7.984067300000000000e+09
2.000000000000000000e+02,4.610000000000000000e+02,1.102000000000000000e+03,8.800000000000000000e+02,2.640000000000000000e+02,1.610000000000000000e+02,8.900000000000000000e+01,1.180000000000000000e+02,3.499999999999999778e-01,8.006224700000000000e+09
1.970000000000000000e+02,3.980000000000000000e+02,1.113000000000000000e+03,9.040000000000000000e+02,2.770000000000000000e+02,1.700000000000000000e+02,8.200000000000000000e+01,1.160000000000000000e+02,3.300000000000000155e-01,8.026543300000000000e+09
1.870000000000000000e+02,4.020000000000000000e+02,1.092000000000000000e+03,9.140000000000000000e+02,2.690000000000000000e+02,1.810000000000000000e+02,8.300000000000000000e+01,1.100000000000000000e+02,3.099999999999999978e-01,8.045379000000000000e+09
1.780000000000000000e+02,3.670000000000000000e+02,1.055000000000000000e+03,8.920000000000000000e+02,2.800000000000000000e+02,1.940000000000000000e+02,9.100000000000000000e+01,1.080000000000000000e+02,2.999999999999999889e-01,8.065307100000000000e+09
1.500000000000000000e+02,3.300000000000000000e+02,1.057000000000000000e+03,9.000000000000000000e+02,2.620000000000000000e+02,1.950000000000000000e+02,8.300000000000000000e+01,9.500000000000000000e+01,2.899999999999999800e-01,8.087396500000000000e+09
1.570000000000000000e+02,3.620000000000000000e+02,9.150000000000000000e+02,8.840000000000000000e+02,2.480000000000000000e+02,1.930000000000000000e+02,8.500000000000000000e+01,9.900000000000000000e+01,2.800000000000000266e-01,8.107479800000000000e+09
1.390000000000000000e+02,3.750000000000000000e+02,9.430000000000000000e+02,8.820000000000000000e+02,2.270000000000000000e+02,1.810000000000000000e+02,8.600000000000000000e+01,9.200000000000000000e+01,2.700000000000000178e-01,8.131895200000000000e+09
1.410000000000000000e+02,3.650000000000000000e+02,9.780000000000000000e+02,8.350000000000000000e+02,2.150000000000000000e+02,1.680000000000000000e+02,8.200000000000000000e+01,9.000000000000000000e+01,2.700000000000000178e-01,8.151841900000000000e+09
1.510000000000000000e+02,3.520000000000000000e+02,9.430000000000000000e+02,8.240000000000000000e+02,2.200000000000000000e+02,1.590000000000000000e+02,8.000000000000000000e+01,9.400000000000000000e+01,2.600000000000000089e-01,8.169721200000000000e+09
1.530000000000000000e+02,3.350000000000000000e+02,9.500000000000000000e+02,7.240000000000000000e+02,2.200000000000000000e+02,1.450000000000000000e+02,8.800000000000000000e+01,9.700000000000000000e+01,2.600000000000000089e-01,8.187872800000000000e+09
1.460000000000000000e+02,3.260000000000000000e+02,1.047000000000000000e+03,6.760000000000000000e+02,2.160000000000000000e+02,1.380000000000000000e+02,8.700000000000000000e+01,9.300000000000000000e+01,2.500000000000000000e-01,8.215328800000000000e+09
1.460000000000000000e+02,3.280000000000000000e+02,1.078000000000000000e+03,6.860000000000000000e+02,2.270000000000000000e+02,1.360000000000000000e+02,8.600000000000000000e+01,9.200000000000000000e+01,2.500000000000000000e-01,8.233857100000000000e+09
1.550000000000000000e+02,3.460000000000000000e+02,1.056000000000000000e+03,7.160000000000000000e+02,2.370000000000000000e+02,1.430000000000000000e+02,9.200000000000000000e+01,9.500000000000000000e+01,2.399999999999999911e-01,8.251844900000000000e+09
1.850000000000000000e+02,4.440000000000000000e+02,1.077000000000000000e+03,7.300000000000000000e+02,2.700000000000000000e+02,1.620000000000000000e+02,9.700000000000000000e+01,1.090000000000000000e+02,2.399999999999999911e-01,8.270448000000000000e+09
1.800000000000000000e+02,4.570000000000000000e+02,1.026000000000000000e+03,6.880000000000000000e+02,2.680000000000000000e+02,1.620000000000000000e+02,9.400000000000000000e+01,1.030000000000000000e+02,2.300000000000000100e-01,8.289383000000000000e+09
1.790000000000000000e+02,4.340000000000000000e+02,9.720000000000000000e+02,6.700000000000000000e+02,2.660000000000000000e+02,1.620000000000000000e+02,9.000000000000000000e+01,1.040000000000000000e+02,2.200000000000000011e-01,8.312071300000000000e+09
1.740000000000000000e+02,4.110000000000000000e+02,9.440000000000000000e+02,6.070000000000000000e+02,2.570000000000000000e+02,1.560000000000000000e+02,9.800000000000000000e+01,1.010000000000000000e+02,2.099999999999999922e-01,8.330910500000000000e+09
1.910000000000000000e+02,4.420000000000000000e+02,9.720000000000000000e+02,6.020000000000000000e+02,2.820000000000000000e+02,1.640000000000000000e+02,9.800000000000000000e+01,1.130000000000000000e+02,2.000000000000000111e-01,8.350109500000000000e+09
1.510000000000000000e+02,3.520000000000000000e+02,9.840000000000000000e+02,5.540000000000000000e+02,2.350000000000000000e+02,1.290000000000000000e+02,8.500000000000000000e+01,9.400000000000000000e+01,1.900000000000000022e-01,8.369227400000000000e+09
1.580000000000000000e+02,3.530000000000000000e+02,1.009000000000000000e+03,5.820000000000000000e+02,2.320000000000000000e+02,1.320000000000000000e+02,8.100000000000000000e+01,9.600000000000000000e+01,1.799999999999999933e-01,8.388489700000000000e+09
1.690000000000000000e+02,3.710000000000000000e+02,1.095000000000000000e+03,6.900000000000000000e+02,2.520000000000000000e+02,1.370000000000000000e+02,9.000000000000000000e+01,1.060000000000000000e+02,1.799999999999999933e-01,8.406430900000000000e+09
2.010000000000000000e+02,4.360000000000000000e+02,1.092000000000000000e+03,6.890000000000000000e+02,2.760000000000000000e+02,1.580000000000000000e+02,9.100000000000000000e+01,1.220000000000000000e+02,1.700000000000000122e-01,8.425431000000000000e+09
1.740000000000000000e+02,3.800000000000000000e+02,1.050000000000000000e+03,6.400000000000000000e+02,2.390000000000000000e+02,1.370000000000000000e+02,8.400000000000000000e+01,1.080000000000000000e+02,1.600000000000000033e-01,8.446924400000000000e+09
1.680000000000000000e+02,3.590000000000000000e+02,9.760000000000000000e+02,5.980000000000000000e+02,2.250000000000000000e+02,1.280000000000000000e+02,8.100000000000000000e+01,1.020000000000000000e+02,1.600000000000000033e-01,8.465782400000000000e+09
1.950000000000000000e+02,4.090000000000000000e+02,1.080000000000000000e+03,5.870000000000000000e+02,2.530000000000000000e+02,1.560000000000000000e+02,8.900000000000000000e+01,1.160000000000000000e+02,1.499999999999999944e-01,8.484084000000000000e+09
1.840000000000000000e+02,3.950000000000000000e+02,9.500000000000000000e+02,4.660000000000000000e+02,2.300000000000000000e+02,1.510000000000000000e+02,7.900000000000000000e+01,1.060000000000000000e+02,1.499999999999999944e-01,8.506602500000000000e+09
1.410000000000000000e+02,3.080000000000000000e+02,8.830000000000000000e+02,5.200000000000000000e+02,1.920000000000000000e+02,1.260000000000000000e+02,6.300000000000000000e+01,8.200000000000000000e+01,1.499999999999999944e-01,8.524975800000000000e+09
1.410000000000000000e+02,2.960000000000000000e+02,9.180000000000000000e+02,5.440000000000000000e+02,1.860000000000000000e+02,1.250000000000000000e+02,6.300000000000000000e+01,8.100000000000000000e+01,1.499999999999999944e-01,8.546869000000000000e+09
1.390000000000000000e+02,3.030000000000000000e+02,9.230000000000000000e+02,5.520000000000000000e+02,1.840000000000000000e+02,1.240000000000000000e+02,6.100000000000000000e+01,8.100000000000000000e+01,1.499999999999999944e-01,8.574309300000000000e+09
9.200000000000000000e+01,2.580000000000000000e+02,7.710000000000000000e+02,5.300000000000000000e+02,1.300000000000000000e+02,8.200000000000000000e+01,4.800000000000000000e+01,5.700000000000000000e+01,1.700000000000000122e-01,8.592415700000000000e+09
9.000000000000000000e+01,2.480000000000000000e+02,7.100000000000000000e+02,5.090000000000000000e+02,1.260000000000000000e+02,8.100000000000000000e+01,5.200000000000000000e+01,5.800000000000000000e+01,1.799999999999999933e-01,8.611571700000000000e+09
8.700000000000000000e+01,2.410000000000000000e+02,6.920000000000000000e+02,4.160000000000000000e+02,1.150000000000000000e+02,8.000000000000000000e+01,5.000000000000000000e+01,5.500000000000000000e+01,1.900000000000000022e-01,8.629361300000000000e+09
8.200000000000000000e+01,2.360000000000000000e+02,6.370000000000000000e+02,4.330000000000000000e+02,1.130000000000000000e+02,7.400000000000000000e+01,5.300000000000000000e+01,5.400000000000000000e+01,2.099999999999999922e-01,8.647823100000000000e+09
8.400000000000000000e+01,2.240000000000000000e+02,6.390000000000000000e+02,4.230000000000000000e+02,1.150000000000000000e+02,7.700000000000000000e+01,5.400000000000000000e+01,5.600000000000000000e+01,2.300000000000000100e-01,8.666112300000000000e+09
6.400000000000000000e+01,1.490000000000000000e+02,6.120000000000000000e+02,3.650000000000000000e+02,9.700000000000000000e+01,6.800000000000000000e+01,4.700000000000000000e+01,4.600000000000000000e+01,2.500000000000000000e-01,8.686722400000000000e+09
6.100000000000000000e+01,1.310000000000000000e+02,6.070000000000000000e+02,3.470000000000000000e+02,9.000000000000000000e+01,6.700000000000000000e+01,4.400000000000000000e+01,4.800000000000000000e+01,2.700000000000000178e-01,8.708740300000000000e+09
6.400000000000000000e+01,1.300000000000000000e+02,5.560000000000000000e+02,3.340000000000000000e+02,8.800000000000000000e+01,6.900000000000000000e+01,4.400000000000000000e+01,4.900000000000000000e+01,2.999999999999999889e-01,8.726899100000000000e+09
5.600000000000000000e+01,1.140000000000000000e+02,5.380000000000000000e+02,2.250000000000000000e+02,6.800000000000000000e+01,6.800000000000000000e+01,3.900000000000000000e+01,4.300000000000000000e+01,3.300000000000000155e-01,8.746765600000000000e+09
5.100000000000000000e+01,1.020000000000000000e+02,4.560000000000000000e+02,1.640000000000000000e+02,5.100000000000000000e+01,6.200000000000000000e+01,3.700000000000000000e+01,3.800000000000000000e+01,3.599999999999999867e-01,8.766374500000000000e+09
5.200000000000000000e+01,9.900000000000000000e+01,4.300000000000000000e+02,1.560000000000000000e+02,5.100000000000000000e+01,6.000000000000000000e+01,3.700000000000000000e+01,4.800000000000000000e+01,3.900000000000000133e-01,8.784516000000000000e+09
4.800000000000000000e+01,9.700000000000000000e+01,4.290000000000000000e+02,1.540000000000000000e+02,5.200000000000000000e+01,5.000000000000000000e+01,3.400000000000000000e+01,4.300000000000000000e+01,4.099999999999999756e-01,8.807633400000000000e+09
4.000000000000000000e+01,9.000000000000000000e+01,3.980000000000000000e+02,1.320000000000000000e+02,5.000000000000000000e+01,4.700000000000000000e+01,3.100000000000000000e+01,4.000000000000000000e+01,4.299999999999999933e-01,8.826815300000000000e+09
3.100000000000000000e+01,9.900000000000000000e+01,3.030000000000000000e+02,1.470000000000000000e+02,4.600000000000000000e+01,4.500000000000000000e+01,3.200000000000000000e+01,3.800000000000000000e+01,4.500000000000000111e-01,8.846883300000000000e+09
4.600000000000000000e+01,1.620000000000000000e+02,4.150000000000000000e+02,1.540000000000000000e+02,6.000000000000000000e+01,5.100000000000000000e+01,3.400000000000000000e+01,4.300000000000000000e+01,4.699999999999999734e-01,8.866406500000000000e+09
4.500000000000000000e+01,1.680000000000000000e+02,4.030000000000000000e+02,2.180000000000000000e+02,6.500000000000000000e+01,5.200000000000000000e+01,3.500000000000000000e+01,3.200000000000000000e+01,4.899999999999999911e-01,8.884896100000000000e+09
4.500000000000000000e+01,1.670000000000000000e+02,3.960000000000000000e+02,2.210000000000000000e+02,6.100000000000000000e+01,5.100000000000000000e+01,3.600000000000000000e+01,3.200000000000000000e+01,5.100000000000000089e-01,8.905235200000000000e+09
4.600000000000000000e+01,1.680000000000000000e+02,3.930000000000000000e+02,2.210000000000000000e+02,6.100000000000000000e+01,4.800000000000000000e+01,3.500000000000000000e+01,3.200000000000000000e+01,5.200000000000000178e-01,8.926877800000000000e+09
4.800000000000000000e+01,1.640000000000000000e+02,3.860000000000000000e+02,2.060000000000000000e+02,6.100000000000000000e+01,4.600000000000000000e+01,3.400000000000000000e+01,3.200000000000000000e+01,5.400000000000000355e-01,8.949184300000000000e+09
4.100000000000000000e+01,1.270000000000000000e+02,3.770000000000000000e+02,2.080000000000000000e+02,4.800000000000000000e+01,5.500000000000000000e+01,2.900000000000000000e+01,3.300000000000000000e+01,5.500000000000000444e-01,8.967143200000000000e+09
4.900000000000000000e+01,1.250000000000000000e+02,4.340000000000000000e+02,2.260000000000000000e+02,4.900000000000000000e+01,5.500000000000000000e+01,3.300000000000000000e+01,3.700000000000000000e+01,5.699999999999999512e-01,8.986491400000000000e+09
5.200000000000000000e+01,1.320000000000000000e+02,4.810000000000000000e+02,2.440000000000000000e+02,5.300000000000000000e+01,5.500000000000000000e+01,3.400000000000000000e+01,3.800000000000000000e+01,5.799999999999999600e-01,9.008376300000000000e+09
5.100000000000000000e+01,1.300000000000000000e+02,4.850000000000000000e+02,2.440000000000000000e+02,5.200000000000000000e+01,5.400000000000000000e+01,3.400000000000000000e+01,3.900000000000000000e+01,5.899999999999999689e-01,9.032269000000000000e+09
5.300000000000000000e+01,1.300000000000000000e+02,5.210000000000000000e+02,2.710000000000000000e+02,5.400000000000000000e+01,5.300000000000000000e+01,3.400000000000000000e+01,4.300000000000000000e+01,5.999999999999999778e-01,9.051256600000000000e+09
4.900000000000000000e+01,1.090000000000000000e+02,4.570000000000000000e+02,2.690000000000000000e+02,5.700000000000000000e+01,4.200000000000000000e+01,3.500000000000000000e+01,4.700000000000000000e+01,6.099999999999999867e-01,9.069963900000000000e+09
4.400000000000000000e+01,9.400000000000000000e+01,4.480000000000000000e+02,2.080000000000000000e+02,4.400000000000000000e+01,4.000000000000000000e+01,3.100000000000000000e+01,4.600000000000000000e+01,6.199999999999999956e-01,9.088345500000000000e+09
4.100000000000000000e+01,8.100000000000000000e+01,4.260000000000000000e+02,1.940000000000000000e+02,4.300000000000000000e+01,4.900000000000000000e+01,8.700000000000000000e+01,4.800000000000000000e+01,6.199999999999999956e-01,9.106726800000000000e+09
4.300000000000000000e+01,8.900000000000000000e+01,4.720000000000000000e+02,2.160000000000000000e+02,5.000000000000000000e+01,7.300000000000000000e+01,9.900000000000000000e+01,5.300000000000000000e+01,6.300000000000000044e-01,9.130043500000000000e+09
4.200000000000000000e+01,7.300000000000000000e+01,5.410000000000000000e+02,1.860000000000000000e+02,5.100000000000000000e+01,8.400000000000000000e+01,1.030000000000000000e+02,8.100000000000000000e+01,6.400000000000000133e-01,9.148528800000000000e+09
4.800000000000000000e+01,8.200000000000000000e+01,5.530000000000000000e+02,1.880000000000000000e+02,5.100000000000000000e+01,1.030000000000000000e+02,1.070000000000000000e+02,1.230000000000000000e+02,6.400000000000000133e-01,9.166400300000000000e+09
5.100000000000000000e+01,8.500000000000000000e+01,5.730000000000000000e+02,2.070000000000000000e+02,5.600000000000000000e+01,1.110000000000000000e+02,1.470000000000000000e+02,1.370000000000000000e+02,6.500000000000000222e-01,9.189194900000000000e+09
5.500000000000000000e+01,9.000000000000000000e+01,5.610000000000000000e+02,1.940000000000000000e+02,5.600000000000000000e+01,1.160000000000000000e+02,1.360000000000000000e+02,1.380000000000000000e+02,6.500000000000000222e-01,9.212264400000000000e+09
5.900000000000000000e+01,7.900000000000000000e+01,5.620000000000000000e+02,1.730000000000000000e+02,5.200000000000000000e+01,1.180000000000000000e+02,1.390000000000000000e+02,1.420000000000000000e+02,6.500000000000000222e-01,9.235177200000000000e+09
6.500000000000000000e+01,9.700000000000000000e+01,4.500000000000000000e+02,1.750000000000000000e+02,5.400000000000000000e+01,1.140000000000000000e+02,1.390000000000000000e+02,1.300000000000000000e+02,6.500000000000000222e-01,9.254142900000000000e+09
6.400000000000000000e+01,1.040000000000000000e+02,4.200000000000000000e+02,1.580000000000000000e+02,5.300000000000000000e+01,9.800000000000000000e+01,1.370000000000000000e+02,8.700000000000000000e+01,6.500000000000000222e-01,9.272385700000000000e+09
6.100000000000000000e+01,1.300000000000000000e+02,3.810000000000000000e+02,1.240000000000000000e+02,5.000000000000000000e+01,9.000000000000000000e+01,9.700000000000000000e+01,6.400000000000000000e+01,6.500000000000000222e-01,9.290754500000000000e+09
5.800000000000000000e+01,1.340000000000000000e+02,3.670000000000000000e+02,1.250000000000000000e+02,4.800000000000000000e+01,8.700000000000000000e+01,7.800000000000000000e+01,6.000000000000000000e+01,6.500000000000000222e-01,9.309524100000000000e+09
5.700000000000000000e+01,1.350000000000000000e+02,3.510000000000000000e+02,1.230000000000000000e+02,4.500000000000000000e+01,6.600000000000000000e+01,5.600000000000000000e+01,5.000000000000000000e+01,6.500000000000000222e-01,9.328962800000000000e+09
4.900000000000000000e+01,1.270000000000000000e+02,4.050000000000000000e+02,1.610000000000000000e+02,4.200000000000000000e+01,5.800000000000000000e+01,4.700000000000000000e+01,4.300000000000000000e+01,6.400000000000000133e-01,9.348469500000000000e+09
4.500000000000000000e+01,1.120000000000000000e+02,4.420000000000000000e+02,1.510000000000000000e+02,3.600000000000000000e+01,5.300000000000000000e+01,4.500000000000000000e+01,4.200000000000000000e+01,6.400000000000000133e-01,9.369041900000000000e+09
4.100000000000000000e+01,8.200000000000000000e+01,4.340000000000000000e+02,1.490000000000000000e+02,3.300000000000000000e+01,4.800000000000000000e+01,3.400000000000000000e+01,3.700000000000000000e+01,6.400000000000000133e-01,9.387472200000000000e+09
4.200000000000000000e+01,7.000000000000000000e+01,4.770000000000000000e+02,1.650000000000000000e+02,3.700000000000000000e+01,3.400000000000000000e+01,3.300000000000000000e+01,4.000000000000000000e+01,6.400000000000000133e-01,9.407262500000000000e+09
3.600000000000000000e+01,7.300000000000000000e+01,4.480000000000000000e+02,1.750000000000000000e+02,3.800000000000000000e+01,3.200000000000000000e+01,3.100000000000000000e+01,3.200000000000000000e+01,6.400000000000000133e-01,9.428922800000000000e+09
3.200000000000000000e+01,6.400000000000000000e+01,4.210000000000000000e+02,1.290000000000000000e+02,3.400000000000000000e+01,3.500000000000000000e+01,3.300000000000000000e+01,3.000000000000000000e+01,6.400000000000000133e-01,9.448597600000000000e+09
3.100000000000000000e+01,6.200000000000000000e+01,4.080000000000000000e+02,1.240000000000000000e+02,3.400000000000000000e+01,3.600000000000000000e+01,3.200000000000000000e+01,2.800000000000000000e+01,6.500000000000000222e-01,9.466340700000000000e+09
3.400000000000000000e+01,6.900000000000000000e+01,4.300000000000000000e+02,1.520000000000000000e+02,3.500000000000000000e+01,3.900000000000000000e+01,3.300000000000000000e+01,2.900000000000000000e+01,6.500000000000000222e-01,9.489861800000000000e+09
3.300000000000000000e+01,7.900000000000000000e+01,3.960000000000000000e+02,1.480000000000000000e+02,3.000000000000000000e+01,4.800000000000000000e+01,3.300000000000000000e+01,2.600000000000000000e+01,6.500000000000000222e-01,9.507892400000000000e+09
3.500000000000000000e+01,7.900000000000000000e+01,4.240000000000000000e+02,1.470000000000000000e+02,3.200000000000000000e+01,4.800000000000000000e+01,3.100000000000000000e+01,2.500000000000000000e+01,6.500000000000000222e-01,9.526344000000000000e+09
3.600000000000000000e+01,8.000000000000000000e+01,4.030000000000000000e+02,1.530000000000000000e+02,3.200000000000000000e+01,4.900000000000000000e+01,2.900000000000000000e+01,2.400000000000000000e+01,6.500000000000000222e-01,9.549796500000000000e+09
3.500000000000000000e+01,8.300000000000000000e+01,3.860000000000000000e+02,1.860000000000000000e+02,3.200000000000000000e+01,4.800000000000000000e+01,2.900000000000000000e+01,2.700000000000000000e+01,6.500000000000000222e-01,9.567798000000000000e+09
3.500000000000000000e+01,8.000000000000000000e+01,3.200000000000000000e+02,1.900000000000000000e+02,4.000000000000000000e+01,4.900000000000000000e+01,2.900000000000000000e+01,2.900000000000000000e+01,6.500000000000000222e-01,9.586916600000000000e+09
3.400000000000000000e+01,7.800000000000000000e+01,3.860000000000000000e+02,1.940000000000000000e+02,4.300000000000000000e+01,3.800000000000000000e+01,2.600000000000000000e+01,2.800000000000000000e+01,6.500000000000000222e-01,9.609287000000000000e+09
3.500000000000000000e+01,8.300000000000000000e+01,3.500000000000000000e+02,2.060000000000000000e+02,4.600000000000000000e+01,4.200000000000000000e+01,2.800000000000000000e+01,3.100000000000000000e+01,6.600000000000000311e-01,9.627755100000000000e+09
3.700000000000000000e+01,8.400000000000000000e+01,3.400000000000000000e+02,2.070000000000000000e+02,4.800000000000000000e+01,4.000000000000000000e+01,2.800000000000000000e+01,3.000000000000000000e+01,6.600000000000000311e-01,9.646524400000000000e+09
3.800000000000000000e+01,8.400000000000000000e+01,3.630000000000000000e+02,1.850000000000000000e+02,4.900000000000000000e+01,4.000000000000000000e+01,3.000000000000000000e+01,3.100000000000000000e+01,6.600000000000000311e-01,9.668890600000000000e+09
3.500000000000000000e+01,8.200000000000000000e+01,4.560000000000000000e+02,1.710000000000000000e+02,4.100000000000000000e+01,3.400000000000000000e+01,3.000000000000000000e+01,2.700000000000000000e+01,6.600000000000000311e-01,9.687483600000000000e+09
4.100000000000000000e+01,9.400000000000000000e+01,4.400000000000000000e+02,1.920000000000000000e+02,4.400000000000000000e+01,3.900000000000000000e+01,3.100000000000000000e+01,3.200000000000000000e+01,6.600000000000000311e-01,9.707177500000000000e+09
3.800000000000000000e+01,9.600000000000000000e+01,4.390000000000000000e+02,1.870000000000000000e+02,3.900000000000000000e+01,3.200000000000000000e+01,2.900000000000000000e+01,2.900000000000000000e+01,6.600000000000000311e-01,9.729065600000000000e+09
4.100000000000000000e+01,1.010000000000000000e+02,4.700000000000000000e+02,1.900000000000000000e+02,4.300000000000000000e+01,3.900000000000000000e+01,3.000000000000000000e+01,3.100000000000000000e+01,6.700000000000000400e-01,9.748357800000000000e+09
3.700000000000000000e+01,1.010000000000000000e+02,4.380000000000000000e+02,1.920000000000000000e+02,4.000000000000000000e+01,3.700000000000000000e+01,2.800000000000000000e+01,2.800000000000000000e+01,6.700000000000000400e-01,9.768284000000000000e+09
4.000000000000000000e+01,9.700000000000000000e+01,3.520000000000000000e+02,2.000000000000000000e+02,4.400000000000000000e+01,3.900000000000000000e+01,3.100000000000000000e+01,2.900000000000000000e+01,6.700000000000000400e-01,9.798537600000000000e+09
4.400000000000000000e+01,1.020000000000000000e+02,3.900000000000000000e+02,1.880000000000000000e+02,4.700000000000000000e+01,4.400000000000000000e+01,3.500000000000000000e+01,3.100000000000000000e+01,6.700000000000000400e-01,9.816465200000000000e+09
4.600000000000000000e+01,1.110000000000000000e+02,3.930000000000000000e+02,1.740000000000000000e+02,4.600000000000000000e+01,4.400000000000000000e+01,3.600000000000000000e+01,3.100000000000000000e+01,6.700000000000000400e-01,9.834614800000000000e+09
4.300000000000000000e+01,1.100000000000000000e+02,3.600000000000000000e+02,1.840000000000000000e+02,4.500000000000000000e+01,3.800000000000000000e+01,3.700000000000000000e+01,2.900000000000000000e+01,6.700000000000000400e-01,9.852940400000000000e+09
4.500000000000000000e+01,1.120000000000000000e+02,4.030000000000000000e+02,1.810000000000000000e+02,4.500000000000000000e+01,3.800000000000000000e+01,3.600000000000000000e+01,3.000000000000000000e+01,6.700000000000000400e-01,9.871110100000000000e+09
4.400000000000000000e+01,1.110000000000000000e+02,3.970000000000000000e+02,1.660000000000000000e+02,4.200000000000000000e+01,3.800000000000000000e+01,3.400000000000000000e+01,2.800000000000000000e+01,6.700000000000000400e-01,9.890141700000000000e+09
3.100000000000000000e+01,9.000000000000000000e+01,3.430000000000000000e+02,1.390000000000000000e+02,3.200000000000000000e+01,2.900000000000000000e+01,2.900000000000000000e+01,2.200000000000000000e+01,6.700000000000000400e-01,9.908941900000000000e+09
3.200000000000000000e+01,8.200000000000000000e+01,3.570000000000000000e+02,1.540000000000000000e+02,3.200000000000000000e+01,3.200000000000000000e+01,2.700000000000000000e+01,2.200000000000000000e+01,6.700000000000000400e-01,9.932194100000000000e+09
4.600000000000000000e+01,8.200000000000000000e+01,4.130000000000000000e+02,1.490000000000000000e+02,3.100000000000000000e+01,3.400000000000000000e+01,2.600000000000000000e+01,3.800000000000000000e+01,6.700000000000000400e-01,9.950728800000000000e+09
4.600000000000000000e+01,7.800000000000000000e+01,3.710000000000000000e+02,1.450000000000000000e+02,3.100000000000000000e+01,3.500000000000000000e+01,2.700000000000000000e+01,3.900000000000000000e+01,6.700000000000000400e-01,9.969213000000000000e+09
4.600000000000000000e+01,7.700000000000000000e+01,3.650000000000000000e+02,1.320000000000000000e+02,3.000000000000000000e+01,3.500000000000000000e+01,2.600000000000000000e+01,4.000000000000000000e+01,6.700000000000000400e-01,9.992248500000000000e+09
5.200000000000000000e+01,8.600000000000000000e+01,3.420000000000000000e+02,1.270000000000000000e+02,3.100000000000000000e+01,3.200000000000000000e+01,2.600000000000000000e+01,6.100000000000000000e+01,6.700000000000000400e-01,1.001039160000000000e+10
5.200000000000000000e+01,9.100000000000000000e+01,3.250000000000000000e+02,9.800000000000000000e+01,3.000000000000000000e+01,3.000000000000000000e+01,2.900000000000000000e+01,9.300000000000000000e+01,6.600000000000000311e-01,1.002867180000000000e+10
4.500000000000000000e+01,9.400000000000000000e+01,2.740000000000000000e+02,6.000000000000000000e+01,2.600000000000000000e+01,3.000000000000000000e+01,3.000000000000000000e+01,1.460000000000000000e+02,6.500000000000000222e-01,1.005201490000000000e+10
4.700000000000000000e+01,1.080000000000000000e+02,2.700000000000000000e+02,5.300000000000000000e+01,2.600000000000000000e+01,3.100000000000000000e+01,2.900000000000000000e+01,1.540000000000000000e+02,6.400000000000000133e-01,1.006976670000000000e+10
