1.300000000000000000e+02,2.510000000000000000e+02,5.480000000000000000e+02,2.500000000000000000e+02,4.580000000000000000e+02,1.840000000000000000e+02,1.470000000000000000e+02,3.000000000000000000e+02,0.000000000000000000e+00,5.000939000000000000e+08
1.120000000000000000e+02,2.390000000000000000e+02,5.110000000000000000e+02,2.840000000000000000e+02,5.640000000000000000e+02,1.980000000000000000e+02,1.800000000000000000e+02,3.230000000000000000e+02,0.000000000000000000e+00,6.498767000000000000e+08
1.200000000000000000e+02,2.360000000000000000e+02,4.800000000000000000e+02,2.780000000000000000e+02,5.520000000000000000e+02,1.780000000000000000e+02,1.910000000000000000e+02,3.030000000000000000e+02,0.000000000000000000e+00,1.016809800000000000e+09
1.220000000000000000e+02,1.490000000000000000e+02,4.530000000000000000e+02,2.540000000000000000e+02,5.720000000000000000e+02,2.530000000000000000e+02,1.980000000000000000e+02,2.960000000000000000e+02,0.000000000000000000e+00,1.034219800000000000e+09
1.220000000000000000e+02,1.390000000000000000e+02,4.420000000000000000e+02,3.420000000000000000e+02,5.770000000000000000e+02,2.940000000000000000e+02,2.020000000000000000e+02,2.740000000000000000e+02,0.000000000000000000e+00,1.052510800000000000e+09
1.420000000000000000e+02,1.410000000000000000e+02,4.210000000000000000e+02,3.590000000000000000e+02,5.540000000000000000e+02,3.360000000000000000e+02,2.270000000000000000e+02,2.700000000000000000e+02,0.000000000000000000e+00,1.070678800000000000e+09
1.380000000000000000e+02,1.320000000000000000e+02,4.220000000000000000e+02,3.640000000000000000e+02,4.910000000000000000e+02,4.120000000000000000e+02,2.180000000000000000e+02,3.430000000000000000e+02,1.000000000000000021e-02,1.090447300000000000e+09
1.400000000000000000e+02,9.200000000000000000e+01,3.880000000000000000e+02,3.500000000000000000e+02,4.450000000000000000e+02,4.240000000000000000e+02,2.100000000000000000e+02,3.370000000000000000e+02,1.000000000000000021e-02,1.109904300000000000e+09
1.430000000000000000e+02,7.700000000000000000e+01,3.330000000000000000e+02,3.440000000000000000e+02,4.010000000000000000e+02,3.870000000000000000e+02,2.100000000000000000e+02,3.510000000000000000e+02,2.000000000000000042e-02,1.129447700000000000e+09
1.530000000000000000e+02,1.060000000000000000e+02,3.610000000000000000e+02,3.180000000000000000e+02,4.110000000000000000e+02,3.740000000000000000e+02,2.340000000000000000e+02,4.240000000000000000e+02,2.999999999999999889e-02,1.147784200000000000e+09
1.380000000000000000e+02,1.070000000000000000e+02,3.220000000000000000e+02,3.020000000000000000e+02,3.900000000000000000e+02,3.460000000000000000e+02,2.150000000000000000e+02,4.780000000000000000e+02,2.999999999999999889e-02,1.166411700000000000e+09
1.430000000000000000e+02,1.200000000000000000e+02,3.190000000000000000e+02,2.770000000000000000e+02,2.450000000000000000e+02,2.750000000000000000e+02,2.190000000000000000e+02,4.310000000000000000e+02,4.000000000000000083e-02,1.183781100000000000e+09
1.570000000000000000e+02,1.320000000000000000e+02,3.050000000000000000e+02,2.960000000000000000e+02,2.590000000000000000e+02,2.710000000000000000e+02,2.260000000000000000e+02,4.680000000000000000e+02,5.000000000000000278e-02,1.200315900000000000e+09
1.500000000000000000e+02,1.320000000000000000e+02,3.590000000000000000e+02,2.880000000000000000e+02,2.790000000000000000e+02,2.860000000000000000e+02,2.140000000000000000e+02,4.560000000000000000e+02,5.999999999999999778e-02,1.217308800000000000e+09
1.430000000000000000e+02,1.240000000000000000e+02,3.750000000000000000e+02,2.290000000000000000e+02,2.660000000000000000e+02,3.280000000000000000e+02,2.030000000000000000e+02,3.850000000000000000e+02,7.000000000000000666e-02,1.233789200000000000e+09
1.410000000000000000e+02,1.160000000000000000e+02,4.170000000000000000e+02,2.180000000000000000e+02,2.820000000000000000e+02,3.440000000000000000e+02,2.080000000000000000e+02,3.140000000000000000e+02,8.999999999999999667e-02,1.251757100000000000e+09
1.290000000000000000e+02,1.090000000000000000e+02,4.260000000000000000e+02,2.140000000000000000e+02,2.980000000000000000e+02,3.630000000000000000e+02,1.930000000000000000e+02,2.990000000000000000e+02,1.000000000000000056e-01,1.268318600000000000e+09
1.020000000000000000e+02,9.400000000000000000e+01,4.800000000000000000e+02,2.090000000000000000e+02,2.640000000000000000e+02,3.680000000000000000e+02,1.870000000000000000e+02,2.750000000000000000e+02,1.199999999999999956e-01,1.285363400000000000e+09
1.010000000000000000e+02,9.300000000000000000e+01,4.480000000000000000e+02,1.990000000000000000e+02,2.360000000000000000e+02,3.500000000000000000e+02,1.890000000000000000e+02,2.850000000000000000e+02,1.300000000000000044e-01,1.305380300000000000e+09
9.200000000000000000e+01,1.030000000000000000e+02,4.110000000000000000e+02,1.820000000000000000e+02,1.980000000000000000e+02,3.180000000000000000e+02,1.880000000000000000e+02,3.100000000000000000e+02,1.400000000000000133e-01,1.322787000000000000e+09
9.100000000000000000e+01,1.400000000000000000e+02,4.190000000000000000e+02,1.690000000000000000e+02,1.750000000000000000e+02,2.940000000000000000e+02,1.780000000000000000e+02,3.270000000000000000e+02,1.499999999999999944e-01,1.339435900000000000e+09
1.030000000000000000e+02,1.390000000000000000e+02,4.110000000000000000e+02,1.430000000000000000e+02,1.180000000000000000e+02,2.630000000000000000e+02,2.020000000000000000e+02,3.140000000000000000e+02,1.600000000000000033e-01,1.355541900000000000e+09
9.600000000000000000e+01,1.450000000000000000e+02,4.290000000000000000e+02,1.010000000000000000e+02,1.030000000000000000e+02,2.330000000000000000e+02,1.930000000000000000e+02,2.850000000000000000e+02,1.799999999999999933e-01,1.372811200000000000e+09
8.900000000000000000e+01,1.410000000000000000e+02,4.840000000000000000e+02,1.180000000000000000e+02,8.100000000000000000e+01,2.360000000000000000e+02,1.880000000000000000e+02,2.810000000000000000e+02,1.900000000000000022e-01,1.390717500000000000e+09
1.000000000000000000e+02,1.650000000000000000e+02,5.050000000000000000e+02,1.200000000000000000e+02,7.300000000000000000e+01,2.040000000000000000e+02,1.610000000000000000e+02,2.690000000000000000e+02,2.099999999999999922e-01,1.407931600000000000e+09
1.010000000000000000e+02,1.480000000000000000e+02,4.820000000000000000e+02,1.320000000000000000e+02,7.900000000000000000e+01,2.840000000000000000e+02,1.960000000000000000e+02,2.350000000000000000e+02,2.300000000000000100e-01,1.424459200000000000e+09
9.600000000000000000e+01,1.480000000000000000e+02,5.200000000000000000e+02,1.420000000000000000e+02,9.100000000000000000e+01,2.530000000000000000e+02,1.690000000000000000e+02,2.170000000000000000e+02,2.399999999999999911e-01,1.442135300000000000e+09
9.800000000000000000e+01,1.830000000000000000e+02,5.490000000000000000e+02,1.420000000000000000e+02,1.040000000000000000e+02,2.670000000000000000e+02,1.680000000000000000e+02,2.130000000000000000e+02,2.500000000000000000e-01,1.458851600000000000e+09
1.080000000000000000e+02,2.440000000000000000e+02,5.040000000000000000e+02,1.260000000000000000e+02,1.030000000000000000e+02,2.650000000000000000e+02,1.660000000000000000e+02,2.090000000000000000e+02,2.700000000000000178e-01,1.474864800000000000e+09
1.020000000000000000e+02,2.310000000000000000e+02,5.060000000000000000e+02,1.120000000000000000e+02,1.030000000000000000e+02,2.550000000000000000e+02,1.630000000000000000e+02,1.710000000000000000e+02,2.899999999999999800e-01,1.492479400000000000e+09
1.070000000000000000e+02,3.170000000000000000e+02,5.030000000000000000e+02,1.020000000000000000e+02,9.500000000000000000e+01,1.560000000000000000e+02,9.800000000000000000e+01,1.540000000000000000e+02,2.999999999999999889e-01,1.510852700000000000e+09
1.040000000000000000e+02,3.300000000000000000e+02,4.660000000000000000e+02,9.100000000000000000e+01,8.400000000000000000e+01,1.410000000000000000e+02,8.700000000000000000e+01,2.470000000000000000e+02,3.200000000000000067e-01,1.528258000000000000e+09
1.480000000000000000e+02,3.350000000000000000e+02,3.600000000000000000e+02,9.400000000000000000e+01,6.500000000000000000e+01,1.490000000000000000e+02,9.000000000000000000e+01,2.850000000000000000e+02,3.300000000000000155e-01,1.546080500000000000e+09
1.450000000000000000e+02,3.140000000000000000e+02,3.400000000000000000e+02,9.000000000000000000e+01,6.700000000000000000e+01,1.380000000000000000e+02,1.020000000000000000e+02,2.950000000000000000e+02,3.400000000000000244e-01,1.562914000000000000e+09
1.670000000000000000e+02,4.130000000000000000e+02,3.100000000000000000e+02,9.300000000000000000e+01,6.200000000000000000e+01,1.410000000000000000e+02,1.060000000000000000e+02,3.040000000000000000e+02,3.599999999999999867e-01,1.579918600000000000e+09
1.640000000000000000e+02,3.780000000000000000e+02,2.890000000000000000e+02,9.600000000000000000e+01,6.200000000000000000e+01,1.360000000000000000e+02,1.000000000000000000e+02,3.230000000000000000e+02,3.699999999999999956e-01,1.597242900000000000e+09
1.690000000000000000e+02,3.750000000000000000e+02,2.660000000000000000e+02,9.700000000000000000e+01,9.800000000000000000e+01,1.690000000000000000e+02,1.610000000000000000e+02,3.200000000000000000e+02,3.800000000000000044e-01,1.613493800000000000e+09
1.420000000000000000e+02,3.630000000000000000e+02,3.300000000000000000e+02,1.030000000000000000e+02,1.260000000000000000e+02,1.600000000000000000e+02,1.950000000000000000e+02,3.690000000000000000e+02,3.800000000000000044e-01,1.630515000000000000e+09
1.540000000000000000e+02,3.520000000000000000e+02,3.910000000000000000e+02,1.400000000000000000e+02,1.370000000000000000e+02,1.620000000000000000e+02,1.950000000000000000e+02,3.920000000000000000e+02,3.900000000000000133e-01,1.648122500000000000e+09
1.310000000000000000e+02,2.300000000000000000e+02,4.150000000000000000e+02,1.370000000000000000e+02,1.360000000000000000e+02,1.630000000000000000e+02,2.090000000000000000e+02,4.020000000000000000e+02,3.900000000000000133e-01,1.665038300000000000e+09
1.290000000000000000e+02,1.890000000000000000e+02,4.520000000000000000e+02,1.450000000000000000e+02,1.550000000000000000e+02,1.630000000000000000e+02,2.230000000000000000e+02,4.200000000000000000e+02,3.900000000000000133e-01,1.681326400000000000e+09
1.460000000000000000e+02,1.820000000000000000e+02,4.880000000000000000e+02,1.450000000000000000e+02,1.530000000000000000e+02,1.320000000000000000e+02,2.180000000000000000e+02,4.240000000000000000e+02,3.800000000000000044e-01,1.697721600000000000e+09
1.410000000000000000e+02,1.690000000000000000e+02,4.680000000000000000e+02,1.370000000000000000e+02,1.550000000000000000e+02,1.590000000000000000e+02,2.060000000000000000e+02,3.990000000000000000e+02,3.800000000000000044e-01,1.714088100000000000e+09
1.300000000000000000e+02,1.740000000000000000e+02,4.850000000000000000e+02,1.070000000000000000e+02,1.520000000000000000e+02,1.580000000000000000e+02,2.020000000000000000e+02,3.700000000000000000e+02,3.800000000000000044e-01,1.732151900000000000e+09
1.700000000000000000e+02,1.900000000000000000e+02,4.830000000000000000e+02,1.350000000000000000e+02,1.560000000000000000e+02,1.540000000000000000e+02,1.970000000000000000e+02,4.350000000000000000e+02,3.699999999999999956e-01,1.749649000000000000e+09
1.760000000000000000e+02,1.840000000000000000e+02,4.660000000000000000e+02,1.350000000000000000e+02,1.560000000000000000e+02,1.720000000000000000e+02,1.890000000000000000e+02,4.240000000000000000e+02,3.599999999999999867e-01,1.767210200000000000e+09
1.590000000000000000e+02,1.970000000000000000e+02,4.630000000000000000e+02,1.670000000000000000e+02,1.660000000000000000e+02,1.770000000000000000e+02,1.590000000000000000e+02,4.080000000000000000e+02,3.599999999999999867e-01,1.785778500000000000e+09
1.600000000000000000e+02,2.000000000000000000e+02,4.520000000000000000e+02,1.680000000000000000e+02,1.510000000000000000e+02,1.390000000000000000e+02,1.730000000000000000e+02,4.010000000000000000e+02,3.499999999999999778e-01,1.803305600000000000e+09
1.610000000000000000e+02,1.860000000000000000e+02,4.240000000000000000e+02,1.680000000000000000e+02,1.720000000000000000e+02,1.460000000000000000e+02,1.810000000000000000e+02,4.110000000000000000e+02,3.400000000000000244e-01,1.820134100000000000e+09
1.170000000000000000e+02,1.460000000000000000e+02,3.980000000000000000e+02,1.820000000000000000e+02,1.940000000000000000e+02,1.490000000000000000e+02,1.870000000000000000e+02,3.570000000000000000e+02,3.400000000000000244e-01,1.836401400000000000e+09
1.030000000000000000e+02,1.690000000000000000e+02,3.800000000000000000e+02,1.780000000000000000e+02,1.890000000000000000e+02,1.270000000000000000e+02,1.840000000000000000e+02,3.460000000000000000e+02,3.300000000000000155e-01,1.854644200000000000e+09
1.060000000000000000e+02,2.040000000000000000e+02,4.600000000000000000e+02,1.630000000000000000e+02,1.880000000000000000e+02,1.210000000000000000e+02,1.800000000000000000e+02,3.930000000000000000e+02,3.200000000000000067e-01,1.871514400000000000e+09
9.400000000000000000e+01,1.990000000000000000e+02,4.800000000000000000e+02,1.830000000000000000e+02,2.270000000000000000e+02,1.460000000000000000e+02,1.380000000000000000e+02,3.600000000000000000e+02,3.200000000000000067e-01,1.889405800000000000e+09
8.800000000000000000e+01,1.950000000000000000e+02,4.470000000000000000e+02,2.020000000000000000e+02,2.160000000000000000e+02,1.460000000000000000e+02,1.210000000000000000e+02,3.410000000000000000e+02,3.099999999999999978e-01,1.908576900000000000e+09
8.500000000000000000e+01,1.980000000000000000e+02,4.580000000000000000e+02,1.960000000000000000e+02,2.200000000000000000e+02,1.450000000000000000e+02,9.700000000000000000e+01,3.050000000000000000e+02,3.099999999999999978e-01,1.926358200000000000e+09
8.400000000000000000e+01,2.030000000000000000e+02,4.900000000000000000e+02,2.080000000000000000e+02,2.240000000000000000e+02,1.480000000000000000e+02,9.700000000000000000e+01,3.000000000000000000e+02,2.999999999999999889e-01,1.945250000000000000e+09
7.900000000000000000e+01,1.420000000000000000e+02,3.850000000000000000e+02,2.120000000000000000e+02,2.160000000000000000e+02,1.500000000000000000e+02,8.300000000000000000e+01,1.920000000000000000e+02,2.999999999999999889e-01,1.962896700000000000e+09
8.100000000000000000e+01,1.370000000000000000e+02,3.620000000000000000e+02,2.050000000000000000e+02,1.930000000000000000e+02,1.430000000000000000e+02,8.600000000000000000e+01,1.730000000000000000e+02,3.099999999999999978e-01,1.983460400000000000e+09
8.300000000000000000e+01,1.990000000000000000e+02,4.010000000000000000e+02,1.940000000000000000e+02,1.940000000000000000e+02,1.360000000000000000e+02,1.300000000000000000e+02,2.200000000000000000e+02,2.999999999999999889e-01,2.002799700000000000e+09
1.030000000000000000e+02,2.100000000000000000e+02,4.140000000000000000e+02,1.760000000000000000e+02,1.650000000000000000e+02,1.310000000000000000e+02,1.580000000000000000e+02,3.090000000000000000e+02,2.999999999999999889e-01,2.021025900000000000e+09
1.320000000000000000e+02,1.910000000000000000e+02,4.010000000000000000e+02,1.610000000000000000e+02,1.560000000000000000e+02,1.320000000000000000e+02,1.900000000000000000e+02,3.810000000000000000e+02,2.999999999999999889e-01,2.038232300000000000e+09
1.480000000000000000e+02,2.130000000000000000e+02,4.700000000000000000e+02,1.390000000000000000e+02,1.460000000000000000e+02,1.230000000000000000e+02,2.060000000000000000e+02,4.060000000000000000e+02,2.999999999999999889e-01,2.056243800000000000e+09
1.610000000000000000e+02,2.200000000000000000e+02,4.560000000000000000e+02,1.190000000000000000e+02,1.280000000000000000e+02,1.000000000000000000e+02,2.090000000000000000e+02,4.270000000000000000e+02,2.999999999999999889e-01,2.073967800000000000e+09
1.710000000000000000e+02,1.780000000000000000e+02,4.250000000000000000e+02,1.020000000000000000e+02,1.110000000000000000e+02,9.400000000000000000e+01,1.950000000000000000e+02,4.910000000000000000e+02,3.099999999999999978e-01,2.092671600000000000e+09
1.630000000000000000e+02,1.620000000000000000e+02,3.860000000000000000e+02,8.500000000000000000e+01,1.100000000000000000e+02,9.600000000000000000e+01,1.800000000000000000e+02,4.730000000000000000e+02,3.099999999999999978e-01,2.110413800000000000e+09
1.540000000000000000e+02,1.470000000000000000e+02,3.400000000000000000e+02,7.900000000000000000e+01,1.040000000000000000e+02,9.900000000000000000e+01,1.560000000000000000e+02,4.310000000000000000e+02,3.200000000000000067e-01,2.131537000000000000e+09
1.440000000000000000e+02,1.120000000000000000e+02,3.400000000000000000e+02,7.500000000000000000e+01,9.700000000000000000e+01,1.030000000000000000e+02,1.580000000000000000e+02,4.600000000000000000e+02,3.200000000000000067e-01,2.149802600000000000e+09
1.430000000000000000e+02,1.000000000000000000e+02,4.380000000000000000e+02,9.500000000000000000e+01,8.600000000000000000e+01,1.010000000000000000e+02,1.630000000000000000e+02,4.660000000000000000e+02,3.300000000000000155e-01,2.167503300000000000e+09
1.360000000000000000e+02,8.300000000000000000e+01,4.470000000000000000e+02,1.360000000000000000e+02,1.300000000000000000e+02,1.660000000000000000e+02,1.850000000000000000e+02,3.960000000000000000e+02,3.300000000000000155e-01,2.184075100000000000e+09
1.370000000000000000e+02,8.100000000000000000e+01,4.580000000000000000e+02,1.350000000000000000e+02,1.450000000000000000e+02,1.920000000000000000e+02,1.910000000000000000e+02,3.910000000000000000e+02,3.200000000000000067e-01,2.202027900000000000e+09
1.230000000000000000e+02,7.500000000000000000e+01,4.590000000000000000e+02,1.410000000000000000e+02,1.430000000000000000e+02,1.950000000000000000e+02,2.090000000000000000e+02,3.940000000000000000e+02,3.200000000000000067e-01,2.218429600000000000e+09
1.080000000000000000e+02,6.600000000000000000e+01,3.740000000000000000e+02,1.410000000000000000e+02,1.480000000000000000e+02,2.000000000000000000e+02,2.080000000000000000e+02,3.540000000000000000e+02,3.200000000000000067e-01,2.236132600000000000e+09
8.900000000000000000e+01,6.000000000000000000e+01,2.380000000000000000e+02,1.700000000000000000e+02,1.600000000000000000e+02,2.220000000000000000e+02,2.560000000000000000e+02,3.350000000000000000e+02,3.200000000000000067e-01,2.254783900000000000e+09
7.800000000000000000e+01,5.000000000000000000e+01,1.850000000000000000e+02,1.640000000000000000e+02,1.450000000000000000e+02,3.060000000000000000e+02,2.810000000000000000e+02,3.110000000000000000e+02,3.300000000000000155e-01,2.272809500000000000e+09
7.400000000000000000e+01,5.100000000000000000e+01,1.460000000000000000e+02,1.790000000000000000e+02,1.330000000000000000e+02,3.200000000000000000e+02,3.110000000000000000e+02,3.020000000000000000e+02,3.400000000000000244e-01,2.291630100000000000e+09
8.200000000000000000e+01,7.900000000000000000e+01,2.120000000000000000e+02,1.810000000000000000e+02,1.330000000000000000e+02,3.270000000000000000e+02,3.200000000000000000e+02,2.730000000000000000e+02,3.400000000000000244e-01,2.308431500000000000e+09
1.040000000000000000e+02,9.100000000000000000e+01,2.740000000000000000e+02,1.950000000000000000e+02,1.320000000000000000e+02,3.850000000000000000e+02,3.350000000000000000e+02,2.360000000000000000e+02,3.499999999999999778e-01,2.324972000000000000e+09
1.070000000000000000e+02,1.030000000000000000e+02,3.920000000000000000e+02,1.710000000000000000e+02,1.150000000000000000e+02,3.920000000000000000e+02,3.490000000000000000e+02,2.170000000000000000e+02,3.599999999999999867e-01,2.342618200000000000e+09
1.020000000000000000e+02,1.080000000000000000e+02,3.980000000000000000e+02,1.610000000000000000e+02,9.200000000000000000e+01,3.050000000000000000e+02,3.900000000000000000e+02,2.110000000000000000e+02,3.699999999999999956e-01,2.361467700000000000e+09
9.600000000000000000e+01,1.110000000000000000e+02,4.080000000000000000e+02,1.500000000000000000e+02,9.100000000000000000e+01,2.770000000000000000e+02,3.650000000000000000e+02,1.530000000000000000e+02,3.800000000000000044e-01,2.379515000000000000e+09
8.800000000000000000e+01,1.250000000000000000e+02,4.190000000000000000e+02,1.770000000000000000e+02,1.270000000000000000e+02,2.640000000000000000e+02,3.460000000000000000e+02,1.300000000000000000e+02,3.900000000000000133e-01,2.396005400000000000e+09
6.300000000000000000e+01,1.280000000000000000e+02,4.680000000000000000e+02,1.920000000000000000e+02,1.360000000000000000e+02,1.600000000000000000e+02,3.280000000000000000e+02,1.050000000000000000e+02,4.000000000000000222e-01,2.412468900000000000e+09
5.400000000000000000e+01,1.340000000000000000e+02,4.200000000000000000e+02,2.460000000000000000e+02,1.340000000000000000e+02,9.300000000000000000e+01,2.730000000000000000e+02,8.600000000000000000e+01,4.099999999999999756e-01,2.429561100000000000e+09
5.400000000000000000e+01,1.830000000000000000e+02,5.330000000000000000e+02,2.560000000000000000e+02,1.330000000000000000e+02,8.400000000000000000e+01,1.420000000000000000e+02,6.000000000000000000e+01,4.199999999999999845e-01,2.447068000000000000e+09
6.900000000000000000e+01,2.080000000000000000e+02,6.980000000000000000e+02,2.660000000000000000e+02,1.330000000000000000e+02,6.900000000000000000e+01,1.220000000000000000e+02,4.700000000000000000e+01,4.199999999999999845e-01,2.463898400000000000e+09
7.300000000000000000e+01,2.350000000000000000e+02,8.630000000000000000e+02,2.470000000000000000e+02,1.030000000000000000e+02,6.600000000000000000e+01,1.080000000000000000e+02,4.200000000000000000e+01,4.199999999999999845e-01,2.481684100000000000e+09
7.600000000000000000e+01,2.530000000000000000e+02,1.029000000000000000e+03,2.390000000000000000e+02,8.800000000000000000e+01,7.600000000000000000e+01,8.200000000000000000e+01,7.300000000000000000e+01,4.199999999999999845e-01,2.499979600000000000e+09
8.500000000000000000e+01,3.070000000000000000e+02,1.081000000000000000e+03,2.130000000000000000e+02,9.200000000000000000e+01,1.300000000000000000e+02,6.800000000000000000e+01,7.600000000000000000e+01,4.099999999999999756e-01,2.517195100000000000e+09
8.800000000000000000e+01,3.370000000000000000e+02,1.127000000000000000e+03,2.520000000000000000e+02,9.800000000000000000e+01,1.860000000000000000e+02,9.600000000000000000e+01,9.700000000000000000e+01,4.000000000000000222e-01,2.534312500000000000e+09
1.010000000000000000e+02,3.490000000000000000e+02,1.152000000000000000e+03,2.550000000000000000e+02,9.600000000000000000e+01,2.720000000000000000e+02,1.080000000000000000e+02,2.150000000000000000e+02,4.000000000000000222e-01,2.550891800000000000e+09
1.030000000000000000e+02,3.520000000000000000e+02,1.047000000000000000e+03,2.580000000000000000e+02,9.300000000000000000e+01,2.960000000000000000e+02,1.140000000000000000e+02,2.230000000000000000e+02,3.900000000000000133e-01,2.569006200000000000e+09
1.100000000000000000e+02,3.550000000000000000e+02,8.860000000000000000e+02,2.550000000000000000e+02,8.600000000000000000e+01,3.740000000000000000e+02,2.030000000000000000e+02,2.340000000000000000e+02,3.800000000000000044e-01,2.586931500000000000e+09
1.060000000000000000e+02,3.330000000000000000e+02,8.240000000000000000e+02,2.290000000000000000e+02,7.700000000000000000e+01,4.050000000000000000e+02,3.820000000000000000e+02,3.100000000000000000e+02,3.699999999999999956e-01,2.604636400000000000e+09
1.190000000000000000e+02,2.750000000000000000e+02,6.870000000000000000e+02,1.600000000000000000e+02,6.200000000000000000e+01,3.920000000000000000e+02,5.010000000000000000e+02,3.990000000000000000e+02,3.699999999999999956e-01,2.621654600000000000e+09
1.100000000000000000e+02,2.460000000000000000e+02,4.760000000000000000e+02,1.350000000000000000e+02,5.700000000000000000e+01,4.390000000000000000e+02,6.240000000000000000e+02,4.340000000000000000e+02,3.599999999999999867e-01,2.640998900000000000e+09
1.080000000000000000e+02,2.160000000000000000e+02,4.590000000000000000e+02,1.160000000000000000e+02,5.200000000000000000e+01,4.420000000000000000e+02,6.740000000000000000e+02,4.420000000000000000e+02,3.599999999999999867e-01,2.662126800000000000e+09
9.900000000000000000e+01,2.720000000000000000e+02,4.140000000000000000e+02,1.140000000000000000e+02,5.800000000000000000e+01,3.920000000000000000e+02,6.770000000000000000e+02,4.410000000000000000e+02,3.599999999999999867e-01,2.680097300000000000e+09
1.170000000000000000e+02,2.880000000000000000e+02,4.070000000000000000e+02,1.160000000000000000e+02,5.600000000000000000e+01,3.570000000000000000e+02,6.410000000000000000e+02,4.510000000000000000e+02,3.599999999999999867e-01,2.697951000000000000e+09
1.230000000000000000e+02,3.190000000000000000e+02,4.460000000000000000e+02,1.190000000000000000e+02,5.600000000000000000e+01,3.750000000000000000e+02,6.400000000000000000e+02,4.600000000000000000e+02,3.599999999999999867e-01,2.716849000000000000e+09
1.200000000000000000e+02,3.200000000000000000e+02,4.350000000000000000e+02,1.170000000000000000e+02,5.100000000000000000e+01,2.800000000000000000e+02,5.640000000000000000e+02,4.140000000000000000e+02,3.599999999999999867e-01,2.734747600000000000e+09
1.250000000000000000e+02,3.270000000000000000e+02,4.690000000000000000e+02,1.290000000000000000e+02,5.500000000000000000e+01,2.640000000000000000e+02,5.190000000000000000e+02,4.170000000000000000e+02,3.699999999999999956e-01,2.756056200000000000e+09
1.330000000000000000e+02,2.740000000000000000e+02,4.770000000000000000e+02,1.140000000000000000e+02,4.600000000000000000e+01,2.700000000000000000e+02,6.240000000000000000e+02,4.760000000000000000e+02,3.699999999999999956e-01,2.775308700000000000e+09
1.200000000000000000e+02,2.270000000000000000e+02,4.670000000000000000e+02,1.000000000000000000e+02,4.700000000000000000e+01,3.470000000000000000e+02,6.110000000000000000e+02,4.310000000000000000e+02,3.800000000000000044e-01,2.793277300000000000e+09
1.090000000000000000e+02,1.820000000000000000e+02,5.280000000000000000e+02,1.060000000000000000e+02,4.600000000000000000e+01,3.440000000000000000e+02,5.650000000000000000e+02,3.750000000000000000e+02,3.800000000000000044e-01,2.811013200000000000e+09
1.070000000000000000e+02,2.040000000000000000e+02,5.940000000000000000e+02,1.250000000000000000e+02,5.200000000000000000e+01,3.310000000000000000e+02,5.750000000000000000e+02,3.430000000000000000e+02,3.800000000000000044e-01,2.828007500000000000e+09
9.900000000000000000e+01,1.840000000000000000e+02,5.620000000000000000e+02,1.190000000000000000e+02,5.300000000000000000e+01,3.460000000000000000e+02,6.680000000000000000e+02,3.510000000000000000e+02,3.800000000000000044e-01,2.846369300000000000e+09
9.700000000000000000e+01,2.130000000000000000e+02,6.070000000000000000e+02,1.390000000000000000e+02,6.000000000000000000e+01,4.710000000000000000e+02,6.620000000000000000e+02,2.700000000000000000e+02,3.900000000000000133e-01,2.865292300000000000e+09
9.500000000000000000e+01,2.120000000000000000e+02,6.150000000000000000e+02,1.420000000000000000e+02,5.800000000000000000e+01,4.320000000000000000e+02,6.700000000000000000e+02,3.510000000000000000e+02,3.900000000000000133e-01,2.883306700000000000e+09
7.800000000000000000e+01,2.150000000000000000e+02,5.720000000000000000e+02,1.350000000000000000e+02,5.800000000000000000e+01,4.190000000000000000e+02,6.880000000000000000e+02,3.300000000000000000e+02,3.900000000000000133e-01,2.899905400000000000e+09
7.300000000000000000e+01,2.130000000000000000e+02,5.530000000000000000e+02,1.620000000000000000e+02,5.900000000000000000e+01,4.300000000000000000e+02,7.600000000000000000e+02,3.700000000000000000e+02,3.900000000000000133e-01,2.918588200000000000e+09
7.200000000000000000e+01,2.210000000000000000e+02,5.850000000000000000e+02,1.690000000000000000e+02,5.700000000000000000e+01,4.160000000000000000e+02,6.740000000000000000e+02,3.540000000000000000e+02,3.900000000000000133e-01,2.936484500000000000e+09
7.600000000000000000e+01,2.110000000000000000e+02,6.610000000000000000e+02,1.740000000000000000e+02,5.500000000000000000e+01,2.470000000000000000e+02,5.680000000000000000e+02,3.530000000000000000e+02,3.900000000000000133e-01,2.953292100000000000e+09
7.900000000000000000e+01,2.140000000000000000e+02,6.590000000000000000e+02,1.710000000000000000e+02,5.500000000000000000e+01,2.050000000000000000e+02,5.390000000000000000e+02,2.910000000000000000e+02,4.000000000000000222e-01,2.970386400000000000e+09
8.600000000000000000e+01,2.270000000000000000e+02,7.420000000000000000e+02,1.820000000000000000e+02,5.600000000000000000e+01,1.960000000000000000e+02,5.350000000000000000e+02,3.180000000000000000e+02,4.000000000000000222e-01,2.989362800000000000e+09
8.500000000000000000e+01,2.100000000000000000e+02,8.550000000000000000e+02,1.840000000000000000e+02,5.300000000000000000e+01,1.560000000000000000e+02,3.930000000000000000e+02,2.740000000000000000e+02,3.900000000000000133e-01,3.007993300000000000e+09
8.700000000000000000e+01,2.090000000000000000e+02,9.210000000000000000e+02,2.140000000000000000e+02,5.500000000000000000e+01,1.370000000000000000e+02,3.900000000000000000e+02,2.640000000000000000e+02,3.900000000000000133e-01,3.024981200000000000e+09
7.600000000000000000e+01,1.880000000000000000e+02,8.590000000000000000e+02,2.250000000000000000e+02,5.900000000000000000e+01,1.090000000000000000e+02,3.830000000000000000e+02,2.490000000000000000e+02,3.900000000000000133e-01,3.042487400000000000e+09
7.000000000000000000e+01,1.950000000000000000e+02,9.190000000000000000e+02,2.390000000000000000e+02,6.300000000000000000e+01,9.100000000000000000e+01,3.660000000000000000e+02,2.060000000000000000e+02,3.900000000000000133e-01,3.061267800000000000e+09
8.600000000000000000e+01,2.040000000000000000e+02,9.040000000000000000e+02,2.680000000000000000e+02,7.100000000000000000e+01,7.400000000000000000e+01,2.500000000000000000e+02,1.840000000000000000e+02,3.900000000000000133e-01,3.081266800000000000e+09
8.500000000000000000e+01,2.180000000000000000e+02,8.430000000000000000e+02,2.460000000000000000e+02,7.000000000000000000e+01,6.400000000000000000e+01,2.020000000000000000e+02,2.230000000000000000e+02,3.900000000000000133e-01,3.100293500000000000e+09
8.600000000000000000e+01,2.320000000000000000e+02,8.330000000000000000e+02,2.250000000000000000e+02,6.600000000000000000e+01,1.560000000000000000e+02,2.770000000000000000e+02,2.260000000000000000e+02,3.900000000000000133e-01,3.119378000000000000e+09
9.000000000000000000e+01,2.320000000000000000e+02,8.640000000000000000e+02,2.000000000000000000e+02,6.300000000000000000e+01,3.400000000000000000e+02,3.700000000000000000e+02,2.980000000000000000e+02,3.900000000000000133e-01,3.137743700000000000e+09
9.600000000000000000e+01,2.450000000000000000e+02,8.630000000000000000e+02,2.220000000000000000e+02,7.300000000000000000e+01,3.760000000000000000e+02,3.870000000000000000e+02,3.210000000000000000e+02,3.900000000000000133e-01,3.159353700000000000e+09
8.900000000000000000e+01,3.420000000000000000e+02,9.150000000000000000e+02,2.000000000000000000e+02,6.500000000000000000e+01,3.770000000000000000e+02,3.930000000000000000e+02,2.930000000000000000e+02,3.900000000000000133e-01,3.178361000000000000e+09
9.300000000000000000e+01,3.450000000000000000e+02,9.570000000000000000e+02,2.400000000000000000e+02,7.400000000000000000e+01,3.810000000000000000e+02,3.870000000000000000e+02,2.560000000000000000e+02,3.900000000000000133e-01,3.196822000000000000e+09
9.900000000000000000e+01,3.390000000000000000e+02,9.000000000000000000e+02,2.460000000000000000e+02,7.500000000000000000e+01,3.550000000000000000e+02,3.510000000000000000e+02,2.570000000000000000e+02,3.900000000000000133e-01,3.216359800000000000e+09
1.130000000000000000e+02,3.400000000000000000e+02,8.720000000000000000e+02,2.520000000000000000e+02,7.500000000000000000e+01,2.320000000000000000e+02,3.030000000000000000e+02,4.040000000000000000e+02,3.900000000000000133e-01,3.233995700000000000e+09
1.110000000000000000e+02,3.230000000000000000e+02,8.170000000000000000e+02,2.170000000000000000e+02,6.300000000000000000e+01,3.010000000000000000e+02,3.410000000000000000e+02,4.300000000000000000e+02,3.800000000000000044e-01,3.253351700000000000e+09
1.100000000000000000e+02,2.900000000000000000e+02,7.310000000000000000e+02,1.990000000000000000e+02,6.300000000000000000e+01,3.200000000000000000e+02,4.040000000000000000e+02,4.360000000000000000e+02,3.800000000000000044e-01,3.273068600000000000e+09
1.070000000000000000e+02,2.900000000000000000e+02,5.890000000000000000e+02,1.460000000000000000e+02,5.100000000000000000e+01,3.200000000000000000e+02,4.190000000000000000e+02,4.520000000000000000e+02,3.800000000000000044e-01,3.291326400000000000e+09
1.010000000000000000e+02,2.800000000000000000e+02,5.460000000000000000e+02,1.230000000000000000e+02,4.900000000000000000e+01,3.180000000000000000e+02,4.830000000000000000e+02,4.840000000000000000e+02,3.800000000000000044e-01,3.308434400000000000e+09
9.000000000000000000e+01,2.900000000000000000e+02,4.770000000000000000e+02,1.040000000000000000e+02,4.600000000000000000e+01,2.910000000000000000e+02,5.000000000000000000e+02,3.370000000000000000e+02,3.699999999999999956e-01,3.327556200000000000e+09
8.800000000000000000e+01,2.940000000000000000e+02,5.070000000000000000e+02,1.220000000000000000e+02,4.200000000000000000e+01,1.570000000000000000e+02,4.590000000000000000e+02,2.930000000000000000e+02,3.800000000000000044e-01,3.344675400000000000e+09
7.900000000000000000e+01,2.320000000000000000e+02,5.010000000000000000e+02,1.280000000000000000e+02,3.900000000000000000e+01,1.070000000000000000e+02,3.960000000000000000e+02,2.750000000000000000e+02,3.800000000000000044e-01,3.365610300000000000e+09
7.600000000000000000e+01,2.070000000000000000e+02,4.990000000000000000e+02,1.280000000000000000e+02,3.800000000000000000e+01,8.900000000000000000e+01,3.750000000000000000e+02,2.480000000000000000e+02,3.800000000000000044e-01,3.385302000000000000e+09
6.900000000000000000e+01,1.980000000000000000e+02,5.060000000000000000e+02,1.250000000000000000e+02,3.500000000000000000e+01,8.600000000000000000e+01,2.630000000000000000e+02,1.700000000000000000e+02,3.900000000000000133e-01,3.403651700000000000e+09
6.000000000000000000e+01,2.020000000000000000e+02,5.640000000000000000e+02,1.650000000000000000e+02,6.900000000000000000e+01,7.300000000000000000e+01,1.280000000000000000e+02,1.200000000000000000e+02,4.000000000000000222e-01,3.423309000000000000e+09
7.200000000000000000e+01,2.530000000000000000e+02,7.010000000000000000e+02,2.350000000000000000e+02,1.250000000000000000e+02,7.400000000000000000e+01,1.020000000000000000e+02,7.400000000000000000e+01,4.000000000000000222e-01,3.442817800000000000e+09
8.800000000000000000e+01,2.700000000000000000e+02,9.080000000000000000e+02,3.340000000000000000e+02,1.490000000000000000e+02,7.900000000000000000e+01,9.200000000000000000e+01,7.400000000000000000e+01,4.000000000000000222e-01,3.462140400000000000e+09
1.000000000000000000e+02,2.940000000000000000e+02,1.026000000000000000e+03,3.800000000000000000e+02,1.530000000000000000e+02,8.100000000000000000e+01,7.600000000000000000e+01,6.300000000000000000e+01,3.900000000000000133e-01,3.483176000000000000e+09
1.230000000000000000e+02,3.500000000000000000e+02,1.114000000000000000e+03,4.130000000000000000e+02,1.650000000000000000e+02,8.900000000000000000e+01,6.300000000000000000e+01,6.900000000000000000e+01,3.800000000000000044e-01,3.503158900000000000e+09
1.380000000000000000e+02,3.940000000000000000e+02,1.195000000000000000e+03,4.840000000000000000e+02,1.760000000000000000e+02,9.700000000000000000e+01,6.400000000000000000e+01,7.500000000000000000e+01,3.699999999999999956e-01,3.523107700000000000e+09
1.400000000000000000e+02,3.920000000000000000e+02,1.182000000000000000e+03,5.130000000000000000e+02,1.590000000000000000e+02,1.040000000000000000e+02,5.900000000000000000e+01,7.600000000000000000e+01,3.599999999999999867e-01,3.543370800000000000e+09
1.760000000000000000e+02,4.640000000000000000e+02,1.106000000000000000e+03,6.550000000000000000e+02,1.700000000000000000e+02,1.120000000000000000e+02,6.600000000000000000e+01,9.100000000000000000e+01,3.499999999999999778e-01,3.562985800000000000e+09
1.900000000000000000e+02,5.190000000000000000e+02,1.160000000000000000e+03,6.890000000000000000e+02,2.020000000000000000e+02,1.240000000000000000e+02,7.100000000000000000e+01,9.800000000000000000e+01,3.400000000000000244e-01,3.581251600000000000e+09
1.890000000000000000e+02,5.090000000000000000e+02,1.116000000000000000e+03,7.130000000000000000e+02,2.120000000000000000e+02,1.220000000000000000e+02,6.900000000000000000e+01,1.000000000000000000e+02,3.200000000000000067e-01,3.599866400000000000e+09
1.910000000000000000e+02,4.960000000000000000e+02,1.196000000000000000e+03,7.550000000000000000e+02,2.040000000000000000e+02,1.170000000000000000e+02,6.300000000000000000e+01,9.700000000000000000e+01,3.099999999999999978e-01,3.618381800000000000e+09
2.000000000000000000e+02,5.510000000000000000e+02,1.343000000000000000e+03,8.070000000000000000e+02,2.090000000000000000e+02,1.120000000000000000e+02,6.700000000000000000e+01,1.020000000000000000e+02,2.800000000000000266e-01,3.638445500000000000e+09
1.740000000000000000e+02,5.500000000000000000e+02,1.323000000000000000e+03,7.070000000000000000e+02,1.980000000000000000e+02,1.060000000000000000e+02,6.500000000000000000e+01,9.100000000000000000e+01,2.600000000000000089e-01,3.658391800000000000e+09
1.920000000000000000e+02,5.290000000000000000e+02,1.309000000000000000e+03,7.870000000000000000e+02,1.970000000000000000e+02,1.090000000000000000e+02,6.800000000000000000e+01,9.900000000000000000e+01,2.399999999999999911e-01,3.678061400000000000e+09
1.990000000000000000e+02,5.390000000000000000e+02,1.350000000000000000e+03,7.840000000000000000e+02,2.090000000000000000e+02,1.190000000000000000e+02,7.400000000000000000e+01,9.700000000000000000e+01,2.300000000000000100e-01,3.697338500000000000e+09
1.910000000000000000e+02,5.480000000000000000e+02,1.231000000000000000e+03,7.170000000000000000e+02,2.070000000000000000e+02,1.170000000000000000e+02,7.400000000000000000e+01,9.500000000000000000e+01,2.200000000000000011e-01,3.716859000000000000e+09
1.960000000000000000e+02,5.140000000000000000e+02,1.081000000000000000e+03,6.570000000000000000e+02,2.110000000000000000e+02,1.240000000000000000e+02,7.400000000000000000e+01,9.300000000000000000e+01,2.099999999999999922e-01,3.736638800000000000e+09
2.150000000000000000e+02,5.700000000000000000e+02,1.048000000000000000e+03,6.340000000000000000e+02,2.140000000000000000e+02,1.330000000000000000e+02,7.700000000000000000e+01,1.010000000000000000e+02,2.000000000000000111e-01,3.754264000000000000e+09
1.940000000000000000e+02,5.570000000000000000e+02,9.800000000000000000e+02,6.490000000000000000e+02,2.150000000000000000e+02,1.330000000000000000e+02,7.200000000000000000e+01,9.000000000000000000e+01,1.900000000000000022e-01,3.772337700000000000e+09
2.030000000000000000e+02,6.030000000000000000e+02,9.870000000000000000e+02,6.650000000000000000e+02,2.090000000000000000e+02,1.370000000000000000e+02,7.000000000000000000e+01,9.500000000000000000e+01,1.799999999999999933e-01,3.791747000000000000e+09
2.380000000000000000e+02,6.340000000000000000e+02,1.061000000000000000e+03,7.440000000000000000e+02,2.340000000000000000e+02,1.430000000000000000e+02,8.000000000000000000e+01,1.140000000000000000e+02,1.799999999999999933e-01,3.811877500000000000e+09
2.570000000000000000e+02,6.450000000000000000e+02,1.073000000000000000e+03,8.050000000000000000e+02,2.460000000000000000e+02,1.560000000000000000e+02,9.100000000000000000e+01,1.230000000000000000e+02,1.700000000000000122e-01,3.830104100000000000e+09
2.500000000000000000e+02,5.930000000000000000e+02,1.076000000000000000e+03,8.450000000000000000e+02,2.480000000000000000e+02,1.530000000000000000e+02,8.700000000000000000e+01,1.180000000000000000e+02,1.600000000000000033e-01,3.850063100000000000e+09
2.440000000000000000e+02,6.040000000000000000e+02,1.063000000000000000e+03,7.520000000000000000e+02,2.380000000000000000e+02,1.420000000000000000e+02,8.400000000000000000e+01,1.170000000000000000e+02,1.600000000000000033e-01,3.868908500000000000e+09
2.370000000000000000e+02,5.580000000000000000e+02,1.090000000000000000e+03,7.650000000000000000e+02,2.290000000000000000e+02,1.310000000000000000e+02,8.200000000000000000e+01,1.150000000000000000e+02,1.499999999999999944e-01,3.890103700000000000e+09
2.190000000000000000e+02,5.960000000000000000e+02,1.149000000000000000e+03,7.250000000000000000e+02,2.120000000000000000e+02,1.270000000000000000e+02,7.800000000000000000e+01,1.020000000000000000e+02,1.499999999999999944e-01,3.913430600000000000e+09
1.810000000000000000e+02,5.940000000000000000e+02,1.117000000000000000e+03,6.700000000000000000e+02,1.880000000000000000e+02,9.600000000000000000e+01,6.200000000000000000e+01,8.400000000000000000e+01,1.400000000000000133e-01,3.931888000000000000e+09
1.660000000000000000e+02,5.690000000000000000e+02,1.145000000000000000e+03,5.970000000000000000e+02,1.840000000000000000e+02,9.700000000000000000e+01,6.500000000000000000e+01,8.000000000000000000e+01,1.400000000000000133e-01,3.950951600000000000e+09
1.740000000000000000e+02,5.960000000000000000e+02,1.142000000000000000e+03,6.190000000000000000e+02,1.920000000000000000e+02,1.230000000000000000e+02,6.600000000000000000e+01,8.300000000000000000e+01,1.300000000000000044e-01,3.973359500000000000e+09
1.660000000000000000e+02,6.900000000000000000e+02,1.055000000000000000e+03,5.750000000000000000e+02,2.040000000000000000e+02,1.250000000000000000e+02,6.200000000000000000e+01,7.600000000000000000e+01,1.199999999999999956e-01,3.993620700000000000e+09
1.460000000000000000e+02,6.330000000000000000e+02,1.011000000000000000e+03,5.360000000000000000e+02,2.090000000000000000e+02,1.280000000000000000e+02,6.200000000000000000e+01,7.300000000000000000e+01,1.199999999999999956e-01,4.011649700000000000e+09
2.050000000000000000e+02,7.520000000000000000e+02,1.057000000000000000e+03,5.850000000000000000e+02,2.270000000000000000e+02,1.400000000000000000e+02,7.600000000000000000e+01,9.900000000000000000e+01,1.199999999999999956e-01,4.030091500000000000e+09
2.190000000000000000e+02,7.620000000000000000e+02,1.035000000000000000e+03,6.170000000000000000e+02,2.280000000000000000e+02,1.400000000000000000e+02,7.800000000000000000e+01,1.050000000000000000e+02,1.100000000000000006e-01,4.050013500000000000e+09
2.200000000000000000e+02,7.930000000000000000e+02,1.025000000000000000e+03,5.810000000000000000e+02,2.240000000000000000e+02,1.300000000000000000e+02,7.900000000000000000e+01,1.030000000000000000e+02,1.100000000000000006e-01,4.069892000000000000e+09
2.160000000000000000e+02,7.100000000000000000e+02,1.091000000000000000e+03,6.260000000000000000e+02,2.210000000000000000e+02,1.390000000000000000e+02,8.000000000000000000e+01,1.020000000000000000e+02,1.000000000000000056e-01,4.087706200000000000e+09
2.190000000000000000e+02,7.450000000000000000e+02,1.194000000000000000e+03,6.260000000000000000e+02,2.130000000000000000e+02,1.370000000000000000e+02,7.800000000000000000e+01,1.040000000000000000e+02,1.000000000000000056e-01,4.105882200000000000e+09
1.900000000000000000e+02,6.470000000000000000e+02,1.288000000000000000e+03,6.310000000000000000e+02,2.050000000000000000e+02,1.360000000000000000e+02,7.100000000000000000e+01,9.300000000000000000e+01,8.999999999999999667e-02,4.127495700000000000e+09
1.770000000000000000e+02,6.450000000000000000e+02,1.311000000000000000e+03,6.060000000000000000e+02,1.910000000000000000e+02,1.270000000000000000e+02,6.400000000000000000e+01,8.800000000000000000e+01,8.999999999999999667e-02,4.145690600000000000e+09
1.750000000000000000e+02,5.840000000000000000e+02,1.450000000000000000e+03,5.850000000000000000e+02,1.790000000000000000e+02,1.200000000000000000e+02,6.000000000000000000e+01,8.700000000000000000e+01,8.999999999999999667e-02,4.163741400000000000e+09
2.180000000000000000e+02,6.550000000000000000e+02,1.407000000000000000e+03,5.430000000000000000e+02,1.850000000000000000e+02,1.260000000000000000e+02,6.800000000000000000e+01,1.060000000000000000e+02,8.999999999999999667e-02,4.182611300000000000e+09
2.360000000000000000e+02,7.160000000000000000e+02,1.229000000000000000e+03,5.840000000000000000e+02,1.930000000000000000e+02,1.370000000000000000e+02,7.000000000000000000e+01,1.100000000000000000e+02,8.999999999999999667e-02,4.200584400000000000e+09
2.380000000000000000e+02,7.010000000000000000e+02,1.103000000000000000e+03,5.530000000000000000e+02,2.140000000000000000e+02,1.460000000000000000e+02,7.100000000000000000e+01,1.110000000000000000e+02,8.999999999999999667e-02,4.218734600000000000e+09
2.560000000000000000e+02,6.990000000000000000e+02,1.129000000000000000e+03,6.150000000000000000e+02,2.420000000000000000e+02,1.550000000000000000e+02,7.800000000000000000e+01,1.230000000000000000e+02,8.999999999999999667e-02,4.237986500000000000e+09
2.630000000000000000e+02,7.660000000000000000e+02,9.750000000000000000e+02,6.360000000000000000e+02,2.430000000000000000e+02,1.520000000000000000e+02,7.900000000000000000e+01,1.250000000000000000e+02,8.999999999999999667e-02,4.257127000000000000e+09
2.500000000000000000e+02,7.970000000000000000e+02,1.087000000000000000e+03,6.440000000000000000e+02,2.360000000000000000e+02,1.420000000000000000e+02,7.600000000000000000e+01,1.180000000000000000e+02,8.999999999999999667e-02,4.275468200000000000e+09
2.820000000000000000e+02,8.060000000000000000e+02,1.108000000000000000e+03,7.080000000000000000e+02,2.800000000000000000e+02,1.490000000000000000e+02,9.000000000000000000e+01,1.440000000000000000e+02,8.999999999999999667e-02,4.297791600000000000e+09
3.070000000000000000e+02,8.400000000000000000e+02,1.126000000000000000e+03,7.330000000000000000e+02,2.950000000000000000e+02,1.540000000000000000e+02,1.000000000000000000e+02,1.570000000000000000e+02,8.999999999999999667e-02,4.320474600000000000e+09
2.990000000000000000e+02,8.500000000000000000e+02,1.050000000000000000e+03,7.100000000000000000e+02,2.840000000000000000e+02,1.520000000000000000e+02,1.000000000000000000e+02,1.510000000000000000e+02,8.000000000000000167e-02,4.339194300000000000e+09
2.860000000000000000e+02,7.740000000000000000e+02,1.000000000000000000e+03,6.840000000000000000e+02,2.780000000000000000e+02,1.500000000000000000e+02,9.800000000000000000e+01,1.460000000000000000e+02,8.000000000000000167e-02,4.358707100000000000e+09
2.680000000000000000e+02,7.030000000000000000e+02,8.500000000000000000e+02,6.750000000000000000e+02,2.720000000000000000e+02,1.470000000000000000e+02,9.600000000000000000e+01,1.430000000000000000e+02,8.000000000000000167e-02,4.376212400000000000e+09
2.150000000000000000e+02,6.170000000000000000e+02,8.120000000000000000e+02,5.510000000000000000e+02,2.090000000000000000e+02,1.220000000000000000e+02,8.000000000000000000e+01,1.110000000000000000e+02,8.000000000000000167e-02,4.395606000000000000e+09
1.520000000000000000e+02,5.300000000000000000e+02,7.380000000000000000e+02,4.200000000000000000e+02,1.430000000000000000e+02,9.200000000000000000e+01,7.000000000000000000e+01,1.020000000000000000e+02,8.000000000000000167e-02,4.417829300000000000e+09
1.300000000000000000e+02,4.680000000000000000e+02,7.250000000000000000e+02,3.270000000000000000e+02,1.110000000000000000e+02,3.660000000000000000e+02,1.420000000000000000e+02,2.060000000000000000e+02,8.999999999999999667e-02,4.436104000000000000e+09
1.370000000000000000e+02,4.570000000000000000e+02,7.080000000000000000e+02,3.100000000000000000e+02,1.150000000000000000e+02,4.190000000000000000e+02,1.810000000000000000e+02,3.120000000000000000e+02,1.000000000000000056e-01,4.456655200000000000e+09
1.490000000000000000e+02,4.360000000000000000e+02,8.250000000000000000e+02,2.590000000000000000e+02,1.140000000000000000e+02,5.090000000000000000e+02,3.640000000000000000e+02,4.190000000000000000e+02,1.000000000000000056e-01,4.477184600000000000e+09
1.500000000000000000e+02,3.830000000000000000e+02,9.140000000000000000e+02,2.160000000000000000e+02,1.150000000000000000e+02,6.370000000000000000e+02,4.330000000000000000e+02,4.740000000000000000e+02,1.199999999999999956e-01,4.499219700000000000e+09
1.470000000000000000e+02,3.800000000000000000e+02,8.830000000000000000e+02,2.070000000000000000e+02,1.150000000000000000e+02,8.010000000000000000e+02,4.840000000000000000e+02,5.710000000000000000e+02,1.300000000000000044e-01,4.519406000000000000e+09
1.440000000000000000e+02,3.670000000000000000e+02,8.810000000000000000e+02,2.120000000000000000e+02,1.150000000000000000e+02,7.490000000000000000e+02,5.340000000000000000e+02,5.640000000000000000e+02,1.499999999999999944e-01,4.541120300000000000e+09
1.390000000000000000e+02,4.030000000000000000e+02,9.010000000000000000e+02,2.180000000000000000e+02,1.120000000000000000e+02,7.310000000000000000e+02,5.640000000000000000e+02,5.410000000000000000e+02,1.600000000000000033e-01,4.561292800000000000e+09
1.190000000000000000e+02,3.670000000000000000e+02,8.600000000000000000e+02,1.850000000000000000e+02,1.000000000000000000e+02,6.930000000000000000e+02,5.180000000000000000e+02,4.800000000000000000e+02,1.900000000000000022e-01,4.581227000000000000e+09
1.130000000000000000e+02,3.110000000000000000e+02,8.380000000000000000e+02,1.770000000000000000e+02,9.700000000000000000e+01,6.520000000000000000e+02,5.060000000000000000e+02,4.720000000000000000e+02,2.099999999999999922e-01,4.602142400000000000e+09
1.150000000000000000e+02,2.980000000000000000e+02,8.940000000000000000e+02,1.910000000000000000e+02,8.700000000000000000e+01,5.740000000000000000e+02,5.860000000000000000e+02,4.040000000000000000e+02,2.399999999999999911e-01,4.621274100000000000e+09
1.280000000000000000e+02,3.030000000000000000e+02,8.660000000000000000e+02,1.970000000000000000e+02,8.700000000000000000e+01,5.760000000000000000e+02,5.690000000000000000e+02,4.120000000000000000e+02,2.600000000000000089e-01,4.642970700000000000e+09
1.240000000000000000e+02,2.730000000000000000e+02,8.150000000000000000e+02,1.810000000000000000e+02,8.200000000000000000e+01,5.890000000000000000e+02,5.390000000000000000e+02,4.090000000000000000e+02,2.899999999999999800e-01,4.664240300000000000e+09
1.280000000000000000e+02,2.660000000000000000e+02,7.610000000000000000e+02,1.680000000000000000e+02,7.200000000000000000e+01,5.870000000000000000e+02,5.270000000000000000e+02,4.390000000000000000e+02,3.099999999999999978e-01,4.691486000000000000e+09
1.300000000000000000e+02,2.790000000000000000e+02,7.320000000000000000e+02,1.680000000000000000e+02,6.900000000000000000e+01,5.260000000000000000e+02,5.260000000000000000e+02,4.870000000000000000e+02,3.200000000000000067e-01,4.712819200000000000e+09
1.190000000000000000e+02,2.600000000000000000e+02,6.460000000000000000e+02,1.440000000000000000e+02,6.100000000000000000e+01,3.900000000000000000e+02,4.150000000000000000e+02,4.670000000000000000e+02,3.300000000000000155e-01,4.732287100000000000e+09
1.060000000000000000e+02,2.540000000000000000e+02,6.690000000000000000e+02,1.430000000000000000e+02,6.700000000000000000e+01,3.250000000000000000e+02,3.820000000000000000e+02,4.520000000000000000e+02,3.400000000000000244e-01,4.758111300000000000e+09
1.150000000000000000e+02,2.640000000000000000e+02,7.100000000000000000e+02,1.570000000000000000e+02,6.900000000000000000e+01,2.980000000000000000e+02,3.980000000000000000e+02,4.580000000000000000e+02,3.499999999999999778e-01,4.777122900000000000e+09
1.240000000000000000e+02,2.610000000000000000e+02,6.800000000000000000e+02,1.610000000000000000e+02,6.700000000000000000e+01,3.090000000000000000e+02,4.520000000000000000e+02,4.940000000000000000e+02,3.499999999999999778e-01,4.802697700000000000e+09
1.180000000000000000e+02,2.620000000000000000e+02,5.880000000000000000e+02,1.610000000000000000e+02,6.300000000000000000e+01,3.220000000000000000e+02,4.530000000000000000e+02,5.110000000000000000e+02,3.599999999999999867e-01,4.825355000000000000e+09
1.190000000000000000e+02,3.300000000000000000e+02,6.040000000000000000e+02,1.820000000000000000e+02,6.700000000000000000e+01,3.290000000000000000e+02,4.390000000000000000e+02,5.180000000000000000e+02,3.599999999999999867e-01,4.844709100000000000e+09
1.250000000000000000e+02,3.480000000000000000e+02,6.060000000000000000e+02,1.830000000000000000e+02,6.500000000000000000e+01,4.060000000000000000e+02,4.410000000000000000e+02,5.590000000000000000e+02,3.599999999999999867e-01,4.867260300000000000e+09
1.190000000000000000e+02,3.440000000000000000e+02,6.100000000000000000e+02,1.680000000000000000e+02,6.200000000000000000e+01,4.060000000000000000e+02,4.450000000000000000e+02,5.460000000000000000e+02,3.499999999999999778e-01,4.886184800000000000e+09
9.800000000000000000e+01,3.290000000000000000e+02,5.720000000000000000e+02,1.600000000000000000e+02,6.300000000000000000e+01,4.210000000000000000e+02,5.340000000000000000e+02,5.700000000000000000e+02,3.499999999999999778e-01,4.909352500000000000e+09
9.100000000000000000e+01,3.060000000000000000e+02,5.500000000000000000e+02,1.550000000000000000e+02,6.200000000000000000e+01,4.220000000000000000e+02,5.610000000000000000e+02,5.000000000000000000e+02,3.400000000000000244e-01,4.932701700000000000e+09
1.070000000000000000e+02,2.630000000000000000e+02,6.110000000000000000e+02,1.530000000000000000e+02,6.300000000000000000e+01,4.040000000000000000e+02,5.580000000000000000e+02,4.950000000000000000e+02,3.300000000000000155e-01,4.954680500000000000e+09
9.800000000000000000e+01,2.550000000000000000e+02,5.880000000000000000e+02,1.370000000000000000e+02,6.000000000000000000e+01,3.720000000000000000e+02,5.890000000000000000e+02,4.650000000000000000e+02,3.300000000000000155e-01,4.973455400000000000e+09
9.900000000000000000e+01,2.010000000000000000e+02,5.080000000000000000e+02,1.320000000000000000e+02,6.000000000000000000e+01,3.700000000000000000e+02,5.770000000000000000e+02,5.500000000000000000e+02,3.300000000000000155e-01,4.996728000000000000e+09
1.090000000000000000e+02,2.040000000000000000e+02,5.000000000000000000e+02,1.320000000000000000e+02,5.700000000000000000e+01,3.580000000000000000e+02,5.160000000000000000e+02,5.610000000000000000e+02,3.300000000000000155e-01,5.017997000000000000e+09
1.100000000000000000e+02,2.100000000000000000e+02,5.140000000000000000e+02,1.420000000000000000e+02,5.700000000000000000e+01,3.130000000000000000e+02,4.580000000000000000e+02,5.600000000000000000e+02,3.300000000000000155e-01,5.040303000000000000e+09
1.030000000000000000e+02,1.860000000000000000e+02,3.630000000000000000e+02,1.100000000000000000e+02,5.300000000000000000e+01,3.160000000000000000e+02,4.730000000000000000e+02,5.400000000000000000e+02,3.300000000000000155e-01,5.063814000000000000e+09
1.140000000000000000e+02,1.570000000000000000e+02,3.240000000000000000e+02,1.030000000000000000e+02,4.800000000000000000e+01,3.120000000000000000e+02,4.310000000000000000e+02,5.110000000000000000e+02,3.300000000000000155e-01,5.081998400000000000e+09
1.140000000000000000e+02,1.610000000000000000e+02,3.120000000000000000e+02,1.000000000000000000e+02,4.600000000000000000e+01,3.630000000000000000e+02,5.110000000000000000e+02,4.580000000000000000e+02,3.300000000000000155e-01,5.099367500000000000e+09
1.010000000000000000e+02,1.640000000000000000e+02,3.080000000000000000e+02,9.800000000000000000e+01,4.100000000000000000e+01,3.260000000000000000e+02,4.300000000000000000e+02,4.040000000000000000e+02,3.300000000000000155e-01,5.116163200000000000e+09
9.900000000000000000e+01,1.910000000000000000e+02,2.640000000000000000e+02,8.100000000000000000e+01,4.200000000000000000e+01,3.320000000000000000e+02,4.320000000000000000e+02,3.840000000000000000e+02,3.400000000000000244e-01,5.134126500000000000e+09
9.500000000000000000e+01,2.170000000000000000e+02,2.340000000000000000e+02,6.600000000000000000e+01,3.700000000000000000e+01,3.330000000000000000e+02,4.570000000000000000e+02,4.050000000000000000e+02,3.499999999999999778e-01,5.153550000000000000e+09
7.400000000000000000e+01,2.040000000000000000e+02,2.030000000000000000e+02,6.400000000000000000e+01,3.700000000000000000e+01,3.570000000000000000e+02,4.760000000000000000e+02,4.740000000000000000e+02,3.599999999999999867e-01,5.171784000000000000e+09
7.200000000000000000e+01,2.020000000000000000e+02,2.050000000000000000e+02,6.600000000000000000e+01,3.500000000000000000e+01,3.550000000000000000e+02,4.090000000000000000e+02,4.370000000000000000e+02,3.699999999999999956e-01,5.189636600000000000e+09
7.900000000000000000e+01,1.980000000000000000e+02,2.090000000000000000e+02,6.600000000000000000e+01,3.700000000000000000e+01,3.450000000000000000e+02,4.050000000000000000e+02,3.780000000000000000e+02,3.800000000000000044e-01,5.207838600000000000e+09
9.900000000000000000e+01,1.840000000000000000e+02,3.070000000000000000e+02,8.400000000000000000e+01,4.400000000000000000e+01,3.490000000000000000e+02,4.060000000000000000e+02,4.300000000000000000e+02,3.900000000000000133e-01,5.225586200000000000e+09
9.600000000000000000e+01,1.600000000000000000e+02,3.960000000000000000e+02,1.280000000000000000e+02,5.500000000000000000e+01,3.500000000000000000e+02,3.590000000000000000e+02,4.250000000000000000e+02,3.900000000000000133e-01,5.243563900000000000e+09
9.700000000000000000e+01,1.670000000000000000e+02,4.090000000000000000e+02,1.400000000000000000e+02,5.500000000000000000e+01,2.880000000000000000e+02,3.640000000000000000e+02,3.600000000000000000e+02,4.000000000000000222e-01,5.261738800000000000e+09
1.070000000000000000e+02,1.640000000000000000e+02,4.220000000000000000e+02,1.400000000000000000e+02,5.900000000000000000e+01,3.300000000000000000e+02,4.020000000000000000e+02,4.220000000000000000e+02,4.000000000000000222e-01,5.279498700000000000e+09
1.170000000000000000e+02,1.860000000000000000e+02,4.370000000000000000e+02,1.450000000000000000e+02,6.000000000000000000e+01,3.480000000000000000e+02,4.080000000000000000e+02,4.140000000000000000e+02,4.099999999999999756e-01,5.297220300000000000e+09
1.040000000000000000e+02,2.140000000000000000e+02,5.360000000000000000e+02,1.460000000000000000e+02,6.100000000000000000e+01,3.500000000000000000e+02,4.170000000000000000e+02,3.700000000000000000e+02,4.099999999999999756e-01,5.316007000000000000e+09
1.020000000000000000e+02,2.070000000000000000e+02,5.600000000000000000e+02,1.410000000000000000e+02,6.000000000000000000e+01,3.550000000000000000e+02,4.240000000000000000e+02,3.560000000000000000e+02,4.099999999999999756e-01,5.333801000000000000e+09
9.900000000000000000e+01,2.070000000000000000e+02,5.630000000000000000e+02,1.340000000000000000e+02,5.900000000000000000e+01,3.550000000000000000e+02,4.070000000000000000e+02,3.460000000000000000e+02,4.099999999999999756e-01,5.351894300000000000e+09
8.600000000000000000e+01,2.150000000000000000e+02,6.090000000000000000e+02,1.360000000000000000e+02,5.500000000000000000e+01,2.660000000000000000e+02,3.330000000000000000e+02,2.500000000000000000e+02,4.099999999999999756e-01,5.369688800000000000e+09
7.500000000000000000e+01,2.090000000000000000e+02,6.430000000000000000e+02,1.330000000000000000e+02,5.400000000000000000e+01,2.460000000000000000e+02,3.770000000000000000e+02,3.360000000000000000e+02,4.000000000000000222e-01,5.388166600000000000e+09
6.500000000000000000e+01,1.610000000000000000e+02,5.710000000000000000e+02,1.220000000000000000e+02,4.700000000000000000e+01,2.660000000000000000e+02,3.730000000000000000e+02,3.210000000000000000e+02,4.000000000000000222e-01,5.406924300000000000e+09
6.500000000000000000e+01,1.750000000000000000e+02,5.220000000000000000e+02,7.700000000000000000e+01,3.200000000000000000e+01,2.570000000000000000e+02,3.510000000000000000e+02,3.140000000000000000e+02,4.000000000000000222e-01,5.425094800000000000e+09
6.600000000000000000e+01,1.830000000000000000e+02,5.780000000000000000e+02,7.600000000000000000e+01,3.200000000000000000e+01,2.420000000000000000e+02,3.120000000000000000e+02,3.170000000000000000e+02,3.900000000000000133e-01,5.443888600000000000e+09
6.300000000000000000e+01,1.890000000000000000e+02,5.950000000000000000e+02,8.500000000000000000e+01,3.800000000000000000e+01,2.330000000000000000e+02,3.370000000000000000e+02,3.080000000000000000e+02,4.000000000000000222e-01,5.462973800000000000e+09
6.400000000000000000e+01,1.820000000000000000e+02,5.590000000000000000e+02,8.100000000000000000e+01,3.700000000000000000e+01,2.350000000000000000e+02,2.460000000000000000e+02,2.110000000000000000e+02,4.000000000000000222e-01,5.481726000000000000e+09
6.500000000000000000e+01,1.920000000000000000e+02,5.310000000000000000e+02,7.700000000000000000e+01,3.600000000000000000e+01,2.090000000000000000e+02,2.020000000000000000e+02,2.420000000000000000e+02,4.000000000000000222e-01,5.499514100000000000e+09
5.900000000000000000e+01,1.690000000000000000e+02,5.000000000000000000e+02,7.600000000000000000e+01,3.500000000000000000e+01,1.990000000000000000e+02,2.000000000000000000e+02,2.350000000000000000e+02,4.000000000000000222e-01,5.517103400000000000e+09
6.000000000000000000e+01,1.750000000000000000e+02,4.820000000000000000e+02,1.110000000000000000e+02,4.100000000000000000e+01,1.910000000000000000e+02,1.940000000000000000e+02,2.220000000000000000e+02,4.099999999999999756e-01,5.535331900000000000e+09
5.700000000000000000e+01,1.590000000000000000e+02,4.590000000000000000e+02,1.050000000000000000e+02,3.400000000000000000e+01,1.640000000000000000e+02,1.530000000000000000e+02,2.140000000000000000e+02,4.099999999999999756e-01,5.553870600000000000e+09
4.400000000000000000e+01,1.570000000000000000e+02,4.830000000000000000e+02,1.080000000000000000e+02,3.700000000000000000e+01,1.480000000000000000e+02,2.030000000000000000e+02,1.730000000000000000e+02,4.199999999999999845e-01,5.573168700000000000e+09
4.400000000000000000e+01,1.550000000000000000e+02,4.560000000000000000e+02,1.050000000000000000e+02,3.500000000000000000e+01,1.410000000000000000e+02,2.050000000000000000e+02,1.110000000000000000e+02,4.299999999999999933e-01,5.592626800000000000e+09
5.300000000000000000e+01,1.460000000000000000e+02,4.490000000000000000e+02,1.150000000000000000e+02,3.800000000000000000e+01,1.400000000000000000e+02,2.220000000000000000e+02,1.530000000000000000e+02,4.400000000000000022e-01,5.613147500000000000e+09
5.200000000000000000e+01,1.260000000000000000e+02,4.820000000000000000e+02,8.100000000000000000e+01,3.200000000000000000e+01,1.370000000000000000e+02,2.250000000000000000e+02,1.510000000000000000e+02,4.500000000000000111e-01,5.632019500000000000e+09
5.200000000000000000e+01,1.290000000000000000e+02,4.770000000000000000e+02,7.800000000000000000e+01,3.100000000000000000e+01,1.340000000000000000e+02,2.120000000000000000e+02,1.510000000000000000e+02,4.600000000000000200e-01,5.650213500000000000e+09
5.200000000000000000e+01,1.500000000000000000e+02,4.720000000000000000e+02,8.200000000000000000e+01,2.900000000000000000e+01,1.100000000000000000e+02,1.430000000000000000e+02,1.530000000000000000e+02,4.699999999999999734e-01,5.668743500000000000e+09
5.000000000000000000e+01,1.470000000000000000e+02,4.700000000000000000e+02,8.600000000000000000e+01,3.300000000000000000e+01,6.600000000000000000e+01,1.880000000000000000e+02,1.370000000000000000e+02,4.799999999999999822e-01,5.690891100000000000e+09
4.400000000000000000e+01,1.360000000000000000e+02,4.620000000000000000e+02,7.900000000000000000e+01,3.100000000000000000e+01,7.700000000000000000e+01,1.700000000000000000e+02,8.600000000000000000e+01,4.899999999999999911e-01,5.713034200000000000e+09
4.300000000000000000e+01,1.490000000000000000e+02,3.780000000000000000e+02,7.400000000000000000e+01,3.200000000000000000e+01,7.800000000000000000e+01,1.650000000000000000e+02,8.100000000000000000e+01,5.000000000000000000e-01,5.731379200000000000e+09
4.400000000000000000e+01,1.480000000000000000e+02,3.140000000000000000e+02,7.500000000000000000e+01,3.300000000000000000e+01,7.700000000000000000e+01,1.660000000000000000e+02,8.000000000000000000e+01,5.100000000000000089e-01,5.751460600000000000e+09
4.000000000000000000e+01,1.340000000000000000e+02,2.840000000000000000e+02,7.000000000000000000e+01,3.300000000000000000e+01,7.700000000000000000e+01,1.630000000000000000e+02,7.500000000000000000e+01,5.100000000000000089e-01,5.770172200000000000e+09
3.900000000000000000e+01,1.480000000000000000e+02,2.880000000000000000e+02,6.500000000000000000e+01,2.900000000000000000e+01,9.700000000000000000e+01,1.020000000000000000e+02,7.400000000000000000e+01,5.200000000000000178e-01,5.790803700000000000e+09
4.000000000000000000e+01,1.530000000000000000e+02,2.970000000000000000e+02,5.800000000000000000e+01,3.000000000000000000e+01,8.300000000000000000e+01,1.760000000000000000e+02,6.400000000000000000e+01,5.200000000000000178e-01,5.813422400000000000e+09
4.400000000000000000e+01,1.590000000000000000e+02,3.740000000000000000e+02,9.600000000000000000e+01,3.400000000000000000e+01,8.200000000000000000e+01,1.790000000000000000e+02,6.300000000000000000e+01,5.200000000000000178e-01,5.832142100000000000e+09
5.200000000000000000e+01,1.650000000000000000e+02,3.920000000000000000e+02,1.150000000000000000e+02,4.200000000000000000e+01,8.700000000000000000e+01,1.850000000000000000e+02,6.600000000000000000e+01,5.300000000000000266e-01,5.851375400000000000e+09
5.400000000000000000e+01,1.700000000000000000e+02,4.650000000000000000e+02,1.360000000000000000e+02,4.800000000000000000e+01,8.900000000000000000e+01,1.870000000000000000e+02,6.500000000000000000e+01,5.300000000000000266e-01,5.869231200000000000e+09
5.300000000000000000e+01,1.620000000000000000e+02,4.760000000000000000e+02,1.380000000000000000e+02,4.900000000000000000e+01,5.800000000000000000e+01,1.800000000000000000e+02,6.100000000000000000e+01,5.400000000000000355e-01,5.890921400000000000e+09
5.000000000000000000e+01,1.540000000000000000e+02,4.810000000000000000e+02,1.420000000000000000e+02,5.300000000000000000e+01,6.700000000000000000e+01,9.600000000000000000e+01,4.900000000000000000e+01,5.500000000000000444e-01,5.913720500000000000e+09
4.900000000000000000e+01,1.320000000000000000e+02,4.960000000000000000e+02,1.260000000000000000e+02,6.100000000000000000e+01,6.900000000000000000e+01,8.100000000000000000e+01,4.700000000000000000e+01,5.500000000000000444e-01,5.932263100000000000e+09
3.900000000000000000e+01,1.220000000000000000e+02,5.510000000000000000e+02,1.080000000000000000e+02,5.900000000000000000e+01,6.100000000000000000e+01,6.200000000000000000e+01,3.200000000000000000e+01,5.500000000000000444e-01,5.951764000000000000e+09
3.500000000000000000e+01,9.900000000000000000e+01,5.060000000000000000e+02,9.000000000000000000e+01,5.600000000000000000e+01,6.300000000000000000e+01,4.900000000000000000e+01,2.800000000000000000e+01,5.500000000000000444e-01,5.970625300000000000e+09
4.300000000000000000e+01,1.060000000000000000e+02,6.750000000000000000e+02,1.450000000000000000e+02,5.900000000000000000e+01,6.800000000000000000e+01,4.300000000000000000e+01,2.800000000000000000e+01,5.600000000000000533e-01,5.993398200000000000e+09
5.400000000000000000e+01,1.360000000000000000e+02,7.090000000000000000e+02,1.690000000000000000e+02,6.200000000000000000e+01,6.100000000000000000e+01,3.600000000000000000e+01,3.200000000000000000e+01,5.600000000000000533e-01,6.011587500000000000e+09
5.900000000000000000e+01,1.640000000000000000e+02,7.840000000000000000e+02,2.080000000000000000e+02,7.200000000000000000e+01,6.700000000000000000e+01,3.900000000000000000e+01,3.400000000000000000e+01,5.600000000000000533e-01,6.029672800000000000e+09
6.700000000000000000e+01,1.980000000000000000e+02,8.360000000000000000e+02,2.400000000000000000e+02,8.000000000000000000e+01,7.200000000000000000e+01,4.000000000000000000e+01,3.700000000000000000e+01,5.600000000000000533e-01,6.050452300000000000e+09
6.900000000000000000e+01,2.090000000000000000e+02,9.010000000000000000e+02,2.610000000000000000e+02,8.400000000000000000e+01,7.000000000000000000e+01,4.000000000000000000e+01,3.900000000000000000e+01,5.600000000000000533e-01,6.073142800000000000e+09
7.600000000000000000e+01,2.250000000000000000e+02,8.400000000000000000e+02,2.680000000000000000e+02,8.600000000000000000e+01,6.500000000000000000e+01,4.300000000000000000e+01,4.200000000000000000e+01,5.500000000000000444e-01,6.091192700000000000e+09
8.600000000000000000e+01,2.490000000000000000e+02,9.490000000000000000e+02,2.990000000000000000e+02,9.000000000000000000e+01,7.100000000000000000e+01,4.300000000000000000e+01,4.700000000000000000e+01,5.400000000000000355e-01,6.112174700000000000e+09
1.320000000000000000e+02,3.550000000000000000e+02,1.013000000000000000e+03,3.680000000000000000e+02,1.240000000000000000e+02,8.800000000000000000e+01,5.100000000000000000e+01,6.600000000000000000e+01,5.200000000000000178e-01,6.131541400000000000e+09
1.440000000000000000e+02,3.740000000000000000e+02,1.056000000000000000e+03,4.130000000000000000e+02,1.370000000000000000e+02,9.200000000000000000e+01,5.400000000000000000e+01,7.200000000000000000e+01,5.000000000000000000e-01,6.151499500000000000e+09
1.480000000000000000e+02,3.920000000000000000e+02,1.037000000000000000e+03,4.080000000000000000e+02,1.410000000000000000e+02,9.400000000000000000e+01,5.500000000000000000e+01,7.400000000000000000e+01,4.799999999999999822e-01,6.173611600000000000e+09
1.480000000000000000e+02,3.880000000000000000e+02,1.022000000000000000e+03,4.170000000000000000e+02,1.460000000000000000e+02,1.030000000000000000e+02,5.400000000000000000e+01,7.500000000000000000e+01,4.600000000000000200e-01,6.192028800000000000e+09
1.490000000000000000e+02,4.030000000000000000e+02,9.960000000000000000e+02,4.130000000000000000e+02,1.520000000000000000e+02,1.110000000000000000e+02,5.800000000000000000e+01,7.600000000000000000e+01,4.400000000000000022e-01,6.210285700000000000e+09
1.250000000000000000e+02,3.620000000000000000e+02,9.160000000000000000e+02,3.940000000000000000e+02,1.310000000000000000e+02,9.800000000000000000e+01,5.000000000000000000e+01,6.500000000000000000e+01,4.199999999999999845e-01,6.229113100000000000e+09
1.110000000000000000e+02,3.400000000000000000e+02,8.560000000000000000e+02,3.750000000000000000e+02,1.500000000000000000e+02,1.050000000000000000e+02,4.900000000000000000e+01,6.000000000000000000e+01,3.900000000000000133e-01,6.251400100000000000e+09
1.140000000000000000e+02,3.410000000000000000e+02,8.810000000000000000e+02,4.110000000000000000e+02,1.580000000000000000e+02,1.040000000000000000e+02,5.000000000000000000e+01,6.000000000000000000e+01,3.699999999999999956e-01,6.273611700000000000e+09
1.360000000000000000e+02,3.620000000000000000e+02,9.840000000000000000e+02,4.400000000000000000e+02,1.680000000000000000e+02,1.100000000000000000e+02,6.000000000000000000e+01,7.300000000000000000e+01,3.499999999999999778e-01,6.292161400000000000e+09
1.270000000000000000e+02,3.420000000000000000e+02,1.001000000000000000e+03,4.320000000000000000e+02,1.610000000000000000e+02,1.040000000000000000e+02,5.300000000000000000e+01,6.700000000000000000e+01,3.300000000000000155e-01,6.310413200000000000e+09
1.250000000000000000e+02,3.310000000000000000e+02,9.800000000000000000e+02,4.050000000000000000e+02,1.610000000000000000e+02,1.030000000000000000e+02,5.400000000000000000e+01,6.700000000000000000e+01,3.099999999999999978e-01,6.329067900000000000e+09
1.250000000000000000e+02,3.240000000000000000e+02,9.960000000000000000e+02,4.730000000000000000e+02,1.540000000000000000e+02,1.010000000000000000e+02,5.400000000000000000e+01,6.700000000000000000e+01,2.899999999999999800e-01,6.351355300000000000e+09
1.260000000000000000e+02,3.210000000000000000e+02,1.025000000000000000e+03,4.670000000000000000e+02,1.490000000000000000e+02,1.060000000000000000e+02,5.600000000000000000e+01,6.800000000000000000e+01,2.800000000000000266e-01,6.373570200000000000e+09
1.090000000000000000e+02,3.440000000000000000e+02,1.022000000000000000e+03,4.220000000000000000e+02,1.340000000000000000e+02,9.400000000000000000e+01,4.600000000000000000e+01,5.500000000000000000e+01,2.700000000000000178e-01,6.392878800000000000e+09
1.080000000000000000e+02,3.630000000000000000e+02,1.002000000000000000e+03,4.300000000000000000e+02,1.340000000000000000e+02,8.900000000000000000e+01,4.600000000000000000e+01,5.500000000000000000e+01,2.600000000000000089e-01,6.411442800000000000e+09
1.180000000000000000e+02,3.880000000000000000e+02,1.061000000000000000e+03,4.580000000000000000e+02,1.420000000000000000e+02,9.200000000000000000e+01,5.600000000000000000e+01,6.400000000000000000e+01,2.500000000000000000e-01,6.430672600000000000e+09
1.210000000000000000e+02,4.020000000000000000e+02,1.054000000000000000e+03,3.600000000000000000e+02,1.240000000000000000e+02,8.200000000000000000e+01,5.700000000000000000e+01,6.500000000000000000e+01,2.399999999999999911e-01,6.451395500000000000e+09
1.130000000000000000e+02,3.880000000000000000e+02,9.640000000000000000e+02,3.200000000000000000e+02,1.170000000000000000e+02,7.100000000000000000e+01,5.200000000000000000e+01,6.000000000000000000e+01,2.399999999999999911e-01,6.473538400000000000e+09
1.100000000000000000e+02,3.520000000000000000e+02,8.520000000000000000e+02,3.280000000000000000e+02,1.250000000000000000e+02,7.600000000000000000e+01,5.200000000000000000e+01,6.300000000000000000e+01,2.300000000000000100e-01,6.491720900000000000e+09
1.170000000000000000e+02,3.300000000000000000e+02,8.140000000000000000e+02,3.070000000000000000e+02,1.260000000000000000e+02,8.000000000000000000e+01,5.300000000000000000e+01,6.500000000000000000e+01,2.300000000000000100e-01,6.511125600000000000e+09
9.800000000000000000e+01,2.800000000000000000e+02,7.250000000000000000e+02,2.500000000000000000e+02,1.050000000000000000e+02,8.500000000000000000e+01,3.700000000000000000e+01,5.200000000000000000e+01,2.399999999999999911e-01,6.529107500000000000e+09
9.200000000000000000e+01,2.520000000000000000e+02,6.240000000000000000e+02,2.600000000000000000e+02,1.060000000000000000e+02,9.700000000000000000e+01,3.500000000000000000e+01,4.800000000000000000e+01,2.500000000000000000e-01,6.551057500000000000e+09
9.600000000000000000e+01,2.630000000000000000e+02,6.580000000000000000e+02,2.630000000000000000e+02,1.070000000000000000e+02,1.010000000000000000e+02,4.100000000000000000e+01,5.200000000000000000e+01,2.600000000000000089e-01,6.573406100000000000e+09
8.600000000000000000e+01,2.650000000000000000e+02,8.180000000000000000e+02,2.500000000000000000e+02,9.700000000000000000e+01,9.500000000000000000e+01,3.800000000000000000e+01,4.300000000000000000e+01,2.600000000000000089e-01,6.591410300000000000e+09
8.500000000000000000e+01,2.720000000000000000e+02,7.950000000000000000e+02,2.660000000000000000e+02,1.120000000000000000e+02,9.400000000000000000e+01,3.700000000000000000e+01,4.500000000000000000e+01,2.700000000000000178e-01,6.609497400000000000e+09
9.200000000000000000e+01,2.990000000000000000e+02,8.150000000000000000e+02,2.700000000000000000e+02,1.590000000000000000e+02,9.000000000000000000e+01,4.300000000000000000e+01,4.600000000000000000e+01,2.700000000000000178e-01,6.628890400000000000e+09
1.120000000000000000e+02,3.920000000000000000e+02,9.220000000000000000e+02,2.700000000000000000e+02,1.790000000000000000e+02,9.500000000000000000e+01,4.500000000000000000e+01,5.100000000000000000e+01,2.700000000000000178e-01,6.651115300000000000e+09
1.090000000000000000e+02,3.820000000000000000e+02,9.090000000000000000e+02,2.810000000000000000e+02,1.810000000000000000e+02,9.400000000000000000e+01,4.100000000000000000e+01,4.800000000000000000e+01,2.700000000000000178e-01,6.673344200000000000e+09
1.140000000000000000e+02,3.760000000000000000e+02,8.060000000000000000e+02,2.970000000000000000e+02,1.850000000000000000e+02,9.400000000000000000e+01,4.500000000000000000e+01,5.200000000000000000e+01,2.700000000000000178e-01,6.692856000000000000e+09
1.100000000000000000e+02,3.800000000000000000e+02,7.860000000000000000e+02,3.040000000000000000e+02,1.790000000000000000e+02,9.200000000000000000e+01,4.800000000000000000e+01,4.900000000000000000e+01,2.700000000000000178e-01,6.711395300000000000e+09
1.140000000000000000e+02,3.780000000000000000e+02,7.650000000000000000e+02,3.240000000000000000e+02,1.600000000000000000e+02,9.700000000000000000e+01,4.700000000000000000e+01,5.300000000000000000e+01,2.600000000000000089e-01,6.729209400000000000e+09
1.010000000000000000e+02,2.990000000000000000e+02,7.300000000000000000e+02,3.400000000000000000e+02,1.420000000000000000e+02,9.300000000000000000e+01,4.700000000000000000e+01,5.300000000000000000e+01,2.700000000000000178e-01,6.751077800000000000e+09
1.080000000000000000e+02,3.280000000000000000e+02,8.810000000000000000e+02,3.390000000000000000e+02,1.440000000000000000e+02,9.500000000000000000e+01,5.000000000000000000e+01,5.700000000000000000e+01,2.600000000000000089e-01,6.773276500000000000e+09
1.210000000000000000e+02,3.450000000000000000e+02,8.900000000000000000e+02,4.180000000000000000e+02,1.550000000000000000e+02,9.800000000000000000e+01,5.400000000000000000e+01,6.500000000000000000e+01,2.500000000000000000e-01,6.791011100000000000e+09
1.240000000000000000e+02,3.770000000000000000e+02,9.440000000000000000e+02,4.430000000000000000e+02,1.640000000000000000e+02,1.100000000000000000e+02,5.600000000000000000e+01,6.600000000000000000e+01,2.300000000000000100e-01,6.809392200000000000e+09
1.250000000000000000e+02,3.460000000000000000e+02,1.019000000000000000e+03,4.500000000000000000e+02,1.690000000000000000e+02,1.280000000000000000e+02,5.400000000000000000e+01,6.700000000000000000e+01,2.200000000000000011e-01,6.828868200000000000e+09
1.300000000000000000e+02,3.980000000000000000e+02,1.094000000000000000e+03,4.660000000000000000e+02,1.740000000000000000e+02,1.370000000000000000e+02,5.900000000000000000e+01,6.800000000000000000e+01,2.000000000000000111e-01,6.851084300000000000e+09
1.580000000000000000e+02,4.680000000000000000e+02,1.014000000000000000e+03,5.240000000000000000e+02,1.870000000000000000e+02,1.400000000000000000e+02,6.700000000000000000e+01,8.000000000000000000e+01,1.900000000000000022e-01,6.873249400000000000e+09
1.930000000000000000e+02,5.660000000000000000e+02,1.060000000000000000e+03,5.540000000000000000e+02,2.130000000000000000e+02,1.580000000000000000e+02,7.000000000000000000e+01,9.300000000000000000e+01,1.900000000000000022e-01,6.890968500000000000e+09
1.940000000000000000e+02,5.720000000000000000e+02,1.141000000000000000e+03,5.560000000000000000e+02,2.130000000000000000e+02,1.570000000000000000e+02,7.100000000000000000e+01,9.400000000000000000e+01,1.900000000000000022e-01,6.909219200000000000e+09
1.970000000000000000e+02,5.950000000000000000e+02,1.111000000000000000e+03,5.670000000000000000e+02,2.020000000000000000e+02,1.390000000000000000e+02,7.100000000000000000e+01,9.400000000000000000e+01,1.799999999999999933e-01,6.928782800000000000e+09
2.050000000000000000e+02,6.340000000000000000e+02,1.019000000000000000e+03,5.910000000000000000e+02,1.990000000000000000e+02,1.310000000000000000e+02,6.900000000000000000e+01,9.900000000000000000e+01,1.799999999999999933e-01,6.950950700000000000e+09
1.950000000000000000e+02,6.020000000000000000e+02,1.095000000000000000e+03,6.460000000000000000e+02,2.120000000000000000e+02,1.350000000000000000e+02,6.500000000000000000e+01,9.300000000000000000e+01,1.700000000000000122e-01,6.973285300000000000e+09
1.580000000000000000e+02,5.350000000000000000e+02,1.054000000000000000e+03,5.990000000000000000e+02,2.180000000000000000e+02,1.430000000000000000e+02,6.200000000000000000e+01,7.300000000000000000e+01,1.499999999999999944e-01,6.991036100000000000e+09
1.800000000000000000e+02,5.520000000000000000e+02,1.025000000000000000e+03,6.510000000000000000e+02,2.250000000000000000e+02,1.450000000000000000e+02,7.100000000000000000e+01,8.800000000000000000e+01,1.400000000000000133e-01,7.010151600000000000e+09
1.830000000000000000e+02,5.740000000000000000e+02,1.089000000000000000e+03,6.780000000000000000e+02,2.270000000000000000e+02,1.500000000000000000e+02,7.500000000000000000e+01,9.100000000000000000e+01,1.300000000000000044e-01,7.028706200000000000e+09
1.670000000000000000e+02,5.130000000000000000e+02,1.070000000000000000e+03,7.910000000000000000e+02,2.280000000000000000e+02,1.560000000000000000e+02,7.200000000000000000e+01,8.200000000000000000e+01,1.300000000000000044e-01,7.051607600000000000e+09
1.690000000000000000e+02,5.170000000000000000e+02,1.028000000000000000e+03,7.910000000000000000e+02,2.230000000000000000e+02,1.500000000000000000e+02,7.200000000000000000e+01,8.800000000000000000e+01,1.199999999999999956e-01,7.073449600000000000e+09
1.950000000000000000e+02,6.000000000000000000e+02,1.087000000000000000e+03,8.510000000000000000e+02,2.060000000000000000e+02,1.360000000000000000e+02,7.600000000000000000e+01,1.000000000000000000e+02,1.199999999999999956e-01,7.093290600000000000e+09
2.030000000000000000e+02,6.180000000000000000e+02,1.058000000000000000e+03,9.150000000000000000e+02,2.150000000000000000e+02,1.420000000000000000e+02,7.300000000000000000e+01,1.010000000000000000e+02,1.199999999999999956e-01,7.112069200000000000e+09
1.940000000000000000e+02,5.940000000000000000e+02,9.870000000000000000e+02,9.320000000000000000e+02,2.200000000000000000e+02,1.480000000000000000e+02,7.000000000000000000e+01,9.900000000000000000e+01,1.199999999999999956e-01,7.130047000000000000e+09
2.100000000000000000e+02,6.050000000000000000e+02,1.132000000000000000e+03,8.170000000000000000e+02,2.340000000000000000e+02,1.470000000000000000e+02,8.100000000000000000e+01,1.090000000000000000e+02,1.199999999999999956e-01,7.151005300000000000e+09
2.110000000000000000e+02,6.210000000000000000e+02,1.189000000000000000e+03,7.550000000000000000e+02,2.270000000000000000e+02,1.490000000000000000e+02,8.300000000000000000e+01,1.090000000000000000e+02,1.199999999999999956e-01,7.173104700000000000e+09
2.090000000000000000e+02,6.010000000000000000e+02,1.109000000000000000e+03,7.240000000000000000e+02,2.390000000000000000e+02,1.520000000000000000e+02,8.700000000000000000e+01,1.100000000000000000e+02,1.199999999999999956e-01,7.191507100000000000e+09
1.890000000000000000e+02,5.420000000000000000e+02,1.111000000000000000e+03,6.390000000000000000e+02,2.310000000000000000e+02,1.400000000000000000e+02,8.300000000000000000e+01,1.030000000000000000e+02,1.100000000000000006e-01,7.210146800000000000e+09
1.900000000000000000e+02,5.540000000000000000e+02,1.089000000000000000e+03,5.930000000000000000e+02,2.220000000000000000e+02,1.240000000000000000e+02,8.300000000000000000e+01,1.020000000000000000e+02,1.100000000000000006e-01,7.228765000000000000e+09
1.810000000000000000e+02,5.350000000000000000e+02,1.002000000000000000e+03,6.410000000000000000e+02,2.100000000000000000e+02,1.150000000000000000e+02,7.700000000000000000e+01,9.500000000000000000e+01,1.100000000000000006e-01,7.251177400000000000e+09
1.630000000000000000e+02,4.730000000000000000e+02,8.790000000000000000e+02,6.290000000000000000e+02,1.940000000000000000e+02,1.150000000000000000e+02,7.200000000000000000e+01,8.600000000000000000e+01,1.100000000000000006e-01,7.273069200000000000e+09
1.260000000000000000e+02,3.680000000000000000e+02,1.041000000000000000e+03,5.700000000000000000e+02,1.540000000000000000e+02,1.080000000000000000e+02,5.700000000000000000e+01,6.700000000000000000e+01,1.199999999999999956e-01,7.291592700000000000e+09
1.220000000000000000e+02,3.510000000000000000e+02,1.024000000000000000e+03,5.220000000000000000e+02,1.390000000000000000e+02,1.020000000000000000e+02,5.500000000000000000e+01,6.600000000000000000e+01,1.199999999999999956e-01,7.310405800000000000e+09
1.140000000000000000e+02,2.980000000000000000e+02,1.025000000000000000e+03,4.950000000000000000e+02,1.310000000000000000e+02,1.030000000000000000e+02,5.200000000000000000e+01,6.400000000000000000e+01,1.300000000000000044e-01,7.328688300000000000e+09
1.320000000000000000e+02,3.020000000000000000e+02,1.003000000000000000e+03,4.870000000000000000e+02,1.570000000000000000e+02,1.040000000000000000e+02,5.600000000000000000e+01,7.000000000000000000e+01,1.300000000000000044e-01,7.350840500000000000e+09
1.470000000000000000e+02,3.400000000000000000e+02,1.056000000000000000e+03,5.010000000000000000e+02,1.610000000000000000e+02,1.030000000000000000e+02,5.600000000000000000e+01,7.400000000000000000e+01,1.400000000000000133e-01,7.373020700000000000e+09
1.430000000000000000e+02,3.150000000000000000e+02,9.720000000000000000e+02,5.250000000000000000e+02,1.540000000000000000e+02,9.400000000000000000e+01,5.600000000000000000e+01,7.400000000000000000e+01,1.400000000000000133e-01,7.391328900000000000e+09
1.340000000000000000e+02,3.010000000000000000e+02,9.420000000000000000e+02,4.900000000000000000e+02,1.530000000000000000e+02,9.400000000000000000e+01,5.500000000000000000e+01,6.900000000000000000e+01,1.499999999999999944e-01,7.409734800000000000e+09
1.330000000000000000e+02,2.880000000000000000e+02,9.290000000000000000e+02,4.660000000000000000e+02,1.480000000000000000e+02,9.100000000000000000e+01,5.500000000000000000e+01,6.600000000000000000e+01,1.600000000000000033e-01,7.428670000000000000e+09
1.180000000000000000e+02,3.090000000000000000e+02,9.920000000000000000e+02,4.290000000000000000e+02,1.180000000000000000e+02,9.500000000000000000e+01,5.300000000000000000e+01,6.100000000000000000e+01,1.700000000000000122e-01,7.451145300000000000e+09
1.080000000000000000e+02,2.830000000000000000e+02,9.940000000000000000e+02,4.330000000000000000e+02,1.220000000000000000e+02,9.100000000000000000e+01,5.800000000000000000e+01,5.800000000000000000e+01,1.799999999999999933e-01,7.473010200000000000e+09
1.200000000000000000e+02,2.920000000000000000e+02,9.350000000000000000e+02,4.050000000000000000e+02,1.410000000000000000e+02,8.600000000000000000e+01,5.900000000000000000e+01,6.100000000000000000e+01,1.900000000000000022e-01,7.491556200000000000e+09
1.180000000000000000e+02,3.120000000000000000e+02,9.350000000000000000e+02,3.930000000000000000e+02,1.350000000000000000e+02,8.800000000000000000e+01,5.700000000000000000e+01,5.900000000000000000e+01,2.000000000000000111e-01,7.512310500000000000e+09
1.250000000000000000e+02,3.600000000000000000e+02,1.010000000000000000e+03,3.910000000000000000e+02,1.400000000000000000e+02,9.700000000000000000e+01,5.700000000000000000e+01,6.100000000000000000e+01,2.000000000000000111e-01,7.531804900000000000e+09
1.230000000000000000e+02,3.310000000000000000e+02,9.300000000000000000e+02,3.710000000000000000e+02,1.310000000000000000e+02,8.500000000000000000e+01,5.700000000000000000e+01,5.900000000000000000e+01,2.000000000000000111e-01,7.550741300000000000e+09
1.300000000000000000e+02,3.930000000000000000e+02,8.800000000000000000e+02,3.490000000000000000e+02,1.260000000000000000e+02,8.800000000000000000e+01,5.900000000000000000e+01,6.600000000000000000e+01,2.000000000000000111e-01,7.572932500000000000e+09
1.250000000000000000e+02,3.950000000000000000e+02,8.590000000000000000e+02,3.400000000000000000e+02,1.110000000000000000e+02,9.200000000000000000e+01,6.000000000000000000e+01,6.600000000000000000e+01,2.099999999999999922e-01,7.591210200000000000e+09
1.240000000000000000e+02,3.760000000000000000e+02,8.170000000000000000e+02,3.320000000000000000e+02,1.090000000000000000e+02,2.250000000000000000e+02,1.260000000000000000e+02,2.160000000000000000e+02,2.099999999999999922e-01,7.610185400000000000e+09
1.340000000000000000e+02,3.370000000000000000e+02,7.290000000000000000e+02,3.220000000000000000e+02,1.050000000000000000e+02,2.950000000000000000e+02,1.750000000000000000e+02,3.920000000000000000e+02,2.200000000000000011e-01,7.628556200000000000e+09
1.390000000000000000e+02,3.350000000000000000e+02,7.690000000000000000e+02,2.620000000000000000e+02,1.050000000000000000e+02,4.410000000000000000e+02,2.080000000000000000e+02,5.400000000000000000e+02,2.200000000000000011e-01,7.650622500000000000e+09
1.360000000000000000e+02,2.370000000000000000e+02,7.140000000000000000e+02,2.280000000000000000e+02,9.700000000000000000e+01,6.590000000000000000e+02,2.760000000000000000e+02,6.120000000000000000e+02,2.200000000000000011e-01,7.672861700000000000e+09
1.380000000000000000e+02,2.020000000000000000e+02,6.780000000000000000e+02,1.600000000000000000e+02,9.200000000000000000e+01,7.030000000000000000e+02,4.020000000000000000e+02,7.020000000000000000e+02,2.200000000000000011e-01,7.691266200000000000e+09
1.720000000000000000e+02,1.990000000000000000e+02,6.350000000000000000e+02,1.520000000000000000e+02,1.000000000000000000e+02,8.030000000000000000e+02,5.840000000000000000e+02,7.160000000000000000e+02,2.200000000000000011e-01,7.710760200000000000e+09
1.620000000000000000e+02,1.730000000000000000e+02,5.500000000000000000e+02,1.410000000000000000e+02,9.300000000000000000e+01,8.080000000000000000e+02,6.940000000000000000e+02,7.790000000000000000e+02,2.300000000000000100e-01,7.729425900000000000e+09
1.600000000000000000e+02,2.480000000000000000e+02,3.900000000000000000e+02,1.620000000000000000e+02,9.800000000000000000e+01,7.860000000000000000e+02,7.260000000000000000e+02,8.380000000000000000e+02,2.300000000000000100e-01,7.750705500000000000e+09
1.570000000000000000e+02,2.630000000000000000e+02,4.040000000000000000e+02,1.620000000000000000e+02,9.700000000000000000e+01,6.450000000000000000e+02,7.670000000000000000e+02,8.750000000000000000e+02,2.399999999999999911e-01,7.772815400000000000e+09
1.800000000000000000e+02,2.700000000000000000e+02,4.640000000000000000e+02,1.830000000000000000e+02,9.600000000000000000e+01,6.660000000000000000e+02,7.710000000000000000e+02,9.010000000000000000e+02,2.500000000000000000e-01,7.790914400000000000e+09
1.900000000000000000e+02,2.720000000000000000e+02,4.850000000000000000e+02,1.800000000000000000e+02,8.500000000000000000e+01,6.030000000000000000e+02,6.730000000000000000e+02,9.230000000000000000e+02,2.500000000000000000e-01,7.809320500000000000e+09
1.900000000000000000e+02,2.670000000000000000e+02,4.850000000000000000e+02,1.780000000000000000e+02,8.600000000000000000e+01,5.910000000000000000e+02,6.090000000000000000e+02,8.780000000000000000e+02,2.600000000000000089e-01,7.828511800000000000e+09
1.810000000000000000e+02,1.610000000000000000e+02,4.790000000000000000e+02,1.750000000000000000e+02,5.500000000000000000e+01,5.350000000000000000e+02,6.080000000000000000e+02,7.650000000000000000e+02,2.600000000000000089e-01,7.850843200000000000e+09
1.750000000000000000e+02,1.460000000000000000e+02,5.610000000000000000e+02,1.550000000000000000e+02,4.900000000000000000e+01,5.020000000000000000e+02,5.670000000000000000e+02,7.300000000000000000e+02,2.600000000000000089e-01,7.872811600000000000e+09
1.650000000000000000e+02,1.470000000000000000e+02,5.050000000000000000e+02,1.400000000000000000e+02,4.600000000000000000e+01,4.920000000000000000e+02,5.550000000000000000e+02,6.810000000000000000e+02,2.600000000000000089e-01,7.890854500000000000e+09
1.410000000000000000e+02,1.430000000000000000e+02,5.070000000000000000e+02,1.400000000000000000e+02,5.000000000000000000e+01,4.090000000000000000e+02,6.190000000000000000e+02,6.620000000000000000e+02,2.700000000000000178e-01,7.909816500000000000e+09
1.420000000000000000e+02,1.450000000000000000e+02,5.130000000000000000e+02,1.370000000000000000e+02,4.600000000000000000e+01,3.840000000000000000e+02,6.230000000000000000e+02,6.290000000000000000e+02,2.800000000000000266e-01,7.928427600000000000e+09
1.430000000000000000e+02,1.300000000000000000e+02,4.890000000000000000e+02,9.600000000000000000e+01,4.700000000000000000e+01,3.800000000000000000e+02,5.910000000000000000e+02,6.420000000000000000e+02,2.899999999999999800e-01,7.950585000000000000e+09
1.460000000000000000e+02,1.450000000000000000e+02,3.380000000000000000e+02,1.250000000000000000e+02,5.100000000000000000e+01,3.890000000000000000e+02,5.610000000000000000e+02,6.430000000000000000e+02,2.999999999999999889e-01,7.972749400000000000e+09
1.220000000000000000e+02,1.400000000000000000e+02,3.120000000000000000e+02,1.200000000000000000e+02,4.800000000000000000e+01,3.560000000000000000e+02,5.380000000000000000e+02,6.250000000000000000e+02,2.999999999999999889e-01,7.991207800000000000e+09
9.900000000000000000e+01,1.380000000000000000e+02,2.830000000000000000e+02,1.210000000000000000e+02,4.300000000000000000e+01,3.270000000000000000e+02,4.360000000000000000e+02,6.610000000000000000e+02,3.099999999999999978e-01,8.008888900000000000e+09
9.000000000000000000e+01,1.390000000000000000e+02,2.520000000000000000e+02,1.240000000000000000e+02,4.500000000000000000e+01,3.360000000000000000e+02,3.470000000000000000e+02,6.360000000000000000e+02,3.200000000000000067e-01,8.028330000000000000e+09
8.700000000000000000e+01,1.430000000000000000e+02,2.950000000000000000e+02,1.230000000000000000e+02,4.600000000000000000e+01,3.690000000000000000e+02,3.600000000000000000e+02,6.710000000000000000e+02,3.200000000000000067e-01,8.050488700000000000e+09
9.300000000000000000e+01,1.090000000000000000e+02,3.900000000000000000e+02,1.300000000000000000e+02,5.300000000000000000e+01,3.590000000000000000e+02,3.660000000000000000e+02,6.530000000000000000e+02,3.300000000000000155e-01,8.072825500000000000e+09
9.800000000000000000e+01,9.800000000000000000e+01,3.970000000000000000e+02,1.310000000000000000e+02,5.300000000000000000e+01,3.190000000000000000e+02,3.230000000000000000e+02,6.100000000000000000e+02,3.300000000000000155e-01,8.091270200000000000e+09
8.800000000000000000e+01,9.600000000000000000e+01,3.870000000000000000e+02,1.270000000000000000e+02,5.700000000000000000e+01,3.600000000000000000e+02,3.540000000000000000e+02,5.580000000000000000e+02,3.400000000000000244e-01,8.111260000000000000e+09
8.500000000000000000e+01,9.300000000000000000e+01,3.780000000000000000e+02,1.270000000000000000e+02,6.500000000000000000e+01,5.070000000000000000e+02,3.710000000000000000e+02,5.410000000000000000e+02,3.400000000000000244e-01,8.129220000000000000e+09
8.500000000000000000e+01,8.900000000000000000e+01,3.470000000000000000e+02,1.280000000000000000e+02,6.100000000000000000e+01,5.040000000000000000e+02,3.490000000000000000e+02,4.550000000000000000e+02,3.499999999999999778e-01,8.150413600000000000e+09
7.600000000000000000e+01,8.300000000000000000e+01,2.820000000000000000e+02,9.700000000000000000e+01,5.500000000000000000e+01,5.120000000000000000e+02,3.800000000000000000e+02,3.910000000000000000e+02,3.599999999999999867e-01,8.172766100000000000e+09
7.900000000000000000e+01,8.300000000000000000e+01,2.950000000000000000e+02,1.130000000000000000e+02,5.600000000000000000e+01,4.980000000000000000e+02,3.620000000000000000e+02,4.670000000000000000e+02,3.599999999999999867e-01,8.190883800000000000e+09
7.900000000000000000e+01,8.600000000000000000e+01,3.350000000000000000e+02,1.130000000000000000e+02,5.100000000000000000e+01,4.820000000000000000e+02,3.190000000000000000e+02,5.170000000000000000e+02,3.599999999999999867e-01,8.208939800000000000e+09
8.400000000000000000e+01,7.900000000000000000e+01,3.320000000000000000e+02,1.100000000000000000e+02,4.100000000000000000e+01,3.750000000000000000e+02,3.470000000000000000e+02,5.430000000000000000e+02,3.599999999999999867e-01,8.228126400000000000e+09
8.300000000000000000e+01,7.500000000000000000e+01,3.290000000000000000e+02,1.110000000000000000e+02,4.200000000000000000e+01,3.550000000000000000e+02,3.740000000000000000e+02,5.320000000000000000e+02,3.599999999999999867e-01,8.250374400000000000e+09
8.400000000000000000e+01,8.600000000000000000e+01,3.520000000000000000e+02,1.150000000000000000e+02,4.000000000000000000e+01,3.420000000000000000e+02,3.270000000000000000e+02,5.390000000000000000e+02,3.599999999999999867e-01,8.272596900000000000e+09
7.700000000000000000e+01,9.500000000000000000e+01,3.290000000000000000e+02,9.300000000000000000e+01,3.800000000000000000e+01,3.310000000000000000e+02,3.850000000000000000e+02,4.740000000000000000e+02,3.599999999999999867e-01,8.290614700000000000e+09
7.400000000000000000e+01,9.700000000000000000e+01,2.880000000000000000e+02,9.200000000000000000e+01,4.000000000000000000e+01,3.050000000000000000e+02,3.840000000000000000e+02,3.410000000000000000e+02,3.699999999999999956e-01,8.309261200000000000e+09
7.900000000000000000e+01,9.900000000000000000e+01,2.870000000000000000e+02,9.200000000000000000e+01,3.900000000000000000e+01,2.340000000000000000e+02,3.760000000000000000e+02,3.160000000000000000e+02,3.699999999999999956e-01,8.328215300000000000e+09
7.900000000000000000e+01,9.800000000000000000e+01,2.900000000000000000e+02,8.900000000000000000e+01,4.200000000000000000e+01,2.130000000000000000e+02,3.540000000000000000e+02,3.290000000000000000e+02,3.800000000000000044e-01,8.350347500000000000e+09
7.500000000000000000e+01,1.020000000000000000e+02,2.160000000000000000e+02,7.400000000000000000e+01,3.900000000000000000e+01,2.080000000000000000e+02,3.490000000000000000e+02,3.190000000000000000e+02,3.900000000000000133e-01,8.372540500000000000e+09
7.700000000000000000e+01,1.050000000000000000e+02,2.730000000000000000e+02,9.000000000000000000e+01,3.700000000000000000e+01,2.020000000000000000e+02,2.720000000000000000e+02,3.010000000000000000e+02,3.900000000000000133e-01,8.391385700000000000e+09
8.600000000000000000e+01,9.900000000000000000e+01,2.970000000000000000e+02,9.000000000000000000e+01,3.400000000000000000e+01,1.650000000000000000e+02,2.450000000000000000e+02,3.440000000000000000e+02,3.900000000000000133e-01,8.410442300000000000e+09
6.800000000000000000e+01,1.040000000000000000e+02,3.000000000000000000e+02,9.100000000000000000e+01,3.300000000000000000e+01,1.110000000000000000e+02,2.450000000000000000e+02,2.900000000000000000e+02,3.900000000000000133e-01,8.428969600000000000e+09
6.400000000000000000e+01,1.020000000000000000e+02,2.770000000000000000e+02,8.800000000000000000e+01,2.800000000000000000e+01,1.130000000000000000e+02,2.200000000000000000e+02,2.770000000000000000e+02,3.900000000000000133e-01,8.450350700000000000e+09
6.600000000000000000e+01,9.100000000000000000e+01,2.810000000000000000e+02,8.000000000000000000e+01,3.300000000000000000e+01,1.050000000000000000e+02,2.220000000000000000e+02,3.000000000000000000e+02,4.000000000000000222e-01,8.472600100000000000e+09
6.100000000000000000e+01,8.700000000000000000e+01,2.400000000000000000e+02,6.600000000000000000e+01,3.500000000000000000e+01,8.900000000000000000e+01,2.190000000000000000e+02,3.260000000000000000e+02,4.000000000000000222e-01,8.490674600000000000e+09
5.300000000000000000e+01,1.000000000000000000e+02,2.040000000000000000e+02,7.800000000000000000e+01,3.700000000000000000e+01,8.600000000000000000e+01,2.230000000000000000e+02,3.040000000000000000e+02,4.000000000000000222e-01,8.509696900000000000e+09
5.700000000000000000e+01,9.500000000000000000e+01,1.990000000000000000e+02,7.600000000000000000e+01,3.800000000000000000e+01,1.170000000000000000e+02,1.340000000000000000e+02,3.250000000000000000e+02,4.099999999999999756e-01,8.528637100000000000e+09
6.400000000000000000e+01,9.700000000000000000e+01,1.970000000000000000e+02,7.600000000000000000e+01,4.100000000000000000e+01,1.130000000000000000e+02,2.060000000000000000e+02,3.370000000000000000e+02,4.099999999999999756e-01,8.550190100000000000e+09
6.000000000000000000e+01,9.400000000000000000e+01,2.130000000000000000e+02,7.200000000000000000e+01,3.700000000000000000e+01,1.060000000000000000e+02,2.050000000000000000e+02,2.960000000000000000e+02,4.099999999999999756e-01,8.572539000000000000e+09
5.800000000000000000e+01,7.700000000000000000e+01,1.870000000000000000e+02,5.900000000000000000e+01,3.700000000000000000e+01,1.040000000000000000e+02,2.050000000000000000e+02,2.650000000000000000e+02,4.099999999999999756e-01,8.590643200000000000e+09
5.400000000000000000e+01,5.800000000000000000e+01,1.880000000000000000e+02,4.100000000000000000e+01,3.600000000000000000e+01,1.070000000000000000e+02,1.970000000000000000e+02,2.680000000000000000e+02,4.099999999999999756e-01,8.608737800000000000e+09
5.500000000000000000e+01,8.500000000000000000e+01,2.170000000000000000e+02,4.500000000000000000e+01,3.600000000000000000e+01,6.200000000000000000e+01,1.920000000000000000e+02,2.600000000000000000e+02,4.099999999999999756e-01,8.628118600000000000e+09
5.300000000000000000e+01,9.400000000000000000e+01,2.230000000000000000e+02,8.800000000000000000e+01,4.300000000000000000e+01,5.600000000000000000e+01,9.900000000000000000e+01,2.160000000000000000e+02,4.199999999999999845e-01,8.650247800000000000e+09
4.900000000000000000e+01,8.900000000000000000e+01,2.620000000000000000e+02,9.400000000000000000e+01,4.100000000000000000e+01,6.700000000000000000e+01,7.300000000000000000e+01,1.990000000000000000e+02,4.199999999999999845e-01,8.672410700000000000e+09
4.800000000000000000e+01,1.030000000000000000e+02,2.630000000000000000e+02,9.700000000000000000e+01,3.800000000000000000e+01,6.900000000000000000e+01,6.200000000000000000e+01,1.940000000000000000e+02,4.199999999999999845e-01,8.690128400000000000e+09
4.500000000000000000e+01,1.060000000000000000e+02,2.640000000000000000e+02,9.700000000000000000e+01,3.900000000000000000e+01,6.000000000000000000e+01,5.800000000000000000e+01,1.280000000000000000e+02,4.299999999999999933e-01,8.708115800000000000e+09
4.100000000000000000e+01,8.800000000000000000e+01,2.390000000000000000e+02,9.800000000000000000e+01,3.700000000000000000e+01,6.300000000000000000e+01,4.900000000000000000e+01,6.500000000000000000e+01,4.400000000000000022e-01,8.727993600000000000e+09
3.100000000000000000e+01,8.800000000000000000e+01,2.990000000000000000e+02,6.400000000000000000e+01,2.600000000000000000e+01,6.100000000000000000e+01,4.100000000000000000e+01,5.400000000000000000e+01,4.400000000000000022e-01,8.750236000000000000e+09
3.800000000000000000e+01,1.210000000000000000e+02,3.040000000000000000e+02,1.090000000000000000e+02,3.100000000000000000e+01,5.800000000000000000e+01,3.800000000000000000e+01,4.700000000000000000e+01,4.500000000000000111e-01,8.772496200000000000e+09
4.400000000000000000e+01,1.200000000000000000e+02,3.070000000000000000e+02,1.200000000000000000e+02,3.100000000000000000e+01,5.500000000000000000e+01,3.500000000000000000e+01,7.700000000000000000e+01,4.600000000000000200e-01,8.790675000000000000e+09
4.500000000000000000e+01,1.240000000000000000e+02,3.380000000000000000e+02,1.250000000000000000e+02,2.800000000000000000e+01,5.400000000000000000e+01,2.800000000000000000e+01,7.700000000000000000e+01,4.699999999999999734e-01,8.809347000000000000e+09
4.300000000000000000e+01,1.220000000000000000e+02,3.370000000000000000e+02,1.240000000000000000e+02,3.000000000000000000e+01,5.200000000000000000e+01,2.800000000000000000e+01,7.700000000000000000e+01,4.799999999999999822e-01,8.827948400000000000e+09
4.400000000000000000e+01,1.170000000000000000e+02,3.200000000000000000e+02,1.310000000000000000e+02,3.000000000000000000e+01,5.400000000000000000e+01,2.600000000000000000e+01,7.900000000000000000e+01,5.000000000000000000e-01,8.850194000000000000e+09
3.900000000000000000e+01,8.400000000000000000e+01,3.390000000000000000e+02,9.500000000000000000e+01,2.700000000000000000e+01,4.600000000000000000e+01,2.700000000000000000e+01,7.900000000000000000e+01,5.100000000000000089e-01,8.872433600000000000e+09
3.600000000000000000e+01,8.400000000000000000e+01,4.490000000000000000e+02,1.100000000000000000e+02,2.700000000000000000e+01,4.500000000000000000e+01,2.700000000000000000e+01,4.300000000000000000e+01,5.200000000000000178e-01,8.891006700000000000e+09
3.700000000000000000e+01,8.100000000000000000e+01,4.370000000000000000e+02,1.070000000000000000e+02,3.000000000000000000e+01,4.500000000000000000e+01,2.800000000000000000e+01,4.000000000000000000e+01,5.300000000000000266e-01,8.910266700000000000e+09
3.600000000000000000e+01,8.600000000000000000e+01,4.820000000000000000e+02,1.150000000000000000e+02,3.300000000000000000e+01,4.800000000000000000e+01,2.900000000000000000e+01,3.700000000000000000e+01,5.400000000000000355e-01,8.928850000000000000e+09
4.000000000000000000e+01,8.700000000000000000e+01,5.790000000000000000e+02,1.140000000000000000e+02,3.500000000000000000e+01,5.000000000000000000e+01,3.100000000000000000e+01,3.200000000000000000e+01,5.500000000000000444e-01,8.950148700000000000e+09
4.500000000000000000e+01,1.160000000000000000e+02,6.370000000000000000e+02,1.390000000000000000e+02,4.100000000000000000e+01,4.600000000000000000e+01,3.100000000000000000e+01,3.200000000000000000e+01,5.500000000000000444e-01,8.972425700000000000e+09
7.200000000000000000e+01,2.690000000000000000e+02,8.070000000000000000e+02,2.170000000000000000e+02,7.300000000000000000e+01,6.400000000000000000e+01,3.800000000000000000e+01,4.500000000000000000e+01,5.600000000000000533e-01,8.991278300000000000e+09
7.800000000000000000e+01,2.870000000000000000e+02,8.080000000000000000e+02,2.350000000000000000e+02,7.600000000000000000e+01,6.600000000000000000e+01,3.700000000000000000e+01,4.600000000000000000e+01,5.500000000000000444e-01,9.010255800000000000e+09
8.100000000000000000e+01,2.910000000000000000e+02,8.770000000000000000e+02,2.620000000000000000e+02,7.700000000000000000e+01,6.700000000000000000e+01,3.700000000000000000e+01,4.500000000000000000e+01,5.500000000000000444e-01,9.028485200000000000e+09
9.000000000000000000e+01,2.990000000000000000e+02,8.650000000000000000e+02,2.760000000000000000e+02,8.900000000000000000e+01,6.700000000000000000e+01,4.000000000000000000e+01,5.100000000000000000e+01,5.400000000000000355e-01,9.050091300000000000e+09
9.500000000000000000e+01,3.020000000000000000e+02,8.690000000000000000e+02,2.880000000000000000e+02,9.100000000000000000e+01,7.300000000000000000e+01,4.000000000000000000e+01,5.300000000000000000e+01,5.300000000000000266e-01,9.072242600000000000e+09
7.900000000000000000e+01,1.900000000000000000e+02,7.030000000000000000e+02,2.400000000000000000e+02,7.700000000000000000e+01,6.200000000000000000e+01,3.300000000000000000e+01,4.300000000000000000e+01,5.200000000000000178e-01,9.090491600000000000e+09
9.000000000000000000e+01,2.050000000000000000e+02,8.150000000000000000e+02,2.600000000000000000e+02,8.000000000000000000e+01,6.400000000000000000e+01,3.900000000000000000e+01,4.500000000000000000e+01,5.200000000000000178e-01,9.108572200000000000e+09
9.200000000000000000e+01,2.130000000000000000e+02,7.860000000000000000e+02,2.650000000000000000e+02,8.300000000000000000e+01,5.900000000000000000e+01,3.900000000000000000e+01,4.600000000000000000e+01,5.200000000000000178e-01,9.127848800000000000e+09
8.600000000000000000e+01,2.100000000000000000e+02,8.220000000000000000e+02,2.550000000000000000e+02,7.500000000000000000e+01,6.000000000000000000e+01,3.500000000000000000e+01,3.800000000000000000e+01,5.100000000000000089e-01,9.150146000000000000e+09
8.100000000000000000e+01,2.040000000000000000e+02,8.220000000000000000e+02,2.450000000000000000e+02,6.900000000000000000e+01,5.200000000000000000e+01,3.400000000000000000e+01,3.400000000000000000e+01,5.100000000000000089e-01,9.172617300000000000e+09
8.300000000000000000e+01,2.240000000000000000e+02,8.550000000000000000e+02,2.870000000000000000e+02,7.700000000000000000e+01,5.500000000000000000e+01,3.800000000000000000e+01,3.700000000000000000e+01,5.000000000000000000e-01,9.192057600000000000e+09
7.400000000000000000e+01,1.990000000000000000e+02,8.530000000000000000e+02,2.680000000000000000e+02,7.300000000000000000e+01,5.700000000000000000e+01,3.500000000000000000e+01,3.700000000000000000e+01,4.899999999999999911e-01,9.212701300000000000e+09
7.100000000000000000e+01,2.160000000000000000e+02,8.360000000000000000e+02,2.990000000000000000e+02,7.500000000000000000e+01,6.000000000000000000e+01,3.600000000000000000e+01,3.600000000000000000e+01,4.899999999999999911e-01,9.231905300000000000e+09
7.500000000000000000e+01,2.530000000000000000e+02,8.390000000000000000e+02,3.180000000000000000e+02,7.600000000000000000e+01,6.000000000000000000e+01,3.800000000000000000e+01,4.300000000000000000e+01,5.000000000000000000e-01,9.250725100000000000e+09
7.200000000000000000e+01,2.520000000000000000e+02,9.280000000000000000e+02,3.310000000000000000e+02,7.900000000000000000e+01,6.100000000000000000e+01,3.800000000000000000e+01,4.200000000000000000e+01,4.899999999999999911e-01,9.272238700000000000e+09
7.200000000000000000e+01,2.300000000000000000e+02,1.032000000000000000e+03,3.230000000000000000e+02,6.900000000000000000e+01,5.700000000000000000e+01,3.500000000000000000e+01,4.000000000000000000e+01,5.000000000000000000e-01,9.289989400000000000e+09
6.800000000000000000e+01,2.610000000000000000e+02,9.780000000000000000e+02,3.260000000000000000e+02,7.400000000000000000e+01,5.800000000000000000e+01,3.500000000000000000e+01,3.700000000000000000e+01,5.000000000000000000e-01,9.308702300000000000e+09
7.100000000000000000e+01,2.650000000000000000e+02,9.620000000000000000e+02,3.030000000000000000e+02,8.300000000000000000e+01,6.100000000000000000e+01,3.200000000000000000e+01,4.000000000000000000e+01,4.899999999999999911e-01,9.327758200000000000e+09
7.000000000000000000e+01,2.510000000000000000e+02,9.340000000000000000e+02,2.950000000000000000e+02,9.000000000000000000e+01,6.100000000000000000e+01,3.000000000000000000e+01,3.700000000000000000e+01,4.799999999999999822e-01,9.349888300000000000e+09
8.000000000000000000e+01,2.610000000000000000e+02,8.220000000000000000e+02,3.030000000000000000e+02,9.600000000000000000e+01,6.700000000000000000e+01,3.000000000000000000e+01,4.000000000000000000e+01,4.799999999999999822e-01,9.372354300000000000e+09
7.900000000000000000e+01,2.590000000000000000e+02,7.610000000000000000e+02,2.710000000000000000e+02,9.400000000000000000e+01,6.800000000000000000e+01,3.300000000000000000e+01,4.100000000000000000e+01,4.699999999999999734e-01,9.390211300000000000e+09
7.800000000000000000e+01,2.260000000000000000e+02,8.560000000000000000e+02,2.750000000000000000e+02,9.300000000000000000e+01,6.400000000000000000e+01,3.000000000000000000e+01,4.100000000000000000e+01,4.699999999999999734e-01,9.408727300000000000e+09
7.600000000000000000e+01,1.970000000000000000e+02,9.360000000000000000e+02,2.620000000000000000e+02,8.300000000000000000e+01,5.700000000000000000e+01,3.100000000000000000e+01,3.900000000000000000e+01,4.600000000000000200e-01,9.427657800000000000e+09
7.400000000000000000e+01,1.710000000000000000e+02,9.700000000000000000e+02,2.590000000000000000e+02,7.000000000000000000e+01,5.400000000000000000e+01,3.100000000000000000e+01,3.600000000000000000e+01,4.600000000000000200e-01,9.449832000000000000e+09
6.400000000000000000e+01,1.450000000000000000e+02,9.960000000000000000e+02,2.250000000000000000e+02,5.900000000000000000e+01,4.900000000000000000e+01,3.100000000000000000e+01,3.300000000000000000e+01,4.600000000000000200e-01,9.471992300000000000e+09
7.000000000000000000e+01,1.780000000000000000e+02,9.330000000000000000e+02,2.320000000000000000e+02,6.600000000000000000e+01,4.800000000000000000e+01,2.800000000000000000e+01,3.300000000000000000e+01,4.500000000000000111e-01,9.490014800000000000e+09
7.100000000000000000e+01,2.050000000000000000e+02,8.600000000000000000e+02,2.480000000000000000e+02,6.300000000000000000e+01,5.000000000000000000e+01,3.200000000000000000e+01,3.300000000000000000e+01,4.500000000000000111e-01,9.508084000000000000e+09
6.900000000000000000e+01,2.040000000000000000e+02,7.860000000000000000e+02,2.650000000000000000e+02,6.600000000000000000e+01,5.700000000000000000e+01,3.300000000000000000e+01,3.500000000000000000e+01,4.600000000000000200e-01,9.527732400000000000e+09
6.100000000000000000e+01,1.950000000000000000e+02,6.960000000000000000e+02,2.610000000000000000e+02,6.500000000000000000e+01,5.600000000000000000e+01,3.200000000000000000e+01,3.200000000000000000e+01,4.600000000000000200e-01,9.550053000000000000e+09
6.500000000000000000e+01,2.030000000000000000e+02,6.530000000000000000e+02,2.540000000000000000e+02,7.200000000000000000e+01,5.400000000000000000e+01,3.200000000000000000e+01,3.500000000000000000e+01,4.699999999999999734e-01,9.572071800000000000e+09
4.900000000000000000e+01,1.780000000000000000e+02,6.260000000000000000e+02,2.540000000000000000e+02,6.700000000000000000e+01,6.100000000000000000e+01,3.200000000000000000e+01,2.900000000000000000e+01,4.799999999999999822e-01,9.590822500000000000e+09
4.100000000000000000e+01,1.360000000000000000e+02,6.110000000000000000e+02,2.310000000000000000e+02,6.300000000000000000e+01,5.800000000000000000e+01,2.800000000000000000e+01,3.000000000000000000e+01,4.799999999999999822e-01,9.609294600000000000e+09
3.800000000000000000e+01,1.250000000000000000e+02,6.910000000000000000e+02,1.880000000000000000e+02,5.300000000000000000e+01,5.200000000000000000e+01,2.700000000000000000e+01,2.800000000000000000e+01,4.899999999999999911e-01,9.627647200000000000e+09
4.200000000000000000e+01,1.360000000000000000e+02,6.670000000000000000e+02,1.910000000000000000e+02,5.200000000000000000e+01,5.000000000000000000e+01,2.600000000000000000e+01,2.800000000000000000e+01,5.000000000000000000e-01,9.649787300000000000e+09
3.600000000000000000e+01,1.190000000000000000e+02,6.710000000000000000e+02,1.860000000000000000e+02,5.000000000000000000e+01,5.800000000000000000e+01,2.800000000000000000e+01,2.400000000000000000e+01,5.100000000000000089e-01,9.671938300000000000e+09
3.700000000000000000e+01,1.080000000000000000e+02,6.310000000000000000e+02,1.720000000000000000e+02,4.500000000000000000e+01,4.900000000000000000e+01,2.500000000000000000e+01,2.600000000000000000e+01,5.200000000000000178e-01,9.690209700000000000e+09
3.600000000000000000e+01,1.080000000000000000e+02,6.050000000000000000e+02,1.570000000000000000e+02,5.000000000000000000e+01,5.100000000000000000e+01,2.700000000000000000e+01,2.500000000000000000e+01,5.300000000000000266e-01,9.709026400000000000e+09
3.900000000000000000e+01,1.120000000000000000e+02,4.670000000000000000e+02,1.560000000000000000e+02,5.600000000000000000e+01,5.800000000000000000e+01,2.800000000000000000e+01,2.500000000000000000e+01,5.400000000000000355e-01,9.727527600000000000e+09
3.500000000000000000e+01,9.500000000000000000e+01,4.810000000000000000e+02,1.420000000000000000e+02,5.500000000000000000e+01,6.200000000000000000e+01,2.700000000000000000e+01,2.500000000000000000e+01,5.500000000000000444e-01,9.749745400000000000e+09
4.200000000000000000e+01,9.700000000000000000e+01,4.390000000000000000e+02,1.600000000000000000e+02,5.800000000000000000e+01,8.700000000000000000e+01,2.600000000000000000e+01,2.900000000000000000e+01,5.600000000000000533e-01,9.772113700000000000e+09
4.000000000000000000e+01,9.700000000000000000e+01,4.660000000000000000e+02,1.540000000000000000e+02,6.000000000000000000e+01,8.900000000000000000e+01,2.700000000000000000e+01,2.800000000000000000e+01,5.699999999999999512e-01,9.790001700000000000e+09
4.600000000000000000e+01,1.130000000000000000e+02,4.930000000000000000e+02,1.510000000000000000e+02,6.500000000000000000e+01,8.900000000000000000e+01,3.500000000000000000e+01,3.200000000000000000e+01,5.799999999999999600e-01,9.807710400000000000e+09
4.600000000000000000e+01,1.160000000000000000e+02,5.020000000000000000e+02,1.420000000000000000e+02,6.000000000000000000e+01,8.400000000000000000e+01,3.400000000000000000e+01,3.100000000000000000e+01,5.799999999999999600e-01,9.827581600000000000e+09
4.700000000000000000e+01,1.200000000000000000e+02,4.950000000000000000e+02,1.360000000000000000e+02,6.400000000000000000e+01,9.400000000000000000e+01,3.400000000000000000e+01,3.300000000000000000e+01,5.899999999999999689e-01,9.849888300000000000e+09
4.000000000000000000e+01,1.120000000000000000e+02,4.770000000000000000e+02,1.170000000000000000e+02,6.200000000000000000e+01,8.800000000000000000e+01,3.400000000000000000e+01,2.900000000000000000e+01,5.899999999999999689e-01,9.872052100000000000e+09
3.900000000000000000e+01,1.070000000000000000e+02,4.460000000000000000e+02,1.290000000000000000e+02,6.100000000000000000e+01,9.400000000000000000e+01,3.600000000000000000e+01,3.000000000000000000e+01,5.999999999999999778e-01,9.890000800000000000e+09
3.200000000000000000e+01,8.500000000000000000e+01,3.950000000000000000e+02,1.330000000000000000e+02,5.100000000000000000e+01,9.400000000000000000e+01,2.800000000000000000e+01,2.500000000000000000e+01,5.999999999999999778e-01,9.907896100000000000e+09
3.000000000000000000e+01,8.100000000000000000e+01,4.010000000000000000e+02,1.300000000000000000e+02,5.300000000000000000e+01,9.300000000000000000e+01,3.300000000000000000e+01,2.400000000000000000e+01,5.999999999999999778e-01,9.927621600000000000e+09
3.900000000000000000e+01,1.060000000000000000e+02,4.230000000000000000e+02,1.310000000000000000e+02,5.800000000000000000e+01,8.600000000000000000e+01,3.400000000000000000e+01,2.700000000000000000e+01,6.099999999999999867e-01,9.949834600000000000e+09
4.000000000000000000e+01,1.170000000000000000e+02,4.210000000000000000e+02,1.330000000000000000e+02,5.500000000000000000e+01,6.700000000000000000e+01,3.200000000000000000e+01,2.800000000000000000e+01,6.099999999999999867e-01,9.971898200000000000e+09
4.400000000000000000e+01,1.210000000000000000e+02,4.770000000000000000e+02,1.190000000000000000e+02,5.300000000000000000e+01,5.400000000000000000e+01,3.100000000000000000e+01,2.800000000000000000e+01,6.099999999999999867e-01,9.990169500000000000e+09
4.600000000000000000e+01,1.320000000000000000e+02,4.960000000000000000e+02,1.080000000000000000e+02,5.400000000000000000e+01,5.400000000000000000e+01,3.000000000000000000e+01,2.900000000000000000e+01,6.099999999999999867e-01,1.000876930000000000e+10
4.300000000000000000e+01,1.290000000000000000e+02,4.820000000000000000e+02,1.150000000000000000e+02,5.200000000000000000e+01,5.500000000000000000e+01,2.600000000000000000e+01,2.800000000000000000e+01,6.099999999999999867e-01,1.002740620000000000e+10
4.300000000000000000e+01,1.140000000000000000e+02,5.000000000000000000e+02,1.260000000000000000e+02,5.200000000000000000e+01,4.900000000000000000e+01,2.800000000000000000e+01,3.100000000000000000e+01,6.199999999999999956e-01,1.004955260000000000e+10
4.600000000000000000e+01,1.270000000000000000e+02,4.970000000000000000e+02,1.200000000000000000e+02,5.400000000000000000e+01,4.300000000000000000e+01,2.800000000000000000e+01,2.900000000000000000e+01,6.199999999999999956e-01,1.007207560000000000e+10
4.800000000000000000e+01,1.410000000000000000e+02,5.360000000000000000e+02,1.570000000000000000e+02,5.700000000000000000e+01,4.500000000000000000e+01,2.900000000000000000e+01,3.000000000000000000e+01,6.199999999999999956e-01,1.009108090000000000e+10
4.800000000000000000e+01,1.320000000000000000e+02,5.600000000000000000e+02,1.550000000000000000e+02,5.600000000000000000e+01,4.500000000000000000e+01,2.900000000000000000e+01,2.900000000000000000e+01,6.199999999999999956e-01,1.010997400000000000e+10
4.900000000000000000e+01,1.320000000000000000e+02,5.550000000000000000e+02,1.470000000000000000e+02,5.300000000000000000e+01,4.300000000000000000e+01,3.000000000000000000e+01,3.100000000000000000e+01,6.300000000000000044e-01,1.012855460000000000e+10
4.300000000000000000e+01,1.360000000000000000e+02,5.210000000000000000e+02,1.380000000000000000e+02,4.400000000000000000e+01,4.300000000000000000e+01,2.700000000000000000e+01,2.500000000000000000e+01,6.300000000000000044e-01,1.014957260000000000e+10
4.800000000000000000e+01,1.520000000000000000e+02,5.940000000000000000e+02,1.800000000000000000e+02,4.500000000000000000e+01,4.100000000000000000e+01,2.800000000000000000e+01,3.100000000000000000e+01,6.300000000000000044e-01,1.017180550000000000e+10
4.600000000000000000e+01,1.450000000000000000e+02,5.230000000000000000e+02,1.470000000000000000e+02,4.400000000000000000e+01,3.900000000000000000e+01,2.600000000000000000e+01,3.100000000000000000e+01,6.300000000000000044e-01,1.018997950000000000e+10
4.500000000000000000e+01,1.450000000000000000e+02,5.350000000000000000e+02,1.530000000000000000e+02,4.300000000000000000e+01,3.600000000000000000e+01,2.500000000000000000e+01,3.000000000000000000e+01,6.300000000000000044e-01,1.020906580000000000e+10
4.700000000000000000e+01,1.490000000000000000e+02,5.880000000000000000e+02,1.670000000000000000e+02,5.300000000000000000e+01,3.900000000000000000e+01,2.600000000000000000e+01,3.300000000000000000e+01,6.300000000000000044e-01,1.022797260000000000e+10
5.000000000000000000e+01,1.530000000000000000e+02,6.280000000000000000e+02,1.680000000000000000e+02,5.900000000000000000e+01,3.600000000000000000e+01,2.700000000000000000e+01,3.500000000000000000e+01,6.300000000000000044e-01,1.024953460000000000e+10
