7.100000000000000000e+01,3.220000000000000000e+02,3.870000000000000000e+02,1.810000000000000000e+02,6.500000000000000000e+01,1.330000000000000000e+02,4.500000000000000000e+01,1.240000000000000000e+02,5.200000000000000178e-01,8.465365000000000000e+08
9.800000000000000000e+01,3.970000000000000000e+02,4.080000000000000000e+02,1.730000000000000000e+02,6.200000000000000000e+01,1.100000000000000000e+02,3.900000000000000000e+01,6.600000000000000000e+01,5.100000000000000089e-01,8.743389000000000000e+08
1.370000000000000000e+02,3.880000000000000000e+02,4.430000000000000000e+02,1.730000000000000000e+02,5.800000000000000000e+01,9.800000000000000000e+01,3.800000000000000000e+01,5.500000000000000000e+01,5.100000000000000089e-01,1.345520600000000000e+09
1.620000000000000000e+02,4.120000000000000000e+02,5.510000000000000000e+02,1.690000000000000000e+02,5.700000000000000000e+01,8.700000000000000000e+01,4.900000000000000000e+01,5.800000000000000000e+01,5.200000000000000178e-01,1.362326400000000000e+09
1.680000000000000000e+02,4.040000000000000000e+02,5.960000000000000000e+02,1.370000000000000000e+02,4.900000000000000000e+01,5.700000000000000000e+01,5.100000000000000000e+01,5.900000000000000000e+01,5.300000000000000266e-01,1.379456800000000000e+09
1.660000000000000000e+02,4.220000000000000000e+02,5.830000000000000000e+02,1.200000000000000000e+02,4.100000000000000000e+01,5.100000000000000000e+01,4.900000000000000000e+01,5.600000000000000000e+01,5.400000000000000355e-01,1.396069500000000000e+09
1.590000000000000000e+02,3.580000000000000000e+02,5.730000000000000000e+02,1.300000000000000000e+02,4.100000000000000000e+01,5.000000000000000000e+01,5.100000000000000000e+01,5.800000000000000000e+01,5.699999999999999512e-01,1.412730100000000000e+09
1.360000000000000000e+02,3.100000000000000000e+02,5.500000000000000000e+02,1.300000000000000000e+02,4.200000000000000000e+01,4.600000000000000000e+01,4.900000000000000000e+01,5.400000000000000000e+01,5.799999999999999600e-01,1.429156700000000000e+09
1.010000000000000000e+02,3.200000000000000000e+02,4.560000000000000000e+02,1.210000000000000000e+02,4.000000000000000000e+01,3.900000000000000000e+01,3.200000000000000000e+01,4.000000000000000000e+01,5.999999999999999778e-01,1.445528700000000000e+09
9.800000000000000000e+01,3.370000000000000000e+02,4.310000000000000000e+02,1.200000000000000000e+02,4.100000000000000000e+01,3.800000000000000000e+01,2.500000000000000000e+01,3.900000000000000000e+01,5.999999999999999778e-01,1.461823400000000000e+09
9.600000000000000000e+01,3.070000000000000000e+02,4.330000000000000000e+02,1.380000000000000000e+02,4.300000000000000000e+01,5.200000000000000000e+01,2.700000000000000000e+01,3.800000000000000000e+01,6.099999999999999867e-01,1.478363100000000000e+09
8.200000000000000000e+01,2.990000000000000000e+02,3.650000000000000000e+02,1.380000000000000000e+02,4.300000000000000000e+01,1.040000000000000000e+02,3.500000000000000000e+01,3.200000000000000000e+01,6.199999999999999956e-01,1.495128400000000000e+09
6.900000000000000000e+01,3.150000000000000000e+02,4.380000000000000000e+02,1.570000000000000000e+02,5.100000000000000000e+01,1.780000000000000000e+02,7.400000000000000000e+01,3.600000000000000000e+01,6.199999999999999956e-01,1.512217300000000000e+09
7.800000000000000000e+01,2.800000000000000000e+02,4.280000000000000000e+02,1.560000000000000000e+02,4.900000000000000000e+01,1.850000000000000000e+02,7.700000000000000000e+01,3.800000000000000000e+01,6.300000000000000044e-01,1.530992200000000000e+09
8.400000000000000000e+01,2.650000000000000000e+02,3.900000000000000000e+02,1.580000000000000000e+02,4.700000000000000000e+01,1.860000000000000000e+02,7.800000000000000000e+01,3.400000000000000000e+01,6.400000000000000133e-01,1.548479600000000000e+09
8.600000000000000000e+01,2.740000000000000000e+02,3.700000000000000000e+02,1.510000000000000000e+02,4.600000000000000000e+01,1.850000000000000000e+02,8.100000000000000000e+01,4.100000000000000000e+01,6.500000000000000222e-01,1.565794800000000000e+09
9.100000000000000000e+01,2.820000000000000000e+02,3.530000000000000000e+02,1.690000000000000000e+02,4.600000000000000000e+01,1.610000000000000000e+02,7.900000000000000000e+01,4.200000000000000000e+01,6.600000000000000311e-01,1.583228200000000000e+09
1.020000000000000000e+02,3.080000000000000000e+02,2.400000000000000000e+02,1.470000000000000000e+02,4.800000000000000000e+01,1.050000000000000000e+02,5.100000000000000000e+01,4.000000000000000000e+01,6.700000000000000400e-01,1.600093900000000000e+09
1.060000000000000000e+02,3.180000000000000000e+02,2.950000000000000000e+02,1.430000000000000000e+02,5.200000000000000000e+01,2.470000000000000000e+02,6.500000000000000000e+01,1.100000000000000000e+02,6.700000000000000400e-01,1.638110600000000000e+09
1.010000000000000000e+02,3.120000000000000000e+02,2.980000000000000000e+02,1.570000000000000000e+02,6.000000000000000000e+01,2.620000000000000000e+02,6.800000000000000000e+01,1.140000000000000000e+02,6.700000000000000400e-01,1.659612900000000000e+09
1.180000000000000000e+02,4.150000000000000000e+02,5.310000000000000000e+02,1.670000000000000000e+02,6.200000000000000000e+01,2.640000000000000000e+02,6.500000000000000000e+01,1.130000000000000000e+02,6.700000000000000400e-01,1.693963800000000000e+09
1.390000000000000000e+02,4.800000000000000000e+02,6.410000000000000000e+02,1.600000000000000000e+02,6.400000000000000000e+01,2.810000000000000000e+02,8.700000000000000000e+01,1.170000000000000000e+02,6.700000000000000400e-01,1.730070600000000000e+09
1.410000000000000000e+02,4.770000000000000000e+02,6.670000000000000000e+02,1.580000000000000000e+02,5.700000000000000000e+01,3.220000000000000000e+02,1.050000000000000000e+02,1.190000000000000000e+02,6.600000000000000311e-01,1.754954500000000000e+09
1.310000000000000000e+02,4.870000000000000000e+02,6.890000000000000000e+02,1.660000000000000000e+02,5.600000000000000000e+01,2.460000000000000000e+02,1.060000000000000000e+02,6.500000000000000000e+01,6.600000000000000311e-01,1.779349400000000000e+09
1.320000000000000000e+02,5.450000000000000000e+02,6.920000000000000000e+02,1.600000000000000000e+02,4.900000000000000000e+01,2.510000000000000000e+02,2.130000000000000000e+02,1.080000000000000000e+02,6.500000000000000222e-01,1.799426700000000000e+09
1.370000000000000000e+02,4.710000000000000000e+02,5.600000000000000000e+02,1.370000000000000000e+02,4.500000000000000000e+01,2.620000000000000000e+02,2.160000000000000000e+02,1.120000000000000000e+02,6.500000000000000222e-01,1.819154400000000000e+09
1.150000000000000000e+02,4.070000000000000000e+02,4.950000000000000000e+02,1.270000000000000000e+02,4.200000000000000000e+01,2.530000000000000000e+02,2.140000000000000000e+02,1.110000000000000000e+02,6.500000000000000222e-01,1.847748500000000000e+09
1.220000000000000000e+02,4.140000000000000000e+02,5.200000000000000000e+02,1.540000000000000000e+02,4.300000000000000000e+01,1.950000000000000000e+02,2.090000000000000000e+02,1.090000000000000000e+02,6.500000000000000222e-01,1.886021900000000000e+09
1.220000000000000000e+02,3.870000000000000000e+02,4.900000000000000000e+02,1.450000000000000000e+02,4.700000000000000000e+01,2.790000000000000000e+02,2.310000000000000000e+02,1.060000000000000000e+02,6.500000000000000222e-01,1.905063900000000000e+09
1.180000000000000000e+02,2.960000000000000000e+02,5.570000000000000000e+02,1.340000000000000000e+02,4.700000000000000000e+01,3.000000000000000000e+02,1.390000000000000000e+02,1.050000000000000000e+02,6.500000000000000222e-01,1.923431600000000000e+09
8.800000000000000000e+01,2.770000000000000000e+02,5.490000000000000000e+02,1.320000000000000000e+02,4.700000000000000000e+01,3.030000000000000000e+02,1.360000000000000000e+02,1.020000000000000000e+02,6.400000000000000133e-01,1.941558900000000000e+09
9.000000000000000000e+01,2.800000000000000000e+02,5.190000000000000000e+02,1.480000000000000000e+02,5.300000000000000000e+01,3.220000000000000000e+02,1.340000000000000000e+02,1.040000000000000000e+02,6.500000000000000222e-01,1.959996800000000000e+09
7.300000000000000000e+01,2.280000000000000000e+02,4.740000000000000000e+02,1.190000000000000000e+02,5.100000000000000000e+01,3.770000000000000000e+02,1.430000000000000000e+02,1.070000000000000000e+02,6.500000000000000222e-01,1.977756900000000000e+09
7.600000000000000000e+01,2.230000000000000000e+02,4.740000000000000000e+02,1.240000000000000000e+02,4.700000000000000000e+01,3.370000000000000000e+02,9.900000000000000000e+01,1.080000000000000000e+02,6.600000000000000311e-01,2.002264100000000000e+09
8.400000000000000000e+01,2.530000000000000000e+02,4.120000000000000000e+02,1.240000000000000000e+02,4.500000000000000000e+01,3.100000000000000000e+02,9.900000000000000000e+01,6.000000000000000000e+01,6.700000000000000400e-01,2.020225600000000000e+09
1.010000000000000000e+02,2.960000000000000000e+02,4.380000000000000000e+02,1.250000000000000000e+02,4.700000000000000000e+01,4.110000000000000000e+02,1.120000000000000000e+02,5.700000000000000000e+01,6.800000000000000488e-01,2.037618600000000000e+09
1.050000000000000000e+02,2.870000000000000000e+02,4.630000000000000000e+02,1.030000000000000000e+02,4.100000000000000000e+01,4.540000000000000000e+02,1.080000000000000000e+02,4.900000000000000000e+01,6.800000000000000488e-01,2.055856900000000000e+09
1.060000000000000000e+02,3.060000000000000000e+02,4.380000000000000000e+02,1.020000000000000000e+02,3.800000000000000000e+01,4.130000000000000000e+02,9.000000000000000000e+01,3.500000000000000000e+01,6.899999999999999467e-01,2.073928200000000000e+09
1.070000000000000000e+02,3.650000000000000000e+02,4.230000000000000000e+02,9.300000000000000000e+01,3.600000000000000000e+01,3.980000000000000000e+02,8.500000000000000000e+01,9.000000000000000000e+01,6.899999999999999467e-01,2.091863200000000000e+09
1.390000000000000000e+02,3.780000000000000000e+02,4.190000000000000000e+02,9.000000000000000000e+01,3.500000000000000000e+01,3.980000000000000000e+02,8.400000000000000000e+01,9.400000000000000000e+01,6.899999999999999467e-01,2.109678900000000000e+09
1.370000000000000000e+02,3.610000000000000000e+02,5.140000000000000000e+02,1.020000000000000000e+02,3.100000000000000000e+01,2.850000000000000000e+02,6.100000000000000000e+01,9.600000000000000000e+01,6.999999999999999556e-01,2.128149600000000000e+09
1.290000000000000000e+02,3.580000000000000000e+02,5.260000000000000000e+02,9.700000000000000000e+01,3.000000000000000000e+01,2.110000000000000000e+02,7.900000000000000000e+01,9.700000000000000000e+01,6.999999999999999556e-01,2.145650800000000000e+09
1.280000000000000000e+02,3.260000000000000000e+02,5.520000000000000000e+02,1.030000000000000000e+02,4.300000000000000000e+01,4.040000000000000000e+02,8.200000000000000000e+01,9.900000000000000000e+01,6.999999999999999556e-01,2.163292800000000000e+09
1.240000000000000000e+02,2.890000000000000000e+02,5.390000000000000000e+02,9.900000000000000000e+01,4.400000000000000000e+01,4.510000000000000000e+02,7.900000000000000000e+01,5.100000000000000000e+01,7.099999999999999645e-01,2.180647500000000000e+09
9.500000000000000000e+01,2.530000000000000000e+02,5.160000000000000000e+02,1.000000000000000000e+02,4.400000000000000000e+01,4.520000000000000000e+02,8.300000000000000000e+01,9.600000000000000000e+01,7.099999999999999645e-01,2.198627600000000000e+09
1.050000000000000000e+02,2.380000000000000000e+02,4.060000000000000000e+02,1.080000000000000000e+02,4.500000000000000000e+01,4.630000000000000000e+02,9.300000000000000000e+01,9.800000000000000000e+01,7.099999999999999645e-01,2.216086100000000000e+09
1.100000000000000000e+02,2.530000000000000000e+02,4.590000000000000000e+02,1.200000000000000000e+02,4.800000000000000000e+01,4.620000000000000000e+02,8.200000000000000000e+01,1.000000000000000000e+02,7.099999999999999645e-01,2.234005100000000000e+09
1.030000000000000000e+02,2.510000000000000000e+02,4.960000000000000000e+02,1.130000000000000000e+02,3.700000000000000000e+01,3.270000000000000000e+02,9.600000000000000000e+01,1.030000000000000000e+02,7.099999999999999645e-01,2.251942300000000000e+09
1.180000000000000000e+02,2.080000000000000000e+02,5.220000000000000000e+02,1.150000000000000000e+02,3.600000000000000000e+01,2.960000000000000000e+02,1.020000000000000000e+02,1.030000000000000000e+02,7.099999999999999645e-01,2.269407400000000000e+09
1.470000000000000000e+02,2.230000000000000000e+02,5.280000000000000000e+02,1.140000000000000000e+02,4.000000000000000000e+01,3.100000000000000000e+02,1.020000000000000000e+02,1.110000000000000000e+02,6.999999999999999556e-01,2.288690800000000000e+09
1.430000000000000000e+02,2.240000000000000000e+02,4.970000000000000000e+02,9.100000000000000000e+01,4.100000000000000000e+01,3.160000000000000000e+02,1.260000000000000000e+02,1.150000000000000000e+02,6.999999999999999556e-01,2.306740700000000000e+09
1.410000000000000000e+02,2.050000000000000000e+02,4.010000000000000000e+02,5.200000000000000000e+01,3.800000000000000000e+01,3.670000000000000000e+02,1.390000000000000000e+02,1.490000000000000000e+02,6.999999999999999556e-01,2.329248800000000000e+09
1.450000000000000000e+02,2.090000000000000000e+02,3.600000000000000000e+02,5.000000000000000000e+01,3.700000000000000000e+01,3.990000000000000000e+02,1.370000000000000000e+02,1.620000000000000000e+02,6.899999999999999467e-01,2.347871000000000000e+09
1.330000000000000000e+02,1.890000000000000000e+02,3.670000000000000000e+02,5.000000000000000000e+01,3.800000000000000000e+01,3.720000000000000000e+02,1.390000000000000000e+02,1.630000000000000000e+02,6.899999999999999467e-01,2.365745800000000000e+09
9.500000000000000000e+01,2.570000000000000000e+02,4.120000000000000000e+02,7.500000000000000000e+01,3.900000000000000000e+01,3.610000000000000000e+02,1.390000000000000000e+02,1.330000000000000000e+02,6.800000000000000488e-01,2.383807600000000000e+09
7.800000000000000000e+01,2.500000000000000000e+02,4.280000000000000000e+02,9.900000000000000000e+01,3.800000000000000000e+01,4.110000000000000000e+02,1.260000000000000000e+02,1.570000000000000000e+02,6.800000000000000488e-01,2.402249200000000000e+09
7.800000000000000000e+01,2.580000000000000000e+02,4.940000000000000000e+02,1.080000000000000000e+02,3.800000000000000000e+01,3.940000000000000000e+02,1.080000000000000000e+02,1.570000000000000000e+02,6.800000000000000488e-01,2.420054900000000000e+09
7.600000000000000000e+01,2.760000000000000000e+02,4.670000000000000000e+02,1.120000000000000000e+02,3.800000000000000000e+01,3.400000000000000000e+02,1.140000000000000000e+02,1.520000000000000000e+02,6.800000000000000488e-01,2.437664500000000000e+09
7.500000000000000000e+01,2.840000000000000000e+02,4.330000000000000000e+02,1.130000000000000000e+02,3.800000000000000000e+01,3.310000000000000000e+02,1.090000000000000000e+02,1.560000000000000000e+02,6.800000000000000488e-01,2.455474600000000000e+09
6.000000000000000000e+01,2.010000000000000000e+02,4.210000000000000000e+02,1.150000000000000000e+02,3.800000000000000000e+01,3.350000000000000000e+02,1.050000000000000000e+02,1.720000000000000000e+02,6.700000000000000400e-01,2.473261200000000000e+09
6.000000000000000000e+01,2.110000000000000000e+02,4.380000000000000000e+02,9.800000000000000000e+01,3.600000000000000000e+01,2.560000000000000000e+02,9.600000000000000000e+01,1.490000000000000000e+02,6.700000000000000400e-01,2.490818600000000000e+09
6.100000000000000000e+01,2.100000000000000000e+02,3.730000000000000000e+02,9.300000000000000000e+01,3.900000000000000000e+01,2.350000000000000000e+02,1.300000000000000000e+02,1.150000000000000000e+02,6.700000000000000400e-01,2.508758300000000000e+09
5.300000000000000000e+01,2.260000000000000000e+02,4.700000000000000000e+02,9.100000000000000000e+01,4.100000000000000000e+01,2.390000000000000000e+02,1.120000000000000000e+02,1.020000000000000000e+02,6.700000000000000400e-01,2.527476600000000000e+09
6.100000000000000000e+01,2.400000000000000000e+02,5.640000000000000000e+02,1.080000000000000000e+02,4.100000000000000000e+01,2.370000000000000000e+02,1.120000000000000000e+02,9.900000000000000000e+01,6.700000000000000400e-01,2.547394500000000000e+09
7.000000000000000000e+01,2.440000000000000000e+02,5.700000000000000000e+02,8.900000000000000000e+01,3.600000000000000000e+01,2.840000000000000000e+02,1.530000000000000000e+02,1.150000000000000000e+02,6.700000000000000400e-01,2.567819600000000000e+09
7.200000000000000000e+01,2.390000000000000000e+02,6.080000000000000000e+02,8.800000000000000000e+01,4.100000000000000000e+01,3.460000000000000000e+02,1.620000000000000000e+02,1.360000000000000000e+02,6.700000000000000400e-01,2.585532900000000000e+09
7.000000000000000000e+01,2.350000000000000000e+02,6.060000000000000000e+02,8.100000000000000000e+01,3.900000000000000000e+01,3.200000000000000000e+02,1.370000000000000000e+02,1.360000000000000000e+02,6.600000000000000311e-01,2.603391000000000000e+09
8.300000000000000000e+01,2.080000000000000000e+02,6.360000000000000000e+02,9.900000000000000000e+01,4.100000000000000000e+01,3.180000000000000000e+02,1.370000000000000000e+02,1.390000000000000000e+02,6.600000000000000311e-01,2.655368800000000000e+09
7.700000000000000000e+01,1.940000000000000000e+02,6.220000000000000000e+02,8.000000000000000000e+01,3.900000000000000000e+01,3.190000000000000000e+02,1.380000000000000000e+02,1.370000000000000000e+02,6.500000000000000222e-01,2.673841500000000000e+09
6.700000000000000000e+01,2.050000000000000000e+02,6.110000000000000000e+02,7.900000000000000000e+01,3.900000000000000000e+01,2.970000000000000000e+02,1.200000000000000000e+02,1.010000000000000000e+02,6.400000000000000133e-01,2.692119700000000000e+09
6.300000000000000000e+01,2.310000000000000000e+02,6.040000000000000000e+02,1.050000000000000000e+02,3.300000000000000000e+01,2.580000000000000000e+02,1.060000000000000000e+02,9.200000000000000000e+01,6.400000000000000133e-01,2.709558700000000000e+09
6.300000000000000000e+01,2.530000000000000000e+02,6.560000000000000000e+02,1.120000000000000000e+02,3.200000000000000000e+01,2.570000000000000000e+02,1.090000000000000000e+02,9.700000000000000000e+01,6.400000000000000133e-01,2.727345300000000000e+09
4.900000000000000000e+01,2.530000000000000000e+02,5.470000000000000000e+02,9.400000000000000000e+01,2.500000000000000000e+01,2.500000000000000000e+02,1.120000000000000000e+02,9.400000000000000000e+01,6.400000000000000133e-01,2.744424500000000000e+09
6.200000000000000000e+01,2.870000000000000000e+02,4.810000000000000000e+02,1.040000000000000000e+02,3.100000000000000000e+01,2.780000000000000000e+02,1.220000000000000000e+02,9.400000000000000000e+01,6.400000000000000133e-01,2.761791700000000000e+09
7.400000000000000000e+01,2.800000000000000000e+02,5.570000000000000000e+02,1.140000000000000000e+02,3.100000000000000000e+01,2.550000000000000000e+02,9.800000000000000000e+01,1.150000000000000000e+02,6.400000000000000133e-01,2.778932600000000000e+09
7.500000000000000000e+01,2.580000000000000000e+02,5.010000000000000000e+02,9.200000000000000000e+01,3.100000000000000000e+01,2.280000000000000000e+02,9.600000000000000000e+01,1.010000000000000000e+02,6.300000000000000044e-01,2.796681500000000000e+09
7.300000000000000000e+01,2.470000000000000000e+02,4.070000000000000000e+02,8.600000000000000000e+01,3.200000000000000000e+01,2.090000000000000000e+02,1.040000000000000000e+02,9.600000000000000000e+01,6.300000000000000044e-01,2.815989100000000000e+09
7.100000000000000000e+01,2.850000000000000000e+02,5.280000000000000000e+02,9.400000000000000000e+01,3.700000000000000000e+01,2.290000000000000000e+02,1.040000000000000000e+02,9.900000000000000000e+01,6.300000000000000044e-01,2.834073300000000000e+09
6.300000000000000000e+01,2.520000000000000000e+02,5.420000000000000000e+02,7.900000000000000000e+01,3.400000000000000000e+01,1.960000000000000000e+02,9.800000000000000000e+01,1.010000000000000000e+02,6.300000000000000044e-01,2.851927600000000000e+09
5.900000000000000000e+01,2.580000000000000000e+02,5.010000000000000000e+02,7.100000000000000000e+01,3.400000000000000000e+01,2.140000000000000000e+02,1.160000000000000000e+02,1.210000000000000000e+02,6.300000000000000044e-01,2.869858400000000000e+09
5.800000000000000000e+01,3.160000000000000000e+02,6.280000000000000000e+02,8.000000000000000000e+01,3.500000000000000000e+01,2.250000000000000000e+02,1.300000000000000000e+02,1.170000000000000000e+02,6.300000000000000044e-01,2.887788100000000000e+09
7.900000000000000000e+01,3.110000000000000000e+02,6.400000000000000000e+02,7.600000000000000000e+01,3.900000000000000000e+01,2.880000000000000000e+02,1.220000000000000000e+02,1.570000000000000000e+02,6.199999999999999956e-01,2.905666700000000000e+09
8.200000000000000000e+01,2.990000000000000000e+02,5.860000000000000000e+02,7.300000000000000000e+01,3.500000000000000000e+01,3.090000000000000000e+02,1.290000000000000000e+02,2.300000000000000000e+02,6.199999999999999956e-01,2.924189800000000000e+09
9.100000000000000000e+01,3.040000000000000000e+02,5.860000000000000000e+02,8.300000000000000000e+01,3.300000000000000000e+01,3.190000000000000000e+02,1.360000000000000000e+02,2.320000000000000000e+02,6.099999999999999867e-01,2.942947000000000000e+09
9.500000000000000000e+01,3.110000000000000000e+02,5.750000000000000000e+02,8.100000000000000000e+01,3.600000000000000000e+01,3.140000000000000000e+02,1.290000000000000000e+02,2.230000000000000000e+02,5.999999999999999778e-01,2.960266800000000000e+09
1.000000000000000000e+02,2.520000000000000000e+02,4.960000000000000000e+02,7.700000000000000000e+01,3.500000000000000000e+01,3.020000000000000000e+02,1.290000000000000000e+02,2.360000000000000000e+02,5.899999999999999689e-01,2.978481800000000000e+09
1.000000000000000000e+02,2.550000000000000000e+02,4.890000000000000000e+02,1.000000000000000000e+02,3.300000000000000000e+01,2.680000000000000000e+02,1.310000000000000000e+02,2.490000000000000000e+02,5.699999999999999512e-01,2.995743200000000000e+09
9.900000000000000000e+01,2.520000000000000000e+02,4.840000000000000000e+02,9.800000000000000000e+01,3.200000000000000000e+01,2.210000000000000000e+02,1.270000000000000000e+02,1.920000000000000000e+02,5.699999999999999512e-01,3.014161200000000000e+09
9.400000000000000000e+01,2.860000000000000000e+02,4.420000000000000000e+02,9.000000000000000000e+01,3.200000000000000000e+01,2.030000000000000000e+02,1.120000000000000000e+02,1.890000000000000000e+02,5.600000000000000533e-01,3.032023000000000000e+09
8.400000000000000000e+01,2.720000000000000000e+02,4.770000000000000000e+02,9.500000000000000000e+01,3.000000000000000000e+01,1.940000000000000000e+02,1.110000000000000000e+02,1.770000000000000000e+02,5.600000000000000533e-01,3.050772300000000000e+09
9.200000000000000000e+01,2.790000000000000000e+02,5.010000000000000000e+02,1.130000000000000000e+02,3.600000000000000000e+01,1.940000000000000000e+02,9.800000000000000000e+01,1.630000000000000000e+02,5.600000000000000533e-01,3.071396600000000000e+09
7.400000000000000000e+01,2.610000000000000000e+02,5.800000000000000000e+02,1.010000000000000000e+02,4.700000000000000000e+01,3.110000000000000000e+02,1.000000000000000000e+02,1.110000000000000000e+02,5.600000000000000533e-01,3.089791700000000000e+09
7.900000000000000000e+01,2.950000000000000000e+02,5.590000000000000000e+02,1.150000000000000000e+02,4.900000000000000000e+01,3.430000000000000000e+02,9.600000000000000000e+01,9.600000000000000000e+01,5.600000000000000533e-01,3.107738100000000000e+09
8.000000000000000000e+01,3.050000000000000000e+02,5.660000000000000000e+02,1.220000000000000000e+02,5.300000000000000000e+01,3.400000000000000000e+02,9.700000000000000000e+01,9.300000000000000000e+01,5.699999999999999512e-01,3.126153500000000000e+09
8.200000000000000000e+01,3.080000000000000000e+02,5.010000000000000000e+02,1.280000000000000000e+02,5.500000000000000000e+01,3.820000000000000000e+02,8.300000000000000000e+01,9.200000000000000000e+01,5.699999999999999512e-01,3.143737700000000000e+09
6.800000000000000000e+01,3.030000000000000000e+02,4.440000000000000000e+02,1.120000000000000000e+02,5.100000000000000000e+01,4.430000000000000000e+02,8.700000000000000000e+01,9.100000000000000000e+01,5.899999999999999689e-01,3.160004000000000000e+09
7.000000000000000000e+01,3.280000000000000000e+02,3.070000000000000000e+02,1.140000000000000000e+02,4.100000000000000000e+01,3.570000000000000000e+02,7.900000000000000000e+01,1.030000000000000000e+02,5.999999999999999778e-01,3.176788500000000000e+09
8.000000000000000000e+01,3.160000000000000000e+02,4.720000000000000000e+02,1.140000000000000000e+02,3.900000000000000000e+01,3.350000000000000000e+02,7.400000000000000000e+01,1.010000000000000000e+02,6.099999999999999867e-01,3.193485400000000000e+09
8.700000000000000000e+01,2.750000000000000000e+02,5.050000000000000000e+02,1.180000000000000000e+02,3.800000000000000000e+01,3.610000000000000000e+02,7.500000000000000000e+01,1.010000000000000000e+02,6.099999999999999867e-01,3.209800500000000000e+09
8.700000000000000000e+01,2.680000000000000000e+02,5.790000000000000000e+02,1.070000000000000000e+02,3.700000000000000000e+01,4.180000000000000000e+02,9.700000000000000000e+01,1.090000000000000000e+02,6.199999999999999956e-01,3.226289800000000000e+09
8.600000000000000000e+01,2.630000000000000000e+02,6.030000000000000000e+02,1.020000000000000000e+02,4.000000000000000000e+01,3.680000000000000000e+02,1.030000000000000000e+02,1.280000000000000000e+02,6.300000000000000044e-01,3.242975700000000000e+09
8.500000000000000000e+01,2.820000000000000000e+02,6.100000000000000000e+02,9.600000000000000000e+01,3.900000000000000000e+01,3.900000000000000000e+02,1.000000000000000000e+02,1.070000000000000000e+02,6.400000000000000133e-01,3.259473000000000000e+09
8.400000000000000000e+01,2.760000000000000000e+02,5.030000000000000000e+02,9.600000000000000000e+01,4.000000000000000000e+01,3.900000000000000000e+02,1.000000000000000000e+02,1.050000000000000000e+02,6.400000000000000133e-01,3.276404300000000000e+09
9.800000000000000000e+01,2.830000000000000000e+02,4.970000000000000000e+02,9.400000000000000000e+01,3.900000000000000000e+01,3.750000000000000000e+02,1.020000000000000000e+02,1.040000000000000000e+02,6.500000000000000222e-01,3.293493500000000000e+09
1.160000000000000000e+02,3.030000000000000000e+02,4.670000000000000000e+02,9.500000000000000000e+01,3.600000000000000000e+01,2.830000000000000000e+02,8.600000000000000000e+01,9.400000000000000000e+01,6.500000000000000222e-01,3.309764700000000000e+09
1.200000000000000000e+02,3.260000000000000000e+02,4.680000000000000000e+02,1.040000000000000000e+02,3.500000000000000000e+01,2.730000000000000000e+02,7.200000000000000000e+01,9.900000000000000000e+01,6.600000000000000311e-01,3.325714700000000000e+09
1.240000000000000000e+02,2.900000000000000000e+02,4.760000000000000000e+02,1.020000000000000000e+02,4.200000000000000000e+01,3.810000000000000000e+02,8.600000000000000000e+01,1.040000000000000000e+02,6.600000000000000311e-01,3.343518600000000000e+09
1.300000000000000000e+02,2.620000000000000000e+02,4.800000000000000000e+02,9.400000000000000000e+01,4.000000000000000000e+01,4.060000000000000000e+02,9.100000000000000000e+01,1.030000000000000000e+02,6.700000000000000400e-01,3.360187000000000000e+09
1.110000000000000000e+02,2.590000000000000000e+02,5.250000000000000000e+02,9.800000000000000000e+01,4.400000000000000000e+01,4.030000000000000000e+02,8.700000000000000000e+01,1.050000000000000000e+02,6.700000000000000400e-01,3.376696600000000000e+09
9.200000000000000000e+01,3.150000000000000000e+02,5.740000000000000000e+02,1.050000000000000000e+02,4.300000000000000000e+01,3.780000000000000000e+02,8.100000000000000000e+01,1.040000000000000000e+02,6.700000000000000400e-01,3.392870800000000000e+09
8.800000000000000000e+01,2.990000000000000000e+02,5.470000000000000000e+02,1.020000000000000000e+02,4.300000000000000000e+01,3.810000000000000000e+02,9.300000000000000000e+01,9.100000000000000000e+01,6.700000000000000400e-01,3.409190500000000000e+09
8.500000000000000000e+01,3.020000000000000000e+02,5.510000000000000000e+02,1.100000000000000000e+02,3.800000000000000000e+01,2.970000000000000000e+02,1.100000000000000000e+02,8.300000000000000000e+01,6.700000000000000400e-01,3.426076500000000000e+09
9.500000000000000000e+01,3.200000000000000000e+02,5.970000000000000000e+02,1.450000000000000000e+02,5.100000000000000000e+01,2.600000000000000000e+02,1.150000000000000000e+02,8.600000000000000000e+01,6.800000000000000488e-01,3.442285600000000000e+09
1.220000000000000000e+02,3.850000000000000000e+02,5.350000000000000000e+02,1.420000000000000000e+02,4.700000000000000000e+01,2.610000000000000000e+02,1.270000000000000000e+02,8.500000000000000000e+01,6.800000000000000488e-01,3.461189800000000000e+09
1.310000000000000000e+02,3.580000000000000000e+02,4.820000000000000000e+02,1.340000000000000000e+02,4.700000000000000000e+01,2.750000000000000000e+02,1.720000000000000000e+02,1.330000000000000000e+02,6.800000000000000488e-01,3.478386400000000000e+09
1.330000000000000000e+02,3.570000000000000000e+02,4.940000000000000000e+02,1.510000000000000000e+02,5.000000000000000000e+01,2.760000000000000000e+02,1.690000000000000000e+02,1.220000000000000000e+02,6.800000000000000488e-01,3.495269500000000000e+09
1.370000000000000000e+02,3.560000000000000000e+02,4.960000000000000000e+02,1.520000000000000000e+02,4.800000000000000000e+01,2.060000000000000000e+02,1.510000000000000000e+02,1.230000000000000000e+02,6.800000000000000488e-01,3.512259300000000000e+09
1.190000000000000000e+02,3.350000000000000000e+02,4.730000000000000000e+02,1.190000000000000000e+02,3.600000000000000000e+01,1.940000000000000000e+02,1.460000000000000000e+02,1.220000000000000000e+02,6.800000000000000488e-01,3.528628800000000000e+09
1.020000000000000000e+02,2.730000000000000000e+02,4.750000000000000000e+02,1.380000000000000000e+02,4.800000000000000000e+01,2.520000000000000000e+02,1.380000000000000000e+02,1.230000000000000000e+02,6.800000000000000488e-01,3.545833700000000000e+09
1.050000000000000000e+02,2.240000000000000000e+02,4.120000000000000000e+02,1.930000000000000000e+02,5.300000000000000000e+01,2.450000000000000000e+02,7.500000000000000000e+01,6.700000000000000000e+01,6.800000000000000488e-01,3.562282000000000000e+09
1.110000000000000000e+02,2.700000000000000000e+02,3.900000000000000000e+02,1.990000000000000000e+02,5.100000000000000000e+01,2.020000000000000000e+02,6.000000000000000000e+01,5.700000000000000000e+01,6.800000000000000488e-01,3.578915500000000000e+09
1.060000000000000000e+02,2.600000000000000000e+02,3.810000000000000000e+02,1.950000000000000000e+02,5.200000000000000000e+01,2.830000000000000000e+02,1.050000000000000000e+02,5.000000000000000000e+01,6.899999999999999467e-01,3.595235100000000000e+09
1.020000000000000000e+02,2.500000000000000000e+02,3.570000000000000000e+02,1.920000000000000000e+02,6.100000000000000000e+01,3.870000000000000000e+02,1.210000000000000000e+02,4.800000000000000000e+01,6.999999999999999556e-01,3.613214300000000000e+09
9.600000000000000000e+01,2.050000000000000000e+02,3.700000000000000000e+02,1.880000000000000000e+02,5.000000000000000000e+01,3.640000000000000000e+02,1.220000000000000000e+02,4.100000000000000000e+01,6.999999999999999556e-01,3.631469400000000000e+09
9.300000000000000000e+01,2.910000000000000000e+02,3.930000000000000000e+02,1.920000000000000000e+02,7.300000000000000000e+01,3.640000000000000000e+02,1.250000000000000000e+02,4.500000000000000000e+01,7.099999999999999645e-01,3.649074500000000000e+09
8.700000000000000000e+01,2.580000000000000000e+02,4.840000000000000000e+02,1.760000000000000000e+02,7.400000000000000000e+01,3.670000000000000000e+02,1.260000000000000000e+02,4.300000000000000000e+01,7.099999999999999645e-01,3.665967700000000000e+09
8.500000000000000000e+01,2.570000000000000000e+02,4.770000000000000000e+02,1.770000000000000000e+02,7.500000000000000000e+01,3.610000000000000000e+02,1.000000000000000000e+02,4.100000000000000000e+01,7.099999999999999645e-01,3.682545700000000000e+09
8.400000000000000000e+01,2.630000000000000000e+02,4.420000000000000000e+02,1.750000000000000000e+02,7.200000000000000000e+01,3.330000000000000000e+02,8.800000000000000000e+01,4.100000000000000000e+01,7.099999999999999645e-01,3.698667400000000000e+09
7.900000000000000000e+01,2.670000000000000000e+02,4.990000000000000000e+02,1.790000000000000000e+02,7.500000000000000000e+01,3.180000000000000000e+02,9.400000000000000000e+01,4.100000000000000000e+01,7.099999999999999645e-01,3.715447900000000000e+09
8.600000000000000000e+01,2.180000000000000000e+02,4.850000000000000000e+02,1.120000000000000000e+02,4.700000000000000000e+01,3.240000000000000000e+02,8.800000000000000000e+01,9.600000000000000000e+01,7.199999999999999734e-01,3.732333200000000000e+09
8.700000000000000000e+01,2.570000000000000000e+02,4.010000000000000000e+02,1.050000000000000000e+02,5.000000000000000000e+01,4.000000000000000000e+02,1.070000000000000000e+02,9.700000000000000000e+01,7.199999999999999734e-01,3.749985600000000000e+09
8.600000000000000000e+01,2.970000000000000000e+02,4.540000000000000000e+02,1.020000000000000000e+02,4.700000000000000000e+01,3.720000000000000000e+02,1.160000000000000000e+02,1.340000000000000000e+02,7.099999999999999645e-01,3.767117100000000000e+09
9.600000000000000000e+01,3.280000000000000000e+02,4.660000000000000000e+02,1.040000000000000000e+02,4.000000000000000000e+01,3.170000000000000000e+02,1.190000000000000000e+02,1.520000000000000000e+02,7.099999999999999645e-01,3.785922700000000000e+09
1.100000000000000000e+02,3.650000000000000000e+02,4.660000000000000000e+02,8.200000000000000000e+01,3.800000000000000000e+01,3.280000000000000000e+02,1.540000000000000000e+02,1.590000000000000000e+02,7.099999999999999645e-01,3.802554500000000000e+09
1.040000000000000000e+02,3.420000000000000000e+02,5.010000000000000000e+02,8.200000000000000000e+01,4.100000000000000000e+01,3.280000000000000000e+02,2.050000000000000000e+02,1.340000000000000000e+02,6.999999999999999556e-01,3.819052900000000000e+09
1.070000000000000000e+02,3.020000000000000000e+02,4.800000000000000000e+02,7.400000000000000000e+01,3.200000000000000000e+01,2.370000000000000000e+02,1.980000000000000000e+02,1.350000000000000000e+02,6.999999999999999556e-01,3.835244000000000000e+09
1.120000000000000000e+02,3.010000000000000000e+02,4.360000000000000000e+02,8.200000000000000000e+01,3.700000000000000000e+01,2.200000000000000000e+02,2.300000000000000000e+02,1.050000000000000000e+02,6.899999999999999467e-01,3.852558600000000000e+09
1.070000000000000000e+02,2.960000000000000000e+02,4.360000000000000000e+02,8.300000000000000000e+01,4.100000000000000000e+01,2.340000000000000000e+02,2.330000000000000000e+02,1.080000000000000000e+02,6.899999999999999467e-01,3.869572800000000000e+09
1.100000000000000000e+02,2.960000000000000000e+02,3.830000000000000000e+02,6.700000000000000000e+01,3.800000000000000000e+01,2.490000000000000000e+02,2.310000000000000000e+02,1.020000000000000000e+02,6.800000000000000488e-01,3.886157700000000000e+09
9.800000000000000000e+01,2.970000000000000000e+02,4.150000000000000000e+02,7.200000000000000000e+01,3.800000000000000000e+01,2.350000000000000000e+02,2.000000000000000000e+02,1.030000000000000000e+02,6.800000000000000488e-01,3.902627400000000000e+09
9.300000000000000000e+01,2.970000000000000000e+02,4.880000000000000000e+02,8.000000000000000000e+01,3.700000000000000000e+01,2.510000000000000000e+02,2.050000000000000000e+02,1.020000000000000000e+02,6.800000000000000488e-01,3.918853200000000000e+09
9.000000000000000000e+01,2.830000000000000000e+02,4.930000000000000000e+02,9.000000000000000000e+01,3.900000000000000000e+01,2.840000000000000000e+02,1.650000000000000000e+02,1.080000000000000000e+02,6.700000000000000400e-01,3.934978200000000000e+09
9.800000000000000000e+01,2.770000000000000000e+02,5.300000000000000000e+02,9.200000000000000000e+01,3.500000000000000000e+01,2.660000000000000000e+02,1.540000000000000000e+02,1.010000000000000000e+02,6.700000000000000400e-01,3.952475000000000000e+09
8.000000000000000000e+01,2.280000000000000000e+02,5.750000000000000000e+02,9.200000000000000000e+01,3.300000000000000000e+01,2.410000000000000000e+02,1.280000000000000000e+02,1.020000000000000000e+02,6.700000000000000400e-01,3.969517100000000000e+09
8.000000000000000000e+01,2.140000000000000000e+02,5.250000000000000000e+02,8.800000000000000000e+01,3.500000000000000000e+01,3.060000000000000000e+02,1.280000000000000000e+02,1.010000000000000000e+02,6.600000000000000311e-01,3.985979100000000000e+09
1.250000000000000000e+02,2.160000000000000000e+02,4.580000000000000000e+02,8.300000000000000000e+01,3.800000000000000000e+01,3.020000000000000000e+02,1.230000000000000000e+02,1.030000000000000000e+02,6.600000000000000311e-01,4.002479700000000000e+09
1.400000000000000000e+02,2.860000000000000000e+02,4.510000000000000000e+02,1.050000000000000000e+02,3.800000000000000000e+01,2.660000000000000000e+02,1.180000000000000000e+02,9.100000000000000000e+01,6.600000000000000311e-01,4.018701800000000000e+09
1.420000000000000000e+02,2.840000000000000000e+02,4.210000000000000000e+02,1.080000000000000000e+02,4.200000000000000000e+01,3.180000000000000000e+02,1.390000000000000000e+02,9.500000000000000000e+01,6.600000000000000311e-01,4.035429800000000000e+09
1.430000000000000000e+02,2.850000000000000000e+02,3.250000000000000000e+02,1.070000000000000000e+02,4.400000000000000000e+01,3.620000000000000000e+02,1.420000000000000000e+02,9.000000000000000000e+01,6.600000000000000311e-01,4.053194500000000000e+09
1.430000000000000000e+02,2.920000000000000000e+02,3.130000000000000000e+02,1.070000000000000000e+02,4.200000000000000000e+01,3.280000000000000000e+02,1.750000000000000000e+02,9.600000000000000000e+01,6.600000000000000311e-01,4.069745800000000000e+09
1.030000000000000000e+02,2.880000000000000000e+02,3.260000000000000000e+02,1.060000000000000000e+02,4.100000000000000000e+01,3.480000000000000000e+02,2.120000000000000000e+02,1.260000000000000000e+02,6.600000000000000311e-01,4.086139800000000000e+09
8.300000000000000000e+01,1.940000000000000000e+02,3.490000000000000000e+02,6.500000000000000000e+01,3.600000000000000000e+01,3.570000000000000000e+02,2.260000000000000000e+02,1.280000000000000000e+02,6.600000000000000311e-01,4.102534400000000000e+09
7.800000000000000000e+01,1.980000000000000000e+02,3.770000000000000000e+02,7.900000000000000000e+01,3.100000000000000000e+01,3.060000000000000000e+02,2.170000000000000000e+02,1.060000000000000000e+02,6.600000000000000311e-01,4.119415500000000000e+09
7.300000000000000000e+01,2.360000000000000000e+02,4.400000000000000000e+02,9.000000000000000000e+01,3.000000000000000000e+01,2.430000000000000000e+02,2.080000000000000000e+02,1.060000000000000000e+02,6.600000000000000311e-01,4.135398500000000000e+09
7.100000000000000000e+01,2.390000000000000000e+02,4.720000000000000000e+02,1.000000000000000000e+02,3.300000000000000000e+01,2.110000000000000000e+02,1.710000000000000000e+02,9.900000000000000000e+01,6.600000000000000311e-01,4.152529000000000000e+09
7.500000000000000000e+01,2.510000000000000000e+02,4.560000000000000000e+02,1.060000000000000000e+02,3.200000000000000000e+01,1.500000000000000000e+02,1.150000000000000000e+02,5.200000000000000000e+01,6.600000000000000311e-01,4.169271700000000000e+09
8.300000000000000000e+01,2.640000000000000000e+02,4.440000000000000000e+02,1.080000000000000000e+02,3.200000000000000000e+01,1.930000000000000000e+02,1.000000000000000000e+02,4.200000000000000000e+01,6.600000000000000311e-01,4.185516700000000000e+09
8.400000000000000000e+01,2.550000000000000000e+02,4.410000000000000000e+02,9.500000000000000000e+01,3.200000000000000000e+01,1.850000000000000000e+02,9.200000000000000000e+01,4.000000000000000000e+01,6.700000000000000400e-01,4.203427500000000000e+09
9.800000000000000000e+01,3.040000000000000000e+02,4.500000000000000000e+02,1.160000000000000000e+02,3.600000000000000000e+01,1.830000000000000000e+02,9.200000000000000000e+01,3.800000000000000000e+01,6.700000000000000400e-01,4.220180100000000000e+09
9.700000000000000000e+01,2.980000000000000000e+02,4.330000000000000000e+02,1.160000000000000000e+02,3.300000000000000000e+01,1.830000000000000000e+02,8.400000000000000000e+01,3.200000000000000000e+01,6.700000000000000400e-01,4.237387200000000000e+09
9.500000000000000000e+01,2.870000000000000000e+02,4.550000000000000000e+02,1.080000000000000000e+02,3.300000000000000000e+01,1.960000000000000000e+02,8.400000000000000000e+01,2.800000000000000000e+01,6.700000000000000400e-01,4.253625700000000000e+09
9.100000000000000000e+01,2.900000000000000000e+02,5.090000000000000000e+02,1.100000000000000000e+02,4.000000000000000000e+01,2.290000000000000000e+02,1.100000000000000000e+02,9.100000000000000000e+01,6.700000000000000400e-01,4.271818600000000000e+09
8.400000000000000000e+01,2.850000000000000000e+02,4.630000000000000000e+02,1.130000000000000000e+02,4.000000000000000000e+01,2.580000000000000000e+02,1.170000000000000000e+02,9.200000000000000000e+01,6.700000000000000400e-01,4.289703700000000000e+09
7.000000000000000000e+01,2.000000000000000000e+02,3.970000000000000000e+02,8.200000000000000000e+01,3.400000000000000000e+01,2.710000000000000000e+02,1.410000000000000000e+02,9.300000000000000000e+01,6.800000000000000488e-01,4.784532200000000000e+09
8.200000000000000000e+01,2.110000000000000000e+02,4.090000000000000000e+02,7.300000000000000000e+01,4.000000000000000000e+01,3.450000000000000000e+02,1.480000000000000000e+02,9.600000000000000000e+01,6.700000000000000400e-01,4.801668400000000000e+09
1.080000000000000000e+02,2.430000000000000000e+02,4.030000000000000000e+02,7.300000000000000000e+01,4.000000000000000000e+01,3.490000000000000000e+02,1.530000000000000000e+02,1.270000000000000000e+02,6.700000000000000400e-01,4.818336000000000000e+09
1.110000000000000000e+02,2.440000000000000000e+02,3.250000000000000000e+02,7.800000000000000000e+01,3.900000000000000000e+01,3.690000000000000000e+02,1.410000000000000000e+02,9.400000000000000000e+01,6.700000000000000400e-01,4.835337600000000000e+09
1.100000000000000000e+02,2.260000000000000000e+02,3.090000000000000000e+02,6.700000000000000000e+01,3.800000000000000000e+01,3.790000000000000000e+02,1.600000000000000000e+02,1.150000000000000000e+02,6.700000000000000400e-01,4.852712000000000000e+09
1.130000000000000000e+02,2.130000000000000000e+02,2.920000000000000000e+02,6.300000000000000000e+01,4.200000000000000000e+01,4.160000000000000000e+02,1.610000000000000000e+02,1.700000000000000000e+02,6.600000000000000311e-01,4.869713800000000000e+09
1.060000000000000000e+02,1.980000000000000000e+02,2.450000000000000000e+02,6.000000000000000000e+01,3.600000000000000000e+01,3.750000000000000000e+02,1.550000000000000000e+02,1.720000000000000000e+02,6.600000000000000311e-01,4.889949000000000000e+09
8.500000000000000000e+01,2.120000000000000000e+02,4.140000000000000000e+02,7.400000000000000000e+01,3.900000000000000000e+01,3.750000000000000000e+02,1.510000000000000000e+02,1.580000000000000000e+02,6.500000000000000222e-01,4.907197600000000000e+09
7.700000000000000000e+01,2.540000000000000000e+02,4.460000000000000000e+02,6.700000000000000000e+01,3.000000000000000000e+01,2.980000000000000000e+02,1.310000000000000000e+02,1.600000000000000000e+02,6.400000000000000133e-01,4.924408500000000000e+09
7.700000000000000000e+01,2.670000000000000000e+02,4.580000000000000000e+02,6.800000000000000000e+01,3.100000000000000000e+01,2.550000000000000000e+02,1.060000000000000000e+02,1.450000000000000000e+02,6.400000000000000133e-01,4.942744800000000000e+09
8.700000000000000000e+01,2.680000000000000000e+02,4.920000000000000000e+02,7.300000000000000000e+01,2.700000000000000000e+01,1.820000000000000000e+02,7.300000000000000000e+01,1.140000000000000000e+02,6.300000000000000044e-01,4.960326200000000000e+09
8.800000000000000000e+01,2.690000000000000000e+02,5.100000000000000000e+02,8.100000000000000000e+01,2.900000000000000000e+01,1.630000000000000000e+02,9.200000000000000000e+01,1.130000000000000000e+02,6.300000000000000044e-01,4.982721300000000000e+09
8.300000000000000000e+01,2.250000000000000000e+02,3.980000000000000000e+02,7.000000000000000000e+01,2.500000000000000000e+01,1.360000000000000000e+02,9.600000000000000000e+01,1.100000000000000000e+02,6.199999999999999956e-01,5.004092300000000000e+09
7.900000000000000000e+01,1.930000000000000000e+02,4.490000000000000000e+02,6.500000000000000000e+01,2.800000000000000000e+01,1.350000000000000000e+02,9.300000000000000000e+01,1.090000000000000000e+02,6.199999999999999956e-01,5.031589100000000000e+09
1.000000000000000000e+02,2.210000000000000000e+02,5.310000000000000000e+02,6.600000000000000000e+01,2.700000000000000000e+01,1.620000000000000000e+02,1.160000000000000000e+02,1.130000000000000000e+02,6.099999999999999867e-01,5.049037700000000000e+09
9.800000000000000000e+01,2.320000000000000000e+02,5.250000000000000000e+02,6.200000000000000000e+01,2.900000000000000000e+01,2.050000000000000000e+02,1.270000000000000000e+02,1.080000000000000000e+02,6.099999999999999867e-01,5.067306400000000000e+09
9.700000000000000000e+01,2.320000000000000000e+02,5.170000000000000000e+02,6.100000000000000000e+01,2.800000000000000000e+01,2.230000000000000000e+02,1.170000000000000000e+02,1.070000000000000000e+02,5.999999999999999778e-01,5.084375000000000000e+09
1.010000000000000000e+02,2.320000000000000000e+02,5.020000000000000000e+02,6.000000000000000000e+01,2.900000000000000000e+01,2.270000000000000000e+02,1.180000000000000000e+02,1.030000000000000000e+02,5.999999999999999778e-01,5.101847300000000000e+09
9.700000000000000000e+01,1.840000000000000000e+02,4.360000000000000000e+02,6.500000000000000000e+01,2.600000000000000000e+01,2.300000000000000000e+02,1.280000000000000000e+02,1.020000000000000000e+02,5.999999999999999778e-01,5.118895400000000000e+09
7.900000000000000000e+01,1.820000000000000000e+02,3.360000000000000000e+02,9.500000000000000000e+01,3.200000000000000000e+01,2.430000000000000000e+02,1.000000000000000000e+02,1.000000000000000000e+02,5.999999999999999778e-01,5.136368700000000000e+09
6.400000000000000000e+01,1.710000000000000000e+02,3.020000000000000000e+02,9.800000000000000000e+01,2.800000000000000000e+01,2.040000000000000000e+02,8.200000000000000000e+01,1.100000000000000000e+02,5.999999999999999778e-01,5.154641700000000000e+09
7.300000000000000000e+01,1.690000000000000000e+02,3.920000000000000000e+02,1.160000000000000000e+02,3.400000000000000000e+01,1.640000000000000000e+02,8.300000000000000000e+01,1.070000000000000000e+02,5.999999999999999778e-01,5.172145700000000000e+09
8.300000000000000000e+01,1.860000000000000000e+02,4.150000000000000000e+02,1.200000000000000000e+02,3.800000000000000000e+01,1.820000000000000000e+02,8.300000000000000000e+01,1.060000000000000000e+02,5.999999999999999778e-01,5.191596800000000000e+09
8.300000000000000000e+01,1.880000000000000000e+02,3.920000000000000000e+02,1.190000000000000000e+02,3.900000000000000000e+01,2.130000000000000000e+02,7.300000000000000000e+01,1.060000000000000000e+02,5.999999999999999778e-01,5.210925700000000000e+09
9.700000000000000000e+01,2.620000000000000000e+02,4.340000000000000000e+02,1.130000000000000000e+02,4.400000000000000000e+01,2.370000000000000000e+02,9.100000000000000000e+01,1.390000000000000000e+02,5.999999999999999778e-01,5.231125200000000000e+09
9.600000000000000000e+01,2.720000000000000000e+02,5.070000000000000000e+02,1.150000000000000000e+02,5.200000000000000000e+01,3.340000000000000000e+02,1.190000000000000000e+02,1.140000000000000000e+02,6.099999999999999867e-01,5.250460200000000000e+09
1.050000000000000000e+02,2.750000000000000000e+02,4.510000000000000000e+02,9.000000000000000000e+01,5.100000000000000000e+01,4.070000000000000000e+02,1.400000000000000000e+02,1.790000000000000000e+02,6.099999999999999867e-01,5.268831400000000000e+09
9.700000000000000000e+01,2.810000000000000000e+02,4.210000000000000000e+02,8.200000000000000000e+01,4.900000000000000000e+01,4.100000000000000000e+02,1.790000000000000000e+02,2.300000000000000000e+02,6.099999999999999867e-01,5.288581900000000000e+09
1.040000000000000000e+02,2.930000000000000000e+02,4.140000000000000000e+02,7.900000000000000000e+01,4.900000000000000000e+01,4.200000000000000000e+02,1.800000000000000000e+02,2.330000000000000000e+02,6.099999999999999867e-01,5.307163300000000000e+09
9.300000000000000000e+01,2.000000000000000000e+02,3.910000000000000000e+02,5.300000000000000000e+01,4.100000000000000000e+01,4.040000000000000000e+02,1.740000000000000000e+02,2.300000000000000000e+02,6.099999999999999867e-01,5.326317700000000000e+09
9.300000000000000000e+01,1.780000000000000000e+02,3.370000000000000000e+02,9.300000000000000000e+01,3.900000000000000000e+01,3.360000000000000000e+02,1.560000000000000000e+02,2.340000000000000000e+02,6.099999999999999867e-01,5.346550600000000000e+09
8.800000000000000000e+01,2.190000000000000000e+02,3.290000000000000000e+02,9.900000000000000000e+01,3.700000000000000000e+01,2.530000000000000000e+02,1.360000000000000000e+02,1.910000000000000000e+02,6.099999999999999867e-01,5.365528700000000000e+09
8.300000000000000000e+01,2.140000000000000000e+02,3.790000000000000000e+02,1.020000000000000000e+02,4.200000000000000000e+01,3.660000000000000000e+02,1.070000000000000000e+02,1.280000000000000000e+02,6.099999999999999867e-01,5.386388900000000000e+09
7.900000000000000000e+01,2.220000000000000000e+02,4.650000000000000000e+02,1.320000000000000000e+02,4.400000000000000000e+01,3.550000000000000000e+02,1.210000000000000000e+02,1.510000000000000000e+02,6.099999999999999867e-01,5.406955300000000000e+09
8.400000000000000000e+01,2.450000000000000000e+02,4.450000000000000000e+02,1.360000000000000000e+02,4.500000000000000000e+01,3.460000000000000000e+02,1.250000000000000000e+02,1.330000000000000000e+02,6.099999999999999867e-01,5.426077700000000000e+09
8.500000000000000000e+01,2.790000000000000000e+02,4.390000000000000000e+02,1.120000000000000000e+02,4.000000000000000000e+01,3.420000000000000000e+02,1.320000000000000000e+02,1.210000000000000000e+02,6.199999999999999956e-01,5.446749000000000000e+09
7.000000000000000000e+01,2.430000000000000000e+02,4.240000000000000000e+02,1.070000000000000000e+02,4.200000000000000000e+01,3.540000000000000000e+02,1.480000000000000000e+02,1.170000000000000000e+02,6.199999999999999956e-01,5.468343500000000000e+09
7.500000000000000000e+01,2.310000000000000000e+02,3.710000000000000000e+02,1.050000000000000000e+02,3.900000000000000000e+01,2.290000000000000000e+02,1.250000000000000000e+02,1.130000000000000000e+02,6.199999999999999956e-01,5.487952300000000000e+09
8.700000000000000000e+01,2.750000000000000000e+02,3.940000000000000000e+02,9.600000000000000000e+01,4.500000000000000000e+01,2.490000000000000000e+02,1.260000000000000000e+02,1.130000000000000000e+02,6.300000000000000044e-01,5.507552800000000000e+09
7.900000000000000000e+01,2.530000000000000000e+02,4.010000000000000000e+02,1.060000000000000000e+02,4.600000000000000000e+01,2.700000000000000000e+02,1.220000000000000000e+02,1.060000000000000000e+02,6.300000000000000044e-01,5.526998200000000000e+09
7.900000000000000000e+01,2.310000000000000000e+02,4.150000000000000000e+02,1.070000000000000000e+02,4.500000000000000000e+01,2.760000000000000000e+02,1.320000000000000000e+02,1.100000000000000000e+02,6.400000000000000133e-01,5.547147000000000000e+09
8.300000000000000000e+01,2.780000000000000000e+02,5.220000000000000000e+02,1.220000000000000000e+02,4.800000000000000000e+01,2.710000000000000000e+02,1.170000000000000000e+02,1.420000000000000000e+02,6.500000000000000222e-01,5.567675700000000000e+09
8.000000000000000000e+01,2.910000000000000000e+02,5.410000000000000000e+02,1.260000000000000000e+02,5.000000000000000000e+01,3.380000000000000000e+02,1.210000000000000000e+02,1.420000000000000000e+02,6.500000000000000222e-01,5.588765100000000000e+09
6.400000000000000000e+01,2.260000000000000000e+02,4.680000000000000000e+02,1.040000000000000000e+02,4.300000000000000000e+01,3.340000000000000000e+02,1.090000000000000000e+02,1.120000000000000000e+02,6.500000000000000222e-01,5.607654800000000000e+09
6.900000000000000000e+01,2.340000000000000000e+02,4.690000000000000000e+02,9.200000000000000000e+01,4.400000000000000000e+01,3.280000000000000000e+02,1.100000000000000000e+02,1.100000000000000000e+02,6.500000000000000222e-01,5.628525400000000000e+09
6.600000000000000000e+01,2.390000000000000000e+02,4.410000000000000000e+02,1.000000000000000000e+02,4.800000000000000000e+01,3.220000000000000000e+02,9.100000000000000000e+01,1.140000000000000000e+02,6.500000000000000222e-01,5.650109300000000000e+09
6.200000000000000000e+01,2.100000000000000000e+02,3.270000000000000000e+02,8.600000000000000000e+01,4.500000000000000000e+01,3.730000000000000000e+02,1.000000000000000000e+02,9.200000000000000000e+01,6.500000000000000222e-01,5.668576800000000000e+09
5.800000000000000000e+01,2.140000000000000000e+02,2.980000000000000000e+02,8.000000000000000000e+01,4.400000000000000000e+01,3.860000000000000000e+02,1.010000000000000000e+02,9.200000000000000000e+01,6.500000000000000222e-01,5.687644400000000000e+09
5.800000000000000000e+01,2.200000000000000000e+02,3.110000000000000000e+02,1.030000000000000000e+02,4.700000000000000000e+01,3.830000000000000000e+02,9.200000000000000000e+01,1.570000000000000000e+02,6.500000000000000222e-01,5.708149200000000000e+09
6.200000000000000000e+01,2.250000000000000000e+02,4.180000000000000000e+02,1.300000000000000000e+02,5.000000000000000000e+01,3.990000000000000000e+02,1.330000000000000000e+02,1.960000000000000000e+02,6.500000000000000222e-01,5.726710700000000000e+09
6.800000000000000000e+01,2.320000000000000000e+02,4.940000000000000000e+02,1.260000000000000000e+02,4.700000000000000000e+01,4.010000000000000000e+02,1.600000000000000000e+02,2.160000000000000000e+02,6.500000000000000222e-01,5.746277400000000000e+09
1.010000000000000000e+02,2.190000000000000000e+02,5.180000000000000000e+02,1.310000000000000000e+02,4.500000000000000000e+01,3.770000000000000000e+02,1.800000000000000000e+02,2.450000000000000000e+02,6.400000000000000133e-01,5.768312000000000000e+09
1.040000000000000000e+02,2.740000000000000000e+02,5.930000000000000000e+02,1.400000000000000000e+02,4.600000000000000000e+01,3.350000000000000000e+02,1.830000000000000000e+02,2.660000000000000000e+02,6.300000000000000044e-01,5.787918100000000000e+09
1.140000000000000000e+02,3.050000000000000000e+02,6.180000000000000000e+02,1.670000000000000000e+02,5.700000000000000000e+01,3.770000000000000000e+02,1.940000000000000000e+02,2.550000000000000000e+02,6.300000000000000044e-01,5.808488400000000000e+09
1.120000000000000000e+02,3.180000000000000000e+02,6.730000000000000000e+02,1.710000000000000000e+02,5.900000000000000000e+01,3.680000000000000000e+02,1.700000000000000000e+02,2.320000000000000000e+02,6.099999999999999867e-01,5.827646700000000000e+09
1.270000000000000000e+02,3.910000000000000000e+02,7.450000000000000000e+02,2.170000000000000000e+02,7.500000000000000000e+01,3.680000000000000000e+02,1.580000000000000000e+02,2.150000000000000000e+02,5.999999999999999778e-01,5.847704500000000000e+09
1.140000000000000000e+02,4.400000000000000000e+02,7.450000000000000000e+02,2.230000000000000000e+02,8.000000000000000000e+01,3.390000000000000000e+02,1.240000000000000000e+02,1.730000000000000000e+02,5.799999999999999600e-01,5.867607600000000000e+09
1.140000000000000000e+02,4.010000000000000000e+02,6.960000000000000000e+02,2.230000000000000000e+02,7.900000000000000000e+01,3.040000000000000000e+02,1.130000000000000000e+02,1.380000000000000000e+02,5.600000000000000533e-01,5.887526900000000000e+09
1.020000000000000000e+02,3.820000000000000000e+02,6.930000000000000000e+02,2.070000000000000000e+02,7.000000000000000000e+01,2.620000000000000000e+02,9.400000000000000000e+01,1.300000000000000000e+02,5.500000000000000444e-01,5.909668400000000000e+09
1.010000000000000000e+02,3.770000000000000000e+02,6.200000000000000000e+02,1.890000000000000000e+02,7.000000000000000000e+01,2.970000000000000000e+02,9.600000000000000000e+01,2.000000000000000000e+02,5.400000000000000355e-01,5.930997800000000000e+09
9.100000000000000000e+01,3.190000000000000000e+02,5.700000000000000000e+02,1.340000000000000000e+02,5.200000000000000000e+01,2.990000000000000000e+02,6.700000000000000000e+01,2.360000000000000000e+02,5.200000000000000178e-01,5.950867500000000000e+09
8.200000000000000000e+01,2.590000000000000000e+02,5.700000000000000000e+02,1.170000000000000000e+02,4.300000000000000000e+01,2.880000000000000000e+02,7.800000000000000000e+01,2.480000000000000000e+02,5.100000000000000089e-01,5.971366500000000000e+09
8.000000000000000000e+01,2.620000000000000000e+02,5.670000000000000000e+02,1.230000000000000000e+02,5.000000000000000000e+01,4.310000000000000000e+02,9.800000000000000000e+01,2.510000000000000000e+02,5.000000000000000000e-01,5.991865100000000000e+09
8.400000000000000000e+01,2.560000000000000000e+02,5.530000000000000000e+02,1.280000000000000000e+02,5.200000000000000000e+01,4.460000000000000000e+02,1.040000000000000000e+02,2.370000000000000000e+02,4.899999999999999911e-01,6.011708300000000000e+09
7.800000000000000000e+01,2.450000000000000000e+02,5.040000000000000000e+02,1.260000000000000000e+02,4.400000000000000000e+01,4.110000000000000000e+02,1.020000000000000000e+02,1.770000000000000000e+02,5.000000000000000000e-01,6.031400300000000000e+09
7.000000000000000000e+01,2.660000000000000000e+02,4.040000000000000000e+02,1.230000000000000000e+02,4.600000000000000000e+01,4.140000000000000000e+02,1.010000000000000000e+02,1.370000000000000000e+02,5.000000000000000000e-01,6.051481100000000000e+09
6.500000000000000000e+01,2.570000000000000000e+02,3.990000000000000000e+02,1.290000000000000000e+02,4.700000000000000000e+01,4.270000000000000000e+02,1.210000000000000000e+02,1.180000000000000000e+02,5.100000000000000089e-01,6.069962200000000000e+09
6.200000000000000000e+01,2.510000000000000000e+02,4.270000000000000000e+02,1.180000000000000000e+02,3.900000000000000000e+01,2.990000000000000000e+02,1.180000000000000000e+02,1.620000000000000000e+02,5.300000000000000266e-01,6.089446000000000000e+09
6.000000000000000000e+01,2.650000000000000000e+02,4.520000000000000000e+02,8.500000000000000000e+01,3.500000000000000000e+01,2.370000000000000000e+02,1.130000000000000000e+02,1.880000000000000000e+02,5.400000000000000355e-01,6.109146600000000000e+09
8.200000000000000000e+01,2.700000000000000000e+02,4.580000000000000000e+02,8.100000000000000000e+01,3.700000000000000000e+01,2.200000000000000000e+02,1.100000000000000000e+02,1.890000000000000000e+02,5.400000000000000355e-01,6.129359500000000000e+09
9.000000000000000000e+01,2.580000000000000000e+02,5.070000000000000000e+02,9.700000000000000000e+01,4.100000000000000000e+01,1.940000000000000000e+02,1.110000000000000000e+02,1.710000000000000000e+02,5.500000000000000444e-01,6.148663400000000000e+09
1.000000000000000000e+02,2.700000000000000000e+02,5.160000000000000000e+02,1.190000000000000000e+02,4.500000000000000000e+01,1.630000000000000000e+02,8.100000000000000000e+01,1.700000000000000000e+02,5.500000000000000444e-01,6.168605100000000000e+09
1.050000000000000000e+02,3.410000000000000000e+02,5.910000000000000000e+02,1.240000000000000000e+02,4.600000000000000000e+01,1.020000000000000000e+02,6.600000000000000000e+01,1.240000000000000000e+02,5.600000000000000533e-01,6.187604200000000000e+09
1.080000000000000000e+02,3.390000000000000000e+02,5.520000000000000000e+02,1.300000000000000000e+02,5.200000000000000000e+01,1.180000000000000000e+02,7.700000000000000000e+01,6.500000000000000000e+01,5.799999999999999600e-01,6.206483100000000000e+09
1.110000000000000000e+02,4.340000000000000000e+02,5.580000000000000000e+02,1.660000000000000000e+02,5.700000000000000000e+01,1.180000000000000000e+02,7.800000000000000000e+01,5.500000000000000000e+01,5.899999999999999689e-01,6.226827300000000000e+09
1.210000000000000000e+02,4.250000000000000000e+02,4.900000000000000000e+02,1.630000000000000000e+02,5.600000000000000000e+01,1.150000000000000000e+02,7.500000000000000000e+01,5.000000000000000000e+01,5.899999999999999689e-01,6.247404100000000000e+09
1.330000000000000000e+02,4.590000000000000000e+02,4.410000000000000000e+02,1.420000000000000000e+02,5.200000000000000000e+01,1.190000000000000000e+02,7.200000000000000000e+01,4.600000000000000000e+01,5.899999999999999689e-01,6.268949900000000000e+09
1.320000000000000000e+02,4.220000000000000000e+02,2.740000000000000000e+02,1.370000000000000000e+02,5.100000000000000000e+01,1.950000000000000000e+02,1.090000000000000000e+02,4.200000000000000000e+01,5.899999999999999689e-01,6.287734100000000000e+09
1.350000000000000000e+02,4.180000000000000000e+02,2.820000000000000000e+02,1.320000000000000000e+02,5.100000000000000000e+01,2.320000000000000000e+02,1.440000000000000000e+02,4.600000000000000000e+01,5.999999999999999778e-01,6.306446400000000000e+09
1.240000000000000000e+02,3.380000000000000000e+02,2.850000000000000000e+02,9.100000000000000000e+01,4.400000000000000000e+01,2.380000000000000000e+02,1.470000000000000000e+02,4.900000000000000000e+01,6.099999999999999867e-01,6.327547700000000000e+09
1.040000000000000000e+02,3.110000000000000000e+02,2.740000000000000000e+02,7.600000000000000000e+01,4.000000000000000000e+01,2.400000000000000000e+02,1.490000000000000000e+02,4.700000000000000000e+01,6.099999999999999867e-01,6.348163400000000000e+09
8.200000000000000000e+01,3.120000000000000000e+02,3.000000000000000000e+02,8.300000000000000000e+01,4.300000000000000000e+01,2.440000000000000000e+02,1.520000000000000000e+02,4.300000000000000000e+01,6.199999999999999956e-01,6.368750700000000000e+09
1.020000000000000000e+02,3.390000000000000000e+02,3.350000000000000000e+02,9.100000000000000000e+01,4.100000000000000000e+01,1.910000000000000000e+02,1.460000000000000000e+02,4.600000000000000000e+01,6.300000000000000044e-01,6.388273400000000000e+09
1.040000000000000000e+02,4.160000000000000000e+02,3.260000000000000000e+02,1.180000000000000000e+02,4.800000000000000000e+01,1.120000000000000000e+02,1.000000000000000000e+02,4.400000000000000000e+01,6.400000000000000133e-01,6.409175500000000000e+09
1.200000000000000000e+02,4.200000000000000000e+02,2.960000000000000000e+02,1.120000000000000000e+02,4.800000000000000000e+01,1.050000000000000000e+02,9.400000000000000000e+01,3.900000000000000000e+01,6.400000000000000133e-01,6.429339900000000000e+09
1.220000000000000000e+02,4.230000000000000000e+02,3.240000000000000000e+02,1.240000000000000000e+02,5.600000000000000000e+01,2.180000000000000000e+02,1.130000000000000000e+02,4.800000000000000000e+01,6.500000000000000222e-01,6.449397200000000000e+09
1.170000000000000000e+02,3.730000000000000000e+02,3.200000000000000000e+02,1.200000000000000000e+02,5.300000000000000000e+01,2.690000000000000000e+02,1.180000000000000000e+02,1.040000000000000000e+02,6.500000000000000222e-01,6.469167700000000000e+09
9.700000000000000000e+01,3.820000000000000000e+02,3.140000000000000000e+02,1.140000000000000000e+02,5.400000000000000000e+01,2.750000000000000000e+02,9.300000000000000000e+01,1.060000000000000000e+02,6.500000000000000222e-01,6.488620000000000000e+09
9.900000000000000000e+01,3.820000000000000000e+02,4.140000000000000000e+02,1.040000000000000000e+02,4.500000000000000000e+01,2.770000000000000000e+02,9.300000000000000000e+01,1.080000000000000000e+02,6.500000000000000222e-01,6.507533800000000000e+09
8.000000000000000000e+01,3.780000000000000000e+02,4.190000000000000000e+02,1.170000000000000000e+02,4.800000000000000000e+01,2.770000000000000000e+02,9.500000000000000000e+01,1.110000000000000000e+02,6.500000000000000222e-01,6.525831900000000000e+09
7.900000000000000000e+01,4.030000000000000000e+02,3.950000000000000000e+02,1.070000000000000000e+02,3.800000000000000000e+01,2.170000000000000000e+02,8.200000000000000000e+01,1.080000000000000000e+02,6.600000000000000311e-01,6.546288300000000000e+09
8.000000000000000000e+01,4.040000000000000000e+02,3.730000000000000000e+02,1.050000000000000000e+02,4.100000000000000000e+01,1.510000000000000000e+02,9.900000000000000000e+01,5.500000000000000000e+01,6.600000000000000311e-01,6.986031800000000000e+09
8.600000000000000000e+01,3.970000000000000000e+02,3.700000000000000000e+02,1.050000000000000000e+02,4.000000000000000000e+01,1.430000000000000000e+02,9.900000000000000000e+01,4.900000000000000000e+01,6.700000000000000400e-01,7.003988500000000000e+09
7.700000000000000000e+01,3.270000000000000000e+02,2.770000000000000000e+02,1.100000000000000000e+02,3.500000000000000000e+01,1.630000000000000000e+02,1.000000000000000000e+02,3.900000000000000000e+01,6.700000000000000400e-01,7.021727700000000000e+09
7.200000000000000000e+01,3.300000000000000000e+02,2.630000000000000000e+02,1.350000000000000000e+02,3.100000000000000000e+01,1.560000000000000000e+02,9.900000000000000000e+01,3.000000000000000000e+01,6.700000000000000400e-01,7.038427000000000000e+09
8.000000000000000000e+01,3.150000000000000000e+02,2.700000000000000000e+02,1.360000000000000000e+02,3.200000000000000000e+01,1.350000000000000000e+02,8.800000000000000000e+01,3.400000000000000000e+01,6.800000000000000488e-01,7.055114700000000000e+09
8.000000000000000000e+01,3.280000000000000000e+02,3.010000000000000000e+02,1.390000000000000000e+02,3.200000000000000000e+01,1.350000000000000000e+02,5.900000000000000000e+01,3.300000000000000000e+01,6.800000000000000488e-01,7.079185200000000000e+09
8.300000000000000000e+01,2.720000000000000000e+02,2.880000000000000000e+02,1.370000000000000000e+02,3.100000000000000000e+01,1.670000000000000000e+02,7.500000000000000000e+01,3.200000000000000000e+01,6.899999999999999467e-01,7.096452100000000000e+09
8.200000000000000000e+01,2.630000000000000000e+02,3.290000000000000000e+02,1.330000000000000000e+02,3.300000000000000000e+01,1.510000000000000000e+02,7.200000000000000000e+01,3.200000000000000000e+01,6.899999999999999467e-01,7.116816800000000000e+09
1.420000000000000000e+02,2.980000000000000000e+02,3.250000000000000000e+02,1.120000000000000000e+02,3.600000000000000000e+01,1.500000000000000000e+02,7.100000000000000000e+01,4.000000000000000000e+01,6.899999999999999467e-01,7.134009900000000000e+09
1.440000000000000000e+02,3.000000000000000000e+02,3.660000000000000000e+02,1.090000000000000000e+02,5.400000000000000000e+01,3.620000000000000000e+02,1.230000000000000000e+02,4.600000000000000000e+01,6.999999999999999556e-01,7.151050500000000000e+09
1.460000000000000000e+02,2.920000000000000000e+02,3.410000000000000000e+02,1.060000000000000000e+02,5.300000000000000000e+01,3.850000000000000000e+02,1.230000000000000000e+02,4.500000000000000000e+01,6.999999999999999556e-01,7.167838200000000000e+09
1.490000000000000000e+02,3.520000000000000000e+02,3.430000000000000000e+02,1.080000000000000000e+02,5.400000000000000000e+01,3.750000000000000000e+02,1.120000000000000000e+02,4.500000000000000000e+01,6.999999999999999556e-01,7.184220500000000000e+09
1.650000000000000000e+02,4.050000000000000000e+02,3.430000000000000000e+02,9.300000000000000000e+01,5.700000000000000000e+01,3.750000000000000000e+02,1.140000000000000000e+02,5.000000000000000000e+01,6.999999999999999556e-01,7.200213400000000000e+09
1.240000000000000000e+02,3.540000000000000000e+02,4.060000000000000000e+02,7.100000000000000000e+01,5.600000000000000000e+01,4.020000000000000000e+02,1.460000000000000000e+02,1.010000000000000000e+02,6.999999999999999556e-01,7.217161100000000000e+09
1.160000000000000000e+02,3.340000000000000000e+02,3.680000000000000000e+02,7.200000000000000000e+01,5.000000000000000000e+01,3.820000000000000000e+02,1.140000000000000000e+02,1.080000000000000000e+02,6.999999999999999556e-01,7.234707200000000000e+09
1.260000000000000000e+02,3.280000000000000000e+02,3.650000000000000000e+02,7.000000000000000000e+01,4.900000000000000000e+01,3.790000000000000000e+02,1.220000000000000000e+02,1.120000000000000000e+02,6.899999999999999467e-01,7.251804300000000000e+09
1.350000000000000000e+02,2.910000000000000000e+02,4.130000000000000000e+02,8.900000000000000000e+01,5.400000000000000000e+01,3.800000000000000000e+02,1.230000000000000000e+02,1.180000000000000000e+02,6.899999999999999467e-01,7.270263600000000000e+09
1.270000000000000000e+02,2.590000000000000000e+02,3.610000000000000000e+02,1.230000000000000000e+02,5.100000000000000000e+01,3.780000000000000000e+02,1.230000000000000000e+02,1.180000000000000000e+02,6.899999999999999467e-01,7.287267600000000000e+09
1.280000000000000000e+02,3.210000000000000000e+02,2.910000000000000000e+02,1.520000000000000000e+02,5.300000000000000000e+01,3.520000000000000000e+02,8.300000000000000000e+01,8.500000000000000000e+01,6.899999999999999467e-01,7.303447000000000000e+09
1.370000000000000000e+02,3.310000000000000000e+02,2.930000000000000000e+02,1.570000000000000000e+02,4.200000000000000000e+01,1.840000000000000000e+02,9.400000000000000000e+01,7.400000000000000000e+01,6.899999999999999467e-01,7.319972600000000000e+09
1.280000000000000000e+02,3.340000000000000000e+02,3.340000000000000000e+02,1.560000000000000000e+02,4.600000000000000000e+01,1.870000000000000000e+02,8.000000000000000000e+01,7.300000000000000000e+01,6.899999999999999467e-01,7.336253800000000000e+09
1.080000000000000000e+02,3.260000000000000000e+02,3.150000000000000000e+02,1.520000000000000000e+02,4.400000000000000000e+01,1.890000000000000000e+02,8.100000000000000000e+01,6.300000000000000000e+01,6.800000000000000488e-01,7.352467300000000000e+09
1.190000000000000000e+02,3.740000000000000000e+02,3.140000000000000000e+02,1.470000000000000000e+02,4.700000000000000000e+01,1.920000000000000000e+02,7.800000000000000000e+01,6.100000000000000000e+01,6.800000000000000488e-01,7.369650300000000000e+09
1.190000000000000000e+02,3.560000000000000000e+02,3.830000000000000000e+02,1.160000000000000000e+02,4.900000000000000000e+01,1.930000000000000000e+02,7.800000000000000000e+01,5.000000000000000000e+01,6.800000000000000488e-01,7.386066600000000000e+09
1.120000000000000000e+02,3.500000000000000000e+02,3.900000000000000000e+02,1.090000000000000000e+02,5.300000000000000000e+01,2.890000000000000000e+02,9.800000000000000000e+01,1.090000000000000000e+02,6.800000000000000488e-01,7.402291200000000000e+09
1.160000000000000000e+02,3.440000000000000000e+02,3.540000000000000000e+02,1.110000000000000000e+02,5.900000000000000000e+01,3.950000000000000000e+02,1.090000000000000000e+02,1.180000000000000000e+02,6.800000000000000488e-01,7.419139600000000000e+09
1.230000000000000000e+02,3.310000000000000000e+02,3.080000000000000000e+02,1.020000000000000000e+02,5.700000000000000000e+01,4.120000000000000000e+02,1.200000000000000000e+02,1.200000000000000000e+02,6.800000000000000488e-01,7.436238900000000000e+09
1.090000000000000000e+02,2.310000000000000000e+02,3.190000000000000000e+02,6.400000000000000000e+01,5.400000000000000000e+01,4.180000000000000000e+02,1.210000000000000000e+02,1.200000000000000000e+02,6.800000000000000488e-01,7.452812700000000000e+09
1.260000000000000000e+02,2.340000000000000000e+02,2.970000000000000000e+02,7.000000000000000000e+01,5.100000000000000000e+01,4.200000000000000000e+02,1.280000000000000000e+02,1.200000000000000000e+02,6.700000000000000400e-01,7.469589400000000000e+09
1.520000000000000000e+02,2.420000000000000000e+02,2.890000000000000000e+02,7.200000000000000000e+01,5.000000000000000000e+01,3.590000000000000000e+02,9.600000000000000000e+01,7.200000000000000000e+01,6.700000000000000400e-01,7.486179200000000000e+09
1.860000000000000000e+02,3.050000000000000000e+02,3.020000000000000000e+02,8.500000000000000000e+01,3.800000000000000000e+01,2.050000000000000000e+02,9.400000000000000000e+01,5.300000000000000000e+01,6.600000000000000311e-01,7.504173100000000000e+09
1.850000000000000000e+02,3.570000000000000000e+02,3.030000000000000000e+02,8.200000000000000000e+01,3.700000000000000000e+01,1.920000000000000000e+02,8.000000000000000000e+01,1.020000000000000000e+02,6.600000000000000311e-01,7.521345200000000000e+09
1.790000000000000000e+02,3.880000000000000000e+02,3.120000000000000000e+02,7.900000000000000000e+01,3.400000000000000000e+01,1.830000000000000000e+02,7.900000000000000000e+01,1.040000000000000000e+02,6.600000000000000311e-01,7.538402600000000000e+09
1.750000000000000000e+02,3.910000000000000000e+02,3.630000000000000000e+02,7.300000000000000000e+01,3.000000000000000000e+01,1.790000000000000000e+02,6.600000000000000000e+01,1.060000000000000000e+02,6.500000000000000222e-01,7.555367300000000000e+09
1.530000000000000000e+02,4.110000000000000000e+02,3.940000000000000000e+02,7.100000000000000000e+01,2.400000000000000000e+01,1.720000000000000000e+02,6.100000000000000000e+01,1.060000000000000000e+02,6.500000000000000222e-01,7.571870400000000000e+09
1.140000000000000000e+02,3.960000000000000000e+02,3.950000000000000000e+02,5.200000000000000000e+01,2.400000000000000000e+01,1.520000000000000000e+02,4.000000000000000000e+01,1.040000000000000000e+02,6.400000000000000133e-01,7.588544100000000000e+09
1.130000000000000000e+02,4.150000000000000000e+02,4.210000000000000000e+02,6.700000000000000000e+01,2.500000000000000000e+01,1.070000000000000000e+02,3.900000000000000000e+01,5.700000000000000000e+01,6.400000000000000133e-01,7.605045100000000000e+09
1.120000000000000000e+02,4.010000000000000000e+02,4.160000000000000000e+02,6.700000000000000000e+01,2.600000000000000000e+01,9.600000000000000000e+01,5.400000000000000000e+01,1.020000000000000000e+02,6.400000000000000133e-01,7.623004000000000000e+09
9.000000000000000000e+01,3.880000000000000000e+02,3.450000000000000000e+02,7.700000000000000000e+01,3.100000000000000000e+01,8.300000000000000000e+01,5.600000000000000000e+01,1.030000000000000000e+02,6.400000000000000133e-01,7.640911500000000000e+09
9.200000000000000000e+01,3.890000000000000000e+02,3.460000000000000000e+02,7.500000000000000000e+01,3.100000000000000000e+01,7.900000000000000000e+01,5.700000000000000000e+01,1.030000000000000000e+02,6.400000000000000133e-01,7.657861900000000000e+09
8.000000000000000000e+01,3.750000000000000000e+02,3.730000000000000000e+02,9.900000000000000000e+01,3.000000000000000000e+01,6.900000000000000000e+01,5.700000000000000000e+01,1.050000000000000000e+02,6.500000000000000222e-01,7.674339700000000000e+09
7.800000000000000000e+01,3.300000000000000000e+02,3.680000000000000000e+02,9.800000000000000000e+01,3.300000000000000000e+01,1.040000000000000000e+02,6.900000000000000000e+01,1.050000000000000000e+02,6.500000000000000222e-01,7.690329600000000000e+09
9.700000000000000000e+01,3.540000000000000000e+02,3.720000000000000000e+02,1.070000000000000000e+02,3.300000000000000000e+01,1.030000000000000000e+02,7.000000000000000000e+01,5.700000000000000000e+01,6.500000000000000222e-01,7.708443700000000000e+09
1.000000000000000000e+02,3.450000000000000000e+02,3.810000000000000000e+02,1.000000000000000000e+02,3.500000000000000000e+01,1.370000000000000000e+02,8.000000000000000000e+01,5.000000000000000000e+01,6.500000000000000222e-01,7.725656600000000000e+09
1.100000000000000000e+02,3.240000000000000000e+02,4.380000000000000000e+02,1.190000000000000000e+02,4.000000000000000000e+01,1.390000000000000000e+02,8.500000000000000000e+01,4.700000000000000000e+01,6.600000000000000311e-01,7.742688300000000000e+09
1.090000000000000000e+02,3.250000000000000000e+02,4.250000000000000000e+02,1.060000000000000000e+02,4.200000000000000000e+01,1.390000000000000000e+02,8.600000000000000000e+01,4.400000000000000000e+01,6.600000000000000311e-01,7.760413800000000000e+09
1.090000000000000000e+02,3.440000000000000000e+02,4.910000000000000000e+02,1.070000000000000000e+02,4.100000000000000000e+01,1.280000000000000000e+02,9.000000000000000000e+01,4.000000000000000000e+01,6.700000000000000400e-01,7.777006900000000000e+09
1.040000000000000000e+02,3.160000000000000000e+02,4.830000000000000000e+02,1.060000000000000000e+02,4.100000000000000000e+01,1.290000000000000000e+02,8.100000000000000000e+01,4.200000000000000000e+01,6.700000000000000400e-01,7.794390000000000000e+09
1.080000000000000000e+02,3.240000000000000000e+02,4.670000000000000000e+02,1.140000000000000000e+02,3.800000000000000000e+01,1.060000000000000000e+02,7.000000000000000000e+01,4.400000000000000000e+01,6.700000000000000400e-01,7.810928300000000000e+09
9.300000000000000000e+01,3.130000000000000000e+02,3.790000000000000000e+02,9.500000000000000000e+01,3.500000000000000000e+01,2.230000000000000000e+02,8.300000000000000000e+01,4.300000000000000000e+01,6.800000000000000488e-01,7.827157400000000000e+09
9.100000000000000000e+01,2.950000000000000000e+02,3.600000000000000000e+02,8.800000000000000000e+01,3.300000000000000000e+01,2.410000000000000000e+02,9.800000000000000000e+01,4.000000000000000000e+01,6.800000000000000488e-01,7.843303500000000000e+09
8.700000000000000000e+01,2.820000000000000000e+02,2.290000000000000000e+02,8.000000000000000000e+01,3.000000000000000000e+01,2.390000000000000000e+02,8.500000000000000000e+01,3.800000000000000000e+01,6.800000000000000488e-01,7.859600800000000000e+09
7.800000000000000000e+01,3.100000000000000000e+02,2.430000000000000000e+02,8.300000000000000000e+01,3.700000000000000000e+01,2.370000000000000000e+02,8.400000000000000000e+01,3.700000000000000000e+01,6.899999999999999467e-01,7.876771800000000000e+09
7.700000000000000000e+01,3.600000000000000000e+02,3.940000000000000000e+02,1.190000000000000000e+02,3.800000000000000000e+01,2.590000000000000000e+02,9.800000000000000000e+01,1.030000000000000000e+02,6.899999999999999467e-01,7.893707900000000000e+09
7.500000000000000000e+01,4.110000000000000000e+02,4.130000000000000000e+02,1.220000000000000000e+02,4.200000000000000000e+01,3.050000000000000000e+02,1.060000000000000000e+02,1.110000000000000000e+02,6.899999999999999467e-01,7.910207200000000000e+09
7.300000000000000000e+01,4.170000000000000000e+02,4.310000000000000000e+02,1.250000000000000000e+02,4.200000000000000000e+01,3.330000000000000000e+02,9.900000000000000000e+01,1.130000000000000000e+02,6.899999999999999467e-01,7.926577900000000000e+09
7.500000000000000000e+01,3.920000000000000000e+02,4.950000000000000000e+02,1.440000000000000000e+02,4.900000000000000000e+01,3.470000000000000000e+02,1.050000000000000000e+02,1.150000000000000000e+02,6.899999999999999467e-01,7.942722300000000000e+09
5.800000000000000000e+01,3.490000000000000000e+02,4.870000000000000000e+02,1.450000000000000000e+02,4.400000000000000000e+01,3.590000000000000000e+02,1.230000000000000000e+02,1.160000000000000000e+02,6.999999999999999556e-01,7.958848400000000000e+09
4.700000000000000000e+01,2.650000000000000000e+02,4.650000000000000000e+02,1.150000000000000000e+02,4.500000000000000000e+01,3.590000000000000000e+02,1.180000000000000000e+02,6.500000000000000000e+01,6.999999999999999556e-01,7.975187000000000000e+09
5.900000000000000000e+01,2.600000000000000000e+02,5.030000000000000000e+02,1.160000000000000000e+02,4.000000000000000000e+01,2.680000000000000000e+02,9.900000000000000000e+01,5.300000000000000000e+01,6.999999999999999556e-01,7.991269000000000000e+09
6.400000000000000000e+01,3.060000000000000000e+02,5.220000000000000000e+02,1.200000000000000000e+02,4.000000000000000000e+01,2.200000000000000000e+02,9.600000000000000000e+01,9.900000000000000000e+01,6.999999999999999556e-01,8.008237400000000000e+09
6.300000000000000000e+01,3.130000000000000000e+02,5.180000000000000000e+02,1.000000000000000000e+02,3.800000000000000000e+01,2.450000000000000000e+02,1.330000000000000000e+02,1.080000000000000000e+02,6.999999999999999556e-01,8.025505600000000000e+09
6.400000000000000000e+01,3.120000000000000000e+02,5.510000000000000000e+02,9.400000000000000000e+01,4.200000000000000000e+01,2.350000000000000000e+02,1.250000000000000000e+02,1.100000000000000000e+02,6.999999999999999556e-01,8.044740700000000000e+09
6.200000000000000000e+01,3.330000000000000000e+02,4.750000000000000000e+02,1.120000000000000000e+02,4.000000000000000000e+01,2.100000000000000000e+02,1.250000000000000000e+02,1.120000000000000000e+02,6.899999999999999467e-01,8.063108200000000000e+09
9.200000000000000000e+01,3.620000000000000000e+02,4.850000000000000000e+02,1.120000000000000000e+02,4.400000000000000000e+01,3.100000000000000000e+02,1.420000000000000000e+02,1.230000000000000000e+02,6.899999999999999467e-01,8.080576000000000000e+09
1.560000000000000000e+02,4.310000000000000000e+02,4.610000000000000000e+02,1.090000000000000000e+02,4.600000000000000000e+01,3.100000000000000000e+02,1.460000000000000000e+02,1.290000000000000000e+02,6.899999999999999467e-01,8.097206800000000000e+09
1.640000000000000000e+02,4.400000000000000000e+02,4.660000000000000000e+02,1.050000000000000000e+02,4.100000000000000000e+01,2.820000000000000000e+02,1.250000000000000000e+02,1.210000000000000000e+02,6.899999999999999467e-01,8.114614000000000000e+09
1.670000000000000000e+02,4.620000000000000000e+02,4.620000000000000000e+02,1.050000000000000000e+02,4.100000000000000000e+01,4.190000000000000000e+02,1.360000000000000000e+02,1.210000000000000000e+02,6.999999999999999556e-01,8.132505800000000000e+09
1.700000000000000000e+02,4.490000000000000000e+02,4.570000000000000000e+02,8.200000000000000000e+01,4.100000000000000000e+01,4.380000000000000000e+02,1.390000000000000000e+02,1.190000000000000000e+02,6.999999999999999556e-01,8.150314800000000000e+09
1.520000000000000000e+02,4.000000000000000000e+02,3.880000000000000000e+02,7.000000000000000000e+01,3.800000000000000000e+01,3.930000000000000000e+02,1.270000000000000000e+02,1.350000000000000000e+02,6.899999999999999467e-01,8.168020600000000000e+09
9.700000000000000000e+01,3.060000000000000000e+02,3.720000000000000000e+02,6.400000000000000000e+01,3.700000000000000000e+01,4.390000000000000000e+02,1.520000000000000000e+02,1.510000000000000000e+02,6.899999999999999467e-01,8.186993000000000000e+09
1.240000000000000000e+02,3.050000000000000000e+02,3.140000000000000000e+02,6.300000000000000000e+01,3.700000000000000000e+01,4.380000000000000000e+02,1.490000000000000000e+02,1.830000000000000000e+02,6.899999999999999467e-01,8.203317700000000000e+09
1.260000000000000000e+02,2.820000000000000000e+02,2.890000000000000000e+02,5.200000000000000000e+01,3.300000000000000000e+01,3.130000000000000000e+02,1.330000000000000000e+02,1.880000000000000000e+02,6.800000000000000488e-01,8.219361600000000000e+09
1.270000000000000000e+02,2.790000000000000000e+02,5.320000000000000000e+02,9.100000000000000000e+01,4.000000000000000000e+01,3.000000000000000000e+02,1.290000000000000000e+02,1.880000000000000000e+02,6.800000000000000488e-01,8.236910700000000000e+09
1.260000000000000000e+02,2.530000000000000000e+02,6.400000000000000000e+02,1.000000000000000000e+02,4.000000000000000000e+01,2.810000000000000000e+02,1.240000000000000000e+02,1.700000000000000000e+02,6.800000000000000488e-01,8.254186100000000000e+09
1.190000000000000000e+02,2.210000000000000000e+02,7.000000000000000000e+02,1.100000000000000000e+02,4.200000000000000000e+01,2.370000000000000000e+02,1.340000000000000000e+02,3.090000000000000000e+02,6.700000000000000400e-01,8.270344400000000000e+09
9.300000000000000000e+01,2.440000000000000000e+02,7.490000000000000000e+02,1.200000000000000000e+02,4.500000000000000000e+01,2.730000000000000000e+02,1.390000000000000000e+02,3.200000000000000000e+02,6.500000000000000222e-01,8.286948600000000000e+09
9.400000000000000000e+01,2.710000000000000000e+02,7.540000000000000000e+02,1.220000000000000000e+02,4.600000000000000000e+01,3.250000000000000000e+02,1.400000000000000000e+02,3.450000000000000000e+02,6.300000000000000044e-01,8.303292100000000000e+09
1.060000000000000000e+02,3.480000000000000000e+02,6.510000000000000000e+02,1.260000000000000000e+02,5.200000000000000000e+01,3.320000000000000000e+02,1.490000000000000000e+02,3.600000000000000000e+02,6.099999999999999867e-01,8.320381500000000000e+09
1.130000000000000000e+02,3.660000000000000000e+02,6.140000000000000000e+02,1.390000000000000000e+02,6.000000000000000000e+01,3.240000000000000000e+02,1.490000000000000000e+02,3.680000000000000000e+02,5.899999999999999689e-01,8.337290900000000000e+09
1.250000000000000000e+02,4.270000000000000000e+02,7.300000000000000000e+02,1.850000000000000000e+02,7.500000000000000000e+01,3.070000000000000000e+02,1.100000000000000000e+02,2.460000000000000000e+02,5.699999999999999512e-01,8.353349600000000000e+09
1.200000000000000000e+02,4.930000000000000000e+02,7.190000000000000000e+02,2.930000000000000000e+02,8.400000000000000000e+01,2.640000000000000000e+02,8.600000000000000000e+01,2.120000000000000000e+02,5.400000000000000355e-01,8.369805300000000000e+09
1.240000000000000000e+02,6.100000000000000000e+02,8.630000000000000000e+02,4.380000000000000000e+02,1.030000000000000000e+02,1.860000000000000000e+02,8.100000000000000000e+01,1.630000000000000000e+02,5.100000000000000089e-01,8.387082700000000000e+09
1.180000000000000000e+02,6.200000000000000000e+02,9.480000000000000000e+02,4.800000000000000000e+02,1.110000000000000000e+02,1.420000000000000000e+02,5.700000000000000000e+01,1.310000000000000000e+02,4.799999999999999822e-01,8.403976900000000000e+09
1.200000000000000000e+02,6.280000000000000000e+02,1.000000000000000000e+03,4.870000000000000000e+02,1.180000000000000000e+02,1.230000000000000000e+02,5.600000000000000000e+01,1.050000000000000000e+02,4.500000000000000111e-01,8.420056800000000000e+09
1.080000000000000000e+02,6.250000000000000000e+02,9.780000000000000000e+02,4.770000000000000000e+02,1.110000000000000000e+02,1.170000000000000000e+02,4.500000000000000000e+01,7.900000000000000000e+01,4.199999999999999845e-01,8.436327000000000000e+09
1.260000000000000000e+02,5.800000000000000000e+02,1.025000000000000000e+03,4.410000000000000000e+02,1.240000000000000000e+02,1.190000000000000000e+02,5.800000000000000000e+01,7.300000000000000000e+01,3.900000000000000133e-01,8.455082500000000000e+09
1.210000000000000000e+02,4.670000000000000000e+02,9.170000000000000000e+02,4.110000000000000000e+02,1.410000000000000000e+02,1.260000000000000000e+02,6.200000000000000000e+01,6.900000000000000000e+01,3.599999999999999867e-01,8.471928700000000000e+09
1.170000000000000000e+02,4.640000000000000000e+02,8.290000000000000000e+02,3.730000000000000000e+02,1.370000000000000000e+02,1.280000000000000000e+02,6.400000000000000000e+01,6.800000000000000000e+01,3.400000000000000244e-01,8.488525700000000000e+09
1.090000000000000000e+02,4.360000000000000000e+02,7.810000000000000000e+02,3.810000000000000000e+02,1.320000000000000000e+02,2.870000000000000000e+02,9.300000000000000000e+01,7.500000000000000000e+01,3.099999999999999978e-01,8.505718100000000000e+09
1.110000000000000000e+02,3.850000000000000000e+02,7.010000000000000000e+02,3.790000000000000000e+02,1.350000000000000000e+02,4.320000000000000000e+02,1.310000000000000000e+02,2.360000000000000000e+02,2.999999999999999889e-01,8.522736100000000000e+09
1.030000000000000000e+02,3.480000000000000000e+02,6.400000000000000000e+02,3.540000000000000000e+02,1.200000000000000000e+02,4.700000000000000000e+02,2.170000000000000000e+02,3.450000000000000000e+02,2.899999999999999800e-01,8.540560700000000000e+09
1.140000000000000000e+02,3.080000000000000000e+02,7.590000000000000000e+02,2.150000000000000000e+02,8.900000000000000000e+01,5.430000000000000000e+02,2.470000000000000000e+02,4.120000000000000000e+02,2.899999999999999800e-01,8.557102900000000000e+09
1.320000000000000000e+02,1.880000000000000000e+02,7.880000000000000000e+02,1.770000000000000000e+02,9.800000000000000000e+01,6.470000000000000000e+02,3.270000000000000000e+02,5.740000000000000000e+02,2.800000000000000266e-01,8.573860200000000000e+09
1.420000000000000000e+02,1.970000000000000000e+02,7.580000000000000000e+02,1.300000000000000000e+02,9.600000000000000000e+01,6.640000000000000000e+02,5.770000000000000000e+02,7.130000000000000000e+02,2.800000000000000266e-01,8.591145000000000000e+09
1.470000000000000000e+02,1.950000000000000000e+02,7.330000000000000000e+02,1.080000000000000000e+02,9.400000000000000000e+01,7.110000000000000000e+02,6.700000000000000000e+02,8.300000000000000000e+02,2.800000000000000266e-01,8.608789800000000000e+09
1.350000000000000000e+02,1.800000000000000000e+02,6.700000000000000000e+02,9.600000000000000000e+01,9.400000000000000000e+01,7.710000000000000000e+02,8.050000000000000000e+02,8.370000000000000000e+02,2.800000000000000266e-01,8.626594400000000000e+09
1.650000000000000000e+02,1.860000000000000000e+02,5.890000000000000000e+02,9.800000000000000000e+01,9.600000000000000000e+01,7.630000000000000000e+02,9.680000000000000000e+02,8.550000000000000000e+02,2.999999999999999889e-01,8.645009600000000000e+09
1.500000000000000000e+02,1.890000000000000000e+02,5.230000000000000000e+02,1.010000000000000000e+02,8.800000000000000000e+01,7.820000000000000000e+02,1.048000000000000000e+03,8.280000000000000000e+02,3.200000000000000067e-01,8.662388600000000000e+09
1.550000000000000000e+02,1.760000000000000000e+02,4.940000000000000000e+02,9.100000000000000000e+01,8.700000000000000000e+01,7.950000000000000000e+02,9.640000000000000000e+02,7.670000000000000000e+02,3.400000000000000244e-01,8.679694600000000000e+09
1.660000000000000000e+02,1.650000000000000000e+02,5.590000000000000000e+02,1.080000000000000000e+02,8.900000000000000000e+01,7.570000000000000000e+02,1.028000000000000000e+03,7.680000000000000000e+02,3.599999999999999867e-01,8.697184800000000000e+09
1.980000000000000000e+02,2.180000000000000000e+02,6.290000000000000000e+02,1.810000000000000000e+02,1.060000000000000000e+02,7.220000000000000000e+02,9.980000000000000000e+02,7.950000000000000000e+02,3.699999999999999956e-01,8.714781100000000000e+09
1.950000000000000000e+02,2.370000000000000000e+02,6.810000000000000000e+02,2.050000000000000000e+02,1.060000000000000000e+02,6.930000000000000000e+02,8.570000000000000000e+02,7.960000000000000000e+02,3.699999999999999956e-01,8.732153400000000000e+09
2.020000000000000000e+02,2.360000000000000000e+02,6.710000000000000000e+02,2.040000000000000000e+02,9.800000000000000000e+01,6.040000000000000000e+02,7.730000000000000000e+02,7.970000000000000000e+02,3.599999999999999867e-01,8.749883100000000000e+09
1.970000000000000000e+02,2.580000000000000000e+02,6.540000000000000000e+02,2.070000000000000000e+02,1.000000000000000000e+02,5.440000000000000000e+02,8.160000000000000000e+02,8.030000000000000000e+02,3.699999999999999956e-01,8.767842200000000000e+09
1.990000000000000000e+02,3.240000000000000000e+02,6.740000000000000000e+02,2.070000000000000000e+02,9.700000000000000000e+01,4.640000000000000000e+02,6.520000000000000000e+02,6.630000000000000000e+02,3.699999999999999956e-01,8.786571000000000000e+09
1.910000000000000000e+02,3.700000000000000000e+02,6.590000000000000000e+02,2.220000000000000000e+02,8.900000000000000000e+01,4.070000000000000000e+02,5.340000000000000000e+02,5.790000000000000000e+02,3.699999999999999956e-01,8.805009000000000000e+09
1.650000000000000000e+02,3.730000000000000000e+02,5.830000000000000000e+02,2.370000000000000000e+02,8.400000000000000000e+01,3.910000000000000000e+02,5.030000000000000000e+02,5.070000000000000000e+02,3.800000000000000044e-01,8.823288200000000000e+09
1.550000000000000000e+02,3.800000000000000000e+02,5.950000000000000000e+02,2.350000000000000000e+02,8.500000000000000000e+01,5.150000000000000000e+02,4.760000000000000000e+02,3.980000000000000000e+02,3.800000000000000044e-01,8.841999000000000000e+09
1.530000000000000000e+02,3.640000000000000000e+02,5.980000000000000000e+02,2.340000000000000000e+02,8.700000000000000000e+01,5.440000000000000000e+02,5.190000000000000000e+02,4.070000000000000000e+02,3.800000000000000044e-01,8.860225100000000000e+09
1.400000000000000000e+02,3.070000000000000000e+02,5.280000000000000000e+02,2.270000000000000000e+02,8.300000000000000000e+01,5.210000000000000000e+02,5.460000000000000000e+02,3.890000000000000000e+02,3.800000000000000044e-01,8.879594100000000000e+09
1.090000000000000000e+02,2.540000000000000000e+02,6.480000000000000000e+02,1.780000000000000000e+02,7.000000000000000000e+01,5.020000000000000000e+02,5.320000000000000000e+02,3.860000000000000000e+02,3.699999999999999956e-01,8.897983800000000000e+09
1.080000000000000000e+02,2.240000000000000000e+02,7.100000000000000000e+02,1.450000000000000000e+02,6.400000000000000000e+01,4.940000000000000000e+02,5.360000000000000000e+02,3.840000000000000000e+02,3.800000000000000044e-01,8.916870700000000000e+09
1.110000000000000000e+02,2.110000000000000000e+02,7.210000000000000000e+02,1.510000000000000000e+02,6.200000000000000000e+01,4.280000000000000000e+02,5.630000000000000000e+02,4.100000000000000000e+02,3.800000000000000044e-01,8.938630800000000000e+09
1.050000000000000000e+02,2.080000000000000000e+02,7.250000000000000000e+02,1.550000000000000000e+02,6.100000000000000000e+01,3.760000000000000000e+02,5.160000000000000000e+02,3.780000000000000000e+02,3.800000000000000044e-01,8.958033800000000000e+09
1.000000000000000000e+02,2.300000000000000000e+02,7.590000000000000000e+02,1.570000000000000000e+02,6.200000000000000000e+01,3.710000000000000000e+02,4.970000000000000000e+02,3.880000000000000000e+02,3.800000000000000044e-01,8.978202200000000000e+09
9.800000000000000000e+01,1.960000000000000000e+02,7.010000000000000000e+02,1.620000000000000000e+02,6.000000000000000000e+01,3.690000000000000000e+02,4.970000000000000000e+02,4.050000000000000000e+02,3.900000000000000133e-01,8.997991400000000000e+09
9.900000000000000000e+01,2.220000000000000000e+02,6.180000000000000000e+02,1.580000000000000000e+02,5.700000000000000000e+01,4.650000000000000000e+02,4.850000000000000000e+02,4.080000000000000000e+02,4.000000000000000222e-01,9.016470400000000000e+09
9.700000000000000000e+01,2.240000000000000000e+02,6.070000000000000000e+02,1.480000000000000000e+02,5.200000000000000000e+01,4.210000000000000000e+02,4.430000000000000000e+02,3.670000000000000000e+02,4.000000000000000222e-01,9.035180700000000000e+09
9.700000000000000000e+01,2.300000000000000000e+02,6.370000000000000000e+02,1.410000000000000000e+02,4.400000000000000000e+01,4.280000000000000000e+02,3.060000000000000000e+02,3.370000000000000000e+02,4.000000000000000222e-01,9.054586800000000000e+09
9.800000000000000000e+01,2.260000000000000000e+02,5.800000000000000000e+02,1.400000000000000000e+02,4.300000000000000000e+01,4.320000000000000000e+02,2.750000000000000000e+02,3.110000000000000000e+02,4.000000000000000222e-01,9.074135000000000000e+09
1.000000000000000000e+02,2.460000000000000000e+02,5.260000000000000000e+02,1.150000000000000000e+02,4.200000000000000000e+01,4.360000000000000000e+02,2.590000000000000000e+02,2.730000000000000000e+02,4.099999999999999756e-01,9.096288600000000000e+09
1.000000000000000000e+02,2.280000000000000000e+02,4.830000000000000000e+02,9.800000000000000000e+01,4.200000000000000000e+01,3.280000000000000000e+02,2.620000000000000000e+02,2.690000000000000000e+02,4.099999999999999756e-01,9.116272400000000000e+09
1.040000000000000000e+02,2.350000000000000000e+02,5.230000000000000000e+02,9.900000000000000000e+01,4.500000000000000000e+01,2.470000000000000000e+02,1.950000000000000000e+02,2.710000000000000000e+02,4.099999999999999756e-01,9.137928900000000000e+09
9.900000000000000000e+01,2.260000000000000000e+02,5.620000000000000000e+02,1.040000000000000000e+02,4.800000000000000000e+01,1.610000000000000000e+02,1.410000000000000000e+02,1.420000000000000000e+02,4.199999999999999845e-01,9.157234300000000000e+09
8.600000000000000000e+01,2.110000000000000000e+02,6.730000000000000000e+02,1.090000000000000000e+02,4.800000000000000000e+01,1.390000000000000000e+02,1.220000000000000000e+02,1.280000000000000000e+02,4.299999999999999933e-01,9.178303200000000000e+09
8.100000000000000000e+01,1.800000000000000000e+02,7.510000000000000000e+02,1.370000000000000000e+02,5.600000000000000000e+01,1.150000000000000000e+02,1.050000000000000000e+02,1.140000000000000000e+02,4.400000000000000022e-01,9.200292600000000000e+09
7.800000000000000000e+01,2.020000000000000000e+02,7.650000000000000000e+02,1.570000000000000000e+02,6.300000000000000000e+01,1.080000000000000000e+02,8.600000000000000000e+01,1.010000000000000000e+02,4.400000000000000022e-01,9.219039600000000000e+09
1.070000000000000000e+02,2.600000000000000000e+02,8.700000000000000000e+02,2.330000000000000000e+02,9.600000000000000000e+01,9.700000000000000000e+01,7.100000000000000000e+01,6.500000000000000000e+01,4.400000000000000022e-01,9.238533300000000000e+09
1.150000000000000000e+02,2.650000000000000000e+02,9.360000000000000000e+02,2.460000000000000000e+02,1.030000000000000000e+02,8.500000000000000000e+01,5.700000000000000000e+01,6.500000000000000000e+01,4.400000000000000022e-01,9.274166800000000000e+09
1.240000000000000000e+02,2.920000000000000000e+02,9.390000000000000000e+02,2.580000000000000000e+02,1.120000000000000000e+02,7.900000000000000000e+01,5.800000000000000000e+01,6.600000000000000000e+01,4.299999999999999933e-01,9.291675300000000000e+09
1.610000000000000000e+02,3.380000000000000000e+02,9.380000000000000000e+02,3.220000000000000000e+02,1.470000000000000000e+02,9.700000000000000000e+01,6.900000000000000000e+01,8.600000000000000000e+01,4.199999999999999845e-01,9.309289800000000000e+09
1.860000000000000000e+02,3.940000000000000000e+02,1.054000000000000000e+03,3.610000000000000000e+02,2.760000000000000000e+02,1.120000000000000000e+02,7.900000000000000000e+01,9.900000000000000000e+01,3.900000000000000133e-01,9.327243300000000000e+09
1.940000000000000000e+02,3.790000000000000000e+02,1.126000000000000000e+03,4.270000000000000000e+02,2.990000000000000000e+02,1.220000000000000000e+02,7.900000000000000000e+01,1.040000000000000000e+02,3.699999999999999956e-01,9.345018200000000000e+09
1.990000000000000000e+02,4.260000000000000000e+02,1.147000000000000000e+03,4.410000000000000000e+02,3.080000000000000000e+02,1.550000000000000000e+02,8.400000000000000000e+01,1.020000000000000000e+02,3.499999999999999778e-01,9.363710700000000000e+09
1.980000000000000000e+02,4.070000000000000000e+02,1.117000000000000000e+03,5.030000000000000000e+02,3.660000000000000000e+02,1.650000000000000000e+02,8.200000000000000000e+01,1.020000000000000000e+02,3.200000000000000067e-01,9.382879500000000000e+09
1.870000000000000000e+02,4.120000000000000000e+02,1.102000000000000000e+03,5.130000000000000000e+02,4.220000000000000000e+02,1.840000000000000000e+02,8.200000000000000000e+01,9.300000000000000000e+01,2.800000000000000266e-01,9.401713000000000000e+09
1.790000000000000000e+02,4.340000000000000000e+02,1.035000000000000000e+03,5.410000000000000000e+02,4.050000000000000000e+02,2.020000000000000000e+02,8.300000000000000000e+01,9.000000000000000000e+01,2.500000000000000000e-01,9.420885400000000000e+09
1.700000000000000000e+02,5.360000000000000000e+02,1.134000000000000000e+03,5.110000000000000000e+02,4.050000000000000000e+02,1.950000000000000000e+02,8.200000000000000000e+01,8.900000000000000000e+01,2.200000000000000011e-01,9.439673200000000000e+09
1.720000000000000000e+02,5.620000000000000000e+02,1.113000000000000000e+03,5.500000000000000000e+02,4.090000000000000000e+02,1.820000000000000000e+02,8.400000000000000000e+01,9.300000000000000000e+01,1.900000000000000022e-01,9.458947400000000000e+09
2.010000000000000000e+02,6.090000000000000000e+02,1.119000000000000000e+03,5.910000000000000000e+02,4.010000000000000000e+02,2.000000000000000000e+02,9.200000000000000000e+01,1.100000000000000000e+02,1.600000000000000033e-01,9.477961000000000000e+09
2.090000000000000000e+02,6.330000000000000000e+02,1.152000000000000000e+03,5.690000000000000000e+02,3.370000000000000000e+02,1.870000000000000000e+02,8.800000000000000000e+01,1.160000000000000000e+02,1.300000000000000044e-01,9.498032100000000000e+09
1.970000000000000000e+02,5.910000000000000000e+02,1.182000000000000000e+03,5.300000000000000000e+02,2.860000000000000000e+02,1.700000000000000000e+02,8.100000000000000000e+01,1.070000000000000000e+02,1.100000000000000006e-01,9.517702600000000000e+09
1.880000000000000000e+02,5.460000000000000000e+02,1.031000000000000000e+03,5.470000000000000000e+02,2.740000000000000000e+02,1.790000000000000000e+02,7.700000000000000000e+01,9.900000000000000000e+01,8.999999999999999667e-02,9.538486700000000000e+09
2.190000000000000000e+02,5.680000000000000000e+02,9.980000000000000000e+02,5.720000000000000000e+02,2.720000000000000000e+02,1.860000000000000000e+02,8.500000000000000000e+01,1.130000000000000000e+02,8.000000000000000167e-02,9.557830000000000000e+09
2.330000000000000000e+02,5.710000000000000000e+02,1.005000000000000000e+03,5.890000000000000000e+02,2.750000000000000000e+02,1.840000000000000000e+02,9.300000000000000000e+01,1.180000000000000000e+02,7.000000000000000666e-02,9.578042500000000000e+09
2.170000000000000000e+02,5.290000000000000000e+02,1.070000000000000000e+03,5.790000000000000000e+02,2.690000000000000000e+02,1.720000000000000000e+02,9.300000000000000000e+01,1.110000000000000000e+02,5.999999999999999778e-02,9.598510500000000000e+09
2.280000000000000000e+02,5.400000000000000000e+02,1.030000000000000000e+03,5.930000000000000000e+02,2.610000000000000000e+02,1.660000000000000000e+02,9.300000000000000000e+01,1.170000000000000000e+02,5.000000000000000278e-02,9.617961400000000000e+09
2.630000000000000000e+02,5.430000000000000000e+02,9.800000000000000000e+02,5.670000000000000000e+02,2.740000000000000000e+02,1.720000000000000000e+02,1.060000000000000000e+02,1.380000000000000000e+02,4.000000000000000083e-02,9.637926900000000000e+09
2.450000000000000000e+02,4.910000000000000000e+02,1.038000000000000000e+03,5.280000000000000000e+02,2.650000000000000000e+02,1.580000000000000000e+02,9.500000000000000000e+01,1.260000000000000000e+02,4.000000000000000083e-02,9.658363400000000000e+09
2.250000000000000000e+02,4.420000000000000000e+02,1.083000000000000000e+03,4.710000000000000000e+02,2.230000000000000000e+02,1.390000000000000000e+02,8.800000000000000000e+01,1.170000000000000000e+02,4.000000000000000083e-02,9.678216600000000000e+09
2.300000000000000000e+02,4.560000000000000000e+02,1.046000000000000000e+03,4.920000000000000000e+02,2.470000000000000000e+02,1.450000000000000000e+02,8.700000000000000000e+01,1.190000000000000000e+02,4.000000000000000083e-02,9.697360000000000000e+09
2.350000000000000000e+02,4.880000000000000000e+02,1.039000000000000000e+03,5.540000000000000000e+02,2.720000000000000000e+02,1.600000000000000000e+02,8.700000000000000000e+01,1.210000000000000000e+02,2.999999999999999889e-02,9.716472400000000000e+09
1.910000000000000000e+02,4.290000000000000000e+02,1.098000000000000000e+03,5.950000000000000000e+02,2.530000000000000000e+02,1.450000000000000000e+02,7.000000000000000000e+01,9.600000000000000000e+01,2.999999999999999889e-02,9.736498100000000000e+09
1.710000000000000000e+02,3.930000000000000000e+02,1.103000000000000000e+03,5.760000000000000000e+02,2.520000000000000000e+02,1.360000000000000000e+02,7.000000000000000000e+01,9.100000000000000000e+01,4.000000000000000083e-02,9.755286800000000000e+09
1.490000000000000000e+02,3.860000000000000000e+02,1.172000000000000000e+03,6.030000000000000000e+02,2.580000000000000000e+02,1.360000000000000000e+02,6.000000000000000000e+01,7.800000000000000000e+01,4.000000000000000083e-02,9.776808900000000000e+09
1.590000000000000000e+02,3.830000000000000000e+02,1.150000000000000000e+03,6.720000000000000000e+02,2.600000000000000000e+02,1.460000000000000000e+02,6.000000000000000000e+01,7.700000000000000000e+01,4.000000000000000083e-02,9.796679800000000000e+09
1.600000000000000000e+02,3.430000000000000000e+02,1.212000000000000000e+03,6.970000000000000000e+02,2.520000000000000000e+02,1.530000000000000000e+02,6.200000000000000000e+01,7.900000000000000000e+01,5.000000000000000278e-02,9.816632300000000000e+09
1.800000000000000000e+02,3.720000000000000000e+02,1.169000000000000000e+03,7.340000000000000000e+02,2.780000000000000000e+02,1.670000000000000000e+02,6.900000000000000000e+01,9.200000000000000000e+01,5.000000000000000278e-02,9.836839200000000000e+09
2.080000000000000000e+02,3.930000000000000000e+02,1.173000000000000000e+03,7.770000000000000000e+02,3.330000000000000000e+02,1.870000000000000000e+02,7.800000000000000000e+01,1.100000000000000000e+02,5.999999999999999778e-02,9.855741400000000000e+09
2.140000000000000000e+02,4.310000000000000000e+02,1.070000000000000000e+03,7.850000000000000000e+02,3.250000000000000000e+02,1.900000000000000000e+02,7.800000000000000000e+01,1.110000000000000000e+02,5.999999999999999778e-02,9.874844200000000000e+09
2.040000000000000000e+02,4.160000000000000000e+02,1.133000000000000000e+03,7.440000000000000000e+02,3.150000000000000000e+02,1.890000000000000000e+02,8.000000000000000000e+01,1.090000000000000000e+02,5.999999999999999778e-02,9.895768100000000000e+09
2.000000000000000000e+02,4.120000000000000000e+02,1.179000000000000000e+03,7.230000000000000000e+02,3.000000000000000000e+02,1.680000000000000000e+02,7.800000000000000000e+01,1.060000000000000000e+02,7.000000000000000666e-02,9.915662800000000000e+09
2.010000000000000000e+02,4.550000000000000000e+02,1.156000000000000000e+03,8.240000000000000000e+02,2.850000000000000000e+02,1.630000000000000000e+02,7.800000000000000000e+01,1.050000000000000000e+02,8.000000000000000167e-02,9.935517500000000000e+09
1.760000000000000000e+02,4.430000000000000000e+02,1.152000000000000000e+03,8.510000000000000000e+02,2.310000000000000000e+02,1.530000000000000000e+02,7.200000000000000000e+01,8.700000000000000000e+01,8.000000000000000167e-02,9.956081100000000000e+09
1.690000000000000000e+02,4.030000000000000000e+02,1.159000000000000000e+03,8.150000000000000000e+02,2.110000000000000000e+02,1.440000000000000000e+02,7.200000000000000000e+01,8.600000000000000000e+01,8.999999999999999667e-02,9.976516900000000000e+09
1.660000000000000000e+02,4.270000000000000000e+02,1.166000000000000000e+03,8.590000000000000000e+02,2.130000000000000000e+02,1.350000000000000000e+02,6.800000000000000000e+01,8.400000000000000000e+01,8.999999999999999667e-02,9.996304600000000000e+09
1.720000000000000000e+02,5.050000000000000000e+02,1.085000000000000000e+03,8.540000000000000000e+02,2.360000000000000000e+02,1.490000000000000000e+02,7.000000000000000000e+01,8.400000000000000000e+01,1.000000000000000056e-01,1.001577220000000000e+10
1.740000000000000000e+02,4.800000000000000000e+02,1.126000000000000000e+03,7.600000000000000000e+02,2.410000000000000000e+02,1.500000000000000000e+02,7.300000000000000000e+01,8.900000000000000000e+01,1.000000000000000056e-01,1.003640890000000000e+10
1.950000000000000000e+02,5.080000000000000000e+02,1.075000000000000000e+03,6.980000000000000000e+02,2.350000000000000000e+02,1.490000000000000000e+02,7.600000000000000000e+01,1.010000000000000000e+02,1.000000000000000056e-01,1.005577300000000000e+10
2.350000000000000000e+02,5.400000000000000000e+02,1.094000000000000000e+03,6.820000000000000000e+02,2.470000000000000000e+02,1.520000000000000000e+02,8.900000000000000000e+01,1.210000000000000000e+02,1.000000000000000056e-01,1.007619280000000000e+10
2.650000000000000000e+02,5.360000000000000000e+02,1.058000000000000000e+03,6.430000000000000000e+02,2.510000000000000000e+02,1.540000000000000000e+02,9.500000000000000000e+01,1.330000000000000000e+02,1.000000000000000056e-01,1.009527270000000000e+10
2.730000000000000000e+02,4.940000000000000000e+02,1.147000000000000000e+03,6.460000000000000000e+02,2.360000000000000000e+02,1.480000000000000000e+02,9.600000000000000000e+01,1.440000000000000000e+02,1.000000000000000056e-01,1.011519370000000000e+10
2.750000000000000000e+02,4.860000000000000000e+02,1.098000000000000000e+03,6.410000000000000000e+02,2.470000000000000000e+02,1.560000000000000000e+02,1.000000000000000000e+02,1.440000000000000000e+02,1.000000000000000056e-01,1.013585410000000000e+10
2.970000000000000000e+02,5.520000000000000000e+02,1.146000000000000000e+03,6.940000000000000000e+02,2.720000000000000000e+02,1.650000000000000000e+02,1.070000000000000000e+02,1.510000000000000000e+02,1.000000000000000056e-01,1.015525540000000000e+10
2.860000000000000000e+02,5.390000000000000000e+02,1.233000000000000000e+03,7.690000000000000000e+02,2.800000000000000000e+02,1.680000000000000000e+02,1.050000000000000000e+02,1.440000000000000000e+02,1.000000000000000056e-01,1.017515870000000000e+10
2.780000000000000000e+02,5.290000000000000000e+02,1.207000000000000000e+03,7.370000000000000000e+02,2.980000000000000000e+02,1.750000000000000000e+02,1.070000000000000000e+02,1.450000000000000000e+02,8.999999999999999667e-02,1.019456710000000000e+10
2.750000000000000000e+02,5.790000000000000000e+02,1.195000000000000000e+03,8.040000000000000000e+02,3.030000000000000000e+02,1.710000000000000000e+02,1.070000000000000000e+02,1.400000000000000000e+02,8.999999999999999667e-02,1.021494980000000000e+10
2.910000000000000000e+02,5.890000000000000000e+02,1.267000000000000000e+03,8.070000000000000000e+02,3.020000000000000000e+02,1.680000000000000000e+02,1.090000000000000000e+02,1.470000000000000000e+02,8.999999999999999667e-02,1.023616590000000000e+10
2.620000000000000000e+02,5.400000000000000000e+02,1.260000000000000000e+03,7.770000000000000000e+02,2.760000000000000000e+02,1.520000000000000000e+02,1.000000000000000000e+02,1.370000000000000000e+02,8.999999999999999667e-02,1.025546460000000000e+10
2.540000000000000000e+02,5.980000000000000000e+02,1.204000000000000000e+03,7.750000000000000000e+02,2.710000000000000000e+02,1.460000000000000000e+02,9.800000000000000000e+01,1.340000000000000000e+02,8.999999999999999667e-02,1.027570700000000000e+10
2.440000000000000000e+02,6.050000000000000000e+02,1.177000000000000000e+03,7.660000000000000000e+02,2.360000000000000000e+02,1.270000000000000000e+02,8.900000000000000000e+01,1.250000000000000000e+02,8.999999999999999667e-02,1.029603990000000000e+10
2.460000000000000000e+02,5.440000000000000000e+02,1.143000000000000000e+03,6.860000000000000000e+02,2.330000000000000000e+02,1.320000000000000000e+02,8.700000000000000000e+01,1.230000000000000000e+02,8.999999999999999667e-02,1.031731280000000000e+10
2.570000000000000000e+02,5.540000000000000000e+02,1.091000000000000000e+03,6.350000000000000000e+02,2.190000000000000000e+02,1.240000000000000000e+02,8.500000000000000000e+01,1.300000000000000000e+02,8.999999999999999667e-02,1.033815640000000000e+10
2.520000000000000000e+02,5.170000000000000000e+02,1.056000000000000000e+03,6.190000000000000000e+02,2.270000000000000000e+02,1.290000000000000000e+02,8.400000000000000000e+01,1.270000000000000000e+02,8.999999999999999667e-02,1.035851920000000000e+10
2.600000000000000000e+02,4.970000000000000000e+02,9.900000000000000000e+02,5.980000000000000000e+02,2.380000000000000000e+02,1.390000000000000000e+02,8.500000000000000000e+01,1.310000000000000000e+02,8.999999999999999667e-02,1.037883500000000000e+10
2.750000000000000000e+02,4.990000000000000000e+02,9.690000000000000000e+02,6.270000000000000000e+02,2.820000000000000000e+02,1.670000000000000000e+02,9.900000000000000000e+01,1.450000000000000000e+02,8.000000000000000167e-02,1.039870030000000000e+10
2.600000000000000000e+02,4.750000000000000000e+02,9.900000000000000000e+02,5.780000000000000000e+02,2.750000000000000000e+02,1.640000000000000000e+02,9.700000000000000000e+01,1.390000000000000000e+02,8.000000000000000167e-02,1.041791600000000000e+10
2.090000000000000000e+02,4.100000000000000000e+02,9.770000000000000000e+02,5.310000000000000000e+02,2.590000000000000000e+02,1.510000000000000000e+02,8.700000000000000000e+01,1.130000000000000000e+02,8.000000000000000167e-02,1.043745400000000000e+10
2.060000000000000000e+02,4.120000000000000000e+02,1.005000000000000000e+03,5.640000000000000000e+02,2.460000000000000000e+02,1.440000000000000000e+02,8.300000000000000000e+01,1.120000000000000000e+02,8.000000000000000167e-02,1.045770160000000000e+10
1.860000000000000000e+02,3.490000000000000000e+02,9.970000000000000000e+02,5.080000000000000000e+02,2.360000000000000000e+02,1.350000000000000000e+02,7.900000000000000000e+01,1.010000000000000000e+02,8.000000000000000167e-02,1.047799100000000000e+10
1.440000000000000000e+02,3.270000000000000000e+02,1.018000000000000000e+03,4.830000000000000000e+02,1.940000000000000000e+02,1.180000000000000000e+02,6.000000000000000000e+01,7.200000000000000000e+01,8.000000000000000167e-02,1.049912380000000000e+10
1.380000000000000000e+02,3.080000000000000000e+02,1.039000000000000000e+03,5.910000000000000000e+02,2.030000000000000000e+02,1.200000000000000000e+02,5.900000000000000000e+01,7.000000000000000000e+01,8.000000000000000167e-02,1.051782860000000000e+10
1.390000000000000000e+02,3.030000000000000000e+02,1.047000000000000000e+03,5.900000000000000000e+02,2.000000000000000000e+02,1.220000000000000000e+02,5.800000000000000000e+01,7.000000000000000000e+01,8.000000000000000167e-02,1.053815370000000000e+10
1.430000000000000000e+02,2.840000000000000000e+02,9.940000000000000000e+02,5.780000000000000000e+02,2.100000000000000000e+02,1.240000000000000000e+02,6.000000000000000000e+01,7.100000000000000000e+01,8.999999999999999667e-02,1.055880880000000000e+10
1.390000000000000000e+02,2.570000000000000000e+02,1.055000000000000000e+03,5.750000000000000000e+02,2.000000000000000000e+02,1.210000000000000000e+02,5.800000000000000000e+01,7.300000000000000000e+01,8.999999999999999667e-02,1.057868910000000000e+10
1.290000000000000000e+02,2.320000000000000000e+02,1.117000000000000000e+03,6.230000000000000000e+02,1.810000000000000000e+02,1.050000000000000000e+02,5.600000000000000000e+01,6.900000000000000000e+01,1.000000000000000056e-01,1.059743070000000000e+10
1.240000000000000000e+02,2.300000000000000000e+02,1.031000000000000000e+03,5.300000000000000000e+02,1.610000000000000000e+02,9.500000000000000000e+01,5.200000000000000000e+01,6.800000000000000000e+01,1.199999999999999956e-01,1.061635730000000000e+10
1.340000000000000000e+02,2.230000000000000000e+02,1.046000000000000000e+03,5.590000000000000000e+02,1.650000000000000000e+02,9.700000000000000000e+01,5.400000000000000000e+01,7.300000000000000000e+01,1.300000000000000044e-01,1.063867640000000000e+10
1.380000000000000000e+02,2.540000000000000000e+02,1.079000000000000000e+03,5.530000000000000000e+02,1.800000000000000000e+02,1.030000000000000000e+02,5.600000000000000000e+01,7.800000000000000000e+01,1.400000000000000133e-01,1.065788320000000000e+10
1.310000000000000000e+02,2.430000000000000000e+02,1.023000000000000000e+03,5.980000000000000000e+02,1.700000000000000000e+02,9.700000000000000000e+01,5.300000000000000000e+01,7.300000000000000000e+01,1.499999999999999944e-01,1.067823170000000000e+10
1.310000000000000000e+02,2.570000000000000000e+02,9.460000000000000000e+02,5.730000000000000000e+02,1.730000000000000000e+02,1.010000000000000000e+02,5.300000000000000000e+01,7.400000000000000000e+01,1.600000000000000033e-01,1.069724120000000000e+10
1.550000000000000000e+02,2.950000000000000000e+02,1.067000000000000000e+03,6.070000000000000000e+02,1.930000000000000000e+02,1.080000000000000000e+02,6.000000000000000000e+01,8.500000000000000000e+01,1.700000000000000122e-01,1.071758260000000000e+10
1.490000000000000000e+02,3.030000000000000000e+02,1.046000000000000000e+03,5.780000000000000000e+02,1.890000000000000000e+02,1.060000000000000000e+02,6.200000000000000000e+01,8.400000000000000000e+01,1.799999999999999933e-01,1.073781900000000000e+10
1.390000000000000000e+02,2.960000000000000000e+02,1.001000000000000000e+03,5.560000000000000000e+02,1.660000000000000000e+02,1.010000000000000000e+02,5.900000000000000000e+01,7.600000000000000000e+01,1.799999999999999933e-01,1.075774900000000000e+10
1.460000000000000000e+02,3.400000000000000000e+02,1.004000000000000000e+03,4.760000000000000000e+02,1.670000000000000000e+02,1.040000000000000000e+02,5.900000000000000000e+01,7.700000000000000000e+01,1.900000000000000022e-01,1.077737710000000000e+10
1.480000000000000000e+02,3.480000000000000000e+02,1.029000000000000000e+03,4.330000000000000000e+02,1.730000000000000000e+02,1.110000000000000000e+02,5.900000000000000000e+01,1.340000000000000000e+02,1.900000000000000022e-01,1.079645780000000000e+10
1.210000000000000000e+02,3.130000000000000000e+02,8.840000000000000000e+02,3.420000000000000000e+02,1.430000000000000000e+02,1.280000000000000000e+02,7.600000000000000000e+01,2.260000000000000000e+02,1.900000000000000022e-01,1.081666290000000000e+10
1.170000000000000000e+02,3.190000000000000000e+02,8.640000000000000000e+02,3.340000000000000000e+02,1.350000000000000000e+02,1.350000000000000000e+02,7.400000000000000000e+01,2.570000000000000000e+02,1.900000000000000022e-01,1.083566070000000000e+10
1.150000000000000000e+02,2.940000000000000000e+02,9.080000000000000000e+02,2.840000000000000000e+02,1.260000000000000000e+02,1.380000000000000000e+02,7.300000000000000000e+01,2.720000000000000000e+02,1.900000000000000022e-01,1.085453460000000000e+10
1.090000000000000000e+02,2.420000000000000000e+02,9.210000000000000000e+02,2.570000000000000000e+02,1.210000000000000000e+02,1.400000000000000000e+02,7.500000000000000000e+01,2.770000000000000000e+02,2.000000000000000111e-01,1.087615840000000000e+10
1.170000000000000000e+02,2.300000000000000000e+02,9.040000000000000000e+02,2.610000000000000000e+02,1.080000000000000000e+02,1.310000000000000000e+02,7.800000000000000000e+01,2.650000000000000000e+02,2.000000000000000111e-01,1.089616700000000000e+10
1.120000000000000000e+02,2.220000000000000000e+02,8.630000000000000000e+02,2.730000000000000000e+02,1.090000000000000000e+02,1.130000000000000000e+02,5.300000000000000000e+01,1.920000000000000000e+02,2.099999999999999922e-01,1.091723470000000000e+10
1.170000000000000000e+02,2.140000000000000000e+02,8.620000000000000000e+02,2.680000000000000000e+02,1.250000000000000000e+02,1.160000000000000000e+02,5.300000000000000000e+01,1.590000000000000000e+02,2.200000000000000011e-01,1.093557950000000000e+10
1.140000000000000000e+02,2.110000000000000000e+02,8.090000000000000000e+02,2.800000000000000000e+02,1.320000000000000000e+02,1.220000000000000000e+02,5.500000000000000000e+01,1.310000000000000000e+02,2.300000000000000100e-01,1.095579640000000000e+10
1.060000000000000000e+02,1.940000000000000000e+02,7.970000000000000000e+02,3.300000000000000000e+02,1.350000000000000000e+02,1.220000000000000000e+02,5.100000000000000000e+01,1.200000000000000000e+02,2.399999999999999911e-01,1.097661880000000000e+10
8.900000000000000000e+01,1.830000000000000000e+02,6.870000000000000000e+02,2.890000000000000000e+02,1.280000000000000000e+02,1.220000000000000000e+02,4.600000000000000000e+01,9.300000000000000000e+01,2.600000000000000089e-01,1.099680900000000000e+10
9.800000000000000000e+01,1.880000000000000000e+02,7.590000000000000000e+02,3.250000000000000000e+02,1.350000000000000000e+02,1.250000000000000000e+02,4.800000000000000000e+01,8.000000000000000000e+01,2.700000000000000178e-01,1.101747780000000000e+10
8.300000000000000000e+01,1.660000000000000000e+02,7.290000000000000000e+02,3.840000000000000000e+02,1.210000000000000000e+02,1.170000000000000000e+02,4.400000000000000000e+01,4.700000000000000000e+01,2.800000000000000266e-01,1.103675730000000000e+10
7.900000000000000000e+01,1.700000000000000000e+02,7.740000000000000000e+02,3.980000000000000000e+02,1.320000000000000000e+02,1.250000000000000000e+02,4.500000000000000000e+01,4.600000000000000000e+01,2.899999999999999800e-01,1.105609230000000000e+10
7.900000000000000000e+01,1.710000000000000000e+02,7.570000000000000000e+02,3.510000000000000000e+02,1.250000000000000000e+02,1.220000000000000000e+02,4.200000000000000000e+01,4.300000000000000000e+01,3.099999999999999978e-01,1.107640550000000000e+10
7.700000000000000000e+01,1.410000000000000000e+02,7.770000000000000000e+02,3.520000000000000000e+02,1.420000000000000000e+02,1.320000000000000000e+02,4.700000000000000000e+01,1.050000000000000000e+02,3.099999999999999978e-01,1.109544960000000000e+10
1.650000000000000000e+02,1.350000000000000000e+02,7.460000000000000000e+02,3.120000000000000000e+02,1.500000000000000000e+02,1.300000000000000000e+02,5.000000000000000000e+01,3.090000000000000000e+02,3.200000000000000067e-01,1.111591950000000000e+10
1.760000000000000000e+02,1.360000000000000000e+02,7.510000000000000000e+02,2.220000000000000000e+02,1.510000000000000000e+02,1.240000000000000000e+02,4.700000000000000000e+01,3.410000000000000000e+02,3.300000000000000155e-01,1.113563320000000000e+10
