2.120000000000000000e+02,9.600000000000000000e+01,5.770000000000000000e+02,2.130000000000000000e+02,2.420000000000000000e+02,2.140000000000000000e+02,9.600000000000000000e+01,4.900000000000000000e+01,3.499999999999999778e-01,4.729544000000000000e+08
2.060000000000000000e+02,8.900000000000000000e+01,5.520000000000000000e+02,2.040000000000000000e+02,2.380000000000000000e+02,2.340000000000000000e+02,1.020000000000000000e+02,4.900000000000000000e+01,3.499999999999999778e-01,4.998234000000000000e+08
1.920000000000000000e+02,7.800000000000000000e+01,4.440000000000000000e+02,1.830000000000000000e+02,1.970000000000000000e+02,2.210000000000000000e+02,1.150000000000000000e+02,3.900000000000000000e+01,3.699999999999999956e-01,9.113874000000000000e+08
1.750000000000000000e+02,6.300000000000000000e+01,3.800000000000000000e+02,1.650000000000000000e+02,1.860000000000000000e+02,2.720000000000000000e+02,1.450000000000000000e+02,5.200000000000000000e+01,3.800000000000000044e-01,9.284053000000000000e+08
1.650000000000000000e+02,5.700000000000000000e+01,3.640000000000000000e+02,1.590000000000000000e+02,1.850000000000000000e+02,2.680000000000000000e+02,1.450000000000000000e+02,5.100000000000000000e+01,3.900000000000000133e-01,9.465661000000000000e+08
1.850000000000000000e+02,5.400000000000000000e+01,3.610000000000000000e+02,1.630000000000000000e+02,2.010000000000000000e+02,2.790000000000000000e+02,1.490000000000000000e+02,5.400000000000000000e+01,3.900000000000000133e-01,9.635229000000000000e+08
1.880000000000000000e+02,5.500000000000000000e+01,3.460000000000000000e+02,1.620000000000000000e+02,2.010000000000000000e+02,2.560000000000000000e+02,1.500000000000000000e+02,5.600000000000000000e+01,3.900000000000000133e-01,9.797807000000000000e+08
1.680000000000000000e+02,5.000000000000000000e+01,3.490000000000000000e+02,2.380000000000000000e+02,1.960000000000000000e+02,3.220000000000000000e+02,1.480000000000000000e+02,5.300000000000000000e+01,3.900000000000000133e-01,9.974055000000000000e+08
1.450000000000000000e+02,5.000000000000000000e+01,2.800000000000000000e+02,2.600000000000000000e+02,2.220000000000000000e+02,3.000000000000000000e+02,1.220000000000000000e+02,4.700000000000000000e+01,3.900000000000000133e-01,1.014240800000000000e+09
1.460000000000000000e+02,6.800000000000000000e+01,3.560000000000000000e+02,2.570000000000000000e+02,2.230000000000000000e+02,3.030000000000000000e+02,1.170000000000000000e+02,4.900000000000000000e+01,3.900000000000000133e-01,1.030686000000000000e+09
1.160000000000000000e+02,9.700000000000000000e+01,4.250000000000000000e+02,2.710000000000000000e+02,2.210000000000000000e+02,2.780000000000000000e+02,1.120000000000000000e+02,4.600000000000000000e+01,3.900000000000000133e-01,1.047422400000000000e+09
9.900000000000000000e+01,1.400000000000000000e+02,4.300000000000000000e+02,2.800000000000000000e+02,2.080000000000000000e+02,2.900000000000000000e+02,1.080000000000000000e+02,4.400000000000000000e+01,4.000000000000000222e-01,1.063803200000000000e+09
9.800000000000000000e+01,1.500000000000000000e+02,4.310000000000000000e+02,2.000000000000000000e+02,1.880000000000000000e+02,2.750000000000000000e+02,9.200000000000000000e+01,5.100000000000000000e+01,4.099999999999999756e-01,1.080410700000000000e+09
9.500000000000000000e+01,1.810000000000000000e+02,5.140000000000000000e+02,1.740000000000000000e+02,1.620000000000000000e+02,2.620000000000000000e+02,9.700000000000000000e+01,8.800000000000000000e+01,4.099999999999999756e-01,1.096906400000000000e+09
5.500000000000000000e+01,1.890000000000000000e+02,4.680000000000000000e+02,1.760000000000000000e+02,1.850000000000000000e+02,2.800000000000000000e+02,1.020000000000000000e+02,9.700000000000000000e+01,4.099999999999999756e-01,1.113209700000000000e+09
5.500000000000000000e+01,1.880000000000000000e+02,4.040000000000000000e+02,1.540000000000000000e+02,1.740000000000000000e+02,2.850000000000000000e+02,1.100000000000000000e+02,1.030000000000000000e+02,4.099999999999999756e-01,1.129417500000000000e+09
4.700000000000000000e+01,1.640000000000000000e+02,4.250000000000000000e+02,1.170000000000000000e+02,1.660000000000000000e+02,3.180000000000000000e+02,1.230000000000000000e+02,1.330000000000000000e+02,4.099999999999999756e-01,1.145648300000000000e+09
4.400000000000000000e+01,1.770000000000000000e+02,4.360000000000000000e+02,1.920000000000000000e+02,1.720000000000000000e+02,2.900000000000000000e+02,1.260000000000000000e+02,2.290000000000000000e+02,4.099999999999999756e-01,1.162526000000000000e+09
4.500000000000000000e+01,1.640000000000000000e+02,3.820000000000000000e+02,1.990000000000000000e+02,1.800000000000000000e+02,3.180000000000000000e+02,1.240000000000000000e+02,2.310000000000000000e+02,4.099999999999999756e-01,1.189009000000000000e+09
4.900000000000000000e+01,1.560000000000000000e+02,3.760000000000000000e+02,1.930000000000000000e+02,1.500000000000000000e+02,3.260000000000000000e+02,1.260000000000000000e+02,2.310000000000000000e+02,4.099999999999999756e-01,1.206804900000000000e+09
5.400000000000000000e+01,1.510000000000000000e+02,4.030000000000000000e+02,1.890000000000000000e+02,1.440000000000000000e+02,3.340000000000000000e+02,1.260000000000000000e+02,2.340000000000000000e+02,4.099999999999999756e-01,1.223646000000000000e+09
5.200000000000000000e+01,1.590000000000000000e+02,3.840000000000000000e+02,2.130000000000000000e+02,1.570000000000000000e+02,3.320000000000000000e+02,1.210000000000000000e+02,2.380000000000000000e+02,4.099999999999999756e-01,1.240175600000000000e+09
5.500000000000000000e+01,1.580000000000000000e+02,3.690000000000000000e+02,1.540000000000000000e+02,1.700000000000000000e+02,3.130000000000000000e+02,1.180000000000000000e+02,1.870000000000000000e+02,4.099999999999999756e-01,1.256518400000000000e+09
5.400000000000000000e+01,1.440000000000000000e+02,3.440000000000000000e+02,1.480000000000000000e+02,1.630000000000000000e+02,2.760000000000000000e+02,1.110000000000000000e+02,1.910000000000000000e+02,4.199999999999999845e-01,1.273179900000000000e+09
5.100000000000000000e+01,1.390000000000000000e+02,3.850000000000000000e+02,1.720000000000000000e+02,1.830000000000000000e+02,2.540000000000000000e+02,1.270000000000000000e+02,1.920000000000000000e+02,4.099999999999999756e-01,1.289271100000000000e+09
5.400000000000000000e+01,1.550000000000000000e+02,4.350000000000000000e+02,2.020000000000000000e+02,2.060000000000000000e+02,2.570000000000000000e+02,1.240000000000000000e+02,1.880000000000000000e+02,4.099999999999999756e-01,1.305724300000000000e+09
5.500000000000000000e+01,1.500000000000000000e+02,4.270000000000000000e+02,1.830000000000000000e+02,2.030000000000000000e+02,1.910000000000000000e+02,1.160000000000000000e+02,1.640000000000000000e+02,4.099999999999999756e-01,1.322900500000000000e+09
4.800000000000000000e+01,1.230000000000000000e+02,4.580000000000000000e+02,1.970000000000000000e+02,1.970000000000000000e+02,1.900000000000000000e+02,1.100000000000000000e+02,1.190000000000000000e+02,4.099999999999999756e-01,1.340256300000000000e+09
4.900000000000000000e+01,1.250000000000000000e+02,4.780000000000000000e+02,1.950000000000000000e+02,1.960000000000000000e+02,2.080000000000000000e+02,1.130000000000000000e+02,8.200000000000000000e+01,4.099999999999999756e-01,1.356305700000000000e+09
4.700000000000000000e+01,1.230000000000000000e+02,4.590000000000000000e+02,2.040000000000000000e+02,1.830000000000000000e+02,1.980000000000000000e+02,9.700000000000000000e+01,6.800000000000000000e+01,4.099999999999999756e-01,1.372624700000000000e+09
3.800000000000000000e+01,8.700000000000000000e+01,4.060000000000000000e+02,1.690000000000000000e+02,1.500000000000000000e+02,1.770000000000000000e+02,9.400000000000000000e+01,6.200000000000000000e+01,4.199999999999999845e-01,1.389510300000000000e+09
3.900000000000000000e+01,7.900000000000000000e+01,4.870000000000000000e+02,1.680000000000000000e+02,1.460000000000000000e+02,1.710000000000000000e+02,9.100000000000000000e+01,7.100000000000000000e+01,4.199999999999999845e-01,1.407404800000000000e+09
4.000000000000000000e+01,8.600000000000000000e+01,4.520000000000000000e+02,1.490000000000000000e+02,1.330000000000000000e+02,1.790000000000000000e+02,1.000000000000000000e+02,6.800000000000000000e+01,4.199999999999999845e-01,1.425673800000000000e+09
3.700000000000000000e+01,7.600000000000000000e+01,4.370000000000000000e+02,1.420000000000000000e+02,1.320000000000000000e+02,1.780000000000000000e+02,9.800000000000000000e+01,5.900000000000000000e+01,4.299999999999999933e-01,1.444052900000000000e+09
3.700000000000000000e+01,7.400000000000000000e+01,4.210000000000000000e+02,1.080000000000000000e+02,1.660000000000000000e+02,1.820000000000000000e+02,1.090000000000000000e+02,6.400000000000000000e+01,4.299999999999999933e-01,1.460945200000000000e+09
4.000000000000000000e+01,8.500000000000000000e+01,3.870000000000000000e+02,1.280000000000000000e+02,1.810000000000000000e+02,2.180000000000000000e+02,1.160000000000000000e+02,7.400000000000000000e+01,4.299999999999999933e-01,1.478102700000000000e+09
4.300000000000000000e+01,9.300000000000000000e+01,3.430000000000000000e+02,1.280000000000000000e+02,1.800000000000000000e+02,2.250000000000000000e+02,1.130000000000000000e+02,6.300000000000000000e+01,4.299999999999999933e-01,1.495651000000000000e+09
4.200000000000000000e+01,1.100000000000000000e+02,3.660000000000000000e+02,1.330000000000000000e+02,1.790000000000000000e+02,2.410000000000000000e+02,1.110000000000000000e+02,6.200000000000000000e+01,4.299999999999999933e-01,1.512797600000000000e+09
4.600000000000000000e+01,1.300000000000000000e+02,3.580000000000000000e+02,1.570000000000000000e+02,1.740000000000000000e+02,2.540000000000000000e+02,1.130000000000000000e+02,7.400000000000000000e+01,4.299999999999999933e-01,1.529682800000000000e+09
4.700000000000000000e+01,1.340000000000000000e+02,3.570000000000000000e+02,1.450000000000000000e+02,1.410000000000000000e+02,2.540000000000000000e+02,9.100000000000000000e+01,8.300000000000000000e+01,4.400000000000000022e-01,1.545547500000000000e+09
4.600000000000000000e+01,1.410000000000000000e+02,3.550000000000000000e+02,1.310000000000000000e+02,1.250000000000000000e+02,2.470000000000000000e+02,8.000000000000000000e+01,7.500000000000000000e+01,4.400000000000000022e-01,1.563123600000000000e+09
4.300000000000000000e+01,1.370000000000000000e+02,3.490000000000000000e+02,1.700000000000000000e+02,1.450000000000000000e+02,2.650000000000000000e+02,1.040000000000000000e+02,7.400000000000000000e+01,4.500000000000000111e-01,1.580933500000000000e+09
4.300000000000000000e+01,1.270000000000000000e+02,3.470000000000000000e+02,1.780000000000000000e+02,1.850000000000000000e+02,2.650000000000000000e+02,9.900000000000000000e+01,7.700000000000000000e+01,4.500000000000000111e-01,1.597637900000000000e+09
4.500000000000000000e+01,1.290000000000000000e+02,3.630000000000000000e+02,1.600000000000000000e+02,1.750000000000000000e+02,2.700000000000000000e+02,1.200000000000000000e+02,6.900000000000000000e+01,4.500000000000000111e-01,1.614952300000000000e+09
4.100000000000000000e+01,1.330000000000000000e+02,3.950000000000000000e+02,1.830000000000000000e+02,1.720000000000000000e+02,2.800000000000000000e+02,1.290000000000000000e+02,5.000000000000000000e+01,4.500000000000000111e-01,1.633857900000000000e+09
3.700000000000000000e+01,1.240000000000000000e+02,4.570000000000000000e+02,2.050000000000000000e+02,1.870000000000000000e+02,2.660000000000000000e+02,1.400000000000000000e+02,4.900000000000000000e+01,4.500000000000000111e-01,1.650451100000000000e+09
3.800000000000000000e+01,1.220000000000000000e+02,4.390000000000000000e+02,1.770000000000000000e+02,1.840000000000000000e+02,2.820000000000000000e+02,1.230000000000000000e+02,4.900000000000000000e+01,4.500000000000000111e-01,1.666958000000000000e+09
4.100000000000000000e+01,1.250000000000000000e+02,4.290000000000000000e+02,1.680000000000000000e+02,1.540000000000000000e+02,2.640000000000000000e+02,1.260000000000000000e+02,5.000000000000000000e+01,4.600000000000000200e-01,1.683287400000000000e+09
3.500000000000000000e+01,1.090000000000000000e+02,4.180000000000000000e+02,1.730000000000000000e+02,1.530000000000000000e+02,2.530000000000000000e+02,1.360000000000000000e+02,5.400000000000000000e+01,4.699999999999999734e-01,1.699731600000000000e+09
4.000000000000000000e+01,1.140000000000000000e+02,3.920000000000000000e+02,1.750000000000000000e+02,1.700000000000000000e+02,2.570000000000000000e+02,1.370000000000000000e+02,5.500000000000000000e+01,4.699999999999999734e-01,1.716907700000000000e+09
4.400000000000000000e+01,1.170000000000000000e+02,3.310000000000000000e+02,1.500000000000000000e+02,1.660000000000000000e+02,2.680000000000000000e+02,1.480000000000000000e+02,5.900000000000000000e+01,4.699999999999999734e-01,1.734087500000000000e+09
4.500000000000000000e+01,1.220000000000000000e+02,3.210000000000000000e+02,1.840000000000000000e+02,1.850000000000000000e+02,2.320000000000000000e+02,1.520000000000000000e+02,6.500000000000000000e+01,4.699999999999999734e-01,1.751271400000000000e+09
4.200000000000000000e+01,1.200000000000000000e+02,3.200000000000000000e+02,1.860000000000000000e+02,1.980000000000000000e+02,2.470000000000000000e+02,1.480000000000000000e+02,6.400000000000000000e+01,4.699999999999999734e-01,1.768222300000000000e+09
4.200000000000000000e+01,1.130000000000000000e+02,4.270000000000000000e+02,1.960000000000000000e+02,2.060000000000000000e+02,2.330000000000000000e+02,1.230000000000000000e+02,6.300000000000000000e+01,4.699999999999999734e-01,1.785218700000000000e+09
4.300000000000000000e+01,1.660000000000000000e+02,4.800000000000000000e+02,1.780000000000000000e+02,2.020000000000000000e+02,2.160000000000000000e+02,1.200000000000000000e+02,6.500000000000000000e+01,4.699999999999999734e-01,1.802602100000000000e+09
3.800000000000000000e+01,1.630000000000000000e+02,5.100000000000000000e+02,1.870000000000000000e+02,1.940000000000000000e+02,2.030000000000000000e+02,9.200000000000000000e+01,6.100000000000000000e+01,4.699999999999999734e-01,1.821040800000000000e+09
3.200000000000000000e+01,1.600000000000000000e+02,6.150000000000000000e+02,2.170000000000000000e+02,1.760000000000000000e+02,2.370000000000000000e+02,1.080000000000000000e+02,5.200000000000000000e+01,4.600000000000000200e-01,1.841849000000000000e+09
3.800000000000000000e+01,1.700000000000000000e+02,6.650000000000000000e+02,2.230000000000000000e+02,1.510000000000000000e+02,2.270000000000000000e+02,1.120000000000000000e+02,4.500000000000000000e+01,4.600000000000000200e-01,1.863004900000000000e+09
3.600000000000000000e+01,1.710000000000000000e+02,6.420000000000000000e+02,2.120000000000000000e+02,1.860000000000000000e+02,2.150000000000000000e+02,1.250000000000000000e+02,3.500000000000000000e+01,4.500000000000000111e-01,1.880909300000000000e+09
3.300000000000000000e+01,1.280000000000000000e+02,6.100000000000000000e+02,2.120000000000000000e+02,1.900000000000000000e+02,2.500000000000000000e+02,1.320000000000000000e+02,3.800000000000000000e+01,4.500000000000000111e-01,1.898793800000000000e+09
3.900000000000000000e+01,1.600000000000000000e+02,6.440000000000000000e+02,2.460000000000000000e+02,2.350000000000000000e+02,2.530000000000000000e+02,1.450000000000000000e+02,4.200000000000000000e+01,4.299999999999999933e-01,1.920350600000000000e+09
4.600000000000000000e+01,2.010000000000000000e+02,5.560000000000000000e+02,2.060000000000000000e+02,2.310000000000000000e+02,2.160000000000000000e+02,1.420000000000000000e+02,5.100000000000000000e+01,4.199999999999999845e-01,1.940913600000000000e+09
4.900000000000000000e+01,2.160000000000000000e+02,6.650000000000000000e+02,2.110000000000000000e+02,2.360000000000000000e+02,2.450000000000000000e+02,1.710000000000000000e+02,5.400000000000000000e+01,4.099999999999999756e-01,1.960087400000000000e+09
5.100000000000000000e+01,2.310000000000000000e+02,6.240000000000000000e+02,2.210000000000000000e+02,2.020000000000000000e+02,2.510000000000000000e+02,1.760000000000000000e+02,5.600000000000000000e+01,4.099999999999999756e-01,1.978005700000000000e+09
5.400000000000000000e+01,2.580000000000000000e+02,6.490000000000000000e+02,2.280000000000000000e+02,1.930000000000000000e+02,2.200000000000000000e+02,1.810000000000000000e+02,5.500000000000000000e+01,4.000000000000000222e-01,1.995611100000000000e+09
5.400000000000000000e+01,2.540000000000000000e+02,6.320000000000000000e+02,1.840000000000000000e+02,1.420000000000000000e+02,2.250000000000000000e+02,1.760000000000000000e+02,5.800000000000000000e+01,3.900000000000000133e-01,2.014281300000000000e+09
5.500000000000000000e+01,2.520000000000000000e+02,6.290000000000000000e+02,1.760000000000000000e+02,1.390000000000000000e+02,2.390000000000000000e+02,1.760000000000000000e+02,5.200000000000000000e+01,3.900000000000000133e-01,2.032027800000000000e+09
5.400000000000000000e+01,2.380000000000000000e+02,4.930000000000000000e+02,1.630000000000000000e+02,1.420000000000000000e+02,1.940000000000000000e+02,1.500000000000000000e+02,5.300000000000000000e+01,3.900000000000000133e-01,2.050581400000000000e+09
5.900000000000000000e+01,2.370000000000000000e+02,5.320000000000000000e+02,1.510000000000000000e+02,1.480000000000000000e+02,2.300000000000000000e+02,1.380000000000000000e+02,6.600000000000000000e+01,3.900000000000000133e-01,2.069201700000000000e+09
6.000000000000000000e+01,2.360000000000000000e+02,5.710000000000000000e+02,1.380000000000000000e+02,1.390000000000000000e+02,2.260000000000000000e+02,1.250000000000000000e+02,6.600000000000000000e+01,3.900000000000000133e-01,2.088505900000000000e+09
6.000000000000000000e+01,2.380000000000000000e+02,5.580000000000000000e+02,1.310000000000000000e+02,1.260000000000000000e+02,2.060000000000000000e+02,1.310000000000000000e+02,6.200000000000000000e+01,3.900000000000000133e-01,2.106580100000000000e+09
6.300000000000000000e+01,2.640000000000000000e+02,6.340000000000000000e+02,1.120000000000000000e+02,1.170000000000000000e+02,2.050000000000000000e+02,1.370000000000000000e+02,6.900000000000000000e+01,3.900000000000000133e-01,2.124179600000000000e+09
7.000000000000000000e+01,2.890000000000000000e+02,5.960000000000000000e+02,1.290000000000000000e+02,1.260000000000000000e+02,2.550000000000000000e+02,1.550000000000000000e+02,9.100000000000000000e+01,4.000000000000000222e-01,2.141658100000000000e+09
6.900000000000000000e+01,3.140000000000000000e+02,5.900000000000000000e+02,1.450000000000000000e+02,1.500000000000000000e+02,2.380000000000000000e+02,1.600000000000000000e+02,9.100000000000000000e+01,4.000000000000000222e-01,2.160366400000000000e+09
6.800000000000000000e+01,3.210000000000000000e+02,5.850000000000000000e+02,1.450000000000000000e+02,1.570000000000000000e+02,2.500000000000000000e+02,1.800000000000000000e+02,8.900000000000000000e+01,4.099999999999999756e-01,2.179021700000000000e+09
6.600000000000000000e+01,3.100000000000000000e+02,5.560000000000000000e+02,1.460000000000000000e+02,1.540000000000000000e+02,2.570000000000000000e+02,1.770000000000000000e+02,9.100000000000000000e+01,4.099999999999999756e-01,2.196082900000000000e+09
5.800000000000000000e+01,2.700000000000000000e+02,4.910000000000000000e+02,1.460000000000000000e+02,1.550000000000000000e+02,2.450000000000000000e+02,1.740000000000000000e+02,8.800000000000000000e+01,4.199999999999999845e-01,2.214821900000000000e+09
4.700000000000000000e+01,2.380000000000000000e+02,5.350000000000000000e+02,1.410000000000000000e+02,1.500000000000000000e+02,2.100000000000000000e+02,1.710000000000000000e+02,6.300000000000000000e+01,4.199999999999999845e-01,2.233506200000000000e+09
4.500000000000000000e+01,2.080000000000000000e+02,5.880000000000000000e+02,1.270000000000000000e+02,1.210000000000000000e+02,1.870000000000000000e+02,1.660000000000000000e+02,6.600000000000000000e+01,4.199999999999999845e-01,2.251206000000000000e+09
4.200000000000000000e+01,1.670000000000000000e+02,5.390000000000000000e+02,1.210000000000000000e+02,1.060000000000000000e+02,1.940000000000000000e+02,1.420000000000000000e+02,6.600000000000000000e+01,4.199999999999999845e-01,2.269858000000000000e+09
4.100000000000000000e+01,1.820000000000000000e+02,5.950000000000000000e+02,1.310000000000000000e+02,1.460000000000000000e+02,2.760000000000000000e+02,1.700000000000000000e+02,6.200000000000000000e+01,4.199999999999999845e-01,2.288037600000000000e+09
4.600000000000000000e+01,1.740000000000000000e+02,5.970000000000000000e+02,1.430000000000000000e+02,1.630000000000000000e+02,2.850000000000000000e+02,1.800000000000000000e+02,6.000000000000000000e+01,4.199999999999999845e-01,2.305360000000000000e+09
4.200000000000000000e+01,1.680000000000000000e+02,5.710000000000000000e+02,1.220000000000000000e+02,1.550000000000000000e+02,2.890000000000000000e+02,1.800000000000000000e+02,5.800000000000000000e+01,4.199999999999999845e-01,2.323033300000000000e+09
4.100000000000000000e+01,1.500000000000000000e+02,5.420000000000000000e+02,1.290000000000000000e+02,1.640000000000000000e+02,3.040000000000000000e+02,1.800000000000000000e+02,3.900000000000000000e+01,4.199999999999999845e-01,2.342917900000000000e+09
4.400000000000000000e+01,1.450000000000000000e+02,5.390000000000000000e+02,1.690000000000000000e+02,2.320000000000000000e+02,2.860000000000000000e+02,1.760000000000000000e+02,3.600000000000000000e+01,4.199999999999999845e-01,2.363154700000000000e+09
5.100000000000000000e+01,1.630000000000000000e+02,5.020000000000000000e+02,1.720000000000000000e+02,2.170000000000000000e+02,2.120000000000000000e+02,1.730000000000000000e+02,4.700000000000000000e+01,4.199999999999999845e-01,2.381251300000000000e+09
4.600000000000000000e+01,1.640000000000000000e+02,4.710000000000000000e+02,1.610000000000000000e+02,2.080000000000000000e+02,2.110000000000000000e+02,1.710000000000000000e+02,4.800000000000000000e+01,4.199999999999999845e-01,2.398747900000000000e+09
4.800000000000000000e+01,1.660000000000000000e+02,4.920000000000000000e+02,1.660000000000000000e+02,2.160000000000000000e+02,1.980000000000000000e+02,1.590000000000000000e+02,6.000000000000000000e+01,4.199999999999999845e-01,2.416048900000000000e+09
4.800000000000000000e+01,1.850000000000000000e+02,4.210000000000000000e+02,1.570000000000000000e+02,2.050000000000000000e+02,1.700000000000000000e+02,1.610000000000000000e+02,6.100000000000000000e+01,4.099999999999999756e-01,2.433663300000000000e+09
4.700000000000000000e+01,1.930000000000000000e+02,4.030000000000000000e+02,1.310000000000000000e+02,1.340000000000000000e+02,1.650000000000000000e+02,1.750000000000000000e+02,6.300000000000000000e+01,4.099999999999999756e-01,2.451894200000000000e+09
3.900000000000000000e+01,1.560000000000000000e+02,4.220000000000000000e+02,1.300000000000000000e+02,1.380000000000000000e+02,2.550000000000000000e+02,1.530000000000000000e+02,5.600000000000000000e+01,4.099999999999999756e-01,2.469755900000000000e+09
4.000000000000000000e+01,1.570000000000000000e+02,4.580000000000000000e+02,1.280000000000000000e+02,1.500000000000000000e+02,2.470000000000000000e+02,1.400000000000000000e+02,5.100000000000000000e+01,4.099999999999999756e-01,2.487116400000000000e+09
3.800000000000000000e+01,1.580000000000000000e+02,4.620000000000000000e+02,1.340000000000000000e+02,1.500000000000000000e+02,2.450000000000000000e+02,1.540000000000000000e+02,3.800000000000000000e+01,4.199999999999999845e-01,2.506377800000000000e+09
3.400000000000000000e+01,1.230000000000000000e+02,5.050000000000000000e+02,1.360000000000000000e+02,1.580000000000000000e+02,3.080000000000000000e+02,1.660000000000000000e+02,3.300000000000000000e+01,4.199999999999999845e-01,2.523980600000000000e+09
3.300000000000000000e+01,8.900000000000000000e+01,5.230000000000000000e+02,1.180000000000000000e+02,1.680000000000000000e+02,3.120000000000000000e+02,1.900000000000000000e+02,3.200000000000000000e+01,4.199999999999999845e-01,2.541983200000000000e+09
3.600000000000000000e+01,9.500000000000000000e+01,4.850000000000000000e+02,1.040000000000000000e+02,1.590000000000000000e+02,2.320000000000000000e+02,1.830000000000000000e+02,3.100000000000000000e+01,4.199999999999999845e-01,2.560228700000000000e+09
3.500000000000000000e+01,8.900000000000000000e+01,4.600000000000000000e+02,1.480000000000000000e+02,1.560000000000000000e+02,2.310000000000000000e+02,1.790000000000000000e+02,3.000000000000000000e+01,4.199999999999999845e-01,2.578263900000000000e+09
3.600000000000000000e+01,8.800000000000000000e+01,4.430000000000000000e+02,1.490000000000000000e+02,1.450000000000000000e+02,2.530000000000000000e+02,1.720000000000000000e+02,3.200000000000000000e+01,4.299999999999999933e-01,2.597019600000000000e+09
3.600000000000000000e+01,1.070000000000000000e+02,4.350000000000000000e+02,1.480000000000000000e+02,1.380000000000000000e+02,1.740000000000000000e+02,2.200000000000000000e+02,3.400000000000000000e+01,4.299999999999999933e-01,2.616013400000000000e+09
4.100000000000000000e+01,1.470000000000000000e+02,4.400000000000000000e+02,1.490000000000000000e+02,1.240000000000000000e+02,1.670000000000000000e+02,1.900000000000000000e+02,3.300000000000000000e+01,4.400000000000000022e-01,2.634562800000000000e+09
3.600000000000000000e+01,1.510000000000000000e+02,4.690000000000000000e+02,2.050000000000000000e+02,1.730000000000000000e+02,1.790000000000000000e+02,1.930000000000000000e+02,3.700000000000000000e+01,4.500000000000000111e-01,2.653254700000000000e+09
4.000000000000000000e+01,1.510000000000000000e+02,5.040000000000000000e+02,1.880000000000000000e+02,1.850000000000000000e+02,1.980000000000000000e+02,1.990000000000000000e+02,3.600000000000000000e+01,4.500000000000000111e-01,2.670572100000000000e+09
4.100000000000000000e+01,1.650000000000000000e+02,4.990000000000000000e+02,1.840000000000000000e+02,1.930000000000000000e+02,2.090000000000000000e+02,2.000000000000000000e+02,3.600000000000000000e+01,4.500000000000000111e-01,2.687043500000000000e+09
4.400000000000000000e+01,2.010000000000000000e+02,4.770000000000000000e+02,1.840000000000000000e+02,1.970000000000000000e+02,2.100000000000000000e+02,1.350000000000000000e+02,3.900000000000000000e+01,4.500000000000000111e-01,2.703871200000000000e+09
4.000000000000000000e+01,1.920000000000000000e+02,5.180000000000000000e+02,2.130000000000000000e+02,2.220000000000000000e+02,2.150000000000000000e+02,1.340000000000000000e+02,3.800000000000000000e+01,4.400000000000000022e-01,2.720157200000000000e+09
4.200000000000000000e+01,1.860000000000000000e+02,5.280000000000000000e+02,1.630000000000000000e+02,1.830000000000000000e+02,2.030000000000000000e+02,1.330000000000000000e+02,4.800000000000000000e+01,4.400000000000000022e-01,2.737349600000000000e+09
4.100000000000000000e+01,2.140000000000000000e+02,6.160000000000000000e+02,1.590000000000000000e+02,1.620000000000000000e+02,1.900000000000000000e+02,1.320000000000000000e+02,5.700000000000000000e+01,4.400000000000000022e-01,2.753714400000000000e+09
4.500000000000000000e+01,2.050000000000000000e+02,6.180000000000000000e+02,1.550000000000000000e+02,1.520000000000000000e+02,1.470000000000000000e+02,1.410000000000000000e+02,6.500000000000000000e+01,4.400000000000000022e-01,2.769745100000000000e+09
4.200000000000000000e+01,1.840000000000000000e+02,6.800000000000000000e+02,1.620000000000000000e+02,1.460000000000000000e+02,1.420000000000000000e+02,1.280000000000000000e+02,6.400000000000000000e+01,4.400000000000000022e-01,2.785976200000000000e+09
4.400000000000000000e+01,1.720000000000000000e+02,6.410000000000000000e+02,1.210000000000000000e+02,9.300000000000000000e+01,1.280000000000000000e+02,1.360000000000000000e+02,6.900000000000000000e+01,4.299999999999999933e-01,2.803104100000000000e+09
4.700000000000000000e+01,2.020000000000000000e+02,6.230000000000000000e+02,1.670000000000000000e+02,1.290000000000000000e+02,1.540000000000000000e+02,1.630000000000000000e+02,6.000000000000000000e+01,4.299999999999999933e-01,2.819776600000000000e+09
5.400000000000000000e+01,2.370000000000000000e+02,5.020000000000000000e+02,1.650000000000000000e+02,1.350000000000000000e+02,1.400000000000000000e+02,1.650000000000000000e+02,6.100000000000000000e+01,4.299999999999999933e-01,2.837343600000000000e+09
7.800000000000000000e+01,2.450000000000000000e+02,5.370000000000000000e+02,1.690000000000000000e+02,1.350000000000000000e+02,1.270000000000000000e+02,1.520000000000000000e+02,7.200000000000000000e+01,4.299999999999999933e-01,2.854972500000000000e+09
8.200000000000000000e+01,2.320000000000000000e+02,4.640000000000000000e+02,1.640000000000000000e+02,1.320000000000000000e+02,1.400000000000000000e+02,1.590000000000000000e+02,7.200000000000000000e+01,4.299999999999999933e-01,2.872746500000000000e+09
8.500000000000000000e+01,2.390000000000000000e+02,4.980000000000000000e+02,1.690000000000000000e+02,1.300000000000000000e+02,1.580000000000000000e+02,1.620000000000000000e+02,9.700000000000000000e+01,4.400000000000000022e-01,2.889453600000000000e+09
8.500000000000000000e+01,2.510000000000000000e+02,4.900000000000000000e+02,1.360000000000000000e+02,1.040000000000000000e+02,1.430000000000000000e+02,1.430000000000000000e+02,1.150000000000000000e+02,4.400000000000000022e-01,2.906805600000000000e+09
8.000000000000000000e+01,1.990000000000000000e+02,4.890000000000000000e+02,1.570000000000000000e+02,1.060000000000000000e+02,1.460000000000000000e+02,1.480000000000000000e+02,1.280000000000000000e+02,4.400000000000000022e-01,2.923384000000000000e+09
6.100000000000000000e+01,2.020000000000000000e+02,4.920000000000000000e+02,1.530000000000000000e+02,1.070000000000000000e+02,1.510000000000000000e+02,1.470000000000000000e+02,1.900000000000000000e+02,4.500000000000000111e-01,2.940151100000000000e+09
5.800000000000000000e+01,2.080000000000000000e+02,4.980000000000000000e+02,1.450000000000000000e+02,1.050000000000000000e+02,1.530000000000000000e+02,1.410000000000000000e+02,2.040000000000000000e+02,4.500000000000000111e-01,2.957865900000000000e+09
5.500000000000000000e+01,2.340000000000000000e+02,4.790000000000000000e+02,1.410000000000000000e+02,1.050000000000000000e+02,1.380000000000000000e+02,1.380000000000000000e+02,1.980000000000000000e+02,4.500000000000000111e-01,2.975480800000000000e+09
5.900000000000000000e+01,2.330000000000000000e+02,4.720000000000000000e+02,1.310000000000000000e+02,8.900000000000000000e+01,1.360000000000000000e+02,1.460000000000000000e+02,2.450000000000000000e+02,4.600000000000000200e-01,2.992557700000000000e+09
6.000000000000000000e+01,2.340000000000000000e+02,4.620000000000000000e+02,8.900000000000000000e+01,6.400000000000000000e+01,1.550000000000000000e+02,1.400000000000000000e+02,2.650000000000000000e+02,4.600000000000000200e-01,3.009462100000000000e+09
5.500000000000000000e+01,2.550000000000000000e+02,4.550000000000000000e+02,1.000000000000000000e+02,6.500000000000000000e+01,1.690000000000000000e+02,1.320000000000000000e+02,2.270000000000000000e+02,4.600000000000000200e-01,3.026116600000000000e+09
6.300000000000000000e+01,2.520000000000000000e+02,4.440000000000000000e+02,1.080000000000000000e+02,7.600000000000000000e+01,1.760000000000000000e+02,1.390000000000000000e+02,2.390000000000000000e+02,4.500000000000000111e-01,3.043078700000000000e+09
6.400000000000000000e+01,2.220000000000000000e+02,4.870000000000000000e+02,1.110000000000000000e+02,7.400000000000000000e+01,1.780000000000000000e+02,1.440000000000000000e+02,2.360000000000000000e+02,4.500000000000000111e-01,3.060406900000000000e+09
5.800000000000000000e+01,1.830000000000000000e+02,5.110000000000000000e+02,1.080000000000000000e+02,7.200000000000000000e+01,1.960000000000000000e+02,1.320000000000000000e+02,1.870000000000000000e+02,4.500000000000000111e-01,3.077716200000000000e+09
6.200000000000000000e+01,2.120000000000000000e+02,5.890000000000000000e+02,1.250000000000000000e+02,7.500000000000000000e+01,1.720000000000000000e+02,1.180000000000000000e+02,2.000000000000000000e+02,4.400000000000000022e-01,3.095684000000000000e+09
8.500000000000000000e+01,2.850000000000000000e+02,5.970000000000000000e+02,1.190000000000000000e+02,7.000000000000000000e+01,1.610000000000000000e+02,1.170000000000000000e+02,2.030000000000000000e+02,4.400000000000000022e-01,3.113905300000000000e+09
8.100000000000000000e+01,2.920000000000000000e+02,6.030000000000000000e+02,1.240000000000000000e+02,8.300000000000000000e+01,1.450000000000000000e+02,1.100000000000000000e+02,1.860000000000000000e+02,4.400000000000000022e-01,3.131609800000000000e+09
8.200000000000000000e+01,3.030000000000000000e+02,5.840000000000000000e+02,1.330000000000000000e+02,8.800000000000000000e+01,1.470000000000000000e+02,1.010000000000000000e+02,1.880000000000000000e+02,4.400000000000000022e-01,3.150076000000000000e+09
9.800000000000000000e+01,3.050000000000000000e+02,5.790000000000000000e+02,1.280000000000000000e+02,8.700000000000000000e+01,1.960000000000000000e+02,9.600000000000000000e+01,2.600000000000000000e+02,4.400000000000000022e-01,3.169087300000000000e+09
1.130000000000000000e+02,3.070000000000000000e+02,4.970000000000000000e+02,1.140000000000000000e+02,8.400000000000000000e+01,2.090000000000000000e+02,1.010000000000000000e+02,2.680000000000000000e+02,4.299999999999999933e-01,3.187464100000000000e+09
1.030000000000000000e+02,2.100000000000000000e+02,4.920000000000000000e+02,1.100000000000000000e+02,8.100000000000000000e+01,2.110000000000000000e+02,1.100000000000000000e+02,2.680000000000000000e+02,4.299999999999999933e-01,3.206018800000000000e+09
1.010000000000000000e+02,2.260000000000000000e+02,5.100000000000000000e+02,1.120000000000000000e+02,6.200000000000000000e+01,2.210000000000000000e+02,1.100000000000000000e+02,2.680000000000000000e+02,4.299999999999999933e-01,3.228215200000000000e+09
9.900000000000000000e+01,2.080000000000000000e+02,5.210000000000000000e+02,1.000000000000000000e+02,5.700000000000000000e+01,2.390000000000000000e+02,1.070000000000000000e+02,2.650000000000000000e+02,4.299999999999999933e-01,3.245983100000000000e+09
8.500000000000000000e+01,2.040000000000000000e+02,5.030000000000000000e+02,1.240000000000000000e+02,7.200000000000000000e+01,1.960000000000000000e+02,1.150000000000000000e+02,1.900000000000000000e+02,4.299999999999999933e-01,3.263764100000000000e+09
5.900000000000000000e+01,1.580000000000000000e+02,5.090000000000000000e+02,1.230000000000000000e+02,8.100000000000000000e+01,2.280000000000000000e+02,1.180000000000000000e+02,1.220000000000000000e+02,4.299999999999999933e-01,3.283675000000000000e+09
4.800000000000000000e+01,1.550000000000000000e+02,4.980000000000000000e+02,1.200000000000000000e+02,8.600000000000000000e+01,2.510000000000000000e+02,1.370000000000000000e+02,1.090000000000000000e+02,4.400000000000000022e-01,3.305915200000000000e+09
5.000000000000000000e+01,1.300000000000000000e+02,5.090000000000000000e+02,1.220000000000000000e+02,9.200000000000000000e+01,2.620000000000000000e+02,1.360000000000000000e+02,8.900000000000000000e+01,4.400000000000000022e-01,3.328134800000000000e+09
4.800000000000000000e+01,1.370000000000000000e+02,5.620000000000000000e+02,1.260000000000000000e+02,8.900000000000000000e+01,2.520000000000000000e+02,1.360000000000000000e+02,1.370000000000000000e+02,4.400000000000000022e-01,3.346194500000000000e+09
6.300000000000000000e+01,1.700000000000000000e+02,5.760000000000000000e+02,1.220000000000000000e+02,8.200000000000000000e+01,2.770000000000000000e+02,1.550000000000000000e+02,2.010000000000000000e+02,4.400000000000000022e-01,3.364627100000000000e+09
7.200000000000000000e+01,1.860000000000000000e+02,6.340000000000000000e+02,1.240000000000000000e+02,8.100000000000000000e+01,2.430000000000000000e+02,1.570000000000000000e+02,2.010000000000000000e+02,4.299999999999999933e-01,3.383638000000000000e+09
7.100000000000000000e+01,2.000000000000000000e+02,6.090000000000000000e+02,1.240000000000000000e+02,7.900000000000000000e+01,2.120000000000000000e+02,1.350000000000000000e+02,2.560000000000000000e+02,4.299999999999999933e-01,3.405802800000000000e+09
7.200000000000000000e+01,2.080000000000000000e+02,5.700000000000000000e+02,1.250000000000000000e+02,8.200000000000000000e+01,2.020000000000000000e+02,1.390000000000000000e+02,2.630000000000000000e+02,4.299999999999999933e-01,3.428130700000000000e+09
7.200000000000000000e+01,2.110000000000000000e+02,4.790000000000000000e+02,1.200000000000000000e+02,8.100000000000000000e+01,2.510000000000000000e+02,1.570000000000000000e+02,2.970000000000000000e+02,4.299999999999999933e-01,3.445954200000000000e+09
6.200000000000000000e+01,2.020000000000000000e+02,4.880000000000000000e+02,1.040000000000000000e+02,7.800000000000000000e+01,2.450000000000000000e+02,1.320000000000000000e+02,2.810000000000000000e+02,4.199999999999999845e-01,3.464470100000000000e+09
5.300000000000000000e+01,2.200000000000000000e+02,4.120000000000000000e+02,9.800000000000000000e+01,7.100000000000000000e+01,2.520000000000000000e+02,1.230000000000000000e+02,3.250000000000000000e+02,4.199999999999999845e-01,3.483595700000000000e+09
5.600000000000000000e+01,2.140000000000000000e+02,4.400000000000000000e+02,1.030000000000000000e+02,7.000000000000000000e+01,2.700000000000000000e+02,1.240000000000000000e+02,2.880000000000000000e+02,4.199999999999999845e-01,3.505834800000000000e+09
8.000000000000000000e+01,2.060000000000000000e+02,4.710000000000000000e+02,8.500000000000000000e+01,5.300000000000000000e+01,2.570000000000000000e+02,1.130000000000000000e+02,2.860000000000000000e+02,4.099999999999999756e-01,3.528125100000000000e+09
8.000000000000000000e+01,1.960000000000000000e+02,4.960000000000000000e+02,7.300000000000000000e+01,6.100000000000000000e+01,2.000000000000000000e+02,9.700000000000000000e+01,2.320000000000000000e+02,4.099999999999999756e-01,3.547323500000000000e+09
7.800000000000000000e+01,1.830000000000000000e+02,5.150000000000000000e+02,7.600000000000000000e+01,6.400000000000000000e+01,1.600000000000000000e+02,8.500000000000000000e+01,2.110000000000000000e+02,4.000000000000000222e-01,3.566712800000000000e+09
8.100000000000000000e+01,1.430000000000000000e+02,5.020000000000000000e+02,8.900000000000000000e+01,6.300000000000000000e+01,1.560000000000000000e+02,1.040000000000000000e+02,1.320000000000000000e+02,4.000000000000000222e-01,3.584268200000000000e+09
8.300000000000000000e+01,1.330000000000000000e+02,4.750000000000000000e+02,8.700000000000000000e+01,5.900000000000000000e+01,1.580000000000000000e+02,1.220000000000000000e+02,1.370000000000000000e+02,4.099999999999999756e-01,3.606966500000000000e+09
6.100000000000000000e+01,1.120000000000000000e+02,5.080000000000000000e+02,8.900000000000000000e+01,6.100000000000000000e+01,1.650000000000000000e+02,1.300000000000000000e+02,1.680000000000000000e+02,4.099999999999999756e-01,3.625227500000000000e+09
6.000000000000000000e+01,1.390000000000000000e+02,4.820000000000000000e+02,9.800000000000000000e+01,5.900000000000000000e+01,1.740000000000000000e+02,1.230000000000000000e+02,1.660000000000000000e+02,4.199999999999999845e-01,3.642965300000000000e+09
7.500000000000000000e+01,1.730000000000000000e+02,4.410000000000000000e+02,9.900000000000000000e+01,6.300000000000000000e+01,1.890000000000000000e+02,1.420000000000000000e+02,1.620000000000000000e+02,4.199999999999999845e-01,3.663881100000000000e+09
7.200000000000000000e+01,1.750000000000000000e+02,4.640000000000000000e+02,9.900000000000000000e+01,7.100000000000000000e+01,2.300000000000000000e+02,1.410000000000000000e+02,1.600000000000000000e+02,4.299999999999999933e-01,3.686731600000000000e+09
6.800000000000000000e+01,1.820000000000000000e+02,4.490000000000000000e+02,1.040000000000000000e+02,7.900000000000000000e+01,2.110000000000000000e+02,1.250000000000000000e+02,1.470000000000000000e+02,4.299999999999999933e-01,3.704765900000000000e+09
7.000000000000000000e+01,1.830000000000000000e+02,4.170000000000000000e+02,1.000000000000000000e+02,7.800000000000000000e+01,2.290000000000000000e+02,1.340000000000000000e+02,1.240000000000000000e+02,4.400000000000000022e-01,3.724557200000000000e+09
7.500000000000000000e+01,1.640000000000000000e+02,4.450000000000000000e+02,9.900000000000000000e+01,7.500000000000000000e+01,2.230000000000000000e+02,1.310000000000000000e+02,1.220000000000000000e+02,4.500000000000000111e-01,3.744421800000000000e+09
7.300000000000000000e+01,1.180000000000000000e+02,4.420000000000000000e+02,1.050000000000000000e+02,7.500000000000000000e+01,2.480000000000000000e+02,1.120000000000000000e+02,1.110000000000000000e+02,4.500000000000000111e-01,3.766742400000000000e+09
7.200000000000000000e+01,1.130000000000000000e+02,4.530000000000000000e+02,1.140000000000000000e+02,7.500000000000000000e+01,2.220000000000000000e+02,1.180000000000000000e+02,1.030000000000000000e+02,4.600000000000000200e-01,3.793087200000000000e+09
7.000000000000000000e+01,8.600000000000000000e+01,4.970000000000000000e+02,1.060000000000000000e+02,6.500000000000000000e+01,2.200000000000000000e+02,1.240000000000000000e+02,9.900000000000000000e+01,4.699999999999999734e-01,3.812851700000000000e+09
6.900000000000000000e+01,6.800000000000000000e+01,5.220000000000000000e+02,1.230000000000000000e+02,7.100000000000000000e+01,2.170000000000000000e+02,1.090000000000000000e+02,6.500000000000000000e+01,4.699999999999999734e-01,3.830173700000000000e+09
6.600000000000000000e+01,8.100000000000000000e+01,5.160000000000000000e+02,1.240000000000000000e+02,8.100000000000000000e+01,2.430000000000000000e+02,1.190000000000000000e+02,5.300000000000000000e+01,4.699999999999999734e-01,3.848095000000000000e+09
4.800000000000000000e+01,9.800000000000000000e+01,5.120000000000000000e+02,1.310000000000000000e+02,8.100000000000000000e+01,2.230000000000000000e+02,1.200000000000000000e+02,4.600000000000000000e+01,4.799999999999999822e-01,3.866137400000000000e+09
4.800000000000000000e+01,1.030000000000000000e+02,4.680000000000000000e+02,1.190000000000000000e+02,7.800000000000000000e+01,2.240000000000000000e+02,1.070000000000000000e+02,4.200000000000000000e+01,4.799999999999999822e-01,3.884900600000000000e+09
5.100000000000000000e+01,1.070000000000000000e+02,4.270000000000000000e+02,1.210000000000000000e+02,8.200000000000000000e+01,2.330000000000000000e+02,1.140000000000000000e+02,4.100000000000000000e+01,4.899999999999999911e-01,3.905624100000000000e+09
4.600000000000000000e+01,1.200000000000000000e+02,3.980000000000000000e+02,1.100000000000000000e+02,8.100000000000000000e+01,2.310000000000000000e+02,1.160000000000000000e+02,5.300000000000000000e+01,4.899999999999999911e-01,3.927960700000000000e+09
4.300000000000000000e+01,1.220000000000000000e+02,3.610000000000000000e+02,1.100000000000000000e+02,6.900000000000000000e+01,2.060000000000000000e+02,1.040000000000000000e+02,5.600000000000000000e+01,5.000000000000000000e-01,3.945919700000000000e+09
4.400000000000000000e+01,1.200000000000000000e+02,3.350000000000000000e+02,9.100000000000000000e+01,6.100000000000000000e+01,1.890000000000000000e+02,1.080000000000000000e+02,6.000000000000000000e+01,5.000000000000000000e-01,3.964787100000000000e+09
4.600000000000000000e+01,1.350000000000000000e+02,3.690000000000000000e+02,9.800000000000000000e+01,6.100000000000000000e+01,2.140000000000000000e+02,1.130000000000000000e+02,6.200000000000000000e+01,5.100000000000000089e-01,3.983317900000000000e+09
6.100000000000000000e+01,1.390000000000000000e+02,4.080000000000000000e+02,1.060000000000000000e+02,6.100000000000000000e+01,2.230000000000000000e+02,1.050000000000000000e+02,7.600000000000000000e+01,5.100000000000000089e-01,4.005699900000000000e+09
6.400000000000000000e+01,1.300000000000000000e+02,3.660000000000000000e+02,1.070000000000000000e+02,5.000000000000000000e+01,2.070000000000000000e+02,1.230000000000000000e+02,1.130000000000000000e+02,5.200000000000000178e-01,4.027841100000000000e+09
6.600000000000000000e+01,1.390000000000000000e+02,3.950000000000000000e+02,1.370000000000000000e+02,8.100000000000000000e+01,2.130000000000000000e+02,1.470000000000000000e+02,1.210000000000000000e+02,5.200000000000000178e-01,4.045250800000000000e+09
6.400000000000000000e+01,1.380000000000000000e+02,4.390000000000000000e+02,1.610000000000000000e+02,9.900000000000000000e+01,2.200000000000000000e+02,1.540000000000000000e+02,1.220000000000000000e+02,5.200000000000000178e-01,4.063522200000000000e+09
6.400000000000000000e+01,1.160000000000000000e+02,4.200000000000000000e+02,1.690000000000000000e+02,1.120000000000000000e+02,1.880000000000000000e+02,1.540000000000000000e+02,1.230000000000000000e+02,5.300000000000000266e-01,4.083358500000000000e+09
4.800000000000000000e+01,1.130000000000000000e+02,3.920000000000000000e+02,1.860000000000000000e+02,1.130000000000000000e+02,2.110000000000000000e+02,1.600000000000000000e+02,1.150000000000000000e+02,5.300000000000000266e-01,4.105529100000000000e+09
4.500000000000000000e+01,1.160000000000000000e+02,3.760000000000000000e+02,1.820000000000000000e+02,1.150000000000000000e+02,2.220000000000000000e+02,1.490000000000000000e+02,7.100000000000000000e+01,5.400000000000000355e-01,4.127817500000000000e+09
4.400000000000000000e+01,9.400000000000000000e+01,3.510000000000000000e+02,1.700000000000000000e+02,9.800000000000000000e+01,2.280000000000000000e+02,1.570000000000000000e+02,6.600000000000000000e+01,5.400000000000000355e-01,4.146216300000000000e+09
5.000000000000000000e+01,1.000000000000000000e+02,3.370000000000000000e+02,1.500000000000000000e+02,8.000000000000000000e+01,2.210000000000000000e+02,1.480000000000000000e+02,8.900000000000000000e+01,5.400000000000000355e-01,4.163620900000000000e+09
4.600000000000000000e+01,9.900000000000000000e+01,4.110000000000000000e+02,1.350000000000000000e+02,6.400000000000000000e+01,2.150000000000000000e+02,1.460000000000000000e+02,8.700000000000000000e+01,5.500000000000000444e-01,4.183299900000000000e+09
4.400000000000000000e+01,1.030000000000000000e+02,5.140000000000000000e+02,1.080000000000000000e+02,5.800000000000000000e+01,1.630000000000000000e+02,1.370000000000000000e+02,8.700000000000000000e+01,5.500000000000000444e-01,4.205563400000000000e+09
4.300000000000000000e+01,1.100000000000000000e+02,5.240000000000000000e+02,1.120000000000000000e+02,5.900000000000000000e+01,1.900000000000000000e+02,1.410000000000000000e+02,8.800000000000000000e+01,5.500000000000000444e-01,4.227863800000000000e+09
3.900000000000000000e+01,1.280000000000000000e+02,5.760000000000000000e+02,1.030000000000000000e+02,6.100000000000000000e+01,1.900000000000000000e+02,1.240000000000000000e+02,8.400000000000000000e+01,5.500000000000000444e-01,4.246533800000000000e+09
3.200000000000000000e+01,1.160000000000000000e+02,6.360000000000000000e+02,1.190000000000000000e+02,6.900000000000000000e+01,1.920000000000000000e+02,1.670000000000000000e+02,5.700000000000000000e+01,5.400000000000000355e-01,4.264580200000000000e+09
3.500000000000000000e+01,1.210000000000000000e+02,6.300000000000000000e+02,1.190000000000000000e+02,6.200000000000000000e+01,1.860000000000000000e+02,1.660000000000000000e+02,5.600000000000000000e+01,5.400000000000000355e-01,4.283525500000000000e+09
6.200000000000000000e+01,1.700000000000000000e+02,6.610000000000000000e+02,1.380000000000000000e+02,6.900000000000000000e+01,1.880000000000000000e+02,1.690000000000000000e+02,5.800000000000000000e+01,5.400000000000000355e-01,4.306345500000000000e+09
6.800000000000000000e+01,1.860000000000000000e+02,6.680000000000000000e+02,1.480000000000000000e+02,7.700000000000000000e+01,1.650000000000000000e+02,1.610000000000000000e+02,6.400000000000000000e+01,5.400000000000000355e-01,4.324972700000000000e+09
6.900000000000000000e+01,1.780000000000000000e+02,6.250000000000000000e+02,1.490000000000000000e+02,7.400000000000000000e+01,1.380000000000000000e+02,1.510000000000000000e+02,6.100000000000000000e+01,5.400000000000000355e-01,4.343428400000000000e+09
7.400000000000000000e+01,2.130000000000000000e+02,5.520000000000000000e+02,1.410000000000000000e+02,6.700000000000000000e+01,1.240000000000000000e+02,9.600000000000000000e+01,6.000000000000000000e+01,5.400000000000000355e-01,4.363651200000000000e+09
8.800000000000000000e+01,2.360000000000000000e+02,5.130000000000000000e+02,1.510000000000000000e+02,7.000000000000000000e+01,1.180000000000000000e+02,8.300000000000000000e+01,6.000000000000000000e+01,5.400000000000000355e-01,4.386536800000000000e+09
7.300000000000000000e+01,2.050000000000000000e+02,4.490000000000000000e+02,1.310000000000000000e+02,6.100000000000000000e+01,1.150000000000000000e+02,7.700000000000000000e+01,6.500000000000000000e+01,5.400000000000000355e-01,4.404617500000000000e+09
7.100000000000000000e+01,1.920000000000000000e+02,4.530000000000000000e+02,1.190000000000000000e+02,5.000000000000000000e+01,1.120000000000000000e+02,8.000000000000000000e+01,5.900000000000000000e+01,5.400000000000000355e-01,4.422737900000000000e+09
7.100000000000000000e+01,1.890000000000000000e+02,4.430000000000000000e+02,1.140000000000000000e+02,5.100000000000000000e+01,1.580000000000000000e+02,7.800000000000000000e+01,1.270000000000000000e+02,5.400000000000000355e-01,4.443841000000000000e+09
8.200000000000000000e+01,2.020000000000000000e+02,4.250000000000000000e+02,1.040000000000000000e+02,5.000000000000000000e+01,1.650000000000000000e+02,9.400000000000000000e+01,2.060000000000000000e+02,5.400000000000000355e-01,4.466061000000000000e+09
6.700000000000000000e+01,1.850000000000000000e+02,4.200000000000000000e+02,8.500000000000000000e+01,4.500000000000000000e+01,1.750000000000000000e+02,1.110000000000000000e+02,2.590000000000000000e+02,5.400000000000000355e-01,4.488274300000000000e+09
6.800000000000000000e+01,1.810000000000000000e+02,4.290000000000000000e+02,9.500000000000000000e+01,5.300000000000000000e+01,2.040000000000000000e+02,1.240000000000000000e+02,2.620000000000000000e+02,5.400000000000000355e-01,4.505953400000000000e+09
6.400000000000000000e+01,1.740000000000000000e+02,4.680000000000000000e+02,1.070000000000000000e+02,5.600000000000000000e+01,1.980000000000000000e+02,1.360000000000000000e+02,2.640000000000000000e+02,5.300000000000000266e-01,4.524329800000000000e+09
6.600000000000000000e+01,1.700000000000000000e+02,5.260000000000000000e+02,1.090000000000000000e+02,6.000000000000000000e+01,1.640000000000000000e+02,1.340000000000000000e+02,2.420000000000000000e+02,5.200000000000000178e-01,4.543742000000000000e+09
4.100000000000000000e+01,1.020000000000000000e+02,5.480000000000000000e+02,1.240000000000000000e+02,6.100000000000000000e+01,1.720000000000000000e+02,1.370000000000000000e+02,1.830000000000000000e+02,5.200000000000000178e-01,4.565942800000000000e+09
4.300000000000000000e+01,1.240000000000000000e+02,6.270000000000000000e+02,1.350000000000000000e+02,7.100000000000000000e+01,1.640000000000000000e+02,1.310000000000000000e+02,9.300000000000000000e+01,5.200000000000000178e-01,4.588163600000000000e+09
4.500000000000000000e+01,1.260000000000000000e+02,5.720000000000000000e+02,1.510000000000000000e+02,7.600000000000000000e+01,1.380000000000000000e+02,1.270000000000000000e+02,8.200000000000000000e+01,5.200000000000000178e-01,4.605843200000000000e+09
4.600000000000000000e+01,1.210000000000000000e+02,5.460000000000000000e+02,1.540000000000000000e+02,7.600000000000000000e+01,1.200000000000000000e+02,1.120000000000000000e+02,7.800000000000000000e+01,5.200000000000000178e-01,4.623931600000000000e+09
4.300000000000000000e+01,1.250000000000000000e+02,5.420000000000000000e+02,1.560000000000000000e+02,7.300000000000000000e+01,1.280000000000000000e+02,1.190000000000000000e+02,9.200000000000000000e+01,5.100000000000000089e-01,4.643911400000000000e+09
5.500000000000000000e+01,1.360000000000000000e+02,5.870000000000000000e+02,1.630000000000000000e+02,9.200000000000000000e+01,1.280000000000000000e+02,1.350000000000000000e+02,2.350000000000000000e+02,5.000000000000000000e-01,4.665950400000000000e+09
5.600000000000000000e+01,9.900000000000000000e+01,5.090000000000000000e+02,1.650000000000000000e+02,8.500000000000000000e+01,1.260000000000000000e+02,1.290000000000000000e+02,2.520000000000000000e+02,4.899999999999999911e-01,4.688129800000000000e+09
5.400000000000000000e+01,1.330000000000000000e+02,5.080000000000000000e+02,1.550000000000000000e+02,8.900000000000000000e+01,1.180000000000000000e+02,1.210000000000000000e+02,2.620000000000000000e+02,4.799999999999999822e-01,4.705554100000000000e+09
5.800000000000000000e+01,1.680000000000000000e+02,4.910000000000000000e+02,1.480000000000000000e+02,9.000000000000000000e+01,1.290000000000000000e+02,1.300000000000000000e+02,2.710000000000000000e+02,4.799999999999999822e-01,4.724285300000000000e+09
8.600000000000000000e+01,1.780000000000000000e+02,4.530000000000000000e+02,1.450000000000000000e+02,8.800000000000000000e+01,1.620000000000000000e+02,1.240000000000000000e+02,2.670000000000000000e+02,4.799999999999999822e-01,4.743716500000000000e+09
1.040000000000000000e+02,1.950000000000000000e+02,3.760000000000000000e+02,1.310000000000000000e+02,6.900000000000000000e+01,1.520000000000000000e+02,9.400000000000000000e+01,2.890000000000000000e+02,4.799999999999999822e-01,4.765847000000000000e+09
1.220000000000000000e+02,2.980000000000000000e+02,3.680000000000000000e+02,1.210000000000000000e+02,6.800000000000000000e+01,1.530000000000000000e+02,9.300000000000000000e+01,2.820000000000000000e+02,4.799999999999999822e-01,4.788035500000000000e+09
1.320000000000000000e+02,3.200000000000000000e+02,3.700000000000000000e+02,1.180000000000000000e+02,5.300000000000000000e+01,1.480000000000000000e+02,9.000000000000000000e+01,2.890000000000000000e+02,4.799999999999999822e-01,4.805568900000000000e+09
1.390000000000000000e+02,3.200000000000000000e+02,3.750000000000000000e+02,1.120000000000000000e+02,4.600000000000000000e+01,1.370000000000000000e+02,7.300000000000000000e+01,2.880000000000000000e+02,4.699999999999999734e-01,4.822892000000000000e+09
1.230000000000000000e+02,3.270000000000000000e+02,4.450000000000000000e+02,1.250000000000000000e+02,5.100000000000000000e+01,8.500000000000000000e+01,6.400000000000000000e+01,2.870000000000000000e+02,4.699999999999999734e-01,4.843746400000000000e+09
1.050000000000000000e+02,3.250000000000000000e+02,4.890000000000000000e+02,1.230000000000000000e+02,5.100000000000000000e+01,7.500000000000000000e+01,5.500000000000000000e+01,1.550000000000000000e+02,4.699999999999999734e-01,4.865910800000000000e+09
1.020000000000000000e+02,2.530000000000000000e+02,5.000000000000000000e+02,1.210000000000000000e+02,4.900000000000000000e+01,6.900000000000000000e+01,5.700000000000000000e+01,1.520000000000000000e+02,4.699999999999999734e-01,4.888085100000000000e+09
1.000000000000000000e+02,2.380000000000000000e+02,4.800000000000000000e+02,1.060000000000000000e+02,4.900000000000000000e+01,6.700000000000000000e+01,7.100000000000000000e+01,1.630000000000000000e+02,4.799999999999999822e-01,4.907760500000000000e+09
1.240000000000000000e+02,2.350000000000000000e+02,4.500000000000000000e+02,1.010000000000000000e+02,4.800000000000000000e+01,1.260000000000000000e+02,8.200000000000000000e+01,2.560000000000000000e+02,4.799999999999999822e-01,4.926142000000000000e+09
1.320000000000000000e+02,2.320000000000000000e+02,3.500000000000000000e+02,7.900000000000000000e+01,4.500000000000000000e+01,1.240000000000000000e+02,9.100000000000000000e+01,2.690000000000000000e+02,4.799999999999999822e-01,4.944824900000000000e+09
1.460000000000000000e+02,2.520000000000000000e+02,2.970000000000000000e+02,1.000000000000000000e+02,6.400000000000000000e+01,1.280000000000000000e+02,1.000000000000000000e+02,2.720000000000000000e+02,4.899999999999999911e-01,4.964899300000000000e+09
1.350000000000000000e+02,2.400000000000000000e+02,2.950000000000000000e+02,1.090000000000000000e+02,6.600000000000000000e+01,1.300000000000000000e+02,9.900000000000000000e+01,2.730000000000000000e+02,4.899999999999999911e-01,4.987160400000000000e+09
1.350000000000000000e+02,2.180000000000000000e+02,3.180000000000000000e+02,1.160000000000000000e+02,6.700000000000000000e+01,1.310000000000000000e+02,9.000000000000000000e+01,2.530000000000000000e+02,4.899999999999999911e-01,5.004939700000000000e+09
1.020000000000000000e+02,2.080000000000000000e+02,3.320000000000000000e+02,1.210000000000000000e+02,6.900000000000000000e+01,7.300000000000000000e+01,8.300000000000000000e+01,1.580000000000000000e+02,4.899999999999999911e-01,5.022181100000000000e+09
1.090000000000000000e+02,2.360000000000000000e+02,3.390000000000000000e+02,1.340000000000000000e+02,7.100000000000000000e+01,7.100000000000000000e+01,7.600000000000000000e+01,2.450000000000000000e+02,4.899999999999999911e-01,5.042672500000000000e+09
9.700000000000000000e+01,2.500000000000000000e+02,3.540000000000000000e+02,1.140000000000000000e+02,5.500000000000000000e+01,6.200000000000000000e+01,6.500000000000000000e+01,2.500000000000000000e+02,4.899999999999999911e-01,5.064973500000000000e+09
1.000000000000000000e+02,2.470000000000000000e+02,3.150000000000000000e+02,1.290000000000000000e+02,5.600000000000000000e+01,6.100000000000000000e+01,7.500000000000000000e+01,2.480000000000000000e+02,4.899999999999999911e-01,5.087091200000000000e+09
9.400000000000000000e+01,2.380000000000000000e+02,2.830000000000000000e+02,1.300000000000000000e+02,5.500000000000000000e+01,6.200000000000000000e+01,8.400000000000000000e+01,2.470000000000000000e+02,4.899999999999999911e-01,5.104561500000000000e+09
9.800000000000000000e+01,2.340000000000000000e+02,3.210000000000000000e+02,1.260000000000000000e+02,5.700000000000000000e+01,7.800000000000000000e+01,8.500000000000000000e+01,2.420000000000000000e+02,4.899999999999999911e-01,5.122491300000000000e+09
9.200000000000000000e+01,1.890000000000000000e+02,3.290000000000000000e+02,1.230000000000000000e+02,5.600000000000000000e+01,7.800000000000000000e+01,9.100000000000000000e+01,1.720000000000000000e+02,4.799999999999999822e-01,5.142721400000000000e+09
8.600000000000000000e+01,1.650000000000000000e+02,3.010000000000000000e+02,1.340000000000000000e+02,6.000000000000000000e+01,8.000000000000000000e+01,9.400000000000000000e+01,1.650000000000000000e+02,4.899999999999999911e-01,5.164853500000000000e+09
8.000000000000000000e+01,1.860000000000000000e+02,3.310000000000000000e+02,1.210000000000000000e+02,6.400000000000000000e+01,8.200000000000000000e+01,9.200000000000000000e+01,1.770000000000000000e+02,4.899999999999999911e-01,5.186945500000000000e+09
7.400000000000000000e+01,1.850000000000000000e+02,3.480000000000000000e+02,1.230000000000000000e+02,6.500000000000000000e+01,1.140000000000000000e+02,1.070000000000000000e+02,1.720000000000000000e+02,4.899999999999999911e-01,5.205729700000000000e+09
6.300000000000000000e+01,1.830000000000000000e+02,3.120000000000000000e+02,1.280000000000000000e+02,6.500000000000000000e+01,1.130000000000000000e+02,1.030000000000000000e+02,1.710000000000000000e+02,4.899999999999999911e-01,5.223572900000000000e+09
5.000000000000000000e+01,1.910000000000000000e+02,2.960000000000000000e+02,1.190000000000000000e+02,6.000000000000000000e+01,1.110000000000000000e+02,9.500000000000000000e+01,1.250000000000000000e+02,5.000000000000000000e-01,5.242555000000000000e+09
4.400000000000000000e+01,1.560000000000000000e+02,3.010000000000000000e+02,1.160000000000000000e+02,5.800000000000000000e+01,1.120000000000000000e+02,9.800000000000000000e+01,1.200000000000000000e+02,5.000000000000000000e-01,5.264808700000000000e+09
4.100000000000000000e+01,1.210000000000000000e+02,3.060000000000000000e+02,1.150000000000000000e+02,5.400000000000000000e+01,1.120000000000000000e+02,9.400000000000000000e+01,1.210000000000000000e+02,5.000000000000000000e-01,5.287198300000000000e+09
5.700000000000000000e+01,1.130000000000000000e+02,2.710000000000000000e+02,1.110000000000000000e+02,5.200000000000000000e+01,7.900000000000000000e+01,7.200000000000000000e+01,1.580000000000000000e+02,5.100000000000000089e-01,5.306281500000000000e+09
6.700000000000000000e+01,1.110000000000000000e+02,2.590000000000000000e+02,1.060000000000000000e+02,5.200000000000000000e+01,6.000000000000000000e+01,7.100000000000000000e+01,1.620000000000000000e+02,5.100000000000000089e-01,5.325243900000000000e+09
6.300000000000000000e+01,1.030000000000000000e+02,2.780000000000000000e+02,1.040000000000000000e+02,5.500000000000000000e+01,6.200000000000000000e+01,7.000000000000000000e+01,1.620000000000000000e+02,5.100000000000000089e-01,5.343417900000000000e+09
6.300000000000000000e+01,9.900000000000000000e+01,2.700000000000000000e+02,1.000000000000000000e+02,5.700000000000000000e+01,5.700000000000000000e+01,6.900000000000000000e+01,1.640000000000000000e+02,5.100000000000000089e-01,5.365620500000000000e+09
6.600000000000000000e+01,1.120000000000000000e+02,2.950000000000000000e+02,1.150000000000000000e+02,6.900000000000000000e+01,6.200000000000000000e+01,7.100000000000000000e+01,1.430000000000000000e+02,5.100000000000000089e-01,5.387790300000000000e+09
5.400000000000000000e+01,1.210000000000000000e+02,3.000000000000000000e+02,1.240000000000000000e+02,7.100000000000000000e+01,6.600000000000000000e+01,6.900000000000000000e+01,1.000000000000000000e+02,5.100000000000000089e-01,5.405823000000000000e+09
4.900000000000000000e+01,1.160000000000000000e+02,3.050000000000000000e+02,1.230000000000000000e+02,7.200000000000000000e+01,7.700000000000000000e+01,7.600000000000000000e+01,1.020000000000000000e+02,5.100000000000000089e-01,5.424928900000000000e+09
4.600000000000000000e+01,1.100000000000000000e+02,2.880000000000000000e+02,1.240000000000000000e+02,6.900000000000000000e+01,7.600000000000000000e+01,7.600000000000000000e+01,9.800000000000000000e+01,5.100000000000000089e-01,5.443436200000000000e+09
4.600000000000000000e+01,9.900000000000000000e+01,3.000000000000000000e+02,1.190000000000000000e+02,6.800000000000000000e+01,7.400000000000000000e+01,6.800000000000000000e+01,8.000000000000000000e+01,5.200000000000000178e-01,5.465652600000000000e+09
7.400000000000000000e+01,8.600000000000000000e+01,2.530000000000000000e+02,1.020000000000000000e+02,5.100000000000000000e+01,6.800000000000000000e+01,6.400000000000000000e+01,7.600000000000000000e+01,5.200000000000000178e-01,5.487751800000000000e+09
7.700000000000000000e+01,7.400000000000000000e+01,2.500000000000000000e+02,1.000000000000000000e+02,5.300000000000000000e+01,6.600000000000000000e+01,6.500000000000000000e+01,6.800000000000000000e+01,5.200000000000000178e-01,5.506168800000000000e+09
7.700000000000000000e+01,6.900000000000000000e+01,2.700000000000000000e+02,1.160000000000000000e+02,5.900000000000000000e+01,1.030000000000000000e+02,6.800000000000000000e+01,4.100000000000000000e+01,5.200000000000000178e-01,5.525286900000000000e+09
9.000000000000000000e+01,6.700000000000000000e+01,2.780000000000000000e+02,1.150000000000000000e+02,6.400000000000000000e+01,1.070000000000000000e+02,6.400000000000000000e+01,4.100000000000000000e+01,5.200000000000000178e-01,5.543513600000000000e+09
1.000000000000000000e+02,7.900000000000000000e+01,2.740000000000000000e+02,1.220000000000000000e+02,6.500000000000000000e+01,1.120000000000000000e+02,6.800000000000000000e+01,6.200000000000000000e+01,5.200000000000000178e-01,5.565473900000000000e+09
9.800000000000000000e+01,8.300000000000000000e+01,2.670000000000000000e+02,1.190000000000000000e+02,6.400000000000000000e+01,1.110000000000000000e+02,6.900000000000000000e+01,6.400000000000000000e+01,5.300000000000000266e-01,5.587687600000000000e+09
1.030000000000000000e+02,1.010000000000000000e+02,2.890000000000000000e+02,1.160000000000000000e+02,6.000000000000000000e+01,1.120000000000000000e+02,6.500000000000000000e+01,6.300000000000000000e+01,5.300000000000000266e-01,5.605054700000000000e+09
1.130000000000000000e+02,1.120000000000000000e+02,2.820000000000000000e+02,9.800000000000000000e+01,5.100000000000000000e+01,7.000000000000000000e+01,5.500000000000000000e+01,1.410000000000000000e+02,5.300000000000000266e-01,5.623466100000000000e+09
1.100000000000000000e+02,1.200000000000000000e+02,3.000000000000000000e+02,9.900000000000000000e+01,5.600000000000000000e+01,7.800000000000000000e+01,7.900000000000000000e+01,2.160000000000000000e+02,5.300000000000000266e-01,5.643288900000000000e+09
1.280000000000000000e+02,1.190000000000000000e+02,2.930000000000000000e+02,8.700000000000000000e+01,5.200000000000000000e+01,7.500000000000000000e+01,7.700000000000000000e+01,2.160000000000000000e+02,5.300000000000000266e-01,5.665507400000000000e+09
1.660000000000000000e+02,1.700000000000000000e+02,3.230000000000000000e+02,8.200000000000000000e+01,5.600000000000000000e+01,7.400000000000000000e+01,7.400000000000000000e+01,2.230000000000000000e+02,5.300000000000000266e-01,5.687964600000000000e+09
1.710000000000000000e+02,1.680000000000000000e+02,3.310000000000000000e+02,8.600000000000000000e+01,6.000000000000000000e+01,7.100000000000000000e+01,7.300000000000000000e+01,2.280000000000000000e+02,5.300000000000000266e-01,5.706552400000000000e+09
1.670000000000000000e+02,1.680000000000000000e+02,4.210000000000000000e+02,1.120000000000000000e+02,6.900000000000000000e+01,1.010000000000000000e+02,8.300000000000000000e+01,1.960000000000000000e+02,5.300000000000000266e-01,5.724544500000000000e+09
2.030000000000000000e+02,2.220000000000000000e+02,5.780000000000000000e+02,1.470000000000000000e+02,8.000000000000000000e+01,1.000000000000000000e+02,8.600000000000000000e+01,1.460000000000000000e+02,5.300000000000000266e-01,5.743355400000000000e+09
2.030000000000000000e+02,2.300000000000000000e+02,5.970000000000000000e+02,1.530000000000000000e+02,8.400000000000000000e+01,1.170000000000000000e+02,9.500000000000000000e+01,1.510000000000000000e+02,5.300000000000000266e-01,5.765559300000000000e+09
1.690000000000000000e+02,2.000000000000000000e+02,6.020000000000000000e+02,1.610000000000000000e+02,8.400000000000000000e+01,1.290000000000000000e+02,9.800000000000000000e+01,1.670000000000000000e+02,5.300000000000000266e-01,5.787690200000000000e+09
1.640000000000000000e+02,1.990000000000000000e+02,6.540000000000000000e+02,1.580000000000000000e+02,8.500000000000000000e+01,1.410000000000000000e+02,9.700000000000000000e+01,1.720000000000000000e+02,5.200000000000000178e-01,5.805144400000000000e+09
1.650000000000000000e+02,2.110000000000000000e+02,6.320000000000000000e+02,1.510000000000000000e+02,8.800000000000000000e+01,1.300000000000000000e+02,9.200000000000000000e+01,2.290000000000000000e+02,5.200000000000000178e-01,5.823477700000000000e+09
1.200000000000000000e+02,1.620000000000000000e+02,4.850000000000000000e+02,1.160000000000000000e+02,7.600000000000000000e+01,1.420000000000000000e+02,8.400000000000000000e+01,2.220000000000000000e+02,5.100000000000000089e-01,5.843146900000000000e+09
9.100000000000000000e+01,1.460000000000000000e+02,4.610000000000000000e+02,1.170000000000000000e+02,7.300000000000000000e+01,1.540000000000000000e+02,9.800000000000000000e+01,2.310000000000000000e+02,5.100000000000000089e-01,5.865365000000000000e+09
8.100000000000000000e+01,1.380000000000000000e+02,4.400000000000000000e+02,1.070000000000000000e+02,7.400000000000000000e+01,1.490000000000000000e+02,9.500000000000000000e+01,2.300000000000000000e+02,5.100000000000000089e-01,5.887645000000000000e+09
7.700000000000000000e+01,1.490000000000000000e+02,3.510000000000000000e+02,1.050000000000000000e+02,7.600000000000000000e+01,1.410000000000000000e+02,9.800000000000000000e+01,2.510000000000000000e+02,5.000000000000000000e-01,5.905018700000000000e+09
6.600000000000000000e+01,1.350000000000000000e+02,4.320000000000000000e+02,1.090000000000000000e+02,6.700000000000000000e+01,1.340000000000000000e+02,9.500000000000000000e+01,2.280000000000000000e+02,5.000000000000000000e-01,5.922980700000000000e+09
5.700000000000000000e+01,1.130000000000000000e+02,5.030000000000000000e+02,1.470000000000000000e+02,7.300000000000000000e+01,1.250000000000000000e+02,8.500000000000000000e+01,2.190000000000000000e+02,5.000000000000000000e-01,5.943122700000000000e+09
5.800000000000000000e+01,1.200000000000000000e+02,6.910000000000000000e+02,1.640000000000000000e+02,7.900000000000000000e+01,1.040000000000000000e+02,6.300000000000000000e+01,2.060000000000000000e+02,4.899999999999999911e-01,5.965291600000000000e+09
5.600000000000000000e+01,1.260000000000000000e+02,8.230000000000000000e+02,1.840000000000000000e+02,8.100000000000000000e+01,1.080000000000000000e+02,7.100000000000000000e+01,1.930000000000000000e+02,4.799999999999999822e-01,5.987580100000000000e+09
5.700000000000000000e+01,1.070000000000000000e+02,8.320000000000000000e+02,1.870000000000000000e+02,7.600000000000000000e+01,1.150000000000000000e+02,8.000000000000000000e+01,2.260000000000000000e+02,4.699999999999999734e-01,6.005665100000000000e+09
6.100000000000000000e+01,1.020000000000000000e+02,8.490000000000000000e+02,1.890000000000000000e+02,7.800000000000000000e+01,1.280000000000000000e+02,8.900000000000000000e+01,2.010000000000000000e+02,4.600000000000000200e-01,6.025880500000000000e+09
5.700000000000000000e+01,1.010000000000000000e+02,8.550000000000000000e+02,1.750000000000000000e+02,8.000000000000000000e+01,1.160000000000000000e+02,9.500000000000000000e+01,2.020000000000000000e+02,4.500000000000000111e-01,6.044802400000000000e+09
6.000000000000000000e+01,9.900000000000000000e+01,7.590000000000000000e+02,1.610000000000000000e+02,7.500000000000000000e+01,1.070000000000000000e+02,9.100000000000000000e+01,2.060000000000000000e+02,4.400000000000000022e-01,6.065370700000000000e+09
6.300000000000000000e+01,9.900000000000000000e+01,6.700000000000000000e+02,1.480000000000000000e+02,7.100000000000000000e+01,1.360000000000000000e+02,9.900000000000000000e+01,2.210000000000000000e+02,4.299999999999999933e-01,6.087488300000000000e+09
5.600000000000000000e+01,1.160000000000000000e+02,6.740000000000000000e+02,1.390000000000000000e+02,7.100000000000000000e+01,1.280000000000000000e+02,8.900000000000000000e+01,2.300000000000000000e+02,4.299999999999999933e-01,6.104912500000000000e+09
4.900000000000000000e+01,1.070000000000000000e+02,5.640000000000000000e+02,1.310000000000000000e+02,6.900000000000000000e+01,1.180000000000000000e+02,8.200000000000000000e+01,2.250000000000000000e+02,4.299999999999999933e-01,6.123051100000000000e+09
4.900000000000000000e+01,1.030000000000000000e+02,5.220000000000000000e+02,1.250000000000000000e+02,6.000000000000000000e+01,1.180000000000000000e+02,8.000000000000000000e+01,2.210000000000000000e+02,4.199999999999999845e-01,6.143080800000000000e+09
4.600000000000000000e+01,1.040000000000000000e+02,4.550000000000000000e+02,1.180000000000000000e+02,5.600000000000000000e+01,1.330000000000000000e+02,9.000000000000000000e+01,2.200000000000000000e+02,4.199999999999999845e-01,6.165208500000000000e+09
4.300000000000000000e+01,9.900000000000000000e+01,4.020000000000000000e+02,1.130000000000000000e+02,6.000000000000000000e+01,1.160000000000000000e+02,7.700000000000000000e+01,2.210000000000000000e+02,4.199999999999999845e-01,6.187441400000000000e+09
4.000000000000000000e+01,7.500000000000000000e+01,3.660000000000000000e+02,1.240000000000000000e+02,6.200000000000000000e+01,1.240000000000000000e+02,7.500000000000000000e+01,1.380000000000000000e+02,4.199999999999999845e-01,6.205487000000000000e+09
4.100000000000000000e+01,7.800000000000000000e+01,4.140000000000000000e+02,1.320000000000000000e+02,6.200000000000000000e+01,1.230000000000000000e+02,7.400000000000000000e+01,1.340000000000000000e+02,4.299999999999999933e-01,6.223759400000000000e+09
6.500000000000000000e+01,8.300000000000000000e+01,4.150000000000000000e+02,1.220000000000000000e+02,6.000000000000000000e+01,1.310000000000000000e+02,9.000000000000000000e+01,1.590000000000000000e+02,4.299999999999999933e-01,6.242941900000000000e+09
6.300000000000000000e+01,1.000000000000000000e+02,4.580000000000000000e+02,1.270000000000000000e+02,6.300000000000000000e+01,1.440000000000000000e+02,7.900000000000000000e+01,2.240000000000000000e+02,4.400000000000000022e-01,6.265282900000000000e+09
6.400000000000000000e+01,1.070000000000000000e+02,4.240000000000000000e+02,1.270000000000000000e+02,5.900000000000000000e+01,1.270000000000000000e+02,8.200000000000000000e+01,2.170000000000000000e+02,4.400000000000000022e-01,6.287434000000000000e+09
6.500000000000000000e+01,1.040000000000000000e+02,4.500000000000000000e+02,1.200000000000000000e+02,5.600000000000000000e+01,1.170000000000000000e+02,8.400000000000000000e+01,2.260000000000000000e+02,4.500000000000000111e-01,6.305025900000000000e+09
7.200000000000000000e+01,1.300000000000000000e+02,4.210000000000000000e+02,1.030000000000000000e+02,5.800000000000000000e+01,1.280000000000000000e+02,9.500000000000000000e+01,2.320000000000000000e+02,4.600000000000000200e-01,6.323501800000000000e+09
5.500000000000000000e+01,1.470000000000000000e+02,4.770000000000000000e+02,1.080000000000000000e+02,5.600000000000000000e+01,1.200000000000000000e+02,8.400000000000000000e+01,2.150000000000000000e+02,4.600000000000000200e-01,6.343120700000000000e+09
7.000000000000000000e+01,1.840000000000000000e+02,4.610000000000000000e+02,1.060000000000000000e+02,6.600000000000000000e+01,1.120000000000000000e+02,9.900000000000000000e+01,1.510000000000000000e+02,4.699999999999999734e-01,6.365182300000000000e+09
7.400000000000000000e+01,1.760000000000000000e+02,4.720000000000000000e+02,1.030000000000000000e+02,7.000000000000000000e+01,1.280000000000000000e+02,1.050000000000000000e+02,1.480000000000000000e+02,4.699999999999999734e-01,6.387416400000000000e+09
7.600000000000000000e+01,1.990000000000000000e+02,4.500000000000000000e+02,1.020000000000000000e+02,7.400000000000000000e+01,1.410000000000000000e+02,1.060000000000000000e+02,1.400000000000000000e+02,4.699999999999999734e-01,6.404795200000000000e+09
9.000000000000000000e+01,2.010000000000000000e+02,4.830000000000000000e+02,1.060000000000000000e+02,7.600000000000000000e+01,1.350000000000000000e+02,9.600000000000000000e+01,1.310000000000000000e+02,4.799999999999999822e-01,6.423425000000000000e+09
9.100000000000000000e+01,1.900000000000000000e+02,3.820000000000000000e+02,1.030000000000000000e+02,7.500000000000000000e+01,1.380000000000000000e+02,9.300000000000000000e+01,1.420000000000000000e+02,4.799999999999999822e-01,6.442912700000000000e+09
8.800000000000000000e+01,1.760000000000000000e+02,3.960000000000000000e+02,9.700000000000000000e+01,6.700000000000000000e+01,1.200000000000000000e+02,8.600000000000000000e+01,1.700000000000000000e+02,4.799999999999999822e-01,6.465195900000000000e+09
8.500000000000000000e+01,2.010000000000000000e+02,3.910000000000000000e+02,1.100000000000000000e+02,7.300000000000000000e+01,1.120000000000000000e+02,8.200000000000000000e+01,1.790000000000000000e+02,4.799999999999999822e-01,6.487338900000000000e+09
8.300000000000000000e+01,1.810000000000000000e+02,4.080000000000000000e+02,1.170000000000000000e+02,7.200000000000000000e+01,9.900000000000000000e+01,8.100000000000000000e+01,1.720000000000000000e+02,4.799999999999999822e-01,6.504638800000000000e+09
7.000000000000000000e+01,1.600000000000000000e+02,4.310000000000000000e+02,1.150000000000000000e+02,6.700000000000000000e+01,1.090000000000000000e+02,8.000000000000000000e+01,1.760000000000000000e+02,4.799999999999999822e-01,6.523152500000000000e+09
6.900000000000000000e+01,1.750000000000000000e+02,5.960000000000000000e+02,1.220000000000000000e+02,6.700000000000000000e+01,1.190000000000000000e+02,1.060000000000000000e+02,1.670000000000000000e+02,4.799999999999999822e-01,6.543073300000000000e+09
6.000000000000000000e+01,1.410000000000000000e+02,6.170000000000000000e+02,1.210000000000000000e+02,6.500000000000000000e+01,1.200000000000000000e+02,1.020000000000000000e+02,1.260000000000000000e+02,4.899999999999999911e-01,6.565217100000000000e+09
5.600000000000000000e+01,1.020000000000000000e+02,6.230000000000000000e+02,1.030000000000000000e+02,5.600000000000000000e+01,1.210000000000000000e+02,9.900000000000000000e+01,8.600000000000000000e+01,4.899999999999999911e-01,6.587251000000000000e+09
5.500000000000000000e+01,9.700000000000000000e+01,6.050000000000000000e+02,1.010000000000000000e+02,5.600000000000000000e+01,1.280000000000000000e+02,9.900000000000000000e+01,8.100000000000000000e+01,4.899999999999999911e-01,6.606202800000000000e+09
4.300000000000000000e+01,9.900000000000000000e+01,5.630000000000000000e+02,1.010000000000000000e+02,5.300000000000000000e+01,1.190000000000000000e+02,1.000000000000000000e+02,7.000000000000000000e+01,4.899999999999999911e-01,6.624920300000000000e+09
4.100000000000000000e+01,7.500000000000000000e+01,3.830000000000000000e+02,9.600000000000000000e+01,5.200000000000000000e+01,1.050000000000000000e+02,6.600000000000000000e+01,1.110000000000000000e+02,5.000000000000000000e-01,6.643211000000000000e+09
4.300000000000000000e+01,7.200000000000000000e+01,3.390000000000000000e+02,9.600000000000000000e+01,5.300000000000000000e+01,1.010000000000000000e+02,6.100000000000000000e+01,1.480000000000000000e+02,5.000000000000000000e-01,6.665120200000000000e+09
4.600000000000000000e+01,7.500000000000000000e+01,3.050000000000000000e+02,9.300000000000000000e+01,4.700000000000000000e+01,1.030000000000000000e+02,7.100000000000000000e+01,1.540000000000000000e+02,5.000000000000000000e-01,6.687182800000000000e+09
5.900000000000000000e+01,8.400000000000000000e+01,5.030000000000000000e+02,9.700000000000000000e+01,5.000000000000000000e+01,9.100000000000000000e+01,6.800000000000000000e+01,1.550000000000000000e+02,5.100000000000000089e-01,6.704812900000000000e+09
6.200000000000000000e+01,8.000000000000000000e+01,5.460000000000000000e+02,9.300000000000000000e+01,5.400000000000000000e+01,8.300000000000000000e+01,7.000000000000000000e+01,1.720000000000000000e+02,5.100000000000000089e-01,6.724331200000000000e+09
6.000000000000000000e+01,7.000000000000000000e+01,5.500000000000000000e+02,7.900000000000000000e+01,5.000000000000000000e+01,8.400000000000000000e+01,6.900000000000000000e+01,1.490000000000000000e+02,5.100000000000000089e-01,6.742826800000000000e+09
5.800000000000000000e+01,6.600000000000000000e+01,5.810000000000000000e+02,7.900000000000000000e+01,5.000000000000000000e+01,7.400000000000000000e+01,6.600000000000000000e+01,1.050000000000000000e+02,5.100000000000000089e-01,6.764984900000000000e+09
5.700000000000000000e+01,7.000000000000000000e+01,5.950000000000000000e+02,8.900000000000000000e+01,5.300000000000000000e+01,5.400000000000000000e+01,5.400000000000000000e+01,9.600000000000000000e+01,5.200000000000000178e-01,6.787196500000000000e+09
4.400000000000000000e+01,6.400000000000000000e+01,4.330000000000000000e+02,9.500000000000000000e+01,5.100000000000000000e+01,6.900000000000000000e+01,6.400000000000000000e+01,9.400000000000000000e+01,5.200000000000000178e-01,6.805174400000000000e+09
3.800000000000000000e+01,6.300000000000000000e+01,3.800000000000000000e+02,1.060000000000000000e+02,4.600000000000000000e+01,7.200000000000000000e+01,6.100000000000000000e+01,5.400000000000000000e+01,5.300000000000000266e-01,6.823469100000000000e+09
3.900000000000000000e+01,6.100000000000000000e+01,4.210000000000000000e+02,1.140000000000000000e+02,5.100000000000000000e+01,6.800000000000000000e+01,6.700000000000000000e+01,5.100000000000000000e+01,5.300000000000000266e-01,6.842666900000000000e+09
3.800000000000000000e+01,7.100000000000000000e+01,3.680000000000000000e+02,1.280000000000000000e+02,5.800000000000000000e+01,7.100000000000000000e+01,7.100000000000000000e+01,5.300000000000000000e+01,5.300000000000000266e-01,6.865441600000000000e+09
3.800000000000000000e+01,7.200000000000000000e+01,3.960000000000000000e+02,1.470000000000000000e+02,5.900000000000000000e+01,7.000000000000000000e+01,7.400000000000000000e+01,5.000000000000000000e+01,5.400000000000000355e-01,6.887181500000000000e+09
6.200000000000000000e+01,7.200000000000000000e+01,4.140000000000000000e+02,1.470000000000000000e+02,6.700000000000000000e+01,6.200000000000000000e+01,6.800000000000000000e+01,5.500000000000000000e+01,5.400000000000000355e-01,6.904647700000000000e+09
6.400000000000000000e+01,7.400000000000000000e+01,4.060000000000000000e+02,1.390000000000000000e+02,6.800000000000000000e+01,5.900000000000000000e+01,6.500000000000000000e+01,5.200000000000000000e+01,5.400000000000000355e-01,6.923630300000000000e+09
6.500000000000000000e+01,7.500000000000000000e+01,3.590000000000000000e+02,1.370000000000000000e+02,6.600000000000000000e+01,6.200000000000000000e+01,6.700000000000000000e+01,5.300000000000000000e+01,5.500000000000000444e-01,6.942842300000000000e+09
6.300000000000000000e+01,6.700000000000000000e+01,3.690000000000000000e+02,1.300000000000000000e+02,8.300000000000000000e+01,7.100000000000000000e+01,6.800000000000000000e+01,6.200000000000000000e+01,5.500000000000000444e-01,6.965018500000000000e+09
6.800000000000000000e+01,6.600000000000000000e+01,3.560000000000000000e+02,1.060000000000000000e+02,8.200000000000000000e+01,8.400000000000000000e+01,6.900000000000000000e+01,6.400000000000000000e+01,5.500000000000000444e-01,6.987192400000000000e+09
4.900000000000000000e+01,6.300000000000000000e+01,3.680000000000000000e+02,9.100000000000000000e+01,7.400000000000000000e+01,7.800000000000000000e+01,6.500000000000000000e+01,6.000000000000000000e+01,5.500000000000000444e-01,7.005047500000000000e+09
4.600000000000000000e+01,7.600000000000000000e+01,4.270000000000000000e+02,1.010000000000000000e+02,7.800000000000000000e+01,7.600000000000000000e+01,6.800000000000000000e+01,5.900000000000000000e+01,5.500000000000000444e-01,7.023394700000000000e+09
5.800000000000000000e+01,7.900000000000000000e+01,4.750000000000000000e+02,1.170000000000000000e+02,8.200000000000000000e+01,7.600000000000000000e+01,6.200000000000000000e+01,6.000000000000000000e+01,5.500000000000000444e-01,7.042656800000000000e+09
6.400000000000000000e+01,8.100000000000000000e+01,4.790000000000000000e+02,1.080000000000000000e+02,6.500000000000000000e+01,6.700000000000000000e+01,5.900000000000000000e+01,1.570000000000000000e+02,5.400000000000000355e-01,7.065042800000000000e+09
6.100000000000000000e+01,7.800000000000000000e+01,4.570000000000000000e+02,1.030000000000000000e+02,6.200000000000000000e+01,4.700000000000000000e+01,6.200000000000000000e+01,1.910000000000000000e+02,5.400000000000000355e-01,7.087163800000000000e+09
6.100000000000000000e+01,7.700000000000000000e+01,4.530000000000000000e+02,1.020000000000000000e+02,6.300000000000000000e+01,5.300000000000000000e+01,6.200000000000000000e+01,1.950000000000000000e+02,5.400000000000000355e-01,7.104735900000000000e+09
6.000000000000000000e+01,6.900000000000000000e+01,4.640000000000000000e+02,9.500000000000000000e+01,5.900000000000000000e+01,5.400000000000000000e+01,6.000000000000000000e+01,1.990000000000000000e+02,5.300000000000000266e-01,7.123674700000000000e+09
4.800000000000000000e+01,6.500000000000000000e+01,4.780000000000000000e+02,6.200000000000000000e+01,5.300000000000000000e+01,5.700000000000000000e+01,6.700000000000000000e+01,1.990000000000000000e+02,5.200000000000000178e-01,7.142605800000000000e+09
4.100000000000000000e+01,5.900000000000000000e+01,4.470000000000000000e+02,7.400000000000000000e+01,5.800000000000000000e+01,6.200000000000000000e+01,6.300000000000000000e+01,1.400000000000000000e+02,5.200000000000000178e-01,7.166026800000000000e+09
4.200000000000000000e+01,6.200000000000000000e+01,4.580000000000000000e+02,7.900000000000000000e+01,6.100000000000000000e+01,8.100000000000000000e+01,6.300000000000000000e+01,1.180000000000000000e+02,5.200000000000000178e-01,7.187088000000000000e+09
5.000000000000000000e+01,7.300000000000000000e+01,4.910000000000000000e+02,7.200000000000000000e+01,6.500000000000000000e+01,1.080000000000000000e+02,6.800000000000000000e+01,1.500000000000000000e+02,5.100000000000000089e-01,7.205233600000000000e+09
7.100000000000000000e+01,7.200000000000000000e+01,4.660000000000000000e+02,6.800000000000000000e+01,6.800000000000000000e+01,1.150000000000000000e+02,7.100000000000000000e+01,1.600000000000000000e+02,5.100000000000000089e-01,7.223758500000000000e+09
7.500000000000000000e+01,8.300000000000000000e+01,4.380000000000000000e+02,9.300000000000000000e+01,7.300000000000000000e+01,1.120000000000000000e+02,6.700000000000000000e+01,1.580000000000000000e+02,5.000000000000000000e-01,7.242584700000000000e+09
7.500000000000000000e+01,8.400000000000000000e+01,4.380000000000000000e+02,9.000000000000000000e+01,6.800000000000000000e+01,1.120000000000000000e+02,6.600000000000000000e+01,1.510000000000000000e+02,5.000000000000000000e-01,7.264883900000000000e+09
7.300000000000000000e+01,8.900000000000000000e+01,4.480000000000000000e+02,8.700000000000000000e+01,7.500000000000000000e+01,1.000000000000000000e+02,7.300000000000000000e+01,1.320000000000000000e+02,5.000000000000000000e-01,7.287005500000000000e+09
6.700000000000000000e+01,9.300000000000000000e+01,4.180000000000000000e+02,9.100000000000000000e+01,6.900000000000000000e+01,9.000000000000000000e+01,7.000000000000000000e+01,8.800000000000000000e+01,4.899999999999999911e-01,7.304432200000000000e+09
4.800000000000000000e+01,9.300000000000000000e+01,3.760000000000000000e+02,9.300000000000000000e+01,7.000000000000000000e+01,8.000000000000000000e+01,6.900000000000000000e+01,1.340000000000000000e+02,4.899999999999999911e-01,7.322795200000000000e+09
4.400000000000000000e+01,8.800000000000000000e+01,3.780000000000000000e+02,7.400000000000000000e+01,7.000000000000000000e+01,8.000000000000000000e+01,6.400000000000000000e+01,1.460000000000000000e+02,4.899999999999999911e-01,7.342555000000000000e+09
4.000000000000000000e+01,9.000000000000000000e+01,3.680000000000000000e+02,7.500000000000000000e+01,6.500000000000000000e+01,7.800000000000000000e+01,6.800000000000000000e+01,1.500000000000000000e+02,4.899999999999999911e-01,7.364690900000000000e+09
3.800000000000000000e+01,8.000000000000000000e+01,3.450000000000000000e+02,8.300000000000000000e+01,6.000000000000000000e+01,8.000000000000000000e+01,6.400000000000000000e+01,1.520000000000000000e+02,4.899999999999999911e-01,7.387052800000000000e+09
4.000000000000000000e+01,6.300000000000000000e+01,3.630000000000000000e+02,8.300000000000000000e+01,6.800000000000000000e+01,5.700000000000000000e+01,6.300000000000000000e+01,1.540000000000000000e+02,4.899999999999999911e-01,7.404624200000000000e+09
4.000000000000000000e+01,8.100000000000000000e+01,4.600000000000000000e+02,8.500000000000000000e+01,6.700000000000000000e+01,6.600000000000000000e+01,5.900000000000000000e+01,9.800000000000000000e+01,4.899999999999999911e-01,7.422864800000000000e+09
3.800000000000000000e+01,8.200000000000000000e+01,4.230000000000000000e+02,9.200000000000000000e+01,6.600000000000000000e+01,6.600000000000000000e+01,5.800000000000000000e+01,9.100000000000000000e+01,4.899999999999999911e-01,7.442484000000000000e+09
5.300000000000000000e+01,8.100000000000000000e+01,4.450000000000000000e+02,8.800000000000000000e+01,7.000000000000000000e+01,6.900000000000000000e+01,5.900000000000000000e+01,9.100000000000000000e+01,4.899999999999999911e-01,7.464794900000000000e+09
5.600000000000000000e+01,8.100000000000000000e+01,4.790000000000000000e+02,7.900000000000000000e+01,6.400000000000000000e+01,6.500000000000000000e+01,6.700000000000000000e+01,8.000000000000000000e+01,4.899999999999999911e-01,7.486975900000000000e+09
5.700000000000000000e+01,8.600000000000000000e+01,4.410000000000000000e+02,7.800000000000000000e+01,5.500000000000000000e+01,6.400000000000000000e+01,6.800000000000000000e+01,7.500000000000000000e+01,5.000000000000000000e-01,7.506046400000000000e+09
5.500000000000000000e+01,6.400000000000000000e+01,3.610000000000000000e+02,7.300000000000000000e+01,5.100000000000000000e+01,6.000000000000000000e+01,6.900000000000000000e+01,1.500000000000000000e+02,5.000000000000000000e-01,7.525489100000000000e+09
5.300000000000000000e+01,5.900000000000000000e+01,3.610000000000000000e+02,7.000000000000000000e+01,4.700000000000000000e+01,5.900000000000000000e+01,7.000000000000000000e+01,1.470000000000000000e+02,4.899999999999999911e-01,7.543834300000000000e+09
4.300000000000000000e+01,5.600000000000000000e+01,3.760000000000000000e+02,8.300000000000000000e+01,4.400000000000000000e+01,5.200000000000000000e+01,6.700000000000000000e+01,1.490000000000000000e+02,5.000000000000000000e-01,7.564634400000000000e+09
5.600000000000000000e+01,5.600000000000000000e+01,3.450000000000000000e+02,8.500000000000000000e+01,4.700000000000000000e+01,5.300000000000000000e+01,5.700000000000000000e+01,1.510000000000000000e+02,5.000000000000000000e-01,7.586844300000000000e+09
5.100000000000000000e+01,5.800000000000000000e+01,3.920000000000000000e+02,8.400000000000000000e+01,5.100000000000000000e+01,5.300000000000000000e+01,5.900000000000000000e+01,1.540000000000000000e+02,5.000000000000000000e-01,7.604620700000000000e+09
6.000000000000000000e+01,5.700000000000000000e+01,3.920000000000000000e+02,8.900000000000000000e+01,5.300000000000000000e+01,5.200000000000000000e+01,6.700000000000000000e+01,8.400000000000000000e+01,5.100000000000000089e-01,7.622505700000000000e+09
6.600000000000000000e+01,5.700000000000000000e+01,4.110000000000000000e+02,9.600000000000000000e+01,5.200000000000000000e+01,5.500000000000000000e+01,6.800000000000000000e+01,7.900000000000000000e+01,5.100000000000000089e-01,7.642415200000000000e+09
6.800000000000000000e+01,6.200000000000000000e+01,3.630000000000000000e+02,8.900000000000000000e+01,5.200000000000000000e+01,7.200000000000000000e+01,7.000000000000000000e+01,7.200000000000000000e+01,5.100000000000000089e-01,7.664616700000000000e+09
5.700000000000000000e+01,6.100000000000000000e+01,3.490000000000000000e+02,8.800000000000000000e+01,5.100000000000000000e+01,7.400000000000000000e+01,7.100000000000000000e+01,1.260000000000000000e+02,5.200000000000000178e-01,7.686797300000000000e+09
6.000000000000000000e+01,5.600000000000000000e+01,3.890000000000000000e+02,9.000000000000000000e+01,5.300000000000000000e+01,7.600000000000000000e+01,7.800000000000000000e+01,1.300000000000000000e+02,5.200000000000000178e-01,7.704222800000000000e+09
5.400000000000000000e+01,5.900000000000000000e+01,3.760000000000000000e+02,8.500000000000000000e+01,4.700000000000000000e+01,7.700000000000000000e+01,7.000000000000000000e+01,1.290000000000000000e+02,5.200000000000000178e-01,7.722635600000000000e+09
5.100000000000000000e+01,5.900000000000000000e+01,3.590000000000000000e+02,6.800000000000000000e+01,5.000000000000000000e+01,8.700000000000000000e+01,7.000000000000000000e+01,1.270000000000000000e+02,5.200000000000000178e-01,7.742422700000000000e+09
4.600000000000000000e+01,6.200000000000000000e+01,4.680000000000000000e+02,6.900000000000000000e+01,4.900000000000000000e+01,7.700000000000000000e+01,6.700000000000000000e+01,1.400000000000000000e+02,5.200000000000000178e-01,7.764668500000000000e+09
4.500000000000000000e+01,6.000000000000000000e+01,4.700000000000000000e+02,7.000000000000000000e+01,5.000000000000000000e+01,7.400000000000000000e+01,6.200000000000000000e+01,1.000000000000000000e+02,5.200000000000000178e-01,7.786863600000000000e+09
4.400000000000000000e+01,5.600000000000000000e+01,4.050000000000000000e+02,6.800000000000000000e+01,4.300000000000000000e+01,6.700000000000000000e+01,4.900000000000000000e+01,1.370000000000000000e+02,5.200000000000000178e-01,7.804453000000000000e+09
4.600000000000000000e+01,5.600000000000000000e+01,4.160000000000000000e+02,7.200000000000000000e+01,4.500000000000000000e+01,6.700000000000000000e+01,5.300000000000000000e+01,1.460000000000000000e+02,5.200000000000000178e-01,7.823185200000000000e+09
4.400000000000000000e+01,6.000000000000000000e+01,4.120000000000000000e+02,7.800000000000000000e+01,4.000000000000000000e+01,5.000000000000000000e+01,5.200000000000000000e+01,1.510000000000000000e+02,5.200000000000000178e-01,7.842326000000000000e+09
4.500000000000000000e+01,5.900000000000000000e+01,2.860000000000000000e+02,7.400000000000000000e+01,4.300000000000000000e+01,4.700000000000000000e+01,5.200000000000000000e+01,1.430000000000000000e+02,5.200000000000000178e-01,7.864604800000000000e+09
4.500000000000000000e+01,6.900000000000000000e+01,3.200000000000000000e+02,7.700000000000000000e+01,4.000000000000000000e+01,4.600000000000000000e+01,5.100000000000000000e+01,1.450000000000000000e+02,5.200000000000000178e-01,7.886846200000000000e+09
5.800000000000000000e+01,7.000000000000000000e+01,3.400000000000000000e+02,7.400000000000000000e+01,4.000000000000000000e+01,6.300000000000000000e+01,6.300000000000000000e+01,1.150000000000000000e+02,5.100000000000000089e-01,7.905277300000000000e+09
5.600000000000000000e+01,6.900000000000000000e+01,3.110000000000000000e+02,7.000000000000000000e+01,4.600000000000000000e+01,6.100000000000000000e+01,5.900000000000000000e+01,2.180000000000000000e+02,5.100000000000000089e-01,7.925454600000000000e+09
5.600000000000000000e+01,6.400000000000000000e+01,3.280000000000000000e+02,7.100000000000000000e+01,4.500000000000000000e+01,6.100000000000000000e+01,5.600000000000000000e+01,2.310000000000000000e+02,5.000000000000000000e-01,7.943522600000000000e+09
6.800000000000000000e+01,1.090000000000000000e+02,3.310000000000000000e+02,7.100000000000000000e+01,4.400000000000000000e+01,6.000000000000000000e+01,5.900000000000000000e+01,2.800000000000000000e+02,5.000000000000000000e-01,7.964483100000000000e+09
7.000000000000000000e+01,1.270000000000000000e+02,3.110000000000000000e+02,7.100000000000000000e+01,4.200000000000000000e+01,6.100000000000000000e+01,5.400000000000000000e+01,3.220000000000000000e+02,4.899999999999999911e-01,7.986761900000000000e+09
6.000000000000000000e+01,1.710000000000000000e+02,3.260000000000000000e+02,7.500000000000000000e+01,4.400000000000000000e+01,4.400000000000000000e+01,5.200000000000000000e+01,3.290000000000000000e+02,4.899999999999999911e-01,8.004436800000000000e+09
6.400000000000000000e+01,1.910000000000000000e+02,3.220000000000000000e+02,8.000000000000000000e+01,3.800000000000000000e+01,4.400000000000000000e+01,5.100000000000000000e+01,2.820000000000000000e+02,4.799999999999999822e-01,8.022228700000000000e+09
6.700000000000000000e+01,2.410000000000000000e+02,3.170000000000000000e+02,8.300000000000000000e+01,3.700000000000000000e+01,4.800000000000000000e+01,5.500000000000000000e+01,2.860000000000000000e+02,4.799999999999999822e-01,8.042230700000000000e+09
6.200000000000000000e+01,2.440000000000000000e+02,3.520000000000000000e+02,8.000000000000000000e+01,3.600000000000000000e+01,4.600000000000000000e+01,5.500000000000000000e+01,2.450000000000000000e+02,4.799999999999999822e-01,8.064440700000000000e+09
7.700000000000000000e+01,2.530000000000000000e+02,3.800000000000000000e+02,8.700000000000000000e+01,3.800000000000000000e+01,4.800000000000000000e+01,6.300000000000000000e+01,2.080000000000000000e+02,4.799999999999999822e-01,8.086581000000000000e+09
8.400000000000000000e+01,2.740000000000000000e+02,3.920000000000000000e+02,8.500000000000000000e+01,4.100000000000000000e+01,6.000000000000000000e+01,6.400000000000000000e+01,2.410000000000000000e+02,4.799999999999999822e-01,8.104881800000000000e+09
8.900000000000000000e+01,2.810000000000000000e+02,4.290000000000000000e+02,8.800000000000000000e+01,4.800000000000000000e+01,7.500000000000000000e+01,6.800000000000000000e+01,2.480000000000000000e+02,4.699999999999999734e-01,8.122855800000000000e+09
9.800000000000000000e+01,2.510000000000000000e+02,4.610000000000000000e+02,8.200000000000000000e+01,5.000000000000000000e+01,7.300000000000000000e+01,6.500000000000000000e+01,2.400000000000000000e+02,4.699999999999999734e-01,8.142102800000000000e+09
9.400000000000000000e+01,2.480000000000000000e+02,4.460000000000000000e+02,9.900000000000000000e+01,6.600000000000000000e+01,7.900000000000000000e+01,7.100000000000000000e+01,2.330000000000000000e+02,4.699999999999999734e-01,8.164303100000000000e+09
8.000000000000000000e+01,2.350000000000000000e+02,4.660000000000000000e+02,9.800000000000000000e+01,6.500000000000000000e+01,8.600000000000000000e+01,6.700000000000000000e+01,2.250000000000000000e+02,4.699999999999999734e-01,8.186544700000000000e+09
7.400000000000000000e+01,1.870000000000000000e+02,4.330000000000000000e+02,1.020000000000000000e+02,8.100000000000000000e+01,8.400000000000000000e+01,6.800000000000000000e+01,1.960000000000000000e+02,4.799999999999999822e-01,8.204759700000000000e+09
6.400000000000000000e+01,1.760000000000000000e+02,4.240000000000000000e+02,1.010000000000000000e+02,8.000000000000000000e+01,7.400000000000000000e+01,7.800000000000000000e+01,1.770000000000000000e+02,4.799999999999999822e-01,8.222682300000000000e+09
8.200000000000000000e+01,2.000000000000000000e+02,4.010000000000000000e+02,1.030000000000000000e+02,7.900000000000000000e+01,7.700000000000000000e+01,7.900000000000000000e+01,1.760000000000000000e+02,4.799999999999999822e-01,8.242090000000000000e+09
8.900000000000000000e+01,2.280000000000000000e+02,4.320000000000000000e+02,9.400000000000000000e+01,7.000000000000000000e+01,7.400000000000000000e+01,8.300000000000000000e+01,2.190000000000000000e+02,4.799999999999999822e-01,8.264384200000000000e+09
9.200000000000000000e+01,2.540000000000000000e+02,4.140000000000000000e+02,8.600000000000000000e+01,7.200000000000000000e+01,6.500000000000000000e+01,8.100000000000000000e+01,2.070000000000000000e+02,4.799999999999999822e-01,8.286568100000000000e+09
1.010000000000000000e+02,2.600000000000000000e+02,4.400000000000000000e+02,8.400000000000000000e+01,5.300000000000000000e+01,5.900000000000000000e+01,7.200000000000000000e+01,1.850000000000000000e+02,4.899999999999999911e-01,8.304203000000000000e+09
1.040000000000000000e+02,2.480000000000000000e+02,4.310000000000000000e+02,8.600000000000000000e+01,5.300000000000000000e+01,8.300000000000000000e+01,6.400000000000000000e+01,1.720000000000000000e+02,4.899999999999999911e-01,8.322430500000000000e+09
8.500000000000000000e+01,2.190000000000000000e+02,4.030000000000000000e+02,8.600000000000000000e+01,5.700000000000000000e+01,1.070000000000000000e+02,7.600000000000000000e+01,1.560000000000000000e+02,4.899999999999999911e-01,8.342242200000000000e+09
8.100000000000000000e+01,1.720000000000000000e+02,3.940000000000000000e+02,7.700000000000000000e+01,5.300000000000000000e+01,1.540000000000000000e+02,7.500000000000000000e+01,1.390000000000000000e+02,4.899999999999999911e-01,8.364324000000000000e+09
1.040000000000000000e+02,1.430000000000000000e+02,4.200000000000000000e+02,8.800000000000000000e+01,5.800000000000000000e+01,1.590000000000000000e+02,9.200000000000000000e+01,1.780000000000000000e+02,4.899999999999999911e-01,8.386489600000000000e+09
9.700000000000000000e+01,1.230000000000000000e+02,4.230000000000000000e+02,8.800000000000000000e+01,6.200000000000000000e+01,1.700000000000000000e+02,1.060000000000000000e+02,1.920000000000000000e+02,4.899999999999999911e-01,8.404222300000000000e+09
9.800000000000000000e+01,1.180000000000000000e+02,4.360000000000000000e+02,8.800000000000000000e+01,6.400000000000000000e+01,1.720000000000000000e+02,1.090000000000000000e+02,1.980000000000000000e+02,4.899999999999999911e-01,8.424578600000000000e+09
9.300000000000000000e+01,1.210000000000000000e+02,4.770000000000000000e+02,8.700000000000000000e+01,6.400000000000000000e+01,1.610000000000000000e+02,1.020000000000000000e+02,2.600000000000000000e+02,4.899999999999999911e-01,8.442977500000000000e+09
9.900000000000000000e+01,1.450000000000000000e+02,4.570000000000000000e+02,8.500000000000000000e+01,6.700000000000000000e+01,1.200000000000000000e+02,1.030000000000000000e+02,2.680000000000000000e+02,4.899999999999999911e-01,8.464357000000000000e+09
7.400000000000000000e+01,1.410000000000000000e+02,3.930000000000000000e+02,7.700000000000000000e+01,6.500000000000000000e+01,1.180000000000000000e+02,9.000000000000000000e+01,2.460000000000000000e+02,4.899999999999999911e-01,8.486475900000000000e+09
7.000000000000000000e+01,1.610000000000000000e+02,3.490000000000000000e+02,7.300000000000000000e+01,6.300000000000000000e+01,1.100000000000000000e+02,9.600000000000000000e+01,2.420000000000000000e+02,4.799999999999999822e-01,8.505293400000000000e+09
7.300000000000000000e+01,1.640000000000000000e+02,4.630000000000000000e+02,6.600000000000000000e+01,6.000000000000000000e+01,8.600000000000000000e+01,8.900000000000000000e+01,2.510000000000000000e+02,4.799999999999999822e-01,8.523629000000000000e+09
7.300000000000000000e+01,1.790000000000000000e+02,4.560000000000000000e+02,7.500000000000000000e+01,6.200000000000000000e+01,7.900000000000000000e+01,8.900000000000000000e+01,2.400000000000000000e+02,4.699999999999999734e-01,8.542014300000000000e+09
5.500000000000000000e+01,1.610000000000000000e+02,4.440000000000000000e+02,8.200000000000000000e+01,5.800000000000000000e+01,7.700000000000000000e+01,8.000000000000000000e+01,2.120000000000000000e+02,4.699999999999999734e-01,8.564205200000000000e+09
7.300000000000000000e+01,1.560000000000000000e+02,4.730000000000000000e+02,7.700000000000000000e+01,5.900000000000000000e+01,1.020000000000000000e+02,8.500000000000000000e+01,2.120000000000000000e+02,4.600000000000000200e-01,8.586606400000000000e+09
7.200000000000000000e+01,1.360000000000000000e+02,5.070000000000000000e+02,1.030000000000000000e+02,5.900000000000000000e+01,9.300000000000000000e+01,6.300000000000000000e+01,2.080000000000000000e+02,4.600000000000000200e-01,8.604631400000000000e+09
6.600000000000000000e+01,1.530000000000000000e+02,3.970000000000000000e+02,1.070000000000000000e+02,5.500000000000000000e+01,9.200000000000000000e+01,6.100000000000000000e+01,2.230000000000000000e+02,4.500000000000000111e-01,8.622313700000000000e+09
6.500000000000000000e+01,1.360000000000000000e+02,3.740000000000000000e+02,9.400000000000000000e+01,4.900000000000000000e+01,9.100000000000000000e+01,5.700000000000000000e+01,1.790000000000000000e+02,4.500000000000000111e-01,8.641905700000000000e+09
6.800000000000000000e+01,1.370000000000000000e+02,3.920000000000000000e+02,9.100000000000000000e+01,4.600000000000000000e+01,8.800000000000000000e+01,6.700000000000000000e+01,1.900000000000000000e+02,4.600000000000000200e-01,8.664092900000000000e+09
5.000000000000000000e+01,1.200000000000000000e+02,3.760000000000000000e+02,9.100000000000000000e+01,4.200000000000000000e+01,4.700000000000000000e+01,5.600000000000000000e+01,1.840000000000000000e+02,4.600000000000000200e-01,8.686281800000000000e+09
6.100000000000000000e+01,1.410000000000000000e+02,3.550000000000000000e+02,6.600000000000000000e+01,3.500000000000000000e+01,4.500000000000000000e+01,5.200000000000000000e+01,1.900000000000000000e+02,4.600000000000000200e-01,8.704272200000000000e+09
6.100000000000000000e+01,1.590000000000000000e+02,3.390000000000000000e+02,6.100000000000000000e+01,3.400000000000000000e+01,4.900000000000000000e+01,5.300000000000000000e+01,2.060000000000000000e+02,4.699999999999999734e-01,8.723176400000000000e+09
6.000000000000000000e+01,1.570000000000000000e+02,3.780000000000000000e+02,6.100000000000000000e+01,3.400000000000000000e+01,5.600000000000000000e+01,6.000000000000000000e+01,2.050000000000000000e+02,4.699999999999999734e-01,8.741885600000000000e+09
6.000000000000000000e+01,1.550000000000000000e+02,4.130000000000000000e+02,6.000000000000000000e+01,3.800000000000000000e+01,6.000000000000000000e+01,5.300000000000000000e+01,1.850000000000000000e+02,4.799999999999999822e-01,8.764050000000000000e+09
8.000000000000000000e+01,1.640000000000000000e+02,4.400000000000000000e+02,6.300000000000000000e+01,3.300000000000000000e+01,5.900000000000000000e+01,5.900000000000000000e+01,1.890000000000000000e+02,4.799999999999999822e-01,8.786207300000000000e+09
7.200000000000000000e+01,1.420000000000000000e+02,4.500000000000000000e+02,6.900000000000000000e+01,3.700000000000000000e+01,8.000000000000000000e+01,6.300000000000000000e+01,1.800000000000000000e+02,4.799999999999999822e-01,8.803939200000000000e+09
7.000000000000000000e+01,1.110000000000000000e+02,4.600000000000000000e+02,6.500000000000000000e+01,3.900000000000000000e+01,7.500000000000000000e+01,6.200000000000000000e+01,1.620000000000000000e+02,4.899999999999999911e-01,8.821931500000000000e+09
7.100000000000000000e+01,1.080000000000000000e+02,4.160000000000000000e+02,6.800000000000000000e+01,3.800000000000000000e+01,7.900000000000000000e+01,5.500000000000000000e+01,1.570000000000000000e+02,4.899999999999999911e-01,8.841805700000000000e+09
6.900000000000000000e+01,1.030000000000000000e+02,4.880000000000000000e+02,6.800000000000000000e+01,4.500000000000000000e+01,8.000000000000000000e+01,5.300000000000000000e+01,1.570000000000000000e+02,4.899999999999999911e-01,8.864120300000000000e+09
4.600000000000000000e+01,1.000000000000000000e+02,4.760000000000000000e+02,6.600000000000000000e+01,5.300000000000000000e+01,8.100000000000000000e+01,5.100000000000000000e+01,1.640000000000000000e+02,4.899999999999999911e-01,8.886255400000000000e+09
4.700000000000000000e+01,1.150000000000000000e+02,4.490000000000000000e+02,5.600000000000000000e+01,5.100000000000000000e+01,6.300000000000000000e+01,7.400000000000000000e+01,2.730000000000000000e+02,4.799999999999999822e-01,8.903657500000000000e+09
4.700000000000000000e+01,1.050000000000000000e+02,4.210000000000000000e+02,5.800000000000000000e+01,4.900000000000000000e+01,6.900000000000000000e+01,7.500000000000000000e+01,2.540000000000000000e+02,4.799999999999999822e-01,8.921962300000000000e+09
4.400000000000000000e+01,1.010000000000000000e+02,4.280000000000000000e+02,6.200000000000000000e+01,5.000000000000000000e+01,5.900000000000000000e+01,7.700000000000000000e+01,2.500000000000000000e+02,4.699999999999999734e-01,8.941832200000000000e+09
5.200000000000000000e+01,1.040000000000000000e+02,3.170000000000000000e+02,6.200000000000000000e+01,4.400000000000000000e+01,6.800000000000000000e+01,9.700000000000000000e+01,2.760000000000000000e+02,4.699999999999999734e-01,8.963935600000000000e+09
7.200000000000000000e+01,1.160000000000000000e+02,2.690000000000000000e+02,7.300000000000000000e+01,4.200000000000000000e+01,6.800000000000000000e+01,9.900000000000000000e+01,2.850000000000000000e+02,4.600000000000000200e-01,8.986176200000000000e+09
7.300000000000000000e+01,1.560000000000000000e+02,3.220000000000000000e+02,7.200000000000000000e+01,4.200000000000000000e+01,8.000000000000000000e+01,8.000000000000000000e+01,1.940000000000000000e+02,4.600000000000000200e-01,9.003705400000000000e+09
7.200000000000000000e+01,1.600000000000000000e+02,3.570000000000000000e+02,7.800000000000000000e+01,4.700000000000000000e+01,7.700000000000000000e+01,8.300000000000000000e+01,2.060000000000000000e+02,4.600000000000000200e-01,9.022112500000000000e+09
7.500000000000000000e+01,1.660000000000000000e+02,3.770000000000000000e+02,8.000000000000000000e+01,5.100000000000000000e+01,8.600000000000000000e+01,9.400000000000000000e+01,2.200000000000000000e+02,4.600000000000000200e-01,9.041764200000000000e+09
8.200000000000000000e+01,2.160000000000000000e+02,3.770000000000000000e+02,8.700000000000000000e+01,5.400000000000000000e+01,1.030000000000000000e+02,7.500000000000000000e+01,2.070000000000000000e+02,4.600000000000000200e-01,9.063880600000000000e+09
6.600000000000000000e+01,2.420000000000000000e+02,4.170000000000000000e+02,8.100000000000000000e+01,5.000000000000000000e+01,1.190000000000000000e+02,7.300000000000000000e+01,1.940000000000000000e+02,4.600000000000000200e-01,9.086086900000000000e+09
7.500000000000000000e+01,2.300000000000000000e+02,4.140000000000000000e+02,9.600000000000000000e+01,5.800000000000000000e+01,1.190000000000000000e+02,7.700000000000000000e+01,2.590000000000000000e+02,4.500000000000000111e-01,9.103793200000000000e+09
7.600000000000000000e+01,2.320000000000000000e+02,4.110000000000000000e+02,9.200000000000000000e+01,5.800000000000000000e+01,1.210000000000000000e+02,8.000000000000000000e+01,2.510000000000000000e+02,4.500000000000000111e-01,9.121494700000000000e+09
7.600000000000000000e+01,2.330000000000000000e+02,4.960000000000000000e+02,8.900000000000000000e+01,5.400000000000000000e+01,1.180000000000000000e+02,6.400000000000000000e+01,2.390000000000000000e+02,4.500000000000000111e-01,9.141661100000000000e+09
7.600000000000000000e+01,1.980000000000000000e+02,4.860000000000000000e+02,8.400000000000000000e+01,5.200000000000000000e+01,1.000000000000000000e+02,6.300000000000000000e+01,2.380000000000000000e+02,4.500000000000000111e-01,9.163854300000000000e+09
7.300000000000000000e+01,1.730000000000000000e+02,4.570000000000000000e+02,8.700000000000000000e+01,5.100000000000000000e+01,8.600000000000000000e+01,6.500000000000000000e+01,2.300000000000000000e+02,4.600000000000000200e-01,9.186183200000000000e+09
6.200000000000000000e+01,1.600000000000000000e+02,4.340000000000000000e+02,7.100000000000000000e+01,4.300000000000000000e+01,8.300000000000000000e+01,6.400000000000000000e+01,1.640000000000000000e+02,4.699999999999999734e-01,9.203721400000000000e+09
7.200000000000000000e+01,1.540000000000000000e+02,4.220000000000000000e+02,7.600000000000000000e+01,3.700000000000000000e+01,1.010000000000000000e+02,5.500000000000000000e+01,1.690000000000000000e+02,4.699999999999999734e-01,9.221481600000000000e+09
9.200000000000000000e+01,1.660000000000000000e+02,3.750000000000000000e+02,7.900000000000000000e+01,3.900000000000000000e+01,1.020000000000000000e+02,5.700000000000000000e+01,2.250000000000000000e+02,4.799999999999999822e-01,9.241596600000000000e+09
9.200000000000000000e+01,1.810000000000000000e+02,3.960000000000000000e+02,8.300000000000000000e+01,3.700000000000000000e+01,1.000000000000000000e+02,7.800000000000000000e+01,2.300000000000000000e+02,4.799999999999999822e-01,9.264009400000000000e+09
9.900000000000000000e+01,1.670000000000000000e+02,4.310000000000000000e+02,9.400000000000000000e+01,4.900000000000000000e+01,9.800000000000000000e+01,7.700000000000000000e+01,2.650000000000000000e+02,4.799999999999999822e-01,9.286046300000000000e+09
1.020000000000000000e+02,1.630000000000000000e+02,4.460000000000000000e+02,9.400000000000000000e+01,5.000000000000000000e+01,9.100000000000000000e+01,7.500000000000000000e+01,2.800000000000000000e+02,4.799999999999999822e-01,9.303941800000000000e+09
1.010000000000000000e+02,1.640000000000000000e+02,4.570000000000000000e+02,8.800000000000000000e+01,5.300000000000000000e+01,6.800000000000000000e+01,7.400000000000000000e+01,2.990000000000000000e+02,4.699999999999999734e-01,9.322201700000000000e+09
1.110000000000000000e+02,1.680000000000000000e+02,4.280000000000000000e+02,9.100000000000000000e+01,5.400000000000000000e+01,6.100000000000000000e+01,7.900000000000000000e+01,2.710000000000000000e+02,4.799999999999999822e-01,9.341703800000000000e+09
1.090000000000000000e+02,1.710000000000000000e+02,4.250000000000000000e+02,8.800000000000000000e+01,5.400000000000000000e+01,7.100000000000000000e+01,7.300000000000000000e+01,2.860000000000000000e+02,4.799999999999999822e-01,9.363902900000000000e+09
1.030000000000000000e+02,1.720000000000000000e+02,3.890000000000000000e+02,7.000000000000000000e+01,4.400000000000000000e+01,7.000000000000000000e+01,7.300000000000000000e+01,2.660000000000000000e+02,4.799999999999999822e-01,9.386003100000000000e+09
1.020000000000000000e+02,1.650000000000000000e+02,3.580000000000000000e+02,7.200000000000000000e+01,4.300000000000000000e+01,6.700000000000000000e+01,7.300000000000000000e+01,2.460000000000000000e+02,4.799999999999999822e-01,9.408164600000000000e+09
9.700000000000000000e+01,1.700000000000000000e+02,3.920000000000000000e+02,7.100000000000000000e+01,3.700000000000000000e+01,6.200000000000000000e+01,7.700000000000000000e+01,2.170000000000000000e+02,4.799999999999999822e-01,9.425761400000000000e+09
6.500000000000000000e+01,1.500000000000000000e+02,3.980000000000000000e+02,5.800000000000000000e+01,3.100000000000000000e+01,6.200000000000000000e+01,8.500000000000000000e+01,2.340000000000000000e+02,4.699999999999999734e-01,9.443682000000000000e+09
8.300000000000000000e+01,1.330000000000000000e+02,3.910000000000000000e+02,5.700000000000000000e+01,3.900000000000000000e+01,6.400000000000000000e+01,7.600000000000000000e+01,2.550000000000000000e+02,4.699999999999999734e-01,9.463854700000000000e+09
9.300000000000000000e+01,1.750000000000000000e+02,4.310000000000000000e+02,5.900000000000000000e+01,4.000000000000000000e+01,5.900000000000000000e+01,7.900000000000000000e+01,2.770000000000000000e+02,4.600000000000000200e-01,9.485964100000000000e+09
9.300000000000000000e+01,1.800000000000000000e+02,4.620000000000000000e+02,5.200000000000000000e+01,3.900000000000000000e+01,5.900000000000000000e+01,7.700000000000000000e+01,2.730000000000000000e+02,4.600000000000000200e-01,9.503317800000000000e+09
9.400000000000000000e+01,1.710000000000000000e+02,4.180000000000000000e+02,5.700000000000000000e+01,4.400000000000000000e+01,6.200000000000000000e+01,7.300000000000000000e+01,2.730000000000000000e+02,4.600000000000000200e-01,9.521692700000000000e+09
9.100000000000000000e+01,1.810000000000000000e+02,3.760000000000000000e+02,5.700000000000000000e+01,4.700000000000000000e+01,6.700000000000000000e+01,7.200000000000000000e+01,2.610000000000000000e+02,4.500000000000000111e-01,9.541542300000000000e+09
7.400000000000000000e+01,1.680000000000000000e+02,4.770000000000000000e+02,5.400000000000000000e+01,4.300000000000000000e+01,4.700000000000000000e+01,6.800000000000000000e+01,2.210000000000000000e+02,4.500000000000000111e-01,9.563745400000000000e+09
9.100000000000000000e+01,1.570000000000000000e+02,5.460000000000000000e+02,7.100000000000000000e+01,4.600000000000000000e+01,7.700000000000000000e+01,7.500000000000000000e+01,2.300000000000000000e+02,4.500000000000000111e-01,9.585948400000000000e+09
9.200000000000000000e+01,1.600000000000000000e+02,5.450000000000000000e+02,7.100000000000000000e+01,4.700000000000000000e+01,7.700000000000000000e+01,8.300000000000000000e+01,2.530000000000000000e+02,4.500000000000000111e-01,9.608207100000000000e+09
9.000000000000000000e+01,1.620000000000000000e+02,5.530000000000000000e+02,7.600000000000000000e+01,4.800000000000000000e+01,7.800000000000000000e+01,9.300000000000000000e+01,2.520000000000000000e+02,4.500000000000000111e-01,9.625846000000000000e+09
9.600000000000000000e+01,1.460000000000000000e+02,5.750000000000000000e+02,8.500000000000000000e+01,5.000000000000000000e+01,7.500000000000000000e+01,8.800000000000000000e+01,2.410000000000000000e+02,4.500000000000000111e-01,9.643970600000000000e+09
9.500000000000000000e+01,1.560000000000000000e+02,5.120000000000000000e+02,9.100000000000000000e+01,4.500000000000000000e+01,7.400000000000000000e+01,8.600000000000000000e+01,2.430000000000000000e+02,4.500000000000000111e-01,9.663856600000000000e+09
6.600000000000000000e+01,1.130000000000000000e+02,4.360000000000000000e+02,7.900000000000000000e+01,4.000000000000000000e+01,6.900000000000000000e+01,7.500000000000000000e+01,2.490000000000000000e+02,4.500000000000000111e-01,9.685885000000000000e+09
7.800000000000000000e+01,1.070000000000000000e+02,4.420000000000000000e+02,8.400000000000000000e+01,4.000000000000000000e+01,7.200000000000000000e+01,7.600000000000000000e+01,2.230000000000000000e+02,4.500000000000000111e-01,9.708167900000000000e+09
8.600000000000000000e+01,1.190000000000000000e+02,4.400000000000000000e+02,7.600000000000000000e+01,3.500000000000000000e+01,7.200000000000000000e+01,6.000000000000000000e+01,2.210000000000000000e+02,4.500000000000000111e-01,9.726058200000000000e+09
8.700000000000000000e+01,1.320000000000000000e+02,4.030000000000000000e+02,7.400000000000000000e+01,3.300000000000000000e+01,7.100000000000000000e+01,5.200000000000000000e+01,2.320000000000000000e+02,4.500000000000000111e-01,9.743660800000000000e+09
1.040000000000000000e+02,1.300000000000000000e+02,3.610000000000000000e+02,6.300000000000000000e+01,3.400000000000000000e+01,7.300000000000000000e+01,5.200000000000000000e+01,3.620000000000000000e+02,4.500000000000000111e-01,9.763620300000000000e+09
1.100000000000000000e+02,1.310000000000000000e+02,3.020000000000000000e+02,6.000000000000000000e+01,3.500000000000000000e+01,4.800000000000000000e+01,5.700000000000000000e+01,3.490000000000000000e+02,4.500000000000000111e-01,9.785878600000000000e+09
1.180000000000000000e+02,1.300000000000000000e+02,2.610000000000000000e+02,6.100000000000000000e+01,3.400000000000000000e+01,4.500000000000000000e+01,6.600000000000000000e+01,3.620000000000000000e+02,4.500000000000000111e-01,9.808049300000000000e+09
1.260000000000000000e+02,1.540000000000000000e+02,2.390000000000000000e+02,7.500000000000000000e+01,4.100000000000000000e+01,4.200000000000000000e+01,6.700000000000000000e+01,3.990000000000000000e+02,4.500000000000000111e-01,9.825542900000000000e+09
1.260000000000000000e+02,1.570000000000000000e+02,3.250000000000000000e+02,6.800000000000000000e+01,4.000000000000000000e+01,4.000000000000000000e+01,6.900000000000000000e+01,3.980000000000000000e+02,4.500000000000000111e-01,9.843751200000000000e+09
1.100000000000000000e+02,1.500000000000000000e+02,3.290000000000000000e+02,6.800000000000000000e+01,3.800000000000000000e+01,4.600000000000000000e+01,7.100000000000000000e+01,3.310000000000000000e+02,4.500000000000000111e-01,9.863580000000000000e+09
1.060000000000000000e+02,1.500000000000000000e+02,3.510000000000000000e+02,7.200000000000000000e+01,3.800000000000000000e+01,6.100000000000000000e+01,6.400000000000000000e+01,3.140000000000000000e+02,4.500000000000000111e-01,9.885843300000000000e+09
8.700000000000000000e+01,1.500000000000000000e+02,3.650000000000000000e+02,7.300000000000000000e+01,4.500000000000000000e+01,5.700000000000000000e+01,5.600000000000000000e+01,3.020000000000000000e+02,4.500000000000000111e-01,9.908024200000000000e+09
7.300000000000000000e+01,1.710000000000000000e+02,4.300000000000000000e+02,5.700000000000000000e+01,3.800000000000000000e+01,5.500000000000000000e+01,5.700000000000000000e+01,2.590000000000000000e+02,4.500000000000000111e-01,9.925983900000000000e+09
7.300000000000000000e+01,1.750000000000000000e+02,3.660000000000000000e+02,5.800000000000000000e+01,4.000000000000000000e+01,5.700000000000000000e+01,5.400000000000000000e+01,3.370000000000000000e+02,4.400000000000000022e-01,9.943958400000000000e+09
8.400000000000000000e+01,2.250000000000000000e+02,3.800000000000000000e+02,6.300000000000000000e+01,4.200000000000000000e+01,5.400000000000000000e+01,6.900000000000000000e+01,3.310000000000000000e+02,4.400000000000000022e-01,9.963554000000000000e+09
7.800000000000000000e+01,2.230000000000000000e+02,3.920000000000000000e+02,6.300000000000000000e+01,4.100000000000000000e+01,6.800000000000000000e+01,7.300000000000000000e+01,3.300000000000000000e+02,4.299999999999999933e-01,9.985819600000000000e+09
8.200000000000000000e+01,2.260000000000000000e+02,4.100000000000000000e+02,5.400000000000000000e+01,3.600000000000000000e+01,7.100000000000000000e+01,6.300000000000000000e+01,3.360000000000000000e+02,4.299999999999999933e-01,1.000790550000000000e+10
8.800000000000000000e+01,1.860000000000000000e+02,3.820000000000000000e+02,5.700000000000000000e+01,3.500000000000000000e+01,7.500000000000000000e+01,6.400000000000000000e+01,3.430000000000000000e+02,4.299999999999999933e-01,1.002528470000000000e+10
1.080000000000000000e+02,2.020000000000000000e+02,4.140000000000000000e+02,6.300000000000000000e+01,3.700000000000000000e+01,7.900000000000000000e+01,6.800000000000000000e+01,3.330000000000000000e+02,4.299999999999999933e-01,1.004298100000000000e+10
1.040000000000000000e+02,1.560000000000000000e+02,4.020000000000000000e+02,6.300000000000000000e+01,3.700000000000000000e+01,8.200000000000000000e+01,5.700000000000000000e+01,2.770000000000000000e+02,4.299999999999999933e-01,1.006357050000000000e+10
1.070000000000000000e+02,1.550000000000000000e+02,3.970000000000000000e+02,5.700000000000000000e+01,3.600000000000000000e+01,6.000000000000000000e+01,5.100000000000000000e+01,2.720000000000000000e+02,4.299999999999999933e-01,1.008569180000000000e+10
1.160000000000000000e+02,1.560000000000000000e+02,3.940000000000000000e+02,6.400000000000000000e+01,3.600000000000000000e+01,7.500000000000000000e+01,5.200000000000000000e+01,2.720000000000000000e+02,4.299999999999999933e-01,1.010799880000000000e+10
1.140000000000000000e+02,1.850000000000000000e+02,3.890000000000000000e+02,7.100000000000000000e+01,3.800000000000000000e+01,7.700000000000000000e+01,5.400000000000000000e+01,2.670000000000000000e+02,4.299999999999999933e-01,1.012548250000000000e+10
9.200000000000000000e+01,1.840000000000000000e+02,3.660000000000000000e+02,6.700000000000000000e+01,3.500000000000000000e+01,7.300000000000000000e+01,5.600000000000000000e+01,2.010000000000000000e+02,4.299999999999999933e-01,1.014430950000000000e+10
