4.200000000000000000e+01,6.200000000000000000e+01,3.090000000000000000e+02,9.300000000000000000e+01,2.700000000000000000e+01,2.200000000000000000e+01,2.300000000000000000e+01,2.900000000000000000e+01,6.099999999999999867e-01,4.779588000000000000e+08
3.900000000000000000e+01,6.200000000000000000e+01,3.410000000000000000e+02,9.700000000000000000e+01,2.900000000000000000e+01,2.200000000000000000e+01,2.500000000000000000e+01,3.500000000000000000e+01,6.099999999999999867e-01,5.076072000000000000e+08
3.600000000000000000e+01,6.100000000000000000e+01,2.970000000000000000e+02,9.800000000000000000e+01,2.700000000000000000e+01,2.100000000000000000e+01,2.200000000000000000e+01,3.200000000000000000e+01,6.099999999999999867e-01,8.065118000000000000e+08
4.100000000000000000e+01,7.800000000000000000e+01,3.490000000000000000e+02,1.060000000000000000e+02,3.000000000000000000e+01,2.300000000000000000e+01,2.100000000000000000e+01,3.400000000000000000e+01,6.099999999999999867e-01,8.232614000000000000e+08
3.900000000000000000e+01,6.800000000000000000e+01,3.410000000000000000e+02,1.090000000000000000e+02,2.900000000000000000e+01,2.300000000000000000e+01,2.100000000000000000e+01,3.600000000000000000e+01,6.099999999999999867e-01,8.401807000000000000e+08
3.800000000000000000e+01,6.800000000000000000e+01,3.820000000000000000e+02,9.500000000000000000e+01,2.800000000000000000e+01,2.400000000000000000e+01,2.200000000000000000e+01,3.500000000000000000e+01,6.099999999999999867e-01,8.568411000000000000e+08
3.500000000000000000e+01,6.700000000000000000e+01,3.520000000000000000e+02,9.200000000000000000e+01,2.700000000000000000e+01,2.400000000000000000e+01,2.100000000000000000e+01,3.100000000000000000e+01,6.099999999999999867e-01,8.734896000000000000e+08
4.400000000000000000e+01,7.000000000000000000e+01,3.650000000000000000e+02,8.300000000000000000e+01,2.600000000000000000e+01,2.500000000000000000e+01,2.100000000000000000e+01,5.200000000000000000e+01,6.099999999999999867e-01,8.902588000000000000e+08
4.600000000000000000e+01,5.500000000000000000e+01,2.980000000000000000e+02,9.000000000000000000e+01,2.500000000000000000e+01,2.500000000000000000e+01,2.100000000000000000e+01,5.200000000000000000e+01,5.999999999999999778e-01,9.062894000000000000e+08
5.000000000000000000e+01,5.400000000000000000e+01,3.750000000000000000e+02,8.600000000000000000e+01,2.300000000000000000e+01,2.500000000000000000e+01,2.100000000000000000e+01,5.000000000000000000e+01,6.099999999999999867e-01,9.222281000000000000e+08
5.000000000000000000e+01,5.200000000000000000e+01,3.160000000000000000e+02,8.900000000000000000e+01,2.300000000000000000e+01,2.400000000000000000e+01,1.900000000000000000e+01,5.000000000000000000e+01,5.999999999999999778e-01,9.386290000000000000e+08
5.100000000000000000e+01,5.500000000000000000e+01,3.380000000000000000e+02,1.020000000000000000e+02,2.600000000000000000e+01,2.500000000000000000e+01,2.000000000000000000e+01,5.000000000000000000e+01,5.999999999999999778e-01,9.548255000000000000e+08
4.200000000000000000e+01,5.300000000000000000e+01,3.150000000000000000e+02,1.150000000000000000e+02,2.800000000000000000e+01,2.600000000000000000e+01,2.000000000000000000e+01,3.100000000000000000e+01,5.999999999999999778e-01,9.725845000000000000e+08
3.800000000000000000e+01,5.100000000000000000e+01,3.170000000000000000e+02,1.160000000000000000e+02,2.800000000000000000e+01,2.600000000000000000e+01,2.100000000000000000e+01,3.000000000000000000e+01,5.999999999999999778e-01,9.890799000000000000e+08
3.600000000000000000e+01,5.400000000000000000e+01,2.250000000000000000e+02,1.150000000000000000e+02,3.000000000000000000e+01,2.600000000000000000e+01,2.300000000000000000e+01,3.100000000000000000e+01,5.999999999999999778e-01,1.005850500000000000e+09
3.600000000000000000e+01,5.800000000000000000e+01,2.390000000000000000e+02,1.240000000000000000e+02,3.100000000000000000e+01,2.700000000000000000e+01,2.300000000000000000e+01,3.100000000000000000e+01,5.999999999999999778e-01,1.022394000000000000e+09
3.400000000000000000e+01,5.700000000000000000e+01,2.270000000000000000e+02,1.130000000000000000e+02,2.900000000000000000e+01,2.700000000000000000e+01,2.200000000000000000e+01,2.900000000000000000e+01,5.999999999999999778e-01,1.041586100000000000e+09
3.600000000000000000e+01,6.600000000000000000e+01,2.410000000000000000e+02,1.000000000000000000e+02,2.700000000000000000e+01,2.600000000000000000e+01,2.400000000000000000e+01,2.700000000000000000e+01,5.999999999999999778e-01,1.059376500000000000e+09
3.600000000000000000e+01,6.500000000000000000e+01,2.930000000000000000e+02,9.600000000000000000e+01,2.600000000000000000e+01,2.400000000000000000e+01,2.400000000000000000e+01,2.800000000000000000e+01,5.999999999999999778e-01,1.077463500000000000e+09
1.930000000000000000e+02,6.300000000000000000e+01,2.940000000000000000e+02,1.070000000000000000e+02,2.500000000000000000e+01,2.500000000000000000e+01,2.400000000000000000e+01,2.900000000000000000e+01,5.899999999999999689e-01,1.095087200000000000e+09
3.170000000000000000e+02,6.700000000000000000e+01,3.210000000000000000e+02,9.300000000000000000e+01,2.300000000000000000e+01,2.500000000000000000e+01,2.400000000000000000e+01,2.900000000000000000e+01,5.999999999999999778e-01,1.111117800000000000e+09
3.490000000000000000e+02,6.800000000000000000e+01,3.650000000000000000e+02,9.200000000000000000e+01,2.200000000000000000e+01,2.400000000000000000e+01,2.500000000000000000e+01,2.900000000000000000e+01,5.999999999999999778e-01,1.127510300000000000e+09
3.630000000000000000e+02,7.400000000000000000e+01,3.930000000000000000e+02,1.050000000000000000e+02,2.800000000000000000e+01,2.700000000000000000e+01,2.300000000000000000e+01,3.000000000000000000e+01,5.999999999999999778e-01,1.144496900000000000e+09
3.660000000000000000e+02,7.800000000000000000e+01,4.120000000000000000e+02,1.050000000000000000e+02,2.900000000000000000e+01,2.800000000000000000e+01,2.300000000000000000e+01,3.700000000000000000e+01,5.999999999999999778e-01,1.160978200000000000e+09
3.170000000000000000e+02,7.800000000000000000e+01,4.300000000000000000e+02,9.500000000000000000e+01,2.800000000000000000e+01,2.700000000000000000e+01,2.000000000000000000e+01,3.800000000000000000e+01,5.999999999999999778e-01,1.178685000000000000e+09
1.920000000000000000e+02,7.400000000000000000e+01,4.360000000000000000e+02,9.700000000000000000e+01,2.900000000000000000e+01,2.600000000000000000e+01,2.000000000000000000e+01,4.800000000000000000e+01,5.999999999999999778e-01,1.196310800000000000e+09
1.300000000000000000e+02,7.000000000000000000e+01,3.920000000000000000e+02,1.070000000000000000e+02,2.800000000000000000e+01,2.600000000000000000e+01,2.000000000000000000e+01,5.500000000000000000e+01,5.999999999999999778e-01,1.212915100000000000e+09
8.900000000000000000e+01,7.200000000000000000e+01,3.680000000000000000e+02,9.500000000000000000e+01,2.500000000000000000e+01,2.200000000000000000e+01,2.200000000000000000e+01,6.600000000000000000e+01,5.999999999999999778e-01,1.229256300000000000e+09
7.800000000000000000e+01,6.700000000000000000e+01,3.490000000000000000e+02,8.700000000000000000e+01,2.600000000000000000e+01,2.100000000000000000e+01,2.300000000000000000e+01,6.200000000000000000e+01,6.099999999999999867e-01,1.246832800000000000e+09
6.100000000000000000e+01,6.900000000000000000e+01,3.440000000000000000e+02,8.800000000000000000e+01,2.500000000000000000e+01,2.000000000000000000e+01,2.300000000000000000e+01,6.200000000000000000e+01,6.099999999999999867e-01,1.264152800000000000e+09
6.900000000000000000e+01,7.400000000000000000e+01,3.310000000000000000e+02,9.200000000000000000e+01,2.600000000000000000e+01,2.100000000000000000e+01,2.100000000000000000e+01,8.800000000000000000e+01,6.099999999999999867e-01,1.282462800000000000e+09
6.700000000000000000e+01,8.700000000000000000e+01,3.440000000000000000e+02,1.020000000000000000e+02,3.100000000000000000e+01,2.400000000000000000e+01,2.300000000000000000e+01,8.700000000000000000e+01,6.099999999999999867e-01,1.299919500000000000e+09
5.900000000000000000e+01,7.300000000000000000e+01,3.390000000000000000e+02,1.170000000000000000e+02,3.100000000000000000e+01,2.300000000000000000e+01,2.200000000000000000e+01,8.000000000000000000e+01,6.099999999999999867e-01,1.317994900000000000e+09
6.200000000000000000e+01,7.100000000000000000e+01,3.550000000000000000e+02,1.140000000000000000e+02,3.100000000000000000e+01,2.400000000000000000e+01,2.100000000000000000e+01,8.400000000000000000e+01,6.099999999999999867e-01,1.338129200000000000e+09
6.100000000000000000e+01,6.700000000000000000e+01,3.310000000000000000e+02,1.070000000000000000e+02,3.100000000000000000e+01,2.600000000000000000e+01,2.100000000000000000e+01,8.200000000000000000e+01,6.099999999999999867e-01,1.356579000000000000e+09
4.900000000000000000e+01,6.100000000000000000e+01,3.030000000000000000e+02,1.030000000000000000e+02,3.000000000000000000e+01,2.600000000000000000e+01,2.200000000000000000e+01,4.500000000000000000e+01,6.099999999999999867e-01,1.373728400000000000e+09
4.100000000000000000e+01,5.500000000000000000e+01,2.970000000000000000e+02,9.400000000000000000e+01,2.700000000000000000e+01,2.600000000000000000e+01,2.200000000000000000e+01,4.200000000000000000e+01,5.999999999999999778e-01,1.391697500000000000e+09
4.500000000000000000e+01,7.100000000000000000e+01,2.980000000000000000e+02,9.800000000000000000e+01,2.800000000000000000e+01,2.600000000000000000e+01,2.100000000000000000e+01,3.900000000000000000e+01,5.999999999999999778e-01,1.410302800000000000e+09
4.000000000000000000e+01,7.400000000000000000e+01,2.990000000000000000e+02,9.900000000000000000e+01,2.500000000000000000e+01,2.600000000000000000e+01,2.100000000000000000e+01,3.000000000000000000e+01,5.999999999999999778e-01,1.428275300000000000e+09
4.100000000000000000e+01,7.500000000000000000e+01,3.040000000000000000e+02,9.900000000000000000e+01,2.500000000000000000e+01,2.500000000000000000e+01,2.200000000000000000e+01,4.700000000000000000e+01,5.999999999999999778e-01,1.445959600000000000e+09
4.300000000000000000e+01,7.500000000000000000e+01,3.110000000000000000e+02,9.900000000000000000e+01,2.500000000000000000e+01,2.400000000000000000e+01,2.200000000000000000e+01,5.400000000000000000e+01,5.899999999999999689e-01,1.462646400000000000e+09
4.600000000000000000e+01,6.800000000000000000e+01,3.250000000000000000e+02,1.070000000000000000e+02,2.800000000000000000e+01,2.300000000000000000e+01,2.100000000000000000e+01,5.600000000000000000e+01,5.899999999999999689e-01,1.479514300000000000e+09
4.100000000000000000e+01,5.600000000000000000e+01,3.380000000000000000e+02,8.300000000000000000e+01,2.500000000000000000e+01,2.300000000000000000e+01,2.200000000000000000e+01,5.700000000000000000e+01,5.899999999999999689e-01,1.496584800000000000e+09
4.100000000000000000e+01,5.500000000000000000e+01,3.060000000000000000e+02,8.400000000000000000e+01,2.600000000000000000e+01,2.400000000000000000e+01,2.200000000000000000e+01,6.000000000000000000e+01,5.899999999999999689e-01,1.513141900000000000e+09
4.000000000000000000e+01,6.000000000000000000e+01,2.920000000000000000e+02,8.800000000000000000e+01,2.600000000000000000e+01,2.500000000000000000e+01,2.100000000000000000e+01,4.800000000000000000e+01,5.899999999999999689e-01,1.530119200000000000e+09
4.300000000000000000e+01,6.900000000000000000e+01,3.080000000000000000e+02,1.190000000000000000e+02,3.200000000000000000e+01,2.700000000000000000e+01,2.600000000000000000e+01,4.000000000000000000e+01,5.899999999999999689e-01,1.546905600000000000e+09
4.200000000000000000e+01,7.700000000000000000e+01,3.310000000000000000e+02,1.180000000000000000e+02,2.700000000000000000e+01,2.600000000000000000e+01,2.500000000000000000e+01,5.000000000000000000e+01,5.899999999999999689e-01,1.565249400000000000e+09
4.400000000000000000e+01,7.500000000000000000e+01,3.160000000000000000e+02,1.180000000000000000e+02,2.900000000000000000e+01,2.800000000000000000e+01,2.500000000000000000e+01,5.500000000000000000e+01,5.899999999999999689e-01,1.583787900000000000e+09
4.100000000000000000e+01,6.800000000000000000e+01,2.940000000000000000e+02,1.190000000000000000e+02,2.800000000000000000e+01,2.600000000000000000e+01,2.400000000000000000e+01,5.300000000000000000e+01,5.899999999999999689e-01,1.602642100000000000e+09
4.400000000000000000e+01,8.300000000000000000e+01,3.360000000000000000e+02,1.330000000000000000e+02,2.900000000000000000e+01,2.700000000000000000e+01,2.600000000000000000e+01,5.400000000000000000e+01,5.899999999999999689e-01,1.619474400000000000e+09
4.600000000000000000e+01,7.800000000000000000e+01,3.340000000000000000e+02,1.090000000000000000e+02,2.400000000000000000e+01,2.500000000000000000e+01,2.200000000000000000e+01,5.700000000000000000e+01,5.899999999999999689e-01,1.636885600000000000e+09
5.100000000000000000e+01,7.000000000000000000e+01,2.950000000000000000e+02,9.200000000000000000e+01,2.300000000000000000e+01,2.700000000000000000e+01,2.100000000000000000e+01,6.200000000000000000e+01,5.899999999999999689e-01,1.653858900000000000e+09
5.100000000000000000e+01,7.500000000000000000e+01,3.180000000000000000e+02,1.000000000000000000e+02,2.300000000000000000e+01,2.600000000000000000e+01,2.400000000000000000e+01,5.700000000000000000e+01,5.899999999999999689e-01,1.671077900000000000e+09
5.500000000000000000e+01,8.200000000000000000e+01,3.060000000000000000e+02,1.250000000000000000e+02,2.700000000000000000e+01,2.700000000000000000e+01,2.400000000000000000e+01,6.200000000000000000e+01,5.899999999999999689e-01,1.688411800000000000e+09
5.200000000000000000e+01,6.900000000000000000e+01,3.270000000000000000e+02,1.150000000000000000e+02,2.700000000000000000e+01,2.600000000000000000e+01,2.200000000000000000e+01,6.100000000000000000e+01,5.899999999999999689e-01,1.706132400000000000e+09
4.800000000000000000e+01,6.600000000000000000e+01,3.340000000000000000e+02,1.130000000000000000e+02,2.700000000000000000e+01,2.600000000000000000e+01,2.300000000000000000e+01,6.000000000000000000e+01,5.899999999999999689e-01,1.726072600000000000e+09
4.400000000000000000e+01,6.500000000000000000e+01,3.660000000000000000e+02,1.270000000000000000e+02,2.900000000000000000e+01,2.800000000000000000e+01,2.400000000000000000e+01,4.700000000000000000e+01,5.999999999999999778e-01,1.744703000000000000e+09
4.700000000000000000e+01,6.400000000000000000e+01,3.350000000000000000e+02,1.210000000000000000e+02,2.800000000000000000e+01,2.600000000000000000e+01,2.200000000000000000e+01,5.500000000000000000e+01,5.999999999999999778e-01,1.762205400000000000e+09
4.700000000000000000e+01,6.100000000000000000e+01,3.590000000000000000e+02,9.400000000000000000e+01,2.500000000000000000e+01,2.500000000000000000e+01,2.300000000000000000e+01,5.400000000000000000e+01,5.999999999999999778e-01,1.779238200000000000e+09
4.700000000000000000e+01,5.700000000000000000e+01,3.490000000000000000e+02,8.400000000000000000e+01,2.400000000000000000e+01,2.500000000000000000e+01,2.500000000000000000e+01,5.600000000000000000e+01,5.999999999999999778e-01,1.795582100000000000e+09
5.100000000000000000e+01,6.600000000000000000e+01,3.410000000000000000e+02,8.600000000000000000e+01,2.400000000000000000e+01,2.500000000000000000e+01,2.400000000000000000e+01,5.600000000000000000e+01,5.999999999999999778e-01,1.813344800000000000e+09
5.000000000000000000e+01,6.500000000000000000e+01,3.410000000000000000e+02,8.200000000000000000e+01,2.300000000000000000e+01,2.100000000000000000e+01,2.400000000000000000e+01,5.300000000000000000e+01,5.999999999999999778e-01,1.830479700000000000e+09
5.400000000000000000e+01,6.400000000000000000e+01,3.410000000000000000e+02,1.020000000000000000e+02,2.500000000000000000e+01,2.700000000000000000e+01,2.600000000000000000e+01,6.200000000000000000e+01,5.999999999999999778e-01,1.849804500000000000e+09
5.300000000000000000e+01,6.200000000000000000e+01,3.370000000000000000e+02,1.100000000000000000e+02,2.600000000000000000e+01,2.600000000000000000e+01,2.500000000000000000e+01,5.800000000000000000e+01,5.999999999999999778e-01,1.868286200000000000e+09
5.600000000000000000e+01,6.100000000000000000e+01,3.200000000000000000e+02,1.250000000000000000e+02,2.900000000000000000e+01,2.900000000000000000e+01,2.200000000000000000e+01,5.900000000000000000e+01,5.999999999999999778e-01,1.885489400000000000e+09
5.200000000000000000e+01,6.400000000000000000e+01,3.140000000000000000e+02,1.260000000000000000e+02,2.800000000000000000e+01,3.000000000000000000e+01,2.300000000000000000e+01,5.800000000000000000e+01,5.999999999999999778e-01,1.902173500000000000e+09
5.200000000000000000e+01,7.600000000000000000e+01,4.070000000000000000e+02,1.370000000000000000e+02,3.300000000000000000e+01,3.200000000000000000e+01,2.500000000000000000e+01,5.700000000000000000e+01,5.999999999999999778e-01,1.920326000000000000e+09
4.300000000000000000e+01,7.700000000000000000e+01,4.430000000000000000e+02,1.590000000000000000e+02,3.300000000000000000e+01,2.800000000000000000e+01,2.300000000000000000e+01,4.000000000000000000e+01,6.099999999999999867e-01,1.937598500000000000e+09
5.400000000000000000e+01,8.000000000000000000e+01,4.480000000000000000e+02,1.550000000000000000e+02,3.200000000000000000e+01,3.100000000000000000e+01,2.400000000000000000e+01,4.800000000000000000e+01,6.099999999999999867e-01,1.955584400000000000e+09
5.700000000000000000e+01,7.900000000000000000e+01,4.410000000000000000e+02,1.510000000000000000e+02,3.000000000000000000e+01,2.600000000000000000e+01,2.500000000000000000e+01,4.700000000000000000e+01,6.099999999999999867e-01,1.973494500000000000e+09
5.500000000000000000e+01,7.000000000000000000e+01,4.520000000000000000e+02,1.580000000000000000e+02,3.100000000000000000e+01,2.600000000000000000e+01,2.300000000000000000e+01,4.800000000000000000e+01,6.099999999999999867e-01,1.990630600000000000e+09
5.300000000000000000e+01,6.600000000000000000e+01,4.090000000000000000e+02,1.490000000000000000e+02,2.600000000000000000e+01,2.600000000000000000e+01,2.100000000000000000e+01,4.600000000000000000e+01,6.199999999999999956e-01,2.007626600000000000e+09
5.400000000000000000e+01,6.300000000000000000e+01,3.820000000000000000e+02,1.120000000000000000e+02,2.700000000000000000e+01,2.700000000000000000e+01,2.200000000000000000e+01,4.300000000000000000e+01,6.199999999999999956e-01,2.024803300000000000e+09
4.600000000000000000e+01,6.000000000000000000e+01,3.610000000000000000e+02,1.110000000000000000e+02,2.700000000000000000e+01,2.400000000000000000e+01,2.000000000000000000e+01,5.400000000000000000e+01,6.199999999999999956e-01,2.043009600000000000e+09
3.700000000000000000e+01,6.100000000000000000e+01,3.810000000000000000e+02,1.120000000000000000e+02,2.800000000000000000e+01,2.700000000000000000e+01,2.000000000000000000e+01,5.400000000000000000e+01,6.199999999999999956e-01,2.062089500000000000e+09
3.700000000000000000e+01,6.000000000000000000e+01,3.750000000000000000e+02,1.020000000000000000e+02,2.700000000000000000e+01,2.500000000000000000e+01,2.100000000000000000e+01,5.100000000000000000e+01,6.300000000000000044e-01,2.079567100000000000e+09
4.200000000000000000e+01,4.900000000000000000e+01,2.980000000000000000e+02,8.900000000000000000e+01,3.100000000000000000e+01,2.400000000000000000e+01,2.100000000000000000e+01,5.500000000000000000e+01,6.199999999999999956e-01,2.096514600000000000e+09
4.200000000000000000e+01,4.500000000000000000e+01,2.970000000000000000e+02,9.500000000000000000e+01,2.700000000000000000e+01,2.100000000000000000e+01,2.200000000000000000e+01,5.600000000000000000e+01,6.199999999999999956e-01,2.113303800000000000e+09
3.800000000000000000e+01,4.500000000000000000e+01,3.590000000000000000e+02,1.130000000000000000e+02,3.000000000000000000e+01,2.200000000000000000e+01,2.300000000000000000e+01,3.600000000000000000e+01,6.199999999999999956e-01,2.131150700000000000e+09
4.900000000000000000e+01,4.500000000000000000e+01,3.570000000000000000e+02,1.010000000000000000e+02,3.000000000000000000e+01,2.100000000000000000e+01,2.300000000000000000e+01,5.000000000000000000e+01,6.199999999999999956e-01,2.148056100000000000e+09
5.200000000000000000e+01,5.400000000000000000e+01,4.250000000000000000e+02,1.020000000000000000e+02,3.200000000000000000e+01,2.200000000000000000e+01,2.200000000000000000e+01,5.400000000000000000e+01,6.199999999999999956e-01,2.165154600000000000e+09
4.900000000000000000e+01,5.500000000000000000e+01,4.180000000000000000e+02,1.130000000000000000e+02,2.800000000000000000e+01,2.200000000000000000e+01,2.300000000000000000e+01,5.200000000000000000e+01,6.199999999999999956e-01,2.182379400000000000e+09
5.100000000000000000e+01,5.800000000000000000e+01,4.260000000000000000e+02,1.110000000000000000e+02,2.900000000000000000e+01,2.500000000000000000e+01,2.300000000000000000e+01,5.000000000000000000e+01,6.199999999999999956e-01,2.200049600000000000e+09
5.200000000000000000e+01,5.800000000000000000e+01,4.260000000000000000e+02,1.100000000000000000e+02,2.600000000000000000e+01,2.300000000000000000e+01,2.200000000000000000e+01,5.300000000000000000e+01,6.199999999999999956e-01,2.219182000000000000e+09
4.600000000000000000e+01,6.000000000000000000e+01,3.960000000000000000e+02,1.340000000000000000e+02,3.000000000000000000e+01,2.400000000000000000e+01,2.200000000000000000e+01,5.200000000000000000e+01,6.199999999999999956e-01,2.237159400000000000e+09
4.300000000000000000e+01,6.200000000000000000e+01,3.290000000000000000e+02,1.430000000000000000e+02,3.100000000000000000e+01,2.400000000000000000e+01,2.300000000000000000e+01,5.100000000000000000e+01,6.199999999999999956e-01,2.255498200000000000e+09
4.300000000000000000e+01,6.100000000000000000e+01,3.760000000000000000e+02,1.430000000000000000e+02,3.600000000000000000e+01,2.500000000000000000e+01,2.100000000000000000e+01,5.100000000000000000e+01,6.199999999999999956e-01,2.273832300000000000e+09
4.500000000000000000e+01,6.100000000000000000e+01,3.820000000000000000e+02,1.440000000000000000e+02,3.700000000000000000e+01,2.600000000000000000e+01,2.100000000000000000e+01,5.300000000000000000e+01,6.199999999999999956e-01,2.294278100000000000e+09
5.000000000000000000e+01,6.100000000000000000e+01,3.540000000000000000e+02,1.340000000000000000e+02,3.600000000000000000e+01,2.700000000000000000e+01,2.100000000000000000e+01,6.200000000000000000e+01,6.199999999999999956e-01,2.318652000000000000e+09
5.100000000000000000e+01,6.200000000000000000e+01,4.370000000000000000e+02,1.150000000000000000e+02,3.200000000000000000e+01,2.700000000000000000e+01,2.200000000000000000e+01,5.000000000000000000e+01,6.199999999999999956e-01,2.340379500000000000e+09
5.600000000000000000e+01,7.200000000000000000e+01,4.530000000000000000e+02,1.160000000000000000e+02,3.000000000000000000e+01,2.600000000000000000e+01,2.200000000000000000e+01,5.000000000000000000e+01,6.300000000000000044e-01,2.361679100000000000e+09
6.000000000000000000e+01,8.400000000000000000e+01,5.220000000000000000e+02,1.390000000000000000e+02,2.700000000000000000e+01,2.800000000000000000e+01,2.400000000000000000e+01,5.000000000000000000e+01,6.300000000000000044e-01,2.386292300000000000e+09
5.600000000000000000e+01,8.500000000000000000e+01,5.450000000000000000e+02,1.420000000000000000e+02,2.400000000000000000e+01,2.400000000000000000e+01,2.200000000000000000e+01,4.900000000000000000e+01,6.300000000000000044e-01,2.407540700000000000e+09
5.200000000000000000e+01,8.500000000000000000e+01,5.290000000000000000e+02,1.520000000000000000e+02,2.800000000000000000e+01,2.400000000000000000e+01,2.200000000000000000e+01,3.900000000000000000e+01,6.300000000000000044e-01,2.428689200000000000e+09
5.700000000000000000e+01,8.200000000000000000e+01,5.120000000000000000e+02,1.530000000000000000e+02,2.900000000000000000e+01,2.500000000000000000e+01,2.100000000000000000e+01,5.800000000000000000e+01,6.300000000000000044e-01,2.447971700000000000e+09
5.200000000000000000e+01,6.700000000000000000e+01,5.060000000000000000e+02,1.500000000000000000e+02,3.000000000000000000e+01,2.500000000000000000e+01,2.100000000000000000e+01,5.600000000000000000e+01,6.300000000000000044e-01,2.467405000000000000e+09
5.200000000000000000e+01,5.900000000000000000e+01,3.970000000000000000e+02,1.290000000000000000e+02,2.900000000000000000e+01,2.300000000000000000e+01,1.900000000000000000e+01,5.900000000000000000e+01,6.300000000000000044e-01,2.485719400000000000e+09
5.100000000000000000e+01,5.800000000000000000e+01,3.790000000000000000e+02,1.230000000000000000e+02,3.100000000000000000e+01,2.500000000000000000e+01,2.000000000000000000e+01,6.000000000000000000e+01,6.400000000000000133e-01,2.504218600000000000e+09
4.900000000000000000e+01,6.600000000000000000e+01,4.000000000000000000e+02,1.140000000000000000e+02,3.100000000000000000e+01,2.500000000000000000e+01,2.100000000000000000e+01,6.200000000000000000e+01,6.400000000000000133e-01,2.523650600000000000e+09
4.800000000000000000e+01,7.100000000000000000e+01,4.530000000000000000e+02,1.460000000000000000e+02,3.300000000000000000e+01,2.400000000000000000e+01,2.100000000000000000e+01,5.400000000000000000e+01,6.400000000000000133e-01,2.543052000000000000e+09
5.300000000000000000e+01,8.000000000000000000e+01,4.830000000000000000e+02,1.580000000000000000e+02,3.600000000000000000e+01,2.600000000000000000e+01,2.400000000000000000e+01,5.900000000000000000e+01,6.400000000000000133e-01,2.562119200000000000e+09
5.000000000000000000e+01,7.600000000000000000e+01,5.270000000000000000e+02,1.580000000000000000e+02,3.700000000000000000e+01,2.600000000000000000e+01,2.600000000000000000e+01,5.800000000000000000e+01,6.400000000000000133e-01,2.581842000000000000e+09
5.300000000000000000e+01,8.300000000000000000e+01,5.280000000000000000e+02,1.660000000000000000e+02,3.500000000000000000e+01,2.600000000000000000e+01,2.500000000000000000e+01,6.600000000000000000e+01,6.400000000000000133e-01,2.600765900000000000e+09
6.500000000000000000e+01,8.200000000000000000e+01,5.890000000000000000e+02,1.790000000000000000e+02,3.500000000000000000e+01,2.600000000000000000e+01,2.400000000000000000e+01,7.300000000000000000e+01,6.400000000000000133e-01,2.620363100000000000e+09
6.800000000000000000e+01,1.110000000000000000e+02,6.000000000000000000e+02,1.710000000000000000e+02,5.100000000000000000e+01,3.500000000000000000e+01,2.800000000000000000e+01,7.300000000000000000e+01,6.400000000000000133e-01,2.639091600000000000e+09
6.700000000000000000e+01,1.060000000000000000e+02,6.040000000000000000e+02,1.720000000000000000e+02,5.100000000000000000e+01,3.500000000000000000e+01,2.600000000000000000e+01,6.900000000000000000e+01,6.400000000000000133e-01,2.658255200000000000e+09
6.700000000000000000e+01,1.050000000000000000e+02,5.860000000000000000e+02,1.670000000000000000e+02,5.000000000000000000e+01,3.500000000000000000e+01,2.400000000000000000e+01,7.000000000000000000e+01,6.400000000000000133e-01,2.677494500000000000e+09
6.700000000000000000e+01,1.030000000000000000e+02,6.750000000000000000e+02,1.630000000000000000e+02,5.200000000000000000e+01,3.500000000000000000e+01,3.100000000000000000e+01,7.300000000000000000e+01,6.300000000000000044e-01,2.697880800000000000e+09
5.800000000000000000e+01,1.010000000000000000e+02,6.910000000000000000e+02,1.610000000000000000e+02,5.200000000000000000e+01,3.500000000000000000e+01,3.200000000000000000e+01,6.100000000000000000e+01,6.300000000000000044e-01,2.716697700000000000e+09
4.800000000000000000e+01,6.200000000000000000e+01,6.250000000000000000e+02,1.400000000000000000e+02,3.200000000000000000e+01,2.300000000000000000e+01,2.800000000000000000e+01,5.500000000000000000e+01,6.300000000000000044e-01,2.735744000000000000e+09
4.800000000000000000e+01,5.900000000000000000e+01,6.010000000000000000e+02,1.130000000000000000e+02,2.900000000000000000e+01,2.200000000000000000e+01,3.000000000000000000e+01,5.600000000000000000e+01,6.300000000000000044e-01,2.753973300000000000e+09
4.600000000000000000e+01,5.900000000000000000e+01,6.560000000000000000e+02,1.290000000000000000e+02,2.900000000000000000e+01,2.100000000000000000e+01,3.000000000000000000e+01,5.500000000000000000e+01,6.300000000000000044e-01,2.772727600000000000e+09
5.300000000000000000e+01,5.800000000000000000e+01,6.290000000000000000e+02,1.410000000000000000e+02,3.100000000000000000e+01,2.100000000000000000e+01,2.600000000000000000e+01,5.700000000000000000e+01,6.300000000000000044e-01,2.792285500000000000e+09
5.400000000000000000e+01,5.300000000000000000e+01,5.630000000000000000e+02,1.260000000000000000e+02,3.200000000000000000e+01,2.200000000000000000e+01,2.500000000000000000e+01,5.800000000000000000e+01,6.300000000000000044e-01,2.811135600000000000e+09
5.300000000000000000e+01,5.400000000000000000e+01,5.660000000000000000e+02,1.330000000000000000e+02,3.300000000000000000e+01,2.200000000000000000e+01,2.600000000000000000e+01,5.800000000000000000e+01,6.300000000000000044e-01,2.830054200000000000e+09
4.900000000000000000e+01,5.700000000000000000e+01,5.560000000000000000e+02,1.440000000000000000e+02,3.300000000000000000e+01,2.300000000000000000e+01,3.000000000000000000e+01,5.500000000000000000e+01,6.300000000000000044e-01,2.848816600000000000e+09
5.600000000000000000e+01,5.900000000000000000e+01,4.590000000000000000e+02,1.310000000000000000e+02,3.300000000000000000e+01,2.500000000000000000e+01,3.300000000000000000e+01,6.200000000000000000e+01,6.300000000000000044e-01,2.867059500000000000e+09
5.400000000000000000e+01,5.400000000000000000e+01,4.420000000000000000e+02,1.190000000000000000e+02,3.000000000000000000e+01,2.500000000000000000e+01,3.300000000000000000e+01,5.900000000000000000e+01,6.300000000000000044e-01,2.886253800000000000e+09
5.100000000000000000e+01,5.700000000000000000e+01,4.360000000000000000e+02,1.200000000000000000e+02,2.700000000000000000e+01,2.300000000000000000e+01,3.300000000000000000e+01,5.700000000000000000e+01,6.300000000000000044e-01,2.905526600000000000e+09
5.600000000000000000e+01,6.100000000000000000e+01,4.380000000000000000e+02,1.270000000000000000e+02,2.900000000000000000e+01,2.600000000000000000e+01,3.400000000000000000e+01,5.800000000000000000e+01,6.300000000000000044e-01,2.924212100000000000e+09
6.300000000000000000e+01,6.400000000000000000e+01,4.430000000000000000e+02,1.210000000000000000e+02,2.800000000000000000e+01,2.500000000000000000e+01,2.800000000000000000e+01,5.900000000000000000e+01,6.300000000000000044e-01,2.943641600000000000e+09
5.800000000000000000e+01,6.500000000000000000e+01,4.490000000000000000e+02,1.160000000000000000e+02,2.700000000000000000e+01,2.300000000000000000e+01,2.600000000000000000e+01,5.400000000000000000e+01,6.300000000000000044e-01,2.961462300000000000e+09
5.500000000000000000e+01,6.500000000000000000e+01,3.720000000000000000e+02,1.160000000000000000e+02,2.800000000000000000e+01,2.400000000000000000e+01,2.400000000000000000e+01,5.100000000000000000e+01,6.300000000000000044e-01,2.981827400000000000e+09
5.400000000000000000e+01,6.500000000000000000e+01,3.550000000000000000e+02,1.090000000000000000e+02,2.900000000000000000e+01,2.500000000000000000e+01,2.400000000000000000e+01,5.200000000000000000e+01,6.300000000000000044e-01,3.000761400000000000e+09
5.100000000000000000e+01,6.100000000000000000e+01,3.570000000000000000e+02,9.600000000000000000e+01,2.600000000000000000e+01,2.100000000000000000e+01,2.000000000000000000e+01,5.500000000000000000e+01,6.300000000000000044e-01,3.019529700000000000e+09
4.500000000000000000e+01,5.300000000000000000e+01,3.560000000000000000e+02,9.500000000000000000e+01,2.400000000000000000e+01,2.300000000000000000e+01,1.900000000000000000e+01,5.500000000000000000e+01,6.300000000000000044e-01,3.038105800000000000e+09
5.000000000000000000e+01,5.900000000000000000e+01,4.000000000000000000e+02,1.160000000000000000e+02,2.900000000000000000e+01,2.400000000000000000e+01,1.900000000000000000e+01,6.700000000000000000e+01,6.300000000000000044e-01,3.059168600000000000e+09
5.800000000000000000e+01,6.500000000000000000e+01,3.770000000000000000e+02,1.150000000000000000e+02,2.700000000000000000e+01,2.300000000000000000e+01,1.800000000000000000e+01,6.400000000000000000e+01,6.300000000000000044e-01,3.077978300000000000e+09
6.400000000000000000e+01,6.100000000000000000e+01,3.990000000000000000e+02,1.330000000000000000e+02,2.700000000000000000e+01,2.400000000000000000e+01,1.800000000000000000e+01,6.900000000000000000e+01,6.300000000000000044e-01,3.098362800000000000e+09
6.400000000000000000e+01,7.100000000000000000e+01,3.790000000000000000e+02,1.340000000000000000e+02,2.900000000000000000e+01,2.700000000000000000e+01,2.000000000000000000e+01,6.600000000000000000e+01,6.300000000000000044e-01,3.116700200000000000e+09
6.100000000000000000e+01,7.500000000000000000e+01,4.310000000000000000e+02,1.570000000000000000e+02,3.200000000000000000e+01,2.700000000000000000e+01,2.200000000000000000e+01,6.500000000000000000e+01,6.300000000000000044e-01,3.135592900000000000e+09
5.900000000000000000e+01,7.400000000000000000e+01,4.150000000000000000e+02,1.540000000000000000e+02,2.900000000000000000e+01,2.600000000000000000e+01,2.100000000000000000e+01,5.200000000000000000e+01,6.300000000000000044e-01,3.154816100000000000e+09
5.300000000000000000e+01,6.800000000000000000e+01,4.200000000000000000e+02,1.530000000000000000e+02,3.100000000000000000e+01,2.800000000000000000e+01,2.100000000000000000e+01,5.000000000000000000e+01,6.300000000000000044e-01,3.173853100000000000e+09
4.900000000000000000e+01,6.800000000000000000e+01,4.080000000000000000e+02,1.390000000000000000e+02,3.000000000000000000e+01,2.700000000000000000e+01,2.400000000000000000e+01,6.100000000000000000e+01,6.300000000000000044e-01,3.192018200000000000e+09
5.200000000000000000e+01,7.100000000000000000e+01,4.040000000000000000e+02,1.420000000000000000e+02,2.900000000000000000e+01,2.500000000000000000e+01,2.400000000000000000e+01,6.300000000000000000e+01,6.300000000000000044e-01,3.211928600000000000e+09
5.200000000000000000e+01,7.200000000000000000e+01,3.360000000000000000e+02,1.210000000000000000e+02,2.700000000000000000e+01,2.500000000000000000e+01,2.400000000000000000e+01,6.500000000000000000e+01,6.300000000000000044e-01,3.231228700000000000e+09
5.100000000000000000e+01,6.800000000000000000e+01,3.370000000000000000e+02,1.100000000000000000e+02,2.700000000000000000e+01,2.600000000000000000e+01,2.200000000000000000e+01,6.400000000000000000e+01,6.300000000000000044e-01,3.250573800000000000e+09
5.100000000000000000e+01,8.400000000000000000e+01,3.180000000000000000e+02,1.140000000000000000e+02,2.800000000000000000e+01,2.500000000000000000e+01,2.200000000000000000e+01,6.300000000000000000e+01,6.300000000000000044e-01,3.269175000000000000e+09
5.300000000000000000e+01,8.200000000000000000e+01,3.290000000000000000e+02,1.120000000000000000e+02,2.900000000000000000e+01,2.500000000000000000e+01,2.200000000000000000e+01,5.800000000000000000e+01,6.300000000000000044e-01,3.288466000000000000e+09
5.300000000000000000e+01,8.400000000000000000e+01,3.740000000000000000e+02,1.090000000000000000e+02,3.000000000000000000e+01,2.600000000000000000e+01,2.300000000000000000e+01,5.800000000000000000e+01,6.300000000000000044e-01,3.308046600000000000e+09
5.400000000000000000e+01,8.200000000000000000e+01,3.630000000000000000e+02,9.700000000000000000e+01,2.900000000000000000e+01,2.500000000000000000e+01,2.400000000000000000e+01,6.000000000000000000e+01,6.300000000000000044e-01,3.327141400000000000e+09
5.300000000000000000e+01,8.400000000000000000e+01,3.680000000000000000e+02,1.060000000000000000e+02,3.000000000000000000e+01,2.400000000000000000e+01,2.500000000000000000e+01,6.000000000000000000e+01,6.300000000000000044e-01,3.346879100000000000e+09
4.700000000000000000e+01,7.000000000000000000e+01,3.670000000000000000e+02,1.030000000000000000e+02,2.800000000000000000e+01,2.300000000000000000e+01,2.400000000000000000e+01,5.900000000000000000e+01,6.300000000000000044e-01,3.366007700000000000e+09
4.800000000000000000e+01,7.700000000000000000e+01,3.490000000000000000e+02,1.070000000000000000e+02,2.800000000000000000e+01,2.400000000000000000e+01,2.400000000000000000e+01,6.200000000000000000e+01,6.300000000000000044e-01,3.384511300000000000e+09
4.300000000000000000e+01,6.600000000000000000e+01,3.130000000000000000e+02,1.110000000000000000e+02,2.700000000000000000e+01,2.300000000000000000e+01,2.100000000000000000e+01,6.300000000000000000e+01,6.199999999999999956e-01,3.403663600000000000e+09
4.500000000000000000e+01,6.400000000000000000e+01,3.140000000000000000e+02,1.100000000000000000e+02,2.600000000000000000e+01,2.200000000000000000e+01,2.000000000000000000e+01,6.000000000000000000e+01,6.199999999999999956e-01,3.423752900000000000e+09
4.500000000000000000e+01,6.100000000000000000e+01,2.690000000000000000e+02,9.200000000000000000e+01,2.400000000000000000e+01,2.200000000000000000e+01,1.900000000000000000e+01,6.100000000000000000e+01,6.199999999999999956e-01,3.443756300000000000e+09
4.600000000000000000e+01,6.000000000000000000e+01,2.610000000000000000e+02,7.900000000000000000e+01,2.500000000000000000e+01,2.200000000000000000e+01,2.000000000000000000e+01,6.000000000000000000e+01,6.099999999999999867e-01,3.462199000000000000e+09
3.800000000000000000e+01,4.700000000000000000e+01,2.550000000000000000e+02,9.200000000000000000e+01,2.400000000000000000e+01,2.200000000000000000e+01,2.000000000000000000e+01,4.100000000000000000e+01,6.099999999999999867e-01,3.482276200000000000e+09
3.600000000000000000e+01,6.000000000000000000e+01,2.310000000000000000e+02,8.600000000000000000e+01,2.300000000000000000e+01,2.100000000000000000e+01,2.000000000000000000e+01,3.500000000000000000e+01,6.099999999999999867e-01,3.502842400000000000e+09
3.900000000000000000e+01,8.000000000000000000e+01,2.720000000000000000e+02,9.700000000000000000e+01,2.600000000000000000e+01,2.400000000000000000e+01,2.000000000000000000e+01,3.600000000000000000e+01,6.099999999999999867e-01,3.522358500000000000e+09
4.000000000000000000e+01,1.000000000000000000e+02,3.440000000000000000e+02,1.230000000000000000e+02,2.900000000000000000e+01,2.400000000000000000e+01,2.100000000000000000e+01,3.400000000000000000e+01,6.099999999999999867e-01,3.541041200000000000e+09
3.800000000000000000e+01,1.090000000000000000e+02,3.530000000000000000e+02,1.430000000000000000e+02,3.400000000000000000e+01,2.700000000000000000e+01,2.100000000000000000e+01,3.000000000000000000e+01,6.099999999999999867e-01,3.559180000000000000e+09
3.900000000000000000e+01,1.160000000000000000e+02,3.800000000000000000e+02,1.520000000000000000e+02,4.100000000000000000e+01,2.700000000000000000e+01,2.100000000000000000e+01,3.000000000000000000e+01,6.099999999999999867e-01,3.578247500000000000e+09
3.900000000000000000e+01,1.180000000000000000e+02,4.420000000000000000e+02,1.790000000000000000e+02,4.600000000000000000e+01,3.000000000000000000e+01,2.100000000000000000e+01,2.900000000000000000e+01,6.099999999999999867e-01,3.597355600000000000e+09
4.700000000000000000e+01,1.400000000000000000e+02,5.170000000000000000e+02,2.970000000000000000e+02,7.400000000000000000e+01,5.400000000000000000e+01,2.600000000000000000e+01,3.000000000000000000e+01,6.099999999999999867e-01,3.615860800000000000e+09
5.100000000000000000e+01,1.450000000000000000e+02,5.980000000000000000e+02,3.160000000000000000e+02,7.500000000000000000e+01,5.800000000000000000e+01,2.800000000000000000e+01,3.300000000000000000e+01,6.099999999999999867e-01,3.634570500000000000e+09
6.000000000000000000e+01,1.520000000000000000e+02,6.720000000000000000e+02,3.610000000000000000e+02,1.600000000000000000e+02,8.900000000000000000e+01,3.600000000000000000e+01,4.100000000000000000e+01,5.999999999999999778e-01,3.653814800000000000e+09
1.060000000000000000e+02,2.330000000000000000e+02,7.280000000000000000e+02,4.950000000000000000e+02,1.690000000000000000e+02,1.520000000000000000e+02,5.100000000000000000e+01,6.100000000000000000e+01,5.899999999999999689e-01,3.672058700000000000e+09
1.290000000000000000e+02,2.990000000000000000e+02,8.230000000000000000e+02,6.280000000000000000e+02,1.950000000000000000e+02,1.670000000000000000e+02,5.500000000000000000e+01,7.100000000000000000e+01,5.799999999999999600e-01,3.690617900000000000e+09
1.430000000000000000e+02,3.580000000000000000e+02,1.036000000000000000e+03,7.270000000000000000e+02,2.170000000000000000e+02,1.700000000000000000e+02,6.400000000000000000e+01,8.100000000000000000e+01,5.600000000000000533e-01,3.710264100000000000e+09
1.480000000000000000e+02,3.810000000000000000e+02,1.084000000000000000e+03,8.620000000000000000e+02,2.330000000000000000e+02,1.730000000000000000e+02,6.700000000000000000e+01,8.500000000000000000e+01,5.400000000000000355e-01,3.727949600000000000e+09
1.650000000000000000e+02,4.410000000000000000e+02,1.164000000000000000e+03,9.650000000000000000e+02,2.460000000000000000e+02,1.770000000000000000e+02,7.000000000000000000e+01,9.300000000000000000e+01,5.200000000000000178e-01,3.745700100000000000e+09
1.560000000000000000e+02,4.380000000000000000e+02,1.290000000000000000e+03,1.044000000000000000e+03,3.050000000000000000e+02,1.530000000000000000e+02,6.700000000000000000e+01,9.200000000000000000e+01,4.899999999999999911e-01,3.764869700000000000e+09
1.640000000000000000e+02,4.410000000000000000e+02,1.276000000000000000e+03,1.045000000000000000e+03,3.050000000000000000e+02,1.450000000000000000e+02,6.600000000000000000e+01,9.700000000000000000e+01,4.699999999999999734e-01,3.782751800000000000e+09
1.630000000000000000e+02,4.010000000000000000e+02,1.204000000000000000e+03,1.062000000000000000e+03,3.070000000000000000e+02,1.510000000000000000e+02,7.200000000000000000e+01,9.700000000000000000e+01,4.400000000000000022e-01,3.801376800000000000e+09
1.650000000000000000e+02,3.850000000000000000e+02,1.181000000000000000e+03,1.092000000000000000e+03,3.290000000000000000e+02,1.650000000000000000e+02,8.400000000000000000e+01,1.000000000000000000e+02,4.199999999999999845e-01,3.820119700000000000e+09
1.530000000000000000e+02,3.510000000000000000e+02,1.127000000000000000e+03,1.030000000000000000e+03,3.050000000000000000e+02,1.550000000000000000e+02,7.900000000000000000e+01,9.100000000000000000e+01,3.900000000000000133e-01,3.839390700000000000e+09
1.490000000000000000e+02,3.640000000000000000e+02,1.047000000000000000e+03,9.780000000000000000e+02,2.500000000000000000e+02,1.640000000000000000e+02,7.800000000000000000e+01,8.700000000000000000e+01,3.599999999999999867e-01,3.858876400000000000e+09
1.360000000000000000e+02,3.530000000000000000e+02,1.115000000000000000e+03,9.400000000000000000e+02,2.710000000000000000e+02,1.640000000000000000e+02,8.300000000000000000e+01,8.200000000000000000e+01,3.400000000000000244e-01,3.878269000000000000e+09
1.410000000000000000e+02,3.880000000000000000e+02,1.046000000000000000e+03,9.670000000000000000e+02,2.690000000000000000e+02,1.670000000000000000e+02,7.300000000000000000e+01,8.100000000000000000e+01,3.300000000000000155e-01,3.899114400000000000e+09
1.550000000000000000e+02,3.940000000000000000e+02,1.013000000000000000e+03,9.220000000000000000e+02,2.680000000000000000e+02,1.670000000000000000e+02,7.200000000000000000e+01,8.700000000000000000e+01,3.200000000000000067e-01,3.919210600000000000e+09
1.540000000000000000e+02,3.810000000000000000e+02,1.144000000000000000e+03,1.035000000000000000e+03,2.620000000000000000e+02,1.650000000000000000e+02,7.200000000000000000e+01,8.700000000000000000e+01,3.099999999999999978e-01,3.937947600000000000e+09
1.470000000000000000e+02,3.820000000000000000e+02,1.130000000000000000e+03,1.075000000000000000e+03,2.770000000000000000e+02,1.450000000000000000e+02,7.100000000000000000e+01,8.300000000000000000e+01,2.999999999999999889e-01,3.956883700000000000e+09
1.690000000000000000e+02,4.000000000000000000e+02,1.060000000000000000e+03,1.155000000000000000e+03,2.920000000000000000e+02,1.640000000000000000e+02,8.000000000000000000e+01,9.700000000000000000e+01,2.899999999999999800e-01,3.975877300000000000e+09
1.650000000000000000e+02,3.870000000000000000e+02,1.050000000000000000e+03,1.174000000000000000e+03,3.020000000000000000e+02,1.630000000000000000e+02,8.600000000000000000e+01,9.500000000000000000e+01,2.800000000000000266e-01,3.995504200000000000e+09
1.470000000000000000e+02,3.880000000000000000e+02,1.103000000000000000e+03,1.121000000000000000e+03,2.860000000000000000e+02,1.520000000000000000e+02,7.900000000000000000e+01,8.300000000000000000e+01,2.800000000000000266e-01,4.017251500000000000e+09
1.550000000000000000e+02,4.070000000000000000e+02,9.460000000000000000e+02,1.015000000000000000e+03,3.070000000000000000e+02,1.740000000000000000e+02,8.300000000000000000e+01,8.500000000000000000e+01,2.700000000000000178e-01,4.037061300000000000e+09
1.620000000000000000e+02,3.830000000000000000e+02,9.700000000000000000e+02,9.000000000000000000e+02,3.200000000000000000e+02,1.770000000000000000e+02,8.600000000000000000e+01,9.100000000000000000e+01,2.600000000000000089e-01,4.055651200000000000e+09
1.400000000000000000e+02,3.500000000000000000e+02,1.090000000000000000e+03,8.370000000000000000e+02,2.840000000000000000e+02,1.600000000000000000e+02,8.000000000000000000e+01,7.900000000000000000e+01,2.600000000000000089e-01,4.074023300000000000e+09
1.300000000000000000e+02,3.220000000000000000e+02,1.155000000000000000e+03,7.350000000000000000e+02,2.630000000000000000e+02,1.440000000000000000e+02,7.400000000000000000e+01,7.400000000000000000e+01,2.500000000000000000e-01,4.094769400000000000e+09
1.490000000000000000e+02,3.410000000000000000e+02,1.202000000000000000e+03,7.590000000000000000e+02,2.710000000000000000e+02,1.480000000000000000e+02,7.800000000000000000e+01,8.600000000000000000e+01,2.399999999999999911e-01,4.117069700000000000e+09
1.460000000000000000e+02,3.220000000000000000e+02,1.261000000000000000e+03,7.580000000000000000e+02,2.840000000000000000e+02,1.250000000000000000e+02,7.700000000000000000e+01,9.100000000000000000e+01,2.399999999999999911e-01,4.136349600000000000e+09
1.440000000000000000e+02,3.160000000000000000e+02,1.240000000000000000e+03,8.540000000000000000e+02,2.630000000000000000e+02,1.210000000000000000e+02,7.900000000000000000e+01,8.600000000000000000e+01,2.300000000000000100e-01,4.155825400000000000e+09
1.320000000000000000e+02,3.220000000000000000e+02,1.133000000000000000e+03,7.980000000000000000e+02,2.560000000000000000e+02,1.170000000000000000e+02,7.000000000000000000e+01,7.700000000000000000e+01,2.300000000000000100e-01,4.174291800000000000e+09
1.320000000000000000e+02,3.330000000000000000e+02,1.104000000000000000e+03,8.720000000000000000e+02,2.540000000000000000e+02,1.200000000000000000e+02,6.900000000000000000e+01,7.700000000000000000e+01,2.200000000000000011e-01,4.194748300000000000e+09
1.140000000000000000e+02,3.230000000000000000e+02,1.021000000000000000e+03,8.810000000000000000e+02,2.340000000000000000e+02,1.120000000000000000e+02,6.000000000000000000e+01,6.700000000000000000e+01,2.200000000000000011e-01,4.217745900000000000e+09
1.280000000000000000e+02,3.320000000000000000e+02,9.750000000000000000e+02,8.950000000000000000e+02,1.840000000000000000e+02,1.280000000000000000e+02,6.900000000000000000e+01,7.200000000000000000e+01,2.200000000000000011e-01,4.236650600000000000e+09
1.200000000000000000e+02,3.180000000000000000e+02,1.004000000000000000e+03,8.540000000000000000e+02,1.760000000000000000e+02,1.270000000000000000e+02,6.200000000000000000e+01,7.000000000000000000e+01,2.200000000000000011e-01,4.255629100000000000e+09
1.250000000000000000e+02,2.940000000000000000e+02,1.066000000000000000e+03,9.470000000000000000e+02,1.820000000000000000e+02,1.260000000000000000e+02,6.300000000000000000e+01,7.300000000000000000e+01,2.200000000000000011e-01,4.275964900000000000e+09
1.330000000000000000e+02,2.870000000000000000e+02,1.016000000000000000e+03,8.700000000000000000e+02,1.990000000000000000e+02,1.340000000000000000e+02,6.200000000000000000e+01,7.700000000000000000e+01,2.200000000000000011e-01,4.297497200000000000e+09
1.340000000000000000e+02,3.100000000000000000e+02,1.041000000000000000e+03,8.610000000000000000e+02,1.980000000000000000e+02,1.290000000000000000e+02,6.000000000000000000e+01,7.700000000000000000e+01,2.300000000000000100e-01,4.316522800000000000e+09
1.060000000000000000e+02,2.820000000000000000e+02,1.073000000000000000e+03,8.680000000000000000e+02,1.980000000000000000e+02,1.100000000000000000e+02,4.900000000000000000e+01,6.400000000000000000e+01,2.300000000000000100e-01,4.336091700000000000e+09
1.130000000000000000e+02,3.060000000000000000e+02,1.038000000000000000e+03,8.690000000000000000e+02,2.060000000000000000e+02,1.080000000000000000e+02,4.900000000000000000e+01,6.500000000000000000e+01,2.300000000000000100e-01,4.356052200000000000e+09
1.040000000000000000e+02,3.060000000000000000e+02,1.046000000000000000e+03,7.690000000000000000e+02,2.100000000000000000e+02,1.170000000000000000e+02,5.200000000000000000e+01,6.300000000000000000e+01,2.300000000000000100e-01,4.377146200000000000e+09
8.800000000000000000e+01,3.180000000000000000e+02,1.015000000000000000e+03,7.550000000000000000e+02,2.010000000000000000e+02,1.100000000000000000e+02,5.400000000000000000e+01,5.500000000000000000e+01,2.300000000000000100e-01,4.395709700000000000e+09
9.800000000000000000e+01,3.080000000000000000e+02,1.060000000000000000e+03,8.660000000000000000e+02,2.220000000000000000e+02,1.320000000000000000e+02,6.100000000000000000e+01,6.200000000000000000e+01,2.300000000000000100e-01,4.414226800000000000e+09
1.140000000000000000e+02,3.890000000000000000e+02,1.001000000000000000e+03,8.850000000000000000e+02,2.260000000000000000e+02,1.350000000000000000e+02,6.500000000000000000e+01,6.900000000000000000e+01,2.300000000000000100e-01,4.433934600000000000e+09
1.210000000000000000e+02,4.130000000000000000e+02,1.028000000000000000e+03,8.810000000000000000e+02,2.320000000000000000e+02,1.640000000000000000e+02,6.800000000000000000e+01,7.200000000000000000e+01,2.300000000000000100e-01,4.455235500000000000e+09
1.220000000000000000e+02,4.290000000000000000e+02,9.310000000000000000e+02,8.730000000000000000e+02,2.440000000000000000e+02,1.650000000000000000e+02,6.800000000000000000e+01,7.000000000000000000e+01,2.300000000000000100e-01,4.477520600000000000e+09
1.310000000000000000e+02,4.190000000000000000e+02,9.340000000000000000e+02,8.500000000000000000e+02,2.450000000000000000e+02,1.710000000000000000e+02,7.400000000000000000e+01,7.500000000000000000e+01,2.200000000000000011e-01,4.496753300000000000e+09
1.240000000000000000e+02,3.990000000000000000e+02,8.410000000000000000e+02,7.700000000000000000e+02,2.290000000000000000e+02,1.570000000000000000e+02,7.200000000000000000e+01,7.000000000000000000e+01,2.200000000000000011e-01,4.515592800000000000e+09
1.160000000000000000e+02,3.250000000000000000e+02,8.220000000000000000e+02,7.060000000000000000e+02,2.160000000000000000e+02,1.520000000000000000e+02,6.600000000000000000e+01,6.200000000000000000e+01,2.200000000000000011e-01,4.534591600000000000e+09
1.000000000000000000e+02,2.770000000000000000e+02,8.000000000000000000e+02,6.400000000000000000e+02,1.940000000000000000e+02,1.200000000000000000e+02,6.400000000000000000e+01,5.400000000000000000e+01,2.200000000000000011e-01,4.555294300000000000e+09
1.030000000000000000e+02,2.370000000000000000e+02,8.570000000000000000e+02,6.360000000000000000e+02,1.760000000000000000e+02,1.120000000000000000e+02,6.500000000000000000e+01,5.600000000000000000e+01,2.200000000000000011e-01,4.577424100000000000e+09
1.130000000000000000e+02,2.430000000000000000e+02,8.800000000000000000e+02,6.260000000000000000e+02,1.810000000000000000e+02,1.070000000000000000e+02,5.800000000000000000e+01,5.900000000000000000e+01,2.200000000000000011e-01,4.596837900000000000e+09
1.220000000000000000e+02,2.750000000000000000e+02,8.870000000000000000e+02,5.050000000000000000e+02,1.940000000000000000e+02,1.230000000000000000e+02,6.400000000000000000e+01,6.800000000000000000e+01,2.200000000000000011e-01,4.616065100000000000e+09
1.210000000000000000e+02,2.700000000000000000e+02,9.890000000000000000e+02,5.160000000000000000e+02,2.110000000000000000e+02,1.260000000000000000e+02,6.600000000000000000e+01,7.200000000000000000e+01,2.200000000000000011e-01,4.634868400000000000e+09
1.380000000000000000e+02,2.960000000000000000e+02,9.440000000000000000e+02,6.740000000000000000e+02,2.350000000000000000e+02,1.430000000000000000e+02,7.100000000000000000e+01,8.300000000000000000e+01,2.200000000000000011e-01,4.655473200000000000e+09
1.400000000000000000e+02,3.130000000000000000e+02,8.970000000000000000e+02,7.330000000000000000e+02,2.400000000000000000e+02,1.520000000000000000e+02,7.100000000000000000e+01,8.400000000000000000e+01,2.200000000000000011e-01,4.677488300000000000e+09
1.290000000000000000e+02,3.240000000000000000e+02,9.180000000000000000e+02,7.590000000000000000e+02,2.250000000000000000e+02,1.490000000000000000e+02,7.300000000000000000e+01,8.200000000000000000e+01,2.200000000000000011e-01,4.696867900000000000e+09
1.210000000000000000e+02,3.150000000000000000e+02,9.310000000000000000e+02,7.900000000000000000e+02,2.150000000000000000e+02,1.450000000000000000e+02,6.800000000000000000e+01,7.500000000000000000e+01,2.200000000000000011e-01,4.715630200000000000e+09
1.400000000000000000e+02,3.620000000000000000e+02,9.290000000000000000e+02,8.390000000000000000e+02,2.010000000000000000e+02,1.510000000000000000e+02,7.400000000000000000e+01,8.300000000000000000e+01,2.200000000000000011e-01,4.734260800000000000e+09
1.270000000000000000e+02,3.310000000000000000e+02,9.190000000000000000e+02,7.090000000000000000e+02,1.650000000000000000e+02,1.290000000000000000e+02,6.800000000000000000e+01,7.500000000000000000e+01,2.300000000000000100e-01,4.755159700000000000e+09
1.260000000000000000e+02,3.120000000000000000e+02,9.330000000000000000e+02,6.150000000000000000e+02,1.420000000000000000e+02,1.180000000000000000e+02,6.500000000000000000e+01,7.700000000000000000e+01,2.300000000000000100e-01,4.777623000000000000e+09
1.180000000000000000e+02,2.820000000000000000e+02,9.100000000000000000e+02,5.220000000000000000e+02,1.310000000000000000e+02,1.090000000000000000e+02,6.000000000000000000e+01,7.100000000000000000e+01,2.399999999999999911e-01,4.797640500000000000e+09
1.080000000000000000e+02,2.450000000000000000e+02,8.100000000000000000e+02,4.480000000000000000e+02,1.000000000000000000e+02,9.000000000000000000e+01,5.500000000000000000e+01,6.600000000000000000e+01,2.500000000000000000e-01,4.816503200000000000e+09
7.200000000000000000e+01,1.490000000000000000e+02,6.750000000000000000e+02,2.350000000000000000e+02,8.100000000000000000e+01,6.600000000000000000e+01,4.100000000000000000e+01,8.400000000000000000e+01,2.500000000000000000e-01,4.835672000000000000e+09
1.120000000000000000e+02,1.300000000000000000e+02,6.180000000000000000e+02,2.200000000000000000e+02,7.400000000000000000e+01,6.800000000000000000e+01,7.000000000000000000e+01,2.030000000000000000e+02,2.700000000000000178e-01,4.855243800000000000e+09
1.520000000000000000e+02,1.200000000000000000e+02,4.920000000000000000e+02,1.960000000000000000e+02,6.400000000000000000e+01,1.590000000000000000e+02,2.950000000000000000e+02,4.020000000000000000e+02,2.800000000000000266e-01,4.877454700000000000e+09
1.690000000000000000e+02,1.050000000000000000e+02,3.840000000000000000e+02,1.630000000000000000e+02,6.200000000000000000e+01,2.370000000000000000e+02,3.270000000000000000e+02,6.000000000000000000e+02,2.899999999999999800e-01,4.896314600000000000e+09
2.380000000000000000e+02,1.010000000000000000e+02,3.750000000000000000e+02,1.330000000000000000e+02,6.100000000000000000e+01,3.400000000000000000e+02,4.680000000000000000e+02,7.910000000000000000e+02,2.999999999999999889e-01,4.915651600000000000e+09
2.470000000000000000e+02,9.600000000000000000e+01,2.770000000000000000e+02,9.200000000000000000e+01,6.300000000000000000e+01,4.190000000000000000e+02,5.270000000000000000e+02,9.010000000000000000e+02,3.200000000000000067e-01,4.934835900000000000e+09
2.380000000000000000e+02,8.800000000000000000e+01,2.010000000000000000e+02,8.100000000000000000e+01,6.300000000000000000e+01,4.310000000000000000e+02,5.720000000000000000e+02,9.070000000000000000e+02,3.400000000000000244e-01,4.955297500000000000e+09
2.240000000000000000e+02,9.800000000000000000e+01,2.440000000000000000e+02,6.800000000000000000e+01,5.900000000000000000e+01,4.260000000000000000e+02,5.400000000000000000e+02,8.460000000000000000e+02,3.699999999999999956e-01,4.977411300000000000e+09
2.150000000000000000e+02,1.040000000000000000e+02,2.940000000000000000e+02,7.400000000000000000e+01,5.900000000000000000e+01,4.030000000000000000e+02,5.440000000000000000e+02,7.280000000000000000e+02,3.800000000000000044e-01,4.996286500000000000e+09
1.390000000000000000e+02,9.800000000000000000e+01,2.950000000000000000e+02,7.000000000000000000e+01,5.600000000000000000e+01,3.290000000000000000e+02,4.460000000000000000e+02,5.420000000000000000e+02,4.000000000000000222e-01,5.015297400000000000e+09
1.220000000000000000e+02,9.900000000000000000e+01,3.310000000000000000e+02,9.400000000000000000e+01,4.900000000000000000e+01,2.230000000000000000e+02,3.800000000000000000e+02,3.370000000000000000e+02,4.099999999999999756e-01,5.034156000000000000e+09
1.050000000000000000e+02,1.100000000000000000e+02,3.950000000000000000e+02,1.670000000000000000e+02,5.600000000000000000e+01,1.990000000000000000e+02,3.200000000000000000e+02,2.740000000000000000e+02,4.099999999999999756e-01,5.055109400000000000e+09
7.800000000000000000e+01,1.340000000000000000e+02,5.270000000000000000e+02,2.450000000000000000e+02,6.300000000000000000e+01,1.530000000000000000e+02,2.500000000000000000e+02,2.620000000000000000e+02,4.199999999999999845e-01,5.077307100000000000e+09
8.500000000000000000e+01,1.580000000000000000e+02,5.670000000000000000e+02,3.050000000000000000e+02,7.700000000000000000e+01,1.140000000000000000e+02,2.140000000000000000e+02,2.690000000000000000e+02,4.299999999999999933e-01,5.096575900000000000e+09
8.600000000000000000e+01,1.570000000000000000e+02,6.620000000000000000e+02,3.090000000000000000e+02,8.000000000000000000e+01,1.260000000000000000e+02,1.950000000000000000e+02,2.960000000000000000e+02,4.400000000000000022e-01,5.115312600000000000e+09
9.400000000000000000e+01,1.470000000000000000e+02,6.690000000000000000e+02,3.100000000000000000e+02,7.900000000000000000e+01,1.220000000000000000e+02,1.980000000000000000e+02,3.700000000000000000e+02,4.500000000000000111e-01,5.134625400000000000e+09
1.260000000000000000e+02,1.450000000000000000e+02,7.190000000000000000e+02,3.040000000000000000e+02,7.200000000000000000e+01,1.280000000000000000e+02,2.170000000000000000e+02,4.350000000000000000e+02,4.600000000000000200e-01,5.155026300000000000e+09
1.310000000000000000e+02,1.350000000000000000e+02,6.770000000000000000e+02,2.890000000000000000e+02,7.300000000000000000e+01,1.250000000000000000e+02,2.070000000000000000e+02,4.280000000000000000e+02,4.699999999999999734e-01,5.177130800000000000e+09
1.250000000000000000e+02,1.040000000000000000e+02,6.650000000000000000e+02,2.270000000000000000e+02,5.700000000000000000e+01,1.250000000000000000e+02,2.040000000000000000e+02,4.160000000000000000e+02,4.699999999999999734e-01,5.196288100000000000e+09
1.230000000000000000e+02,1.050000000000000000e+02,5.870000000000000000e+02,2.270000000000000000e+02,5.300000000000000000e+01,8.700000000000000000e+01,1.960000000000000000e+02,3.630000000000000000e+02,4.699999999999999734e-01,5.215276500000000000e+09
1.180000000000000000e+02,1.070000000000000000e+02,6.100000000000000000e+02,2.270000000000000000e+02,5.300000000000000000e+01,8.800000000000000000e+01,1.840000000000000000e+02,2.680000000000000000e+02,4.799999999999999822e-01,5.234366200000000000e+09
8.700000000000000000e+01,1.070000000000000000e+02,5.140000000000000000e+02,2.150000000000000000e+02,5.300000000000000000e+01,7.800000000000000000e+01,1.300000000000000000e+02,2.510000000000000000e+02,4.799999999999999822e-01,5.254985400000000000e+09
8.900000000000000000e+01,1.020000000000000000e+02,4.940000000000000000e+02,1.850000000000000000e+02,4.400000000000000000e+01,7.600000000000000000e+01,1.250000000000000000e+02,2.680000000000000000e+02,4.899999999999999911e-01,5.277226700000000000e+09
8.400000000000000000e+01,1.050000000000000000e+02,4.480000000000000000e+02,1.830000000000000000e+02,4.500000000000000000e+01,7.400000000000000000e+01,1.090000000000000000e+02,2.730000000000000000e+02,4.899999999999999911e-01,5.295448600000000000e+09
8.400000000000000000e+01,1.020000000000000000e+02,4.550000000000000000e+02,1.920000000000000000e+02,4.600000000000000000e+01,7.100000000000000000e+01,9.200000000000000000e+01,2.800000000000000000e+02,5.000000000000000000e-01,5.314326500000000000e+09
8.200000000000000000e+01,1.080000000000000000e+02,4.230000000000000000e+02,2.500000000000000000e+02,5.700000000000000000e+01,7.000000000000000000e+01,8.800000000000000000e+01,2.810000000000000000e+02,5.000000000000000000e-01,5.336646200000000000e+09
8.000000000000000000e+01,1.050000000000000000e+02,4.520000000000000000e+02,2.380000000000000000e+02,5.600000000000000000e+01,6.100000000000000000e+01,8.000000000000000000e+01,1.810000000000000000e+02,5.100000000000000089e-01,5.357155000000000000e+09
6.300000000000000000e+01,8.500000000000000000e+01,3.730000000000000000e+02,2.130000000000000000e+02,5.000000000000000000e+01,5.400000000000000000e+01,6.800000000000000000e+01,1.520000000000000000e+02,5.200000000000000178e-01,5.377198900000000000e+09
6.500000000000000000e+01,7.900000000000000000e+01,3.680000000000000000e+02,2.310000000000000000e+02,4.900000000000000000e+01,4.700000000000000000e+01,5.500000000000000000e+01,2.410000000000000000e+02,5.200000000000000178e-01,5.395901600000000000e+09
6.500000000000000000e+01,9.300000000000000000e+01,4.200000000000000000e+02,2.570000000000000000e+02,5.600000000000000000e+01,5.000000000000000000e+01,4.800000000000000000e+01,2.350000000000000000e+02,5.300000000000000266e-01,5.414875700000000000e+09
6.500000000000000000e+01,8.300000000000000000e+01,3.880000000000000000e+02,2.010000000000000000e+02,4.300000000000000000e+01,3.800000000000000000e+01,4.600000000000000000e+01,2.500000000000000000e+02,5.300000000000000266e-01,5.434723900000000000e+09
6.600000000000000000e+01,1.000000000000000000e+02,3.940000000000000000e+02,2.060000000000000000e+02,4.600000000000000000e+01,4.100000000000000000e+01,3.900000000000000000e+01,2.620000000000000000e+02,5.300000000000000266e-01,5.454899900000000000e+09
6.700000000000000000e+01,1.090000000000000000e+02,4.290000000000000000e+02,2.090000000000000000e+02,4.800000000000000000e+01,4.000000000000000000e+01,3.900000000000000000e+01,3.270000000000000000e+02,5.300000000000000266e-01,5.477010600000000000e+09
7.000000000000000000e+01,1.110000000000000000e+02,4.490000000000000000e+02,2.030000000000000000e+02,4.900000000000000000e+01,4.200000000000000000e+01,4.200000000000000000e+01,3.160000000000000000e+02,5.400000000000000355e-01,5.495260700000000000e+09
7.000000000000000000e+01,1.160000000000000000e+02,4.520000000000000000e+02,2.040000000000000000e+02,4.600000000000000000e+01,4.000000000000000000e+01,4.000000000000000000e+01,3.190000000000000000e+02,5.400000000000000355e-01,5.513988700000000000e+09
7.500000000000000000e+01,1.700000000000000000e+02,5.470000000000000000e+02,2.250000000000000000e+02,5.500000000000000000e+01,4.300000000000000000e+01,3.900000000000000000e+01,3.090000000000000000e+02,5.400000000000000355e-01,5.533618100000000000e+09
7.200000000000000000e+01,1.670000000000000000e+02,5.400000000000000000e+02,2.310000000000000000e+02,5.200000000000000000e+01,4.000000000000000000e+01,3.700000000000000000e+01,2.960000000000000000e+02,5.400000000000000355e-01,5.554744000000000000e+09
8.300000000000000000e+01,1.640000000000000000e+02,5.430000000000000000e+02,2.280000000000000000e+02,5.000000000000000000e+01,3.900000000000000000e+01,3.400000000000000000e+01,2.300000000000000000e+02,5.400000000000000355e-01,5.577014000000000000e+09
7.800000000000000000e+01,1.630000000000000000e+02,5.300000000000000000e+02,2.140000000000000000e+02,4.900000000000000000e+01,3.900000000000000000e+01,3.200000000000000000e+01,2.070000000000000000e+02,5.400000000000000355e-01,5.595360200000000000e+09
8.100000000000000000e+01,1.570000000000000000e+02,4.910000000000000000e+02,1.910000000000000000e+02,4.500000000000000000e+01,3.800000000000000000e+01,3.000000000000000000e+01,2.020000000000000000e+02,5.400000000000000355e-01,5.614249100000000000e+09
8.500000000000000000e+01,1.280000000000000000e+02,4.580000000000000000e+02,2.230000000000000000e+02,5.400000000000000000e+01,4.700000000000000000e+01,3.000000000000000000e+01,2.010000000000000000e+02,5.400000000000000355e-01,5.632876900000000000e+09
8.400000000000000000e+01,1.230000000000000000e+02,4.470000000000000000e+02,2.180000000000000000e+02,5.500000000000000000e+01,4.900000000000000000e+01,3.000000000000000000e+01,2.070000000000000000e+02,5.400000000000000355e-01,5.654840000000000000e+09
7.100000000000000000e+01,1.240000000000000000e+02,4.190000000000000000e+02,2.260000000000000000e+02,5.700000000000000000e+01,5.100000000000000000e+01,3.000000000000000000e+01,1.990000000000000000e+02,5.400000000000000355e-01,5.676978900000000000e+09
7.900000000000000000e+01,1.220000000000000000e+02,4.090000000000000000e+02,2.280000000000000000e+02,5.800000000000000000e+01,4.700000000000000000e+01,3.600000000000000000e+01,2.650000000000000000e+02,5.400000000000000355e-01,5.695604800000000000e+09
7.900000000000000000e+01,1.180000000000000000e+02,3.730000000000000000e+02,2.090000000000000000e+02,5.500000000000000000e+01,4.500000000000000000e+01,7.300000000000000000e+01,3.080000000000000000e+02,5.400000000000000355e-01,5.715496100000000000e+09
6.600000000000000000e+01,9.100000000000000000e+01,3.110000000000000000e+02,1.370000000000000000e+02,3.600000000000000000e+01,4.200000000000000000e+01,1.150000000000000000e+02,3.120000000000000000e+02,5.400000000000000355e-01,5.734229800000000000e+09
6.700000000000000000e+01,1.070000000000000000e+02,4.040000000000000000e+02,1.340000000000000000e+02,3.700000000000000000e+01,4.600000000000000000e+01,1.200000000000000000e+02,3.230000000000000000e+02,5.400000000000000355e-01,5.754719800000000000e+09
7.500000000000000000e+01,1.210000000000000000e+02,4.740000000000000000e+02,1.250000000000000000e+02,3.800000000000000000e+01,5.600000000000000000e+01,1.220000000000000000e+02,3.300000000000000000e+02,5.300000000000000266e-01,5.777124600000000000e+09
7.200000000000000000e+01,1.190000000000000000e+02,4.780000000000000000e+02,1.230000000000000000e+02,3.800000000000000000e+01,1.220000000000000000e+02,1.380000000000000000e+02,3.080000000000000000e+02,5.300000000000000266e-01,5.796116200000000000e+09
7.100000000000000000e+01,1.180000000000000000e+02,4.810000000000000000e+02,1.200000000000000000e+02,4.100000000000000000e+01,1.260000000000000000e+02,1.560000000000000000e+02,2.830000000000000000e+02,5.300000000000000266e-01,5.815417000000000000e+09
7.300000000000000000e+01,1.100000000000000000e+02,4.710000000000000000e+02,1.260000000000000000e+02,3.900000000000000000e+01,1.240000000000000000e+02,1.330000000000000000e+02,2.810000000000000000e+02,5.200000000000000178e-01,5.834536200000000000e+09
7.200000000000000000e+01,9.700000000000000000e+01,4.480000000000000000e+02,1.490000000000000000e+02,4.000000000000000000e+01,1.240000000000000000e+02,1.360000000000000000e+02,2.700000000000000000e+02,5.100000000000000089e-01,5.854664600000000000e+09
6.700000000000000000e+01,9.200000000000000000e+01,4.620000000000000000e+02,1.880000000000000000e+02,4.500000000000000000e+01,1.220000000000000000e+02,1.420000000000000000e+02,2.680000000000000000e+02,5.100000000000000089e-01,5.876818300000000000e+09
6.300000000000000000e+01,9.500000000000000000e+01,4.690000000000000000e+02,1.920000000000000000e+02,4.500000000000000000e+01,6.800000000000000000e+01,1.310000000000000000e+02,1.730000000000000000e+02,5.100000000000000089e-01,5.895730100000000000e+09
6.000000000000000000e+01,9.500000000000000000e+01,4.680000000000000000e+02,1.910000000000000000e+02,4.200000000000000000e+01,6.100000000000000000e+01,9.500000000000000000e+01,1.420000000000000000e+02,5.100000000000000089e-01,5.915111000000000000e+09
5.900000000000000000e+01,9.500000000000000000e+01,4.460000000000000000e+02,1.830000000000000000e+02,4.200000000000000000e+01,6.000000000000000000e+01,1.460000000000000000e+02,1.270000000000000000e+02,5.200000000000000178e-01,5.935400400000000000e+09
5.800000000000000000e+01,8.700000000000000000e+01,3.730000000000000000e+02,1.960000000000000000e+02,4.800000000000000000e+01,6.000000000000000000e+01,1.470000000000000000e+02,1.110000000000000000e+02,5.200000000000000178e-01,5.954720100000000000e+09
5.400000000000000000e+01,7.000000000000000000e+01,2.690000000000000000e+02,1.850000000000000000e+02,4.200000000000000000e+01,5.600000000000000000e+01,1.440000000000000000e+02,8.800000000000000000e+01,5.300000000000000266e-01,5.976870200000000000e+09
4.800000000000000000e+01,7.500000000000000000e+01,2.820000000000000000e+02,1.970000000000000000e+02,4.300000000000000000e+01,4.000000000000000000e+01,1.390000000000000000e+02,7.300000000000000000e+01,5.400000000000000355e-01,5.996773300000000000e+09
3.900000000000000000e+01,7.200000000000000000e+01,3.050000000000000000e+02,2.120000000000000000e+02,4.900000000000000000e+01,4.200000000000000000e+01,1.370000000000000000e+02,5.500000000000000000e+01,5.500000000000000444e-01,6.015484300000000000e+09
4.000000000000000000e+01,7.900000000000000000e+01,3.730000000000000000e+02,2.280000000000000000e+02,7.200000000000000000e+01,6.900000000000000000e+01,7.400000000000000000e+01,4.200000000000000000e+01,5.600000000000000533e-01,6.034488700000000000e+09
4.900000000000000000e+01,1.310000000000000000e+02,4.480000000000000000e+02,3.080000000000000000e+02,1.010000000000000000e+02,9.000000000000000000e+01,6.000000000000000000e+01,3.300000000000000000e+01,5.699999999999999512e-01,6.054834700000000000e+09
5.200000000000000000e+01,1.470000000000000000e+02,5.790000000000000000e+02,3.670000000000000000e+02,1.730000000000000000e+02,1.220000000000000000e+02,5.700000000000000000e+01,3.600000000000000000e+01,5.699999999999999512e-01,6.076905300000000000e+09
5.500000000000000000e+01,1.490000000000000000e+02,6.110000000000000000e+02,4.030000000000000000e+02,2.140000000000000000e+02,1.660000000000000000e+02,6.500000000000000000e+01,4.000000000000000000e+01,5.600000000000000533e-01,6.096311700000000000e+09
8.600000000000000000e+01,2.120000000000000000e+02,7.490000000000000000e+02,5.300000000000000000e+02,3.110000000000000000e+02,2.070000000000000000e+02,7.400000000000000000e+01,5.300000000000000000e+01,5.500000000000000444e-01,6.114975500000000000e+09
1.070000000000000000e+02,2.620000000000000000e+02,8.360000000000000000e+02,6.220000000000000000e+02,3.200000000000000000e+02,2.280000000000000000e+02,7.400000000000000000e+01,6.300000000000000000e+01,5.300000000000000266e-01,6.133873200000000000e+09
1.100000000000000000e+02,2.730000000000000000e+02,9.450000000000000000e+02,6.760000000000000000e+02,3.840000000000000000e+02,2.530000000000000000e+02,7.900000000000000000e+01,6.600000000000000000e+01,5.100000000000000089e-01,6.154596200000000000e+09
1.400000000000000000e+02,3.680000000000000000e+02,1.046000000000000000e+03,8.130000000000000000e+02,3.910000000000000000e+02,2.430000000000000000e+02,8.900000000000000000e+01,7.500000000000000000e+01,4.799999999999999822e-01,6.176667400000000000e+09
1.790000000000000000e+02,4.300000000000000000e+02,1.121000000000000000e+03,9.510000000000000000e+02,3.800000000000000000e+02,2.350000000000000000e+02,8.400000000000000000e+01,9.900000000000000000e+01,4.600000000000000200e-01,6.195679500000000000e+09
1.830000000000000000e+02,4.320000000000000000e+02,1.136000000000000000e+03,9.730000000000000000e+02,3.220000000000000000e+02,2.100000000000000000e+02,7.700000000000000000e+01,1.010000000000000000e+02,4.400000000000000022e-01,6.214727800000000000e+09
1.930000000000000000e+02,4.440000000000000000e+02,1.182000000000000000e+03,1.000000000000000000e+03,4.390000000000000000e+02,2.130000000000000000e+02,8.600000000000000000e+01,1.070000000000000000e+02,4.099999999999999756e-01,6.233970500000000000e+09
2.060000000000000000e+02,4.490000000000000000e+02,1.173000000000000000e+03,9.750000000000000000e+02,4.140000000000000000e+02,2.020000000000000000e+02,9.400000000000000000e+01,1.170000000000000000e+02,3.800000000000000044e-01,6.254448500000000000e+09
2.260000000000000000e+02,4.320000000000000000e+02,1.110000000000000000e+03,9.640000000000000000e+02,4.030000000000000000e+02,2.180000000000000000e+02,1.010000000000000000e+02,1.370000000000000000e+02,3.599999999999999867e-01,6.276598100000000000e+09
2.140000000000000000e+02,4.290000000000000000e+02,1.163000000000000000e+03,1.011000000000000000e+03,4.180000000000000000e+02,2.370000000000000000e+02,1.150000000000000000e+02,1.330000000000000000e+02,3.300000000000000155e-01,6.295567300000000000e+09
2.270000000000000000e+02,4.510000000000000000e+02,1.214000000000000000e+03,1.005000000000000000e+03,4.390000000000000000e+02,2.730000000000000000e+02,1.210000000000000000e+02,1.390000000000000000e+02,3.099999999999999978e-01,6.315080000000000000e+09
2.170000000000000000e+02,4.310000000000000000e+02,1.157000000000000000e+03,9.970000000000000000e+02,3.250000000000000000e+02,2.590000000000000000e+02,1.190000000000000000e+02,1.360000000000000000e+02,2.999999999999999889e-01,6.335090900000000000e+09
2.090000000000000000e+02,4.490000000000000000e+02,1.130000000000000000e+03,1.017000000000000000e+03,2.920000000000000000e+02,2.610000000000000000e+02,1.130000000000000000e+02,1.310000000000000000e+02,2.899999999999999800e-01,6.354987200000000000e+09
2.160000000000000000e+02,4.680000000000000000e+02,1.114000000000000000e+03,1.017000000000000000e+03,3.180000000000000000e+02,2.700000000000000000e+02,1.140000000000000000e+02,1.300000000000000000e+02,2.800000000000000266e-01,6.376798900000000000e+09
2.010000000000000000e+02,4.320000000000000000e+02,1.048000000000000000e+03,9.850000000000000000e+02,2.950000000000000000e+02,2.420000000000000000e+02,1.030000000000000000e+02,1.190000000000000000e+02,2.800000000000000266e-01,6.396117400000000000e+09
1.880000000000000000e+02,4.440000000000000000e+02,1.014000000000000000e+03,1.051000000000000000e+03,2.790000000000000000e+02,2.280000000000000000e+02,1.020000000000000000e+02,1.130000000000000000e+02,2.700000000000000178e-01,6.415763700000000000e+09
1.940000000000000000e+02,4.680000000000000000e+02,1.084000000000000000e+03,1.164000000000000000e+03,2.990000000000000000e+02,2.390000000000000000e+02,1.120000000000000000e+02,1.110000000000000000e+02,2.700000000000000178e-01,6.434695800000000000e+09
1.940000000000000000e+02,4.450000000000000000e+02,1.103000000000000000e+03,1.177000000000000000e+03,3.110000000000000000e+02,2.330000000000000000e+02,1.130000000000000000e+02,1.150000000000000000e+02,2.600000000000000089e-01,6.454484600000000000e+09
1.600000000000000000e+02,4.500000000000000000e+02,1.116000000000000000e+03,1.251000000000000000e+03,2.930000000000000000e+02,2.290000000000000000e+02,1.070000000000000000e+02,9.400000000000000000e+01,2.600000000000000089e-01,6.476519400000000000e+09
1.730000000000000000e+02,4.700000000000000000e+02,1.068000000000000000e+03,1.217000000000000000e+03,3.220000000000000000e+02,2.490000000000000000e+02,1.050000000000000000e+02,1.000000000000000000e+02,2.600000000000000089e-01,6.496218300000000000e+09
1.890000000000000000e+02,4.730000000000000000e+02,1.029000000000000000e+03,1.192000000000000000e+03,3.150000000000000000e+02,2.350000000000000000e+02,1.080000000000000000e+02,1.090000000000000000e+02,2.500000000000000000e-01,6.515264200000000000e+09
1.850000000000000000e+02,4.610000000000000000e+02,1.099000000000000000e+03,1.079000000000000000e+03,3.100000000000000000e+02,2.440000000000000000e+02,1.050000000000000000e+02,1.100000000000000000e+02,2.500000000000000000e-01,6.537823500000000000e+09
1.850000000000000000e+02,4.730000000000000000e+02,1.050000000000000000e+03,1.083000000000000000e+03,3.010000000000000000e+02,2.400000000000000000e+02,1.080000000000000000e+02,1.070000000000000000e+02,2.500000000000000000e-01,6.557152500000000000e+09
1.820000000000000000e+02,4.630000000000000000e+02,1.069000000000000000e+03,9.880000000000000000e+02,2.900000000000000000e+02,2.330000000000000000e+02,1.030000000000000000e+02,1.090000000000000000e+02,2.500000000000000000e-01,6.576569400000000000e+09
1.730000000000000000e+02,4.590000000000000000e+02,1.079000000000000000e+03,9.680000000000000000e+02,2.920000000000000000e+02,2.080000000000000000e+02,1.030000000000000000e+02,1.040000000000000000e+02,2.399999999999999911e-01,6.595755900000000000e+09
1.460000000000000000e+02,4.150000000000000000e+02,1.100000000000000000e+03,9.140000000000000000e+02,3.000000000000000000e+02,1.990000000000000000e+02,9.400000000000000000e+01,8.900000000000000000e+01,2.399999999999999911e-01,6.615003800000000000e+09
1.350000000000000000e+02,3.910000000000000000e+02,1.007000000000000000e+03,8.840000000000000000e+02,2.790000000000000000e+02,1.740000000000000000e+02,8.000000000000000000e+01,8.200000000000000000e+01,2.300000000000000100e-01,6.633770800000000000e+09
1.530000000000000000e+02,3.900000000000000000e+02,1.072000000000000000e+03,9.180000000000000000e+02,2.820000000000000000e+02,1.660000000000000000e+02,7.500000000000000000e+01,8.600000000000000000e+01,2.300000000000000100e-01,6.654570500000000000e+09
1.500000000000000000e+02,3.520000000000000000e+02,1.023000000000000000e+03,9.010000000000000000e+02,2.880000000000000000e+02,1.630000000000000000e+02,7.300000000000000000e+01,8.500000000000000000e+01,2.200000000000000011e-01,6.676466300000000000e+09
1.500000000000000000e+02,3.340000000000000000e+02,1.089000000000000000e+03,8.260000000000000000e+02,2.450000000000000000e+02,1.610000000000000000e+02,7.300000000000000000e+01,8.300000000000000000e+01,2.200000000000000011e-01,6.695221900000000000e+09
1.750000000000000000e+02,4.160000000000000000e+02,1.087000000000000000e+03,8.760000000000000000e+02,2.610000000000000000e+02,1.720000000000000000e+02,7.700000000000000000e+01,9.900000000000000000e+01,2.200000000000000011e-01,6.714245700000000000e+09
1.760000000000000000e+02,4.310000000000000000e+02,1.058000000000000000e+03,8.990000000000000000e+02,2.560000000000000000e+02,1.610000000000000000e+02,7.500000000000000000e+01,9.900000000000000000e+01,2.200000000000000011e-01,6.732617500000000000e+09
1.770000000000000000e+02,4.790000000000000000e+02,9.810000000000000000e+02,8.540000000000000000e+02,2.570000000000000000e+02,1.590000000000000000e+02,8.400000000000000000e+01,1.040000000000000000e+02,2.099999999999999922e-01,6.754262500000000000e+09
1.650000000000000000e+02,4.550000000000000000e+02,9.680000000000000000e+02,7.570000000000000000e+02,2.290000000000000000e+02,1.500000000000000000e+02,8.000000000000000000e+01,9.400000000000000000e+01,2.000000000000000111e-01,6.776456900000000000e+09
1.870000000000000000e+02,4.740000000000000000e+02,9.320000000000000000e+02,7.830000000000000000e+02,2.470000000000000000e+02,1.640000000000000000e+02,8.700000000000000000e+01,1.080000000000000000e+02,2.000000000000000111e-01,6.794926400000000000e+09
1.580000000000000000e+02,3.870000000000000000e+02,8.220000000000000000e+02,6.420000000000000000e+02,1.880000000000000000e+02,1.340000000000000000e+02,7.800000000000000000e+01,9.200000000000000000e+01,2.000000000000000111e-01,6.813916000000000000e+09
1.570000000000000000e+02,3.600000000000000000e+02,7.070000000000000000e+02,5.380000000000000000e+02,1.800000000000000000e+02,1.330000000000000000e+02,1.020000000000000000e+02,1.230000000000000000e+02,2.000000000000000111e-01,6.833700500000000000e+09
1.330000000000000000e+02,2.550000000000000000e+02,6.770000000000000000e+02,4.290000000000000000e+02,1.450000000000000000e+02,1.220000000000000000e+02,1.080000000000000000e+02,1.350000000000000000e+02,2.099999999999999922e-01,6.854358900000000000e+09
1.380000000000000000e+02,2.580000000000000000e+02,7.180000000000000000e+02,4.170000000000000000e+02,1.380000000000000000e+02,1.520000000000000000e+02,1.100000000000000000e+02,2.360000000000000000e+02,2.099999999999999922e-01,6.876514500000000000e+09
1.120000000000000000e+02,2.150000000000000000e+02,6.520000000000000000e+02,3.070000000000000000e+02,1.080000000000000000e+02,1.500000000000000000e+02,1.070000000000000000e+02,2.660000000000000000e+02,2.300000000000000100e-01,6.898604600000000000e+09
1.210000000000000000e+02,2.110000000000000000e+02,6.340000000000000000e+02,2.940000000000000000e+02,1.200000000000000000e+02,2.190000000000000000e+02,1.780000000000000000e+02,4.590000000000000000e+02,2.300000000000000100e-01,6.918183300000000000e+09
1.610000000000000000e+02,2.090000000000000000e+02,6.400000000000000000e+02,3.020000000000000000e+02,1.370000000000000000e+02,2.810000000000000000e+02,2.960000000000000000e+02,6.050000000000000000e+02,2.300000000000000100e-01,6.936890700000000000e+09
1.660000000000000000e+02,2.200000000000000000e+02,6.780000000000000000e+02,2.960000000000000000e+02,1.410000000000000000e+02,3.040000000000000000e+02,3.380000000000000000e+02,6.630000000000000000e+02,2.399999999999999911e-01,6.955771000000000000e+09
1.670000000000000000e+02,2.020000000000000000e+02,6.500000000000000000e+02,2.870000000000000000e+02,1.440000000000000000e+02,2.920000000000000000e+02,3.460000000000000000e+02,6.760000000000000000e+02,2.399999999999999911e-01,6.976362400000000000e+09
1.660000000000000000e+02,1.720000000000000000e+02,6.360000000000000000e+02,2.830000000000000000e+02,1.440000000000000000e+02,2.910000000000000000e+02,3.600000000000000000e+02,6.860000000000000000e+02,2.399999999999999911e-01,6.998793100000000000e+09
1.720000000000000000e+02,1.770000000000000000e+02,6.260000000000000000e+02,2.790000000000000000e+02,1.420000000000000000e+02,3.150000000000000000e+02,3.900000000000000000e+02,5.990000000000000000e+02,2.500000000000000000e-01,7.017827400000000000e+09
1.670000000000000000e+02,1.760000000000000000e+02,6.200000000000000000e+02,2.590000000000000000e+02,1.220000000000000000e+02,2.760000000000000000e+02,3.400000000000000000e+02,5.320000000000000000e+02,2.600000000000000089e-01,7.037830100000000000e+09
1.600000000000000000e+02,1.630000000000000000e+02,5.950000000000000000e+02,2.150000000000000000e+02,1.150000000000000000e+02,2.610000000000000000e+02,3.120000000000000000e+02,4.760000000000000000e+02,2.700000000000000178e-01,7.057032200000000000e+09
1.740000000000000000e+02,1.700000000000000000e+02,6.680000000000000000e+02,2.610000000000000000e+02,1.180000000000000000e+02,2.560000000000000000e+02,3.150000000000000000e+02,4.480000000000000000e+02,2.700000000000000178e-01,7.076389700000000000e+09
1.750000000000000000e+02,1.590000000000000000e+02,6.390000000000000000e+02,2.420000000000000000e+02,9.800000000000000000e+01,2.600000000000000000e+02,3.610000000000000000e+02,4.650000000000000000e+02,2.800000000000000266e-01,7.098634200000000000e+09
1.710000000000000000e+02,1.480000000000000000e+02,6.280000000000000000e+02,2.400000000000000000e+02,8.700000000000000000e+01,1.760000000000000000e+02,3.700000000000000000e+02,4.740000000000000000e+02,2.800000000000000266e-01,7.117132700000000000e+09
1.490000000000000000e+02,1.500000000000000000e+02,6.290000000000000000e+02,2.420000000000000000e+02,8.600000000000000000e+01,1.730000000000000000e+02,3.550000000000000000e+02,6.390000000000000000e+02,2.800000000000000266e-01,7.135817400000000000e+09
1.690000000000000000e+02,1.360000000000000000e+02,6.430000000000000000e+02,2.510000000000000000e+02,9.800000000000000000e+01,1.870000000000000000e+02,3.480000000000000000e+02,6.630000000000000000e+02,2.899999999999999800e-01,7.154555600000000000e+09
1.450000000000000000e+02,1.020000000000000000e+02,5.690000000000000000e+02,1.560000000000000000e+02,7.500000000000000000e+01,1.840000000000000000e+02,3.360000000000000000e+02,6.550000000000000000e+02,2.899999999999999800e-01,7.176584000000000000e+09
1.330000000000000000e+02,1.010000000000000000e+02,5.370000000000000000e+02,1.410000000000000000e+02,7.200000000000000000e+01,1.640000000000000000e+02,2.700000000000000000e+02,6.300000000000000000e+02,2.999999999999999889e-01,7.198626200000000000e+09
1.210000000000000000e+02,9.000000000000000000e+01,5.310000000000000000e+02,1.380000000000000000e+02,6.500000000000000000e+01,1.540000000000000000e+02,1.570000000000000000e+02,6.090000000000000000e+02,3.099999999999999978e-01,7.217344400000000000e+09
1.060000000000000000e+02,8.100000000000000000e+01,5.130000000000000000e+02,1.300000000000000000e+02,6.100000000000000000e+01,1.260000000000000000e+02,1.060000000000000000e+02,3.290000000000000000e+02,3.200000000000000067e-01,7.236304500000000000e+09
6.600000000000000000e+01,8.400000000000000000e+01,5.090000000000000000e+02,1.160000000000000000e+02,3.600000000000000000e+01,6.500000000000000000e+01,8.900000000000000000e+01,2.360000000000000000e+02,3.300000000000000155e-01,7.254811300000000000e+09
6.000000000000000000e+01,8.600000000000000000e+01,4.280000000000000000e+02,1.430000000000000000e+02,4.200000000000000000e+01,5.200000000000000000e+01,8.700000000000000000e+01,1.980000000000000000e+02,3.499999999999999778e-01,7.276525000000000000e+09
5.000000000000000000e+01,8.400000000000000000e+01,4.260000000000000000e+02,1.480000000000000000e+02,4.200000000000000000e+01,4.700000000000000000e+01,7.400000000000000000e+01,1.570000000000000000e+02,3.599999999999999867e-01,7.298863400000000000e+09
4.200000000000000000e+01,8.500000000000000000e+01,4.200000000000000000e+02,1.490000000000000000e+02,4.500000000000000000e+01,4.100000000000000000e+01,7.000000000000000000e+01,1.220000000000000000e+02,3.800000000000000044e-01,7.317694400000000000e+09
4.100000000000000000e+01,8.700000000000000000e+01,4.230000000000000000e+02,1.530000000000000000e+02,4.600000000000000000e+01,3.900000000000000000e+01,6.800000000000000000e+01,9.600000000000000000e+01,3.900000000000000133e-01,7.337578200000000000e+09
3.100000000000000000e+01,7.000000000000000000e+01,3.160000000000000000e+02,1.310000000000000000e+02,3.900000000000000000e+01,3.200000000000000000e+01,3.600000000000000000e+01,7.600000000000000000e+01,4.000000000000000222e-01,7.357875000000000000e+09
6.100000000000000000e+01,1.130000000000000000e+02,3.330000000000000000e+02,1.490000000000000000e+02,4.400000000000000000e+01,3.700000000000000000e+01,4.600000000000000000e+01,6.800000000000000000e+01,4.099999999999999756e-01,7.378083600000000000e+09
6.300000000000000000e+01,1.140000000000000000e+02,3.560000000000000000e+02,1.500000000000000000e+02,4.400000000000000000e+01,3.800000000000000000e+01,8.300000000000000000e+01,6.600000000000000000e+01,4.299999999999999933e-01,7.398659700000000000e+09
6.300000000000000000e+01,1.140000000000000000e+02,3.690000000000000000e+02,1.490000000000000000e+02,4.300000000000000000e+01,3.900000000000000000e+01,9.300000000000000000e+01,6.400000000000000000e+01,4.500000000000000111e-01,7.417576300000000000e+09
6.700000000000000000e+01,1.140000000000000000e+02,3.730000000000000000e+02,1.440000000000000000e+02,4.300000000000000000e+01,4.400000000000000000e+01,9.900000000000000000e+01,6.000000000000000000e+01,4.699999999999999734e-01,7.443776100000000000e+09
7.600000000000000000e+01,1.290000000000000000e+02,4.140000000000000000e+02,1.780000000000000000e+02,5.100000000000000000e+01,7.100000000000000000e+01,1.280000000000000000e+02,7.400000000000000000e+01,5.000000000000000000e-01,7.462440800000000000e+09
6.000000000000000000e+01,9.700000000000000000e+01,3.990000000000000000e+02,1.470000000000000000e+02,4.200000000000000000e+01,6.700000000000000000e+01,1.450000000000000000e+02,6.800000000000000000e+01,5.100000000000000089e-01,7.481245500000000000e+09
6.600000000000000000e+01,1.120000000000000000e+02,5.390000000000000000e+02,1.540000000000000000e+02,5.200000000000000000e+01,7.500000000000000000e+01,1.370000000000000000e+02,6.900000000000000000e+01,5.300000000000000266e-01,7.501259300000000000e+09
6.800000000000000000e+01,1.170000000000000000e+02,5.640000000000000000e+02,1.620000000000000000e+02,5.100000000000000000e+01,8.100000000000000000e+01,1.320000000000000000e+02,7.900000000000000000e+01,5.400000000000000355e-01,7.521382000000000000e+09
7.300000000000000000e+01,1.280000000000000000e+02,6.270000000000000000e+02,1.910000000000000000e+02,5.500000000000000000e+01,8.200000000000000000e+01,1.320000000000000000e+02,1.730000000000000000e+02,5.500000000000000444e-01,7.541005100000000000e+09
6.700000000000000000e+01,1.140000000000000000e+02,6.230000000000000000e+02,1.690000000000000000e+02,4.700000000000000000e+01,6.100000000000000000e+01,1.060000000000000000e+02,1.760000000000000000e+02,5.600000000000000533e-01,7.561017500000000000e+09
7.100000000000000000e+01,1.190000000000000000e+02,6.180000000000000000e+02,1.930000000000000000e+02,4.700000000000000000e+01,6.100000000000000000e+01,8.600000000000000000e+01,1.890000000000000000e+02,5.600000000000000533e-01,7.580546600000000000e+09
7.200000000000000000e+01,1.190000000000000000e+02,5.700000000000000000e+02,2.300000000000000000e+02,5.000000000000000000e+01,5.700000000000000000e+01,7.200000000000000000e+01,1.910000000000000000e+02,5.699999999999999512e-01,7.599629400000000000e+09
8.500000000000000000e+01,1.360000000000000000e+02,5.770000000000000000e+02,2.440000000000000000e+02,5.400000000000000000e+01,5.300000000000000000e+01,9.400000000000000000e+01,1.930000000000000000e+02,5.799999999999999600e-01,7.618534500000000000e+09
8.000000000000000000e+01,1.350000000000000000e+02,5.610000000000000000e+02,2.240000000000000000e+02,5.100000000000000000e+01,4.800000000000000000e+01,9.200000000000000000e+01,1.200000000000000000e+02,5.799999999999999600e-01,7.636790500000000000e+09
8.900000000000000000e+01,1.650000000000000000e+02,5.570000000000000000e+02,2.250000000000000000e+02,5.400000000000000000e+01,4.900000000000000000e+01,9.300000000000000000e+01,2.700000000000000000e+02,5.899999999999999689e-01,7.657099300000000000e+09
9.300000000000000000e+01,1.660000000000000000e+02,5.120000000000000000e+02,2.010000000000000000e+02,5.200000000000000000e+01,4.900000000000000000e+01,1.290000000000000000e+02,2.760000000000000000e+02,5.799999999999999600e-01,7.676172100000000000e+09
9.100000000000000000e+01,1.630000000000000000e+02,4.360000000000000000e+02,1.810000000000000000e+02,4.900000000000000000e+01,4.900000000000000000e+01,1.320000000000000000e+02,2.810000000000000000e+02,5.799999999999999600e-01,7.695915800000000000e+09
8.000000000000000000e+01,1.580000000000000000e+02,4.080000000000000000e+02,1.540000000000000000e+02,4.300000000000000000e+01,4.300000000000000000e+01,1.160000000000000000e+02,2.790000000000000000e+02,5.799999999999999600e-01,7.718061500000000000e+09
9.000000000000000000e+01,1.670000000000000000e+02,3.560000000000000000e+02,1.610000000000000000e+02,4.600000000000000000e+01,4.400000000000000000e+01,1.310000000000000000e+02,2.820000000000000000e+02,5.699999999999999512e-01,7.736995500000000000e+09
8.700000000000000000e+01,1.460000000000000000e+02,3.640000000000000000e+02,1.490000000000000000e+02,4.200000000000000000e+01,4.300000000000000000e+01,1.610000000000000000e+02,2.130000000000000000e+02,5.699999999999999512e-01,7.755882100000000000e+09
9.000000000000000000e+01,1.850000000000000000e+02,3.660000000000000000e+02,1.460000000000000000e+02,4.300000000000000000e+01,4.100000000000000000e+01,1.280000000000000000e+02,1.950000000000000000e+02,5.699999999999999512e-01,7.776129100000000000e+09
9.200000000000000000e+01,1.880000000000000000e+02,4.480000000000000000e+02,1.390000000000000000e+02,4.100000000000000000e+01,3.900000000000000000e+01,1.320000000000000000e+02,3.080000000000000000e+02,5.600000000000000533e-01,7.795801500000000000e+09
9.400000000000000000e+01,1.810000000000000000e+02,4.600000000000000000e+02,1.370000000000000000e+02,4.200000000000000000e+01,4.700000000000000000e+01,1.850000000000000000e+02,3.260000000000000000e+02,5.600000000000000533e-01,7.818276300000000000e+09
9.000000000000000000e+01,1.910000000000000000e+02,5.470000000000000000e+02,1.420000000000000000e+02,4.200000000000000000e+01,4.500000000000000000e+01,1.800000000000000000e+02,3.280000000000000000e+02,5.500000000000000444e-01,7.836850500000000000e+09
8.300000000000000000e+01,1.970000000000000000e+02,5.340000000000000000e+02,1.570000000000000000e+02,4.600000000000000000e+01,4.600000000000000000e+01,1.620000000000000000e+02,3.250000000000000000e+02,5.400000000000000355e-01,7.856035100000000000e+09
7.300000000000000000e+01,1.600000000000000000e+02,5.620000000000000000e+02,1.560000000000000000e+02,4.600000000000000000e+01,4.900000000000000000e+01,1.730000000000000000e+02,3.350000000000000000e+02,5.300000000000000266e-01,7.877717000000000000e+09
6.800000000000000000e+01,1.500000000000000000e+02,5.010000000000000000e+02,1.260000000000000000e+02,3.900000000000000000e+01,4.400000000000000000e+01,1.800000000000000000e+02,3.350000000000000000e+02,5.200000000000000178e-01,7.896916400000000000e+09
6.500000000000000000e+01,1.630000000000000000e+02,4.770000000000000000e+02,1.270000000000000000e+02,3.700000000000000000e+01,3.800000000000000000e+01,1.610000000000000000e+02,3.230000000000000000e+02,5.100000000000000089e-01,7.918841300000000000e+09
7.300000000000000000e+01,2.030000000000000000e+02,4.770000000000000000e+02,1.480000000000000000e+02,3.600000000000000000e+01,3.700000000000000000e+01,1.540000000000000000e+02,3.460000000000000000e+02,5.100000000000000089e-01,7.937941700000000000e+09
8.000000000000000000e+01,1.960000000000000000e+02,5.280000000000000000e+02,1.390000000000000000e+02,3.100000000000000000e+01,3.400000000000000000e+01,1.590000000000000000e+02,3.850000000000000000e+02,5.100000000000000089e-01,7.956909400000000000e+09
8.600000000000000000e+01,2.010000000000000000e+02,5.800000000000000000e+02,1.590000000000000000e+02,3.800000000000000000e+01,4.500000000000000000e+01,2.910000000000000000e+02,4.060000000000000000e+02,5.000000000000000000e-01,7.975453600000000000e+09
8.600000000000000000e+01,2.100000000000000000e+02,5.740000000000000000e+02,1.590000000000000000e+02,3.700000000000000000e+01,4.500000000000000000e+01,3.010000000000000000e+02,3.330000000000000000e+02,4.899999999999999911e-01,7.997357100000000000e+09
9.000000000000000000e+01,2.120000000000000000e+02,5.850000000000000000e+02,1.650000000000000000e+02,4.200000000000000000e+01,4.500000000000000000e+01,2.890000000000000000e+02,3.270000000000000000e+02,4.899999999999999911e-01,8.015730300000000000e+09
7.900000000000000000e+01,1.510000000000000000e+02,4.880000000000000000e+02,1.300000000000000000e+02,3.700000000000000000e+01,4.300000000000000000e+01,2.940000000000000000e+02,2.980000000000000000e+02,4.799999999999999822e-01,8.035167100000000000e+09
7.200000000000000000e+01,1.540000000000000000e+02,4.060000000000000000e+02,1.190000000000000000e+02,3.600000000000000000e+01,4.400000000000000000e+01,2.900000000000000000e+02,1.970000000000000000e+02,4.799999999999999822e-01,8.054194600000000000e+09
6.500000000000000000e+01,1.500000000000000000e+02,3.190000000000000000e+02,1.270000000000000000e+02,3.600000000000000000e+01,3.300000000000000000e+01,1.480000000000000000e+02,1.220000000000000000e+02,4.799999999999999822e-01,8.081046500000000000e+09
6.500000000000000000e+01,1.920000000000000000e+02,5.310000000000000000e+02,2.500000000000000000e+02,5.900000000000000000e+01,4.300000000000000000e+01,1.070000000000000000e+02,9.500000000000000000e+01,4.899999999999999911e-01,8.099664400000000000e+09
6.500000000000000000e+01,2.010000000000000000e+02,6.610000000000000000e+02,3.290000000000000000e+02,8.100000000000000000e+01,4.900000000000000000e+01,9.200000000000000000e+01,9.000000000000000000e+01,4.899999999999999911e-01,8.118388600000000000e+09
7.400000000000000000e+01,2.160000000000000000e+02,8.250000000000000000e+02,4.080000000000000000e+02,9.200000000000000000e+01,5.900000000000000000e+01,7.700000000000000000e+01,8.900000000000000000e+01,5.000000000000000000e-01,8.138119900000000000e+09
1.060000000000000000e+02,2.590000000000000000e+02,9.410000000000000000e+02,5.380000000000000000e+02,1.300000000000000000e+02,8.100000000000000000e+01,6.700000000000000000e+01,7.000000000000000000e+01,4.899999999999999911e-01,8.157892300000000000e+09
1.240000000000000000e+02,3.040000000000000000e+02,1.043000000000000000e+03,6.230000000000000000e+02,1.450000000000000000e+02,9.500000000000000000e+01,6.000000000000000000e+01,7.400000000000000000e+01,4.899999999999999911e-01,8.177797400000000000e+09
1.450000000000000000e+02,3.250000000000000000e+02,1.081000000000000000e+03,7.670000000000000000e+02,1.780000000000000000e+02,1.180000000000000000e+02,6.700000000000000000e+01,7.800000000000000000e+01,4.799999999999999822e-01,8.198168900000000000e+09
1.810000000000000000e+02,4.160000000000000000e+02,1.121000000000000000e+03,8.820000000000000000e+02,2.130000000000000000e+02,1.440000000000000000e+02,7.900000000000000000e+01,9.300000000000000000e+01,4.699999999999999734e-01,8.217242000000000000e+09
2.040000000000000000e+02,4.640000000000000000e+02,1.177000000000000000e+03,1.001000000000000000e+03,2.310000000000000000e+02,1.550000000000000000e+02,8.000000000000000000e+01,1.010000000000000000e+02,4.500000000000000111e-01,8.236012300000000000e+09
1.950000000000000000e+02,4.570000000000000000e+02,1.183000000000000000e+03,1.083000000000000000e+03,2.360000000000000000e+02,1.510000000000000000e+02,7.700000000000000000e+01,9.700000000000000000e+01,4.400000000000000022e-01,8.255424500000000000e+09
2.020000000000000000e+02,4.930000000000000000e+02,1.213000000000000000e+03,1.118000000000000000e+03,2.460000000000000000e+02,1.500000000000000000e+02,8.500000000000000000e+01,1.020000000000000000e+02,4.299999999999999933e-01,8.275789400000000000e+09
2.050000000000000000e+02,4.820000000000000000e+02,1.218000000000000000e+03,1.160000000000000000e+03,2.710000000000000000e+02,1.630000000000000000e+02,8.700000000000000000e+01,1.080000000000000000e+02,4.099999999999999756e-01,8.298108600000000000e+09
2.140000000000000000e+02,4.400000000000000000e+02,1.270000000000000000e+03,1.171000000000000000e+03,3.260000000000000000e+02,1.720000000000000000e+02,1.050000000000000000e+02,1.230000000000000000e+02,4.000000000000000222e-01,8.317879600000000000e+09
2.270000000000000000e+02,4.620000000000000000e+02,1.224000000000000000e+03,1.168000000000000000e+03,3.690000000000000000e+02,1.930000000000000000e+02,1.200000000000000000e+02,1.320000000000000000e+02,3.699999999999999956e-01,8.339485600000000000e+09
2.410000000000000000e+02,5.250000000000000000e+02,1.226000000000000000e+03,1.101000000000000000e+03,3.760000000000000000e+02,1.990000000000000000e+02,1.230000000000000000e+02,1.390000000000000000e+02,3.499999999999999778e-01,8.359767700000000000e+09
2.310000000000000000e+02,4.960000000000000000e+02,1.228000000000000000e+03,1.164000000000000000e+03,3.940000000000000000e+02,2.100000000000000000e+02,1.270000000000000000e+02,1.360000000000000000e+02,3.300000000000000155e-01,8.378779100000000000e+09
2.200000000000000000e+02,5.030000000000000000e+02,1.222000000000000000e+03,1.079000000000000000e+03,3.710000000000000000e+02,1.930000000000000000e+02,1.230000000000000000e+02,1.290000000000000000e+02,3.200000000000000067e-01,8.398219100000000000e+09
1.970000000000000000e+02,5.260000000000000000e+02,1.134000000000000000e+03,1.019000000000000000e+03,3.200000000000000000e+02,1.820000000000000000e+02,1.050000000000000000e+02,1.120000000000000000e+02,2.999999999999999889e-01,8.416981300000000000e+09
1.660000000000000000e+02,5.010000000000000000e+02,1.212000000000000000e+03,1.033000000000000000e+03,2.690000000000000000e+02,1.690000000000000000e+02,8.900000000000000000e+01,9.600000000000000000e+01,2.899999999999999800e-01,8.436119100000000000e+09
1.460000000000000000e+02,4.590000000000000000e+02,1.300000000000000000e+03,1.063000000000000000e+03,2.560000000000000000e+02,1.630000000000000000e+02,9.000000000000000000e+01,8.400000000000000000e+01,2.800000000000000266e-01,8.456711800000000000e+09
1.720000000000000000e+02,4.720000000000000000e+02,1.268000000000000000e+03,9.960000000000000000e+02,2.800000000000000000e+02,1.710000000000000000e+02,9.400000000000000000e+01,9.800000000000000000e+01,2.700000000000000178e-01,8.475870500000000000e+09
1.960000000000000000e+02,5.050000000000000000e+02,1.273000000000000000e+03,1.013000000000000000e+03,3.150000000000000000e+02,1.860000000000000000e+02,1.010000000000000000e+02,1.130000000000000000e+02,2.600000000000000089e-01,8.497830200000000000e+09
1.820000000000000000e+02,4.890000000000000000e+02,1.308000000000000000e+03,9.940000000000000000e+02,3.060000000000000000e+02,1.760000000000000000e+02,1.000000000000000000e+02,1.090000000000000000e+02,2.500000000000000000e-01,8.516991500000000000e+09
2.040000000000000000e+02,5.210000000000000000e+02,1.215000000000000000e+03,1.018000000000000000e+03,3.230000000000000000e+02,1.990000000000000000e+02,1.060000000000000000e+02,1.180000000000000000e+02,2.500000000000000000e-01,8.536129400000000000e+09
2.030000000000000000e+02,4.940000000000000000e+02,1.158000000000000000e+03,1.000000000000000000e+03,3.260000000000000000e+02,2.010000000000000000e+02,1.010000000000000000e+02,1.190000000000000000e+02,2.399999999999999911e-01,8.554770200000000000e+09
2.050000000000000000e+02,4.920000000000000000e+02,1.151000000000000000e+03,9.980000000000000000e+02,3.090000000000000000e+02,1.940000000000000000e+02,9.800000000000000000e+01,1.220000000000000000e+02,2.300000000000000100e-01,8.575839800000000000e+09
1.820000000000000000e+02,4.790000000000000000e+02,1.095000000000000000e+03,9.480000000000000000e+02,2.760000000000000000e+02,1.790000000000000000e+02,9.400000000000000000e+01,1.090000000000000000e+02,2.200000000000000011e-01,8.597984200000000000e+09
1.970000000000000000e+02,4.670000000000000000e+02,1.032000000000000000e+03,9.530000000000000000e+02,2.850000000000000000e+02,1.830000000000000000e+02,9.400000000000000000e+01,1.140000000000000000e+02,2.200000000000000011e-01,8.616947300000000000e+09
1.670000000000000000e+02,4.280000000000000000e+02,1.020000000000000000e+03,7.700000000000000000e+02,2.630000000000000000e+02,1.440000000000000000e+02,8.500000000000000000e+01,1.000000000000000000e+02,2.099999999999999922e-01,8.636857400000000000e+09
1.660000000000000000e+02,4.540000000000000000e+02,9.640000000000000000e+02,7.180000000000000000e+02,2.480000000000000000e+02,1.340000000000000000e+02,8.400000000000000000e+01,9.800000000000000000e+01,2.099999999999999922e-01,8.655490600000000000e+09
1.470000000000000000e+02,4.380000000000000000e+02,9.690000000000000000e+02,5.920000000000000000e+02,2.070000000000000000e+02,1.200000000000000000e+02,7.500000000000000000e+01,8.400000000000000000e+01,2.000000000000000111e-01,8.675611700000000000e+09
1.480000000000000000e+02,4.080000000000000000e+02,9.890000000000000000e+02,5.320000000000000000e+02,1.890000000000000000e+02,1.140000000000000000e+02,6.500000000000000000e+01,8.200000000000000000e+01,1.900000000000000022e-01,8.697826100000000000e+09
1.210000000000000000e+02,3.790000000000000000e+02,9.430000000000000000e+02,4.480000000000000000e+02,1.520000000000000000e+02,9.300000000000000000e+01,5.700000000000000000e+01,6.600000000000000000e+01,1.900000000000000022e-01,8.718849000000000000e+09
1.140000000000000000e+02,3.260000000000000000e+02,8.710000000000000000e+02,4.100000000000000000e+02,1.240000000000000000e+02,7.800000000000000000e+01,4.900000000000000000e+01,6.000000000000000000e+01,1.900000000000000022e-01,8.737871700000000000e+09
1.090000000000000000e+02,2.760000000000000000e+02,8.000000000000000000e+02,2.900000000000000000e+02,1.180000000000000000e+02,7.700000000000000000e+01,4.800000000000000000e+01,5.900000000000000000e+01,1.900000000000000022e-01,8.756947500000000000e+09
7.900000000000000000e+01,2.210000000000000000e+02,6.860000000000000000e+02,2.560000000000000000e+02,8.100000000000000000e+01,5.600000000000000000e+01,3.600000000000000000e+01,9.900000000000000000e+01,2.000000000000000111e-01,8.778017200000000000e+09
7.200000000000000000e+01,1.720000000000000000e+02,5.100000000000000000e+02,2.070000000000000000e+02,6.400000000000000000e+01,4.700000000000000000e+01,3.700000000000000000e+01,2.390000000000000000e+02,2.200000000000000011e-01,8.797817500000000000e+09
7.400000000000000000e+01,1.500000000000000000e+02,4.880000000000000000e+02,1.320000000000000000e+02,6.100000000000000000e+01,4.600000000000000000e+01,3.800000000000000000e+01,2.880000000000000000e+02,2.300000000000000100e-01,8.816670900000000000e+09
7.700000000000000000e+01,1.380000000000000000e+02,4.390000000000000000e+02,1.150000000000000000e+02,5.000000000000000000e+01,4.200000000000000000e+01,3.700000000000000000e+01,2.990000000000000000e+02,2.399999999999999911e-01,8.845423200000000000e+09
7.300000000000000000e+01,1.230000000000000000e+02,3.470000000000000000e+02,8.000000000000000000e+01,3.900000000000000000e+01,3.600000000000000000e+01,3.600000000000000000e+01,3.330000000000000000e+02,2.500000000000000000e-01,8.864878700000000000e+09
7.300000000000000000e+01,1.260000000000000000e+02,2.850000000000000000e+02,9.600000000000000000e+01,3.700000000000000000e+01,3.300000000000000000e+01,3.500000000000000000e+01,3.400000000000000000e+02,2.600000000000000089e-01,8.883460400000000000e+09
6.400000000000000000e+01,1.590000000000000000e+02,3.170000000000000000e+02,1.050000000000000000e+02,3.400000000000000000e+01,3.100000000000000000e+01,2.800000000000000000e+01,2.680000000000000000e+02,2.800000000000000266e-01,8.903611400000000000e+09
5.600000000000000000e+01,1.730000000000000000e+02,3.590000000000000000e+02,1.040000000000000000e+02,3.500000000000000000e+01,2.800000000000000000e+01,2.500000000000000000e+01,2.190000000000000000e+02,2.999999999999999889e-01,8.922971900000000000e+09
4.400000000000000000e+01,1.810000000000000000e+02,3.660000000000000000e+02,1.140000000000000000e+02,3.900000000000000000e+01,4.600000000000000000e+01,2.800000000000000000e+01,2.090000000000000000e+02,3.300000000000000155e-01,8.942465200000000000e+09
4.300000000000000000e+01,1.910000000000000000e+02,4.900000000000000000e+02,1.390000000000000000e+02,4.300000000000000000e+01,5.000000000000000000e+01,2.900000000000000000e+01,1.580000000000000000e+02,3.499999999999999778e-01,8.961687000000000000e+09
4.200000000000000000e+01,2.020000000000000000e+02,5.930000000000000000e+02,1.780000000000000000e+02,4.200000000000000000e+01,5.100000000000000000e+01,3.000000000000000000e+01,1.180000000000000000e+02,3.800000000000000044e-01,8.981087000000000000e+09
5.400000000000000000e+01,1.730000000000000000e+02,6.650000000000000000e+02,2.690000000000000000e+02,6.000000000000000000e+01,8.400000000000000000e+01,4.200000000000000000e+01,1.020000000000000000e+02,3.900000000000000133e-01,9.000217400000000000e+09
5.600000000000000000e+01,1.480000000000000000e+02,6.660000000000000000e+02,2.820000000000000000e+02,6.400000000000000000e+01,9.000000000000000000e+01,4.200000000000000000e+01,9.300000000000000000e+01,4.099999999999999756e-01,9.020068400000000000e+09
5.700000000000000000e+01,1.390000000000000000e+02,6.790000000000000000e+02,2.850000000000000000e+02,6.600000000000000000e+01,8.600000000000000000e+01,4.500000000000000000e+01,8.500000000000000000e+01,4.199999999999999845e-01,9.038943700000000000e+09
5.800000000000000000e+01,1.210000000000000000e+02,6.490000000000000000e+02,3.040000000000000000e+02,6.800000000000000000e+01,8.900000000000000000e+01,4.400000000000000000e+01,6.200000000000000000e+01,4.299999999999999933e-01,9.057940600000000000e+09
5.400000000000000000e+01,1.040000000000000000e+02,5.650000000000000000e+02,2.890000000000000000e+02,6.900000000000000000e+01,9.000000000000000000e+01,5.000000000000000000e+01,4.300000000000000000e+01,4.500000000000000111e-01,9.077525000000000000e+09
4.600000000000000000e+01,9.700000000000000000e+01,4.750000000000000000e+02,2.300000000000000000e+02,6.000000000000000000e+01,7.000000000000000000e+01,4.400000000000000000e+01,3.900000000000000000e+01,4.699999999999999734e-01,9.096950800000000000e+09
4.900000000000000000e+01,1.000000000000000000e+02,6.450000000000000000e+02,2.460000000000000000e+02,5.500000000000000000e+01,6.300000000000000000e+01,4.600000000000000000e+01,3.800000000000000000e+01,4.899999999999999911e-01,9.116339300000000000e+09
5.000000000000000000e+01,9.900000000000000000e+01,6.760000000000000000e+02,2.470000000000000000e+02,5.500000000000000000e+01,6.200000000000000000e+01,4.400000000000000000e+01,3.500000000000000000e+01,5.000000000000000000e-01,9.137036700000000000e+09
5.000000000000000000e+01,9.300000000000000000e+01,7.380000000000000000e+02,2.630000000000000000e+02,6.400000000000000000e+01,6.100000000000000000e+01,4.500000000000000000e+01,3.700000000000000000e+01,5.100000000000000089e-01,9.157077700000000000e+09
5.600000000000000000e+01,1.150000000000000000e+02,7.990000000000000000e+02,2.800000000000000000e+02,7.500000000000000000e+01,6.600000000000000000e+01,4.400000000000000000e+01,4.000000000000000000e+01,5.200000000000000178e-01,9.175983000000000000e+09
5.800000000000000000e+01,1.220000000000000000e+02,7.980000000000000000e+02,2.690000000000000000e+02,7.400000000000000000e+01,5.600000000000000000e+01,4.100000000000000000e+01,4.100000000000000000e+01,5.300000000000000266e-01,9.195643300000000000e+09
5.500000000000000000e+01,1.220000000000000000e+02,6.660000000000000000e+02,2.530000000000000000e+02,7.300000000000000000e+01,5.800000000000000000e+01,4.200000000000000000e+01,3.900000000000000000e+01,5.300000000000000266e-01,9.215063000000000000e+09
6.100000000000000000e+01,1.470000000000000000e+02,6.790000000000000000e+02,2.590000000000000000e+02,7.300000000000000000e+01,6.600000000000000000e+01,5.100000000000000000e+01,4.200000000000000000e+01,5.400000000000000355e-01,9.236994000000000000e+09
6.700000000000000000e+01,1.670000000000000000e+02,5.920000000000000000e+02,2.300000000000000000e+02,7.000000000000000000e+01,7.300000000000000000e+01,5.400000000000000000e+01,4.100000000000000000e+01,5.400000000000000355e-01,9.256139400000000000e+09
6.200000000000000000e+01,1.510000000000000000e+02,5.190000000000000000e+02,1.970000000000000000e+02,6.100000000000000000e+01,8.900000000000000000e+01,5.800000000000000000e+01,4.000000000000000000e+01,5.500000000000000444e-01,9.275285000000000000e+09
6.300000000000000000e+01,1.570000000000000000e+02,6.520000000000000000e+02,2.370000000000000000e+02,6.900000000000000000e+01,9.500000000000000000e+01,6.000000000000000000e+01,4.300000000000000000e+01,5.500000000000000444e-01,9.295231100000000000e+09
6.500000000000000000e+01,1.630000000000000000e+02,6.610000000000000000e+02,2.560000000000000000e+02,6.900000000000000000e+01,9.900000000000000000e+01,5.900000000000000000e+01,4.200000000000000000e+01,5.600000000000000533e-01,9.315663400000000000e+09
5.800000000000000000e+01,1.430000000000000000e+02,6.270000000000000000e+02,2.550000000000000000e+02,6.800000000000000000e+01,9.300000000000000000e+01,5.200000000000000000e+01,3.900000000000000000e+01,5.600000000000000533e-01,9.339249700000000000e+09
4.900000000000000000e+01,1.190000000000000000e+02,5.970000000000000000e+02,2.440000000000000000e+02,6.000000000000000000e+01,8.600000000000000000e+01,4.900000000000000000e+01,3.800000000000000000e+01,5.600000000000000533e-01,9.358488800000000000e+09
4.800000000000000000e+01,1.090000000000000000e+02,6.010000000000000000e+02,2.430000000000000000e+02,5.500000000000000000e+01,6.300000000000000000e+01,3.800000000000000000e+01,3.400000000000000000e+01,5.600000000000000533e-01,9.378057100000000000e+09
4.300000000000000000e+01,9.100000000000000000e+01,4.770000000000000000e+02,2.030000000000000000e+02,4.200000000000000000e+01,5.500000000000000000e+01,3.500000000000000000e+01,3.000000000000000000e+01,5.699999999999999512e-01,9.397025200000000000e+09
3.700000000000000000e+01,7.100000000000000000e+01,4.350000000000000000e+02,1.670000000000000000e+02,3.600000000000000000e+01,4.300000000000000000e+01,3.100000000000000000e+01,2.800000000000000000e+01,5.799999999999999600e-01,9.417720700000000000e+09
4.100000000000000000e+01,6.300000000000000000e+01,4.110000000000000000e+02,1.520000000000000000e+02,3.300000000000000000e+01,3.800000000000000000e+01,2.800000000000000000e+01,3.500000000000000000e+01,5.799999999999999600e-01,9.438378800000000000e+09
4.500000000000000000e+01,6.300000000000000000e+01,4.510000000000000000e+02,1.320000000000000000e+02,3.100000000000000000e+01,3.500000000000000000e+01,2.700000000000000000e+01,7.300000000000000000e+01,5.899999999999999689e-01,9.457038200000000000e+09
6.200000000000000000e+01,6.500000000000000000e+01,4.770000000000000000e+02,1.260000000000000000e+02,3.100000000000000000e+01,3.600000000000000000e+01,3.500000000000000000e+01,2.480000000000000000e+02,5.899999999999999689e-01,9.475904300000000000e+09
7.400000000000000000e+01,5.700000000000000000e+01,4.580000000000000000e+02,1.060000000000000000e+02,3.200000000000000000e+01,3.600000000000000000e+01,3.800000000000000000e+01,2.630000000000000000e+02,5.899999999999999689e-01,9.496777700000000000e+09
7.700000000000000000e+01,5.600000000000000000e+01,4.740000000000000000e+02,1.050000000000000000e+02,3.200000000000000000e+01,3.500000000000000000e+01,3.600000000000000000e+01,2.740000000000000000e+02,5.799999999999999600e-01,9.516692300000000000e+09
7.700000000000000000e+01,5.500000000000000000e+01,4.440000000000000000e+02,9.300000000000000000e+01,3.100000000000000000e+01,3.300000000000000000e+01,3.800000000000000000e+01,2.970000000000000000e+02,5.799999999999999600e-01,9.535565400000000000e+09
7.500000000000000000e+01,5.600000000000000000e+01,4.310000000000000000e+02,1.000000000000000000e+02,3.200000000000000000e+01,3.300000000000000000e+01,3.700000000000000000e+01,2.930000000000000000e+02,5.799999999999999600e-01,9.555096400000000000e+09
6.400000000000000000e+01,6.300000000000000000e+01,4.160000000000000000e+02,1.130000000000000000e+02,3.800000000000000000e+01,3.500000000000000000e+01,3.100000000000000000e+01,1.790000000000000000e+02,5.699999999999999512e-01,9.575552700000000000e+09
6.400000000000000000e+01,6.800000000000000000e+01,4.210000000000000000e+02,1.110000000000000000e+02,3.500000000000000000e+01,3.200000000000000000e+01,3.100000000000000000e+01,2.080000000000000000e+02,5.699999999999999512e-01,9.597416300000000000e+09
6.400000000000000000e+01,6.200000000000000000e+01,3.660000000000000000e+02,1.090000000000000000e+02,3.500000000000000000e+01,3.500000000000000000e+01,3.100000000000000000e+01,2.060000000000000000e+02,5.699999999999999512e-01,9.616710900000000000e+09
6.100000000000000000e+01,6.300000000000000000e+01,3.690000000000000000e+02,1.060000000000000000e+02,3.500000000000000000e+01,3.500000000000000000e+01,2.900000000000000000e+01,1.740000000000000000e+02,5.600000000000000533e-01,9.635105300000000000e+09
6.300000000000000000e+01,6.000000000000000000e+01,3.260000000000000000e+02,9.900000000000000000e+01,3.200000000000000000e+01,3.400000000000000000e+01,2.900000000000000000e+01,1.740000000000000000e+02,5.500000000000000444e-01,9.654962500000000000e+09
6.200000000000000000e+01,6.600000000000000000e+01,3.520000000000000000e+02,1.290000000000000000e+02,2.800000000000000000e+01,3.100000000000000000e+01,2.600000000000000000e+01,1.720000000000000000e+02,5.500000000000000444e-01,9.675337500000000000e+09
5.200000000000000000e+01,6.400000000000000000e+01,3.760000000000000000e+02,1.470000000000000000e+02,3.000000000000000000e+01,2.800000000000000000e+01,2.200000000000000000e+01,1.130000000000000000e+02,5.500000000000000444e-01,9.697561500000000000e+09
4.900000000000000000e+01,7.400000000000000000e+01,4.060000000000000000e+02,1.470000000000000000e+02,3.100000000000000000e+01,2.400000000000000000e+01,2.200000000000000000e+01,9.600000000000000000e+01,5.500000000000000444e-01,9.717783900000000000e+09
4.900000000000000000e+01,7.200000000000000000e+01,4.100000000000000000e+02,1.470000000000000000e+02,3.000000000000000000e+01,2.500000000000000000e+01,2.300000000000000000e+01,9.000000000000000000e+01,5.600000000000000533e-01,9.736571500000000000e+09
4.700000000000000000e+01,7.100000000000000000e+01,4.000000000000000000e+02,1.500000000000000000e+02,3.200000000000000000e+01,2.700000000000000000e+01,2.400000000000000000e+01,9.600000000000000000e+01,5.600000000000000533e-01,9.756704400000000000e+09
4.800000000000000000e+01,7.000000000000000000e+01,3.320000000000000000e+02,1.190000000000000000e+02,3.100000000000000000e+01,2.900000000000000000e+01,2.400000000000000000e+01,9.400000000000000000e+01,5.699999999999999512e-01,9.791385000000000000e+09
4.800000000000000000e+01,6.800000000000000000e+01,3.000000000000000000e+02,1.180000000000000000e+02,3.100000000000000000e+01,3.100000000000000000e+01,2.200000000000000000e+01,8.500000000000000000e+01,5.699999999999999512e-01,9.810181200000000000e+09
4.800000000000000000e+01,6.300000000000000000e+01,3.030000000000000000e+02,1.120000000000000000e+02,3.200000000000000000e+01,3.400000000000000000e+01,2.300000000000000000e+01,7.700000000000000000e+01,5.699999999999999512e-01,9.828648700000000000e+09
5.000000000000000000e+01,6.500000000000000000e+01,3.100000000000000000e+02,1.120000000000000000e+02,3.400000000000000000e+01,3.300000000000000000e+01,2.100000000000000000e+01,7.600000000000000000e+01,5.699999999999999512e-01,9.847134300000000000e+09
5.200000000000000000e+01,6.400000000000000000e+01,3.080000000000000000e+02,1.070000000000000000e+02,3.300000000000000000e+01,3.000000000000000000e+01,2.000000000000000000e+01,6.700000000000000000e+01,5.799999999999999600e-01,9.867065900000000000e+09
5.300000000000000000e+01,5.700000000000000000e+01,3.190000000000000000e+02,1.010000000000000000e+02,3.300000000000000000e+01,3.000000000000000000e+01,2.400000000000000000e+01,1.490000000000000000e+02,5.799999999999999600e-01,9.885754300000000000e+09
5.100000000000000000e+01,6.200000000000000000e+01,3.110000000000000000e+02,8.500000000000000000e+01,3.400000000000000000e+01,3.000000000000000000e+01,2.600000000000000000e+01,1.500000000000000000e+02,5.799999999999999600e-01,9.904368000000000000e+09
4.900000000000000000e+01,6.600000000000000000e+01,2.930000000000000000e+02,8.600000000000000000e+01,3.400000000000000000e+01,2.900000000000000000e+01,2.500000000000000000e+01,1.560000000000000000e+02,5.699999999999999512e-01,9.923031700000000000e+09
4.700000000000000000e+01,7.500000000000000000e+01,3.610000000000000000e+02,1.130000000000000000e+02,3.500000000000000000e+01,3.000000000000000000e+01,2.500000000000000000e+01,1.580000000000000000e+02,5.699999999999999512e-01,9.942264300000000000e+09
5.800000000000000000e+01,9.000000000000000000e+01,4.290000000000000000e+02,1.470000000000000000e+02,4.600000000000000000e+01,3.500000000000000000e+01,2.800000000000000000e+01,1.580000000000000000e+02,5.699999999999999512e-01,9.961470100000000000e+09
5.600000000000000000e+01,8.700000000000000000e+01,4.080000000000000000e+02,1.500000000000000000e+02,4.500000000000000000e+01,3.500000000000000000e+01,2.500000000000000000e+01,8.200000000000000000e+01,5.699999999999999512e-01,9.980669500000000000e+09
5.600000000000000000e+01,8.300000000000000000e+01,4.020000000000000000e+02,1.420000000000000000e+02,4.200000000000000000e+01,3.200000000000000000e+01,2.400000000000000000e+01,1.100000000000000000e+02,5.699999999999999512e-01,9.999841900000000000e+09
6.300000000000000000e+01,8.800000000000000000e+01,4.730000000000000000e+02,1.800000000000000000e+02,5.000000000000000000e+01,3.600000000000000000e+01,2.700000000000000000e+01,1.050000000000000000e+02,5.699999999999999512e-01,1.002319310000000000e+10
6.400000000000000000e+01,8.400000000000000000e+01,4.220000000000000000e+02,1.680000000000000000e+02,4.900000000000000000e+01,3.400000000000000000e+01,2.600000000000000000e+01,1.010000000000000000e+02,5.799999999999999600e-01,1.004267550000000000e+10
5.100000000000000000e+01,7.100000000000000000e+01,3.600000000000000000e+02,1.380000000000000000e+02,3.800000000000000000e+01,3.000000000000000000e+01,2.200000000000000000e+01,9.400000000000000000e+01,5.799999999999999600e-01,1.006130200000000000e+10
4.700000000000000000e+01,6.800000000000000000e+01,3.610000000000000000e+02,1.320000000000000000e+02,3.700000000000000000e+01,2.700000000000000000e+01,2.200000000000000000e+01,9.200000000000000000e+01,5.799999999999999600e-01,1.008075690000000000e+10
