1.050000000000000000e+02,7.300000000000000000e+01,4.190000000000000000e+02,2.050000000000000000e+02,3.800000000000000000e+01,4.600000000000000000e+01,5.900000000000000000e+01,3.930000000000000000e+02,5.000000000000000000e-01,4.704003000000000000e+08
1.200000000000000000e+02,7.700000000000000000e+01,4.200000000000000000e+02,2.160000000000000000e+02,3.800000000000000000e+01,3.900000000000000000e+01,5.100000000000000000e+01,3.940000000000000000e+02,5.000000000000000000e-01,4.987203000000000000e+08
1.130000000000000000e+02,8.200000000000000000e+01,4.490000000000000000e+02,2.200000000000000000e+02,3.900000000000000000e+01,3.200000000000000000e+01,4.900000000000000000e+01,3.830000000000000000e+02,4.899999999999999911e-01,7.996717000000000000e+08
1.040000000000000000e+02,6.900000000000000000e+01,3.780000000000000000e+02,1.940000000000000000e+02,3.600000000000000000e+01,2.700000000000000000e+01,4.000000000000000000e+01,2.190000000000000000e+02,4.899999999999999911e-01,8.168969000000000000e+08
1.080000000000000000e+02,6.200000000000000000e+01,3.630000000000000000e+02,1.670000000000000000e+02,3.300000000000000000e+01,2.900000000000000000e+01,4.000000000000000000e+01,2.480000000000000000e+02,4.899999999999999911e-01,8.354981000000000000e+08
9.600000000000000000e+01,6.500000000000000000e+01,3.710000000000000000e+02,1.510000000000000000e+02,3.300000000000000000e+01,3.000000000000000000e+01,4.000000000000000000e+01,2.630000000000000000e+02,5.000000000000000000e-01,8.528301000000000000e+08
8.800000000000000000e+01,6.700000000000000000e+01,3.320000000000000000e+02,1.370000000000000000e+02,3.200000000000000000e+01,3.000000000000000000e+01,4.100000000000000000e+01,2.500000000000000000e+02,5.000000000000000000e-01,8.693413000000000000e+08
9.000000000000000000e+01,6.300000000000000000e+01,3.230000000000000000e+02,1.330000000000000000e+02,2.800000000000000000e+01,2.800000000000000000e+01,3.300000000000000000e+01,2.380000000000000000e+02,5.000000000000000000e-01,8.868533000000000000e+08
8.700000000000000000e+01,6.700000000000000000e+01,4.230000000000000000e+02,1.500000000000000000e+02,2.700000000000000000e+01,3.100000000000000000e+01,3.300000000000000000e+01,2.220000000000000000e+02,5.100000000000000089e-01,9.034588000000000000e+08
7.900000000000000000e+01,7.100000000000000000e+01,4.330000000000000000e+02,1.430000000000000000e+02,3.200000000000000000e+01,3.100000000000000000e+01,3.500000000000000000e+01,2.650000000000000000e+02,5.100000000000000089e-01,9.206893000000000000e+08
7.500000000000000000e+01,6.700000000000000000e+01,4.380000000000000000e+02,1.500000000000000000e+02,3.300000000000000000e+01,3.100000000000000000e+01,3.600000000000000000e+01,2.410000000000000000e+02,5.100000000000000089e-01,9.381880000000000000e+08
6.700000000000000000e+01,7.300000000000000000e+01,5.100000000000000000e+02,1.700000000000000000e+02,3.500000000000000000e+01,3.200000000000000000e+01,3.800000000000000000e+01,2.710000000000000000e+02,5.200000000000000178e-01,9.554056000000000000e+08
8.300000000000000000e+01,7.200000000000000000e+01,4.880000000000000000e+02,1.610000000000000000e+02,3.700000000000000000e+01,3.200000000000000000e+01,4.500000000000000000e+01,2.730000000000000000e+02,5.200000000000000178e-01,9.720468000000000000e+08
8.600000000000000000e+01,7.400000000000000000e+01,3.840000000000000000e+02,1.340000000000000000e+02,3.600000000000000000e+01,3.400000000000000000e+01,6.600000000000000000e+01,3.200000000000000000e+02,5.200000000000000178e-01,9.888106000000000000e+08
8.800000000000000000e+01,7.700000000000000000e+01,3.860000000000000000e+02,1.380000000000000000e+02,3.000000000000000000e+01,3.000000000000000000e+01,6.600000000000000000e+01,2.550000000000000000e+02,5.200000000000000178e-01,1.005705400000000000e+09
9.000000000000000000e+01,8.200000000000000000e+01,4.550000000000000000e+02,1.320000000000000000e+02,3.000000000000000000e+01,3.000000000000000000e+01,6.800000000000000000e+01,2.720000000000000000e+02,5.100000000000000089e-01,1.022399900000000000e+09
8.900000000000000000e+01,7.400000000000000000e+01,3.730000000000000000e+02,1.040000000000000000e+02,2.700000000000000000e+01,2.900000000000000000e+01,6.600000000000000000e+01,2.350000000000000000e+02,5.100000000000000089e-01,1.039226000000000000e+09
9.500000000000000000e+01,8.400000000000000000e+01,3.930000000000000000e+02,1.230000000000000000e+02,3.000000000000000000e+01,3.300000000000000000e+01,6.800000000000000000e+01,3.950000000000000000e+02,5.100000000000000089e-01,1.069467500000000000e+09
9.900000000000000000e+01,8.200000000000000000e+01,4.110000000000000000e+02,1.290000000000000000e+02,3.400000000000000000e+01,3.100000000000000000e+01,6.200000000000000000e+01,3.770000000000000000e+02,5.100000000000000089e-01,1.087441800000000000e+09
1.010000000000000000e+02,7.800000000000000000e+01,4.770000000000000000e+02,1.220000000000000000e+02,3.500000000000000000e+01,3.500000000000000000e+01,7.300000000000000000e+01,3.940000000000000000e+02,5.100000000000000089e-01,1.105882300000000000e+09
9.800000000000000000e+01,7.300000000000000000e+01,4.480000000000000000e+02,1.500000000000000000e+02,3.500000000000000000e+01,3.300000000000000000e+01,7.200000000000000000e+01,4.000000000000000000e+02,5.100000000000000089e-01,1.122882300000000000e+09
1.050000000000000000e+02,8.000000000000000000e+01,4.830000000000000000e+02,1.650000000000000000e+02,3.800000000000000000e+01,3.600000000000000000e+01,7.900000000000000000e+01,4.640000000000000000e+02,5.000000000000000000e-01,1.139889000000000000e+09
9.200000000000000000e+01,7.200000000000000000e+01,5.150000000000000000e+02,1.460000000000000000e+02,3.500000000000000000e+01,3.200000000000000000e+01,7.500000000000000000e+01,3.480000000000000000e+02,5.000000000000000000e-01,1.157070800000000000e+09
8.700000000000000000e+01,7.300000000000000000e+01,5.470000000000000000e+02,1.540000000000000000e+02,3.400000000000000000e+01,3.100000000000000000e+01,6.400000000000000000e+01,3.280000000000000000e+02,5.000000000000000000e-01,1.174052700000000000e+09
8.300000000000000000e+01,7.400000000000000000e+01,5.180000000000000000e+02,1.500000000000000000e+02,3.300000000000000000e+01,2.800000000000000000e+01,5.700000000000000000e+01,3.710000000000000000e+02,5.000000000000000000e-01,1.190522400000000000e+09
8.400000000000000000e+01,7.200000000000000000e+01,5.440000000000000000e+02,1.300000000000000000e+02,3.100000000000000000e+01,2.900000000000000000e+01,7.400000000000000000e+01,3.650000000000000000e+02,5.000000000000000000e-01,1.209021800000000000e+09
6.900000000000000000e+01,6.900000000000000000e+01,5.470000000000000000e+02,1.520000000000000000e+02,3.000000000000000000e+01,2.600000000000000000e+01,7.100000000000000000e+01,2.900000000000000000e+02,4.899999999999999911e-01,1.226366000000000000e+09
5.600000000000000000e+01,7.200000000000000000e+01,5.060000000000000000e+02,1.670000000000000000e+02,2.900000000000000000e+01,2.600000000000000000e+01,7.000000000000000000e+01,2.760000000000000000e+02,4.899999999999999911e-01,1.243138300000000000e+09
5.500000000000000000e+01,7.200000000000000000e+01,4.790000000000000000e+02,1.660000000000000000e+02,3.200000000000000000e+01,2.800000000000000000e+01,7.300000000000000000e+01,2.940000000000000000e+02,4.899999999999999911e-01,1.260680200000000000e+09
5.200000000000000000e+01,6.900000000000000000e+01,4.490000000000000000e+02,1.710000000000000000e+02,3.300000000000000000e+01,2.700000000000000000e+01,6.700000000000000000e+01,2.150000000000000000e+02,4.899999999999999911e-01,1.279214500000000000e+09
5.500000000000000000e+01,6.800000000000000000e+01,3.700000000000000000e+02,1.730000000000000000e+02,3.300000000000000000e+01,2.700000000000000000e+01,4.300000000000000000e+01,1.920000000000000000e+02,5.000000000000000000e-01,1.298529600000000000e+09
5.600000000000000000e+01,6.300000000000000000e+01,3.830000000000000000e+02,1.610000000000000000e+02,3.400000000000000000e+01,2.600000000000000000e+01,3.800000000000000000e+01,1.870000000000000000e+02,5.000000000000000000e-01,1.317152500000000000e+09
5.400000000000000000e+01,5.200000000000000000e+01,4.630000000000000000e+02,1.540000000000000000e+02,3.400000000000000000e+01,2.600000000000000000e+01,3.400000000000000000e+01,1.840000000000000000e+02,5.100000000000000089e-01,1.334723300000000000e+09
5.300000000000000000e+01,5.500000000000000000e+01,4.390000000000000000e+02,1.740000000000000000e+02,3.600000000000000000e+01,2.400000000000000000e+01,2.700000000000000000e+01,1.480000000000000000e+02,5.200000000000000178e-01,1.351862200000000000e+09
5.400000000000000000e+01,6.200000000000000000e+01,4.500000000000000000e+02,2.040000000000000000e+02,3.800000000000000000e+01,2.500000000000000000e+01,2.600000000000000000e+01,1.260000000000000000e+02,5.300000000000000266e-01,1.368850600000000000e+09
4.500000000000000000e+01,6.600000000000000000e+01,4.560000000000000000e+02,2.050000000000000000e+02,4.000000000000000000e+01,2.700000000000000000e+01,2.600000000000000000e+01,1.070000000000000000e+02,5.300000000000000266e-01,1.385608900000000000e+09
4.300000000000000000e+01,6.800000000000000000e+01,3.970000000000000000e+02,1.890000000000000000e+02,3.700000000000000000e+01,2.600000000000000000e+01,2.200000000000000000e+01,7.600000000000000000e+01,5.400000000000000355e-01,1.402797100000000000e+09
4.600000000000000000e+01,6.900000000000000000e+01,2.840000000000000000e+02,1.840000000000000000e+02,3.600000000000000000e+01,2.500000000000000000e+01,2.400000000000000000e+01,1.500000000000000000e+02,5.500000000000000444e-01,1.419869400000000000e+09
6.100000000000000000e+01,8.400000000000000000e+01,3.910000000000000000e+02,1.630000000000000000e+02,3.700000000000000000e+01,2.900000000000000000e+01,2.300000000000000000e+01,1.480000000000000000e+02,5.600000000000000533e-01,1.436927600000000000e+09
6.000000000000000000e+01,7.800000000000000000e+01,3.830000000000000000e+02,1.500000000000000000e+02,3.600000000000000000e+01,3.000000000000000000e+01,2.400000000000000000e+01,1.490000000000000000e+02,5.699999999999999512e-01,1.453422400000000000e+09
6.300000000000000000e+01,7.700000000000000000e+01,4.730000000000000000e+02,1.550000000000000000e+02,4.500000000000000000e+01,3.500000000000000000e+01,2.600000000000000000e+01,1.520000000000000000e+02,5.699999999999999512e-01,1.470157700000000000e+09
6.400000000000000000e+01,7.700000000000000000e+01,5.230000000000000000e+02,1.620000000000000000e+02,4.500000000000000000e+01,3.500000000000000000e+01,2.800000000000000000e+01,1.520000000000000000e+02,5.799999999999999600e-01,1.489082000000000000e+09
6.200000000000000000e+01,8.300000000000000000e+01,5.560000000000000000e+02,1.750000000000000000e+02,4.700000000000000000e+01,3.700000000000000000e+01,2.800000000000000000e+01,7.500000000000000000e+01,5.799999999999999600e-01,1.507414800000000000e+09
4.900000000000000000e+01,6.800000000000000000e+01,5.650000000000000000e+02,1.980000000000000000e+02,4.200000000000000000e+01,3.400000000000000000e+01,4.200000000000000000e+01,2.960000000000000000e+02,5.799999999999999600e-01,1.524368500000000000e+09
4.800000000000000000e+01,7.900000000000000000e+01,6.100000000000000000e+02,1.960000000000000000e+02,4.000000000000000000e+01,3.400000000000000000e+01,4.300000000000000000e+01,3.040000000000000000e+02,5.799999999999999600e-01,1.541209100000000000e+09
5.100000000000000000e+01,8.600000000000000000e+01,5.520000000000000000e+02,2.050000000000000000e+02,4.000000000000000000e+01,3.000000000000000000e+01,4.300000000000000000e+01,3.180000000000000000e+02,5.799999999999999600e-01,1.558030500000000000e+09
5.300000000000000000e+01,8.500000000000000000e+01,5.130000000000000000e+02,2.170000000000000000e+02,4.100000000000000000e+01,3.100000000000000000e+01,4.400000000000000000e+01,3.250000000000000000e+02,5.799999999999999600e-01,1.576019900000000000e+09
5.400000000000000000e+01,8.100000000000000000e+01,4.980000000000000000e+02,2.220000000000000000e+02,4.200000000000000000e+01,3.000000000000000000e+01,4.400000000000000000e+01,3.700000000000000000e+02,5.699999999999999512e-01,1.592571500000000000e+09
5.400000000000000000e+01,8.000000000000000000e+01,4.170000000000000000e+02,2.020000000000000000e+02,4.100000000000000000e+01,3.200000000000000000e+01,3.200000000000000000e+01,2.630000000000000000e+02,5.699999999999999512e-01,1.609896600000000000e+09
5.600000000000000000e+01,7.600000000000000000e+01,4.160000000000000000e+02,2.110000000000000000e+02,4.300000000000000000e+01,3.100000000000000000e+01,3.100000000000000000e+01,2.860000000000000000e+02,5.600000000000000533e-01,1.627592800000000000e+09
5.500000000000000000e+01,6.400000000000000000e+01,4.660000000000000000e+02,2.020000000000000000e+02,3.600000000000000000e+01,2.900000000000000000e+01,2.800000000000000000e+01,2.780000000000000000e+02,5.600000000000000533e-01,1.645558900000000000e+09
5.600000000000000000e+01,7.000000000000000000e+01,5.230000000000000000e+02,2.030000000000000000e+02,3.700000000000000000e+01,2.900000000000000000e+01,2.900000000000000000e+01,2.990000000000000000e+02,5.600000000000000533e-01,1.663951600000000000e+09
6.200000000000000000e+01,6.800000000000000000e+01,4.970000000000000000e+02,1.890000000000000000e+02,3.600000000000000000e+01,3.000000000000000000e+01,3.400000000000000000e+01,3.240000000000000000e+02,5.500000000000000444e-01,1.681130300000000000e+09
6.800000000000000000e+01,7.500000000000000000e+01,4.920000000000000000e+02,2.200000000000000000e+02,4.700000000000000000e+01,3.300000000000000000e+01,3.300000000000000000e+01,3.020000000000000000e+02,5.400000000000000355e-01,1.698256900000000000e+09
6.700000000000000000e+01,9.200000000000000000e+01,4.820000000000000000e+02,2.210000000000000000e+02,4.800000000000000000e+01,3.400000000000000000e+01,3.100000000000000000e+01,2.720000000000000000e+02,5.400000000000000355e-01,1.715392500000000000e+09
7.300000000000000000e+01,9.700000000000000000e+01,4.590000000000000000e+02,2.220000000000000000e+02,4.800000000000000000e+01,3.400000000000000000e+01,3.200000000000000000e+01,2.990000000000000000e+02,5.400000000000000355e-01,1.732557600000000000e+09
7.500000000000000000e+01,1.050000000000000000e+02,4.520000000000000000e+02,2.370000000000000000e+02,5.100000000000000000e+01,4.000000000000000000e+01,3.700000000000000000e+01,2.930000000000000000e+02,5.400000000000000355e-01,1.749141300000000000e+09
7.000000000000000000e+01,1.070000000000000000e+02,4.940000000000000000e+02,2.360000000000000000e+02,5.100000000000000000e+01,4.000000000000000000e+01,6.900000000000000000e+01,2.290000000000000000e+02,5.400000000000000355e-01,1.767366900000000000e+09
7.100000000000000000e+01,1.020000000000000000e+02,4.970000000000000000e+02,2.020000000000000000e+02,4.100000000000000000e+01,3.600000000000000000e+01,7.400000000000000000e+01,2.690000000000000000e+02,5.400000000000000355e-01,1.785869100000000000e+09
7.000000000000000000e+01,9.700000000000000000e+01,4.670000000000000000e+02,1.850000000000000000e+02,4.200000000000000000e+01,3.500000000000000000e+01,7.700000000000000000e+01,2.900000000000000000e+02,5.400000000000000355e-01,1.805205100000000000e+09
5.900000000000000000e+01,1.030000000000000000e+02,4.590000000000000000e+02,1.910000000000000000e+02,4.400000000000000000e+01,3.600000000000000000e+01,8.000000000000000000e+01,2.710000000000000000e+02,5.400000000000000355e-01,1.825338000000000000e+09
5.900000000000000000e+01,9.100000000000000000e+01,3.880000000000000000e+02,1.730000000000000000e+02,3.900000000000000000e+01,3.200000000000000000e+01,7.700000000000000000e+01,2.610000000000000000e+02,5.300000000000000266e-01,1.844314200000000000e+09
6.500000000000000000e+01,1.000000000000000000e+02,3.450000000000000000e+02,1.730000000000000000e+02,4.200000000000000000e+01,3.200000000000000000e+01,6.500000000000000000e+01,2.610000000000000000e+02,5.300000000000000266e-01,1.861682400000000000e+09
5.500000000000000000e+01,1.010000000000000000e+02,3.990000000000000000e+02,1.740000000000000000e+02,4.200000000000000000e+01,3.200000000000000000e+01,6.600000000000000000e+01,2.410000000000000000e+02,5.300000000000000266e-01,1.880838600000000000e+09
6.800000000000000000e+01,9.900000000000000000e+01,4.220000000000000000e+02,1.950000000000000000e+02,4.100000000000000000e+01,3.400000000000000000e+01,6.500000000000000000e+01,2.790000000000000000e+02,5.300000000000000266e-01,1.898759500000000000e+09
7.300000000000000000e+01,9.900000000000000000e+01,3.870000000000000000e+02,1.800000000000000000e+02,4.200000000000000000e+01,3.700000000000000000e+01,7.000000000000000000e+01,3.930000000000000000e+02,5.300000000000000266e-01,1.916606300000000000e+09
7.300000000000000000e+01,1.020000000000000000e+02,4.320000000000000000e+02,1.520000000000000000e+02,4.200000000000000000e+01,3.700000000000000000e+01,8.800000000000000000e+01,3.940000000000000000e+02,5.200000000000000178e-01,1.935571800000000000e+09
8.500000000000000000e+01,1.060000000000000000e+02,4.650000000000000000e+02,1.650000000000000000e+02,3.800000000000000000e+01,3.600000000000000000e+01,7.700000000000000000e+01,4.130000000000000000e+02,5.200000000000000178e-01,1.952753200000000000e+09
9.700000000000000000e+01,1.150000000000000000e+02,4.620000000000000000e+02,1.790000000000000000e+02,4.400000000000000000e+01,3.600000000000000000e+01,8.000000000000000000e+01,4.330000000000000000e+02,5.200000000000000178e-01,1.970291500000000000e+09
1.010000000000000000e+02,1.060000000000000000e+02,4.640000000000000000e+02,1.640000000000000000e+02,4.200000000000000000e+01,3.400000000000000000e+01,8.900000000000000000e+01,4.640000000000000000e+02,5.100000000000000089e-01,1.988571700000000000e+09
1.130000000000000000e+02,1.080000000000000000e+02,5.030000000000000000e+02,1.690000000000000000e+02,4.100000000000000000e+01,3.300000000000000000e+01,8.400000000000000000e+01,3.820000000000000000e+02,5.100000000000000089e-01,2.005493000000000000e+09
1.210000000000000000e+02,1.070000000000000000e+02,4.700000000000000000e+02,1.700000000000000000e+02,4.000000000000000000e+01,3.100000000000000000e+01,7.200000000000000000e+01,4.410000000000000000e+02,5.000000000000000000e-01,2.023039400000000000e+09
1.260000000000000000e+02,9.400000000000000000e+01,4.420000000000000000e+02,1.580000000000000000e+02,4.400000000000000000e+01,3.300000000000000000e+01,7.500000000000000000e+01,4.260000000000000000e+02,5.000000000000000000e-01,2.041199500000000000e+09
1.300000000000000000e+02,8.200000000000000000e+01,4.090000000000000000e+02,1.540000000000000000e+02,3.700000000000000000e+01,3.400000000000000000e+01,6.600000000000000000e+01,4.730000000000000000e+02,5.000000000000000000e-01,2.059214400000000000e+09
1.220000000000000000e+02,8.200000000000000000e+01,3.370000000000000000e+02,1.360000000000000000e+02,3.700000000000000000e+01,3.400000000000000000e+01,5.600000000000000000e+01,4.230000000000000000e+02,4.899999999999999911e-01,2.077019800000000000e+09
1.120000000000000000e+02,6.400000000000000000e+01,3.060000000000000000e+02,1.510000000000000000e+02,3.500000000000000000e+01,3.200000000000000000e+01,5.700000000000000000e+01,4.590000000000000000e+02,4.899999999999999911e-01,2.093715900000000000e+09
1.090000000000000000e+02,9.100000000000000000e+01,3.200000000000000000e+02,1.560000000000000000e+02,3.400000000000000000e+01,3.200000000000000000e+01,5.300000000000000000e+01,4.060000000000000000e+02,4.799999999999999822e-01,2.110438300000000000e+09
9.500000000000000000e+01,1.070000000000000000e+02,2.970000000000000000e+02,1.570000000000000000e+02,2.800000000000000000e+01,2.800000000000000000e+01,4.700000000000000000e+01,4.260000000000000000e+02,4.799999999999999822e-01,2.126986400000000000e+09
8.000000000000000000e+01,1.050000000000000000e+02,3.070000000000000000e+02,1.410000000000000000e+02,3.000000000000000000e+01,2.900000000000000000e+01,4.700000000000000000e+01,3.400000000000000000e+02,4.799999999999999822e-01,2.144604300000000000e+09
7.800000000000000000e+01,1.120000000000000000e+02,3.190000000000000000e+02,1.360000000000000000e+02,2.900000000000000000e+01,2.900000000000000000e+01,4.300000000000000000e+01,3.200000000000000000e+02,4.799999999999999822e-01,2.163408200000000000e+09
7.200000000000000000e+01,1.130000000000000000e+02,2.990000000000000000e+02,1.340000000000000000e+02,2.600000000000000000e+01,2.600000000000000000e+01,3.700000000000000000e+01,2.360000000000000000e+02,4.799999999999999822e-01,2.181220400000000000e+09
6.000000000000000000e+01,8.900000000000000000e+01,2.610000000000000000e+02,1.230000000000000000e+02,2.700000000000000000e+01,2.600000000000000000e+01,3.000000000000000000e+01,2.120000000000000000e+02,4.799999999999999822e-01,2.198988600000000000e+09
5.500000000000000000e+01,6.900000000000000000e+01,2.930000000000000000e+02,1.500000000000000000e+02,3.500000000000000000e+01,3.100000000000000000e+01,2.800000000000000000e+01,1.130000000000000000e+02,4.899999999999999911e-01,2.215858300000000000e+09
5.900000000000000000e+01,6.700000000000000000e+01,2.550000000000000000e+02,1.680000000000000000e+02,3.500000000000000000e+01,3.000000000000000000e+01,2.400000000000000000e+01,9.700000000000000000e+01,4.899999999999999911e-01,2.235747600000000000e+09
5.500000000000000000e+01,5.400000000000000000e+01,2.690000000000000000e+02,1.820000000000000000e+02,3.500000000000000000e+01,2.900000000000000000e+01,2.200000000000000000e+01,7.800000000000000000e+01,5.000000000000000000e-01,2.258512800000000000e+09
6.000000000000000000e+01,5.500000000000000000e+01,3.210000000000000000e+02,1.700000000000000000e+02,3.600000000000000000e+01,2.900000000000000000e+01,2.300000000000000000e+01,1.460000000000000000e+02,5.100000000000000089e-01,2.280584400000000000e+09
7.100000000000000000e+01,8.600000000000000000e+01,4.450000000000000000e+02,2.770000000000000000e+02,5.300000000000000000e+01,3.600000000000000000e+01,2.800000000000000000e+01,1.990000000000000000e+02,5.100000000000000089e-01,2.302379500000000000e+09
7.400000000000000000e+01,8.000000000000000000e+01,4.570000000000000000e+02,2.750000000000000000e+02,5.100000000000000000e+01,3.100000000000000000e+01,2.900000000000000000e+01,2.170000000000000000e+02,5.300000000000000266e-01,2.323880500000000000e+09
7.300000000000000000e+01,8.200000000000000000e+01,5.050000000000000000e+02,2.800000000000000000e+02,5.200000000000000000e+01,3.000000000000000000e+01,3.100000000000000000e+01,2.190000000000000000e+02,5.300000000000000266e-01,2.345440800000000000e+09
7.500000000000000000e+01,9.600000000000000000e+01,5.860000000000000000e+02,2.790000000000000000e+02,5.400000000000000000e+01,3.300000000000000000e+01,3.200000000000000000e+01,2.250000000000000000e+02,5.400000000000000355e-01,2.364171300000000000e+09
7.200000000000000000e+01,9.800000000000000000e+01,5.940000000000000000e+02,2.850000000000000000e+02,5.500000000000000000e+01,3.300000000000000000e+01,3.200000000000000000e+01,1.840000000000000000e+02,5.500000000000000444e-01,2.382958000000000000e+09
6.900000000000000000e+01,8.300000000000000000e+01,5.490000000000000000e+02,1.960000000000000000e+02,3.900000000000000000e+01,2.600000000000000000e+01,2.700000000000000000e+01,1.900000000000000000e+02,5.600000000000000533e-01,2.400805500000000000e+09
6.000000000000000000e+01,8.600000000000000000e+01,5.510000000000000000e+02,1.910000000000000000e+02,4.000000000000000000e+01,2.600000000000000000e+01,2.500000000000000000e+01,1.720000000000000000e+02,5.699999999999999512e-01,2.418456900000000000e+09
5.900000000000000000e+01,8.900000000000000000e+01,5.640000000000000000e+02,1.960000000000000000e+02,4.100000000000000000e+01,2.900000000000000000e+01,2.400000000000000000e+01,1.740000000000000000e+02,5.799999999999999600e-01,2.437392000000000000e+09
6.300000000000000000e+01,7.500000000000000000e+01,4.770000000000000000e+02,1.900000000000000000e+02,3.700000000000000000e+01,2.700000000000000000e+01,2.300000000000000000e+01,1.700000000000000000e+02,5.799999999999999600e-01,2.455635800000000000e+09
6.300000000000000000e+01,8.400000000000000000e+01,4.590000000000000000e+02,1.830000000000000000e+02,3.600000000000000000e+01,2.800000000000000000e+01,2.300000000000000000e+01,1.700000000000000000e+02,5.899999999999999689e-01,2.474039000000000000e+09
5.300000000000000000e+01,7.500000000000000000e+01,4.230000000000000000e+02,1.790000000000000000e+02,3.500000000000000000e+01,2.700000000000000000e+01,2.300000000000000000e+01,8.700000000000000000e+01,5.899999999999999689e-01,2.492821400000000000e+09
5.100000000000000000e+01,7.300000000000000000e+01,3.990000000000000000e+02,1.690000000000000000e+02,3.100000000000000000e+01,2.800000000000000000e+01,2.300000000000000000e+01,7.400000000000000000e+01,5.999999999999999778e-01,2.512298700000000000e+09
4.700000000000000000e+01,7.200000000000000000e+01,3.640000000000000000e+02,1.430000000000000000e+02,3.000000000000000000e+01,2.700000000000000000e+01,2.200000000000000000e+01,6.100000000000000000e+01,5.999999999999999778e-01,2.531259600000000000e+09
4.200000000000000000e+01,7.000000000000000000e+01,4.490000000000000000e+02,1.480000000000000000e+02,2.800000000000000000e+01,2.600000000000000000e+01,2.200000000000000000e+01,5.000000000000000000e+01,5.999999999999999778e-01,2.548838300000000000e+09
3.700000000000000000e+01,5.900000000000000000e+01,4.310000000000000000e+02,1.400000000000000000e+02,2.900000000000000000e+01,2.600000000000000000e+01,2.100000000000000000e+01,3.900000000000000000e+01,6.099999999999999867e-01,2.567356900000000000e+09
3.800000000000000000e+01,6.600000000000000000e+01,4.980000000000000000e+02,1.300000000000000000e+02,3.100000000000000000e+01,2.900000000000000000e+01,2.100000000000000000e+01,3.500000000000000000e+01,6.099999999999999867e-01,2.585597100000000000e+09
3.900000000000000000e+01,6.200000000000000000e+01,5.120000000000000000e+02,1.480000000000000000e+02,3.200000000000000000e+01,2.900000000000000000e+01,2.100000000000000000e+01,3.100000000000000000e+01,6.199999999999999956e-01,2.604160900000000000e+09
3.300000000000000000e+01,5.700000000000000000e+01,5.380000000000000000e+02,1.470000000000000000e+02,2.800000000000000000e+01,2.500000000000000000e+01,1.900000000000000000e+01,2.900000000000000000e+01,6.199999999999999956e-01,2.623631400000000000e+09
2.800000000000000000e+01,5.300000000000000000e+01,4.780000000000000000e+02,1.350000000000000000e+02,3.000000000000000000e+01,2.600000000000000000e+01,1.900000000000000000e+01,2.500000000000000000e+01,6.199999999999999956e-01,2.641802400000000000e+09
2.800000000000000000e+01,4.700000000000000000e+01,4.670000000000000000e+02,1.440000000000000000e+02,3.000000000000000000e+01,2.400000000000000000e+01,1.800000000000000000e+01,2.400000000000000000e+01,6.300000000000000044e-01,2.661653800000000000e+09
2.500000000000000000e+01,4.200000000000000000e+01,4.070000000000000000e+02,1.440000000000000000e+02,2.700000000000000000e+01,2.100000000000000000e+01,1.800000000000000000e+01,2.200000000000000000e+01,6.300000000000000044e-01,2.680491900000000000e+09
3.500000000000000000e+01,7.500000000000000000e+01,4.130000000000000000e+02,1.300000000000000000e+02,2.800000000000000000e+01,2.200000000000000000e+01,2.000000000000000000e+01,2.700000000000000000e+01,6.300000000000000044e-01,2.699442400000000000e+09
3.600000000000000000e+01,7.500000000000000000e+01,3.360000000000000000e+02,1.450000000000000000e+02,2.900000000000000000e+01,2.500000000000000000e+01,2.100000000000000000e+01,2.800000000000000000e+01,6.400000000000000133e-01,2.718550500000000000e+09
3.700000000000000000e+01,7.400000000000000000e+01,3.400000000000000000e+02,1.400000000000000000e+02,2.800000000000000000e+01,2.600000000000000000e+01,2.000000000000000000e+01,2.800000000000000000e+01,6.400000000000000133e-01,2.736641000000000000e+09
3.700000000000000000e+01,7.500000000000000000e+01,3.610000000000000000e+02,1.270000000000000000e+02,2.400000000000000000e+01,2.500000000000000000e+01,2.100000000000000000e+01,2.800000000000000000e+01,6.400000000000000133e-01,2.755419100000000000e+09
4.100000000000000000e+01,7.700000000000000000e+01,3.470000000000000000e+02,1.490000000000000000e+02,3.000000000000000000e+01,2.700000000000000000e+01,2.200000000000000000e+01,2.900000000000000000e+01,6.400000000000000133e-01,2.773182200000000000e+09
3.000000000000000000e+01,5.400000000000000000e+01,3.940000000000000000e+02,1.740000000000000000e+02,3.000000000000000000e+01,2.600000000000000000e+01,2.000000000000000000e+01,2.300000000000000000e+01,6.400000000000000133e-01,2.791386900000000000e+09
3.000000000000000000e+01,5.800000000000000000e+01,4.030000000000000000e+02,1.590000000000000000e+02,3.000000000000000000e+01,2.600000000000000000e+01,2.100000000000000000e+01,2.200000000000000000e+01,6.400000000000000133e-01,2.809097700000000000e+09
2.900000000000000000e+01,5.900000000000000000e+01,3.900000000000000000e+02,1.610000000000000000e+02,3.200000000000000000e+01,2.500000000000000000e+01,2.100000000000000000e+01,2.200000000000000000e+01,6.500000000000000222e-01,2.827584100000000000e+09
2.800000000000000000e+01,6.000000000000000000e+01,3.710000000000000000e+02,1.680000000000000000e+02,3.300000000000000000e+01,2.700000000000000000e+01,2.200000000000000000e+01,2.200000000000000000e+01,6.500000000000000222e-01,2.846190300000000000e+09
2.300000000000000000e+01,5.300000000000000000e+01,3.740000000000000000e+02,1.690000000000000000e+02,3.000000000000000000e+01,2.500000000000000000e+01,2.200000000000000000e+01,1.800000000000000000e+01,6.500000000000000222e-01,2.864947300000000000e+09
2.600000000000000000e+01,5.400000000000000000e+01,3.760000000000000000e+02,1.420000000000000000e+02,2.900000000000000000e+01,2.700000000000000000e+01,2.200000000000000000e+01,2.000000000000000000e+01,6.500000000000000222e-01,2.883585500000000000e+09
3.000000000000000000e+01,5.500000000000000000e+01,3.870000000000000000e+02,1.410000000000000000e+02,3.100000000000000000e+01,2.800000000000000000e+01,2.000000000000000000e+01,2.000000000000000000e+01,6.500000000000000222e-01,2.902655000000000000e+09
3.100000000000000000e+01,5.300000000000000000e+01,3.870000000000000000e+02,1.490000000000000000e+02,3.000000000000000000e+01,2.900000000000000000e+01,2.100000000000000000e+01,2.000000000000000000e+01,6.500000000000000222e-01,2.921697000000000000e+09
3.100000000000000000e+01,5.800000000000000000e+01,4.550000000000000000e+02,2.000000000000000000e+02,3.500000000000000000e+01,2.800000000000000000e+01,2.100000000000000000e+01,2.000000000000000000e+01,6.600000000000000311e-01,2.941624700000000000e+09
3.300000000000000000e+01,6.000000000000000000e+01,4.650000000000000000e+02,1.890000000000000000e+02,3.200000000000000000e+01,2.800000000000000000e+01,2.000000000000000000e+01,2.200000000000000000e+01,6.600000000000000311e-01,2.959141800000000000e+09
3.200000000000000000e+01,5.700000000000000000e+01,4.270000000000000000e+02,1.950000000000000000e+02,3.300000000000000000e+01,2.700000000000000000e+01,2.200000000000000000e+01,2.200000000000000000e+01,6.600000000000000311e-01,2.977659000000000000e+09
3.200000000000000000e+01,5.800000000000000000e+01,4.360000000000000000e+02,2.300000000000000000e+02,3.900000000000000000e+01,2.900000000000000000e+01,2.200000000000000000e+01,2.600000000000000000e+01,6.600000000000000311e-01,2.997071300000000000e+09
3.100000000000000000e+01,6.500000000000000000e+01,4.480000000000000000e+02,2.220000000000000000e+02,3.700000000000000000e+01,2.700000000000000000e+01,2.100000000000000000e+01,2.500000000000000000e+01,6.600000000000000311e-01,3.015979200000000000e+09
3.400000000000000000e+01,7.600000000000000000e+01,4.730000000000000000e+02,2.230000000000000000e+02,4.300000000000000000e+01,3.400000000000000000e+01,2.200000000000000000e+01,2.700000000000000000e+01,6.700000000000000400e-01,3.034585900000000000e+09
3.700000000000000000e+01,8.300000000000000000e+01,4.830000000000000000e+02,2.400000000000000000e+02,4.800000000000000000e+01,3.600000000000000000e+01,2.200000000000000000e+01,2.700000000000000000e+01,6.700000000000000400e-01,3.052877400000000000e+09
4.100000000000000000e+01,1.020000000000000000e+02,5.030000000000000000e+02,2.520000000000000000e+02,5.200000000000000000e+01,3.700000000000000000e+01,2.600000000000000000e+01,3.200000000000000000e+01,6.700000000000000400e-01,3.072081600000000000e+09
4.500000000000000000e+01,1.110000000000000000e+02,5.350000000000000000e+02,2.660000000000000000e+02,5.500000000000000000e+01,3.700000000000000000e+01,2.900000000000000000e+01,3.200000000000000000e+01,6.700000000000000400e-01,3.090757300000000000e+09
4.800000000000000000e+01,1.120000000000000000e+02,5.530000000000000000e+02,2.760000000000000000e+02,5.500000000000000000e+01,3.600000000000000000e+01,2.900000000000000000e+01,3.200000000000000000e+01,6.700000000000000400e-01,3.109556200000000000e+09
4.800000000000000000e+01,1.050000000000000000e+02,4.950000000000000000e+02,2.470000000000000000e+02,5.000000000000000000e+01,3.200000000000000000e+01,3.000000000000000000e+01,3.200000000000000000e+01,6.800000000000000488e-01,3.128831700000000000e+09
4.900000000000000000e+01,1.030000000000000000e+02,4.860000000000000000e+02,2.470000000000000000e+02,5.100000000000000000e+01,3.400000000000000000e+01,3.200000000000000000e+01,3.300000000000000000e+01,6.800000000000000488e-01,3.146727300000000000e+09
4.500000000000000000e+01,8.200000000000000000e+01,4.610000000000000000e+02,2.290000000000000000e+02,4.600000000000000000e+01,3.200000000000000000e+01,2.800000000000000000e+01,2.700000000000000000e+01,6.800000000000000488e-01,3.166862900000000000e+09
4.000000000000000000e+01,8.100000000000000000e+01,4.380000000000000000e+02,1.740000000000000000e+02,3.700000000000000000e+01,2.800000000000000000e+01,2.500000000000000000e+01,2.500000000000000000e+01,6.800000000000000488e-01,3.186273300000000000e+09
3.600000000000000000e+01,8.000000000000000000e+01,4.020000000000000000e+02,1.610000000000000000e+02,3.600000000000000000e+01,2.900000000000000000e+01,2.700000000000000000e+01,2.500000000000000000e+01,6.800000000000000488e-01,3.206062100000000000e+09
3.300000000000000000e+01,7.700000000000000000e+01,3.730000000000000000e+02,1.620000000000000000e+02,3.600000000000000000e+01,2.700000000000000000e+01,2.500000000000000000e+01,2.500000000000000000e+01,6.800000000000000488e-01,3.223865300000000000e+09
2.900000000000000000e+01,7.100000000000000000e+01,3.490000000000000000e+02,1.450000000000000000e+02,2.900000000000000000e+01,2.300000000000000000e+01,2.200000000000000000e+01,2.200000000000000000e+01,6.800000000000000488e-01,3.242187500000000000e+09
3.000000000000000000e+01,7.100000000000000000e+01,3.340000000000000000e+02,1.580000000000000000e+02,3.000000000000000000e+01,2.600000000000000000e+01,2.200000000000000000e+01,2.400000000000000000e+01,6.800000000000000488e-01,3.259759000000000000e+09
3.100000000000000000e+01,6.900000000000000000e+01,3.480000000000000000e+02,1.610000000000000000e+02,3.200000000000000000e+01,2.600000000000000000e+01,2.400000000000000000e+01,2.400000000000000000e+01,6.700000000000000400e-01,3.278762700000000000e+09
3.000000000000000000e+01,6.200000000000000000e+01,3.610000000000000000e+02,1.990000000000000000e+02,3.300000000000000000e+01,2.600000000000000000e+01,2.200000000000000000e+01,2.500000000000000000e+01,6.700000000000000400e-01,3.297346900000000000e+09
3.000000000000000000e+01,6.500000000000000000e+01,3.770000000000000000e+02,1.990000000000000000e+02,3.000000000000000000e+01,2.600000000000000000e+01,2.300000000000000000e+01,2.300000000000000000e+01,6.800000000000000488e-01,3.316467100000000000e+09
2.900000000000000000e+01,6.800000000000000000e+01,4.090000000000000000e+02,1.900000000000000000e+02,3.200000000000000000e+01,2.500000000000000000e+01,2.300000000000000000e+01,2.600000000000000000e+01,6.800000000000000488e-01,3.334297900000000000e+09
2.900000000000000000e+01,7.000000000000000000e+01,4.010000000000000000e+02,1.830000000000000000e+02,3.400000000000000000e+01,2.400000000000000000e+01,2.400000000000000000e+01,2.800000000000000000e+01,6.800000000000000488e-01,3.354590100000000000e+09
2.800000000000000000e+01,6.600000000000000000e+01,3.620000000000000000e+02,1.890000000000000000e+02,3.600000000000000000e+01,2.800000000000000000e+01,2.400000000000000000e+01,2.900000000000000000e+01,6.700000000000000400e-01,3.373160200000000000e+09
2.700000000000000000e+01,7.200000000000000000e+01,3.520000000000000000e+02,1.460000000000000000e+02,3.500000000000000000e+01,2.700000000000000000e+01,2.400000000000000000e+01,2.700000000000000000e+01,6.700000000000000400e-01,3.391656200000000000e+09
2.700000000000000000e+01,6.900000000000000000e+01,3.410000000000000000e+02,1.270000000000000000e+02,3.400000000000000000e+01,2.600000000000000000e+01,2.300000000000000000e+01,2.700000000000000000e+01,6.700000000000000400e-01,3.411735600000000000e+09
2.800000000000000000e+01,7.200000000000000000e+01,4.160000000000000000e+02,1.190000000000000000e+02,3.300000000000000000e+01,2.700000000000000000e+01,2.300000000000000000e+01,2.600000000000000000e+01,6.700000000000000400e-01,3.431786100000000000e+09
2.900000000000000000e+01,7.700000000000000000e+01,4.310000000000000000e+02,1.340000000000000000e+02,3.500000000000000000e+01,2.600000000000000000e+01,2.300000000000000000e+01,2.500000000000000000e+01,6.700000000000000400e-01,3.450249800000000000e+09
2.600000000000000000e+01,6.700000000000000000e+01,4.270000000000000000e+02,1.180000000000000000e+02,3.100000000000000000e+01,2.200000000000000000e+01,2.100000000000000000e+01,2.400000000000000000e+01,6.700000000000000400e-01,3.469434400000000000e+09
2.600000000000000000e+01,5.900000000000000000e+01,4.090000000000000000e+02,1.140000000000000000e+02,3.100000000000000000e+01,2.300000000000000000e+01,2.000000000000000000e+01,2.400000000000000000e+01,6.700000000000000400e-01,3.487771100000000000e+09
2.700000000000000000e+01,5.900000000000000000e+01,4.040000000000000000e+02,1.320000000000000000e+02,3.100000000000000000e+01,2.400000000000000000e+01,2.100000000000000000e+01,2.400000000000000000e+01,6.700000000000000400e-01,3.505238700000000000e+09
2.800000000000000000e+01,5.600000000000000000e+01,3.220000000000000000e+02,1.450000000000000000e+02,2.800000000000000000e+01,2.500000000000000000e+01,2.100000000000000000e+01,2.500000000000000000e+01,6.600000000000000311e-01,3.523026900000000000e+09
2.600000000000000000e+01,4.600000000000000000e+01,3.100000000000000000e+02,1.460000000000000000e+02,2.400000000000000000e+01,2.400000000000000000e+01,2.100000000000000000e+01,2.300000000000000000e+01,6.600000000000000311e-01,3.540606600000000000e+09
2.600000000000000000e+01,6.300000000000000000e+01,2.780000000000000000e+02,1.530000000000000000e+02,2.700000000000000000e+01,2.500000000000000000e+01,2.100000000000000000e+01,2.300000000000000000e+01,6.600000000000000311e-01,3.558545600000000000e+09
2.700000000000000000e+01,6.400000000000000000e+01,2.840000000000000000e+02,1.610000000000000000e+02,2.600000000000000000e+01,2.600000000000000000e+01,2.200000000000000000e+01,2.400000000000000000e+01,6.500000000000000222e-01,3.576368500000000000e+09
2.700000000000000000e+01,7.300000000000000000e+01,3.700000000000000000e+02,1.610000000000000000e+02,2.700000000000000000e+01,2.400000000000000000e+01,2.200000000000000000e+01,2.300000000000000000e+01,6.500000000000000222e-01,3.594427700000000000e+09
2.500000000000000000e+01,7.100000000000000000e+01,4.430000000000000000e+02,1.570000000000000000e+02,2.800000000000000000e+01,2.300000000000000000e+01,2.200000000000000000e+01,2.200000000000000000e+01,6.500000000000000222e-01,3.611948800000000000e+09
2.500000000000000000e+01,7.000000000000000000e+01,4.430000000000000000e+02,1.330000000000000000e+02,2.900000000000000000e+01,2.300000000000000000e+01,2.300000000000000000e+01,2.200000000000000000e+01,6.500000000000000222e-01,3.630206600000000000e+09
2.500000000000000000e+01,5.400000000000000000e+01,4.570000000000000000e+02,1.430000000000000000e+02,2.500000000000000000e+01,2.300000000000000000e+01,2.400000000000000000e+01,2.100000000000000000e+01,6.500000000000000222e-01,3.648139400000000000e+09
2.500000000000000000e+01,5.300000000000000000e+01,4.550000000000000000e+02,1.590000000000000000e+02,2.500000000000000000e+01,2.200000000000000000e+01,2.300000000000000000e+01,2.100000000000000000e+01,6.500000000000000222e-01,3.665987800000000000e+09
3.000000000000000000e+01,5.500000000000000000e+01,4.690000000000000000e+02,1.500000000000000000e+02,2.600000000000000000e+01,2.400000000000000000e+01,2.200000000000000000e+01,2.100000000000000000e+01,6.600000000000000311e-01,3.684349800000000000e+09
3.700000000000000000e+01,8.100000000000000000e+01,4.320000000000000000e+02,1.950000000000000000e+02,4.000000000000000000e+01,2.900000000000000000e+01,2.500000000000000000e+01,2.400000000000000000e+01,6.600000000000000311e-01,3.706207100000000000e+09
3.600000000000000000e+01,8.400000000000000000e+01,4.400000000000000000e+02,2.070000000000000000e+02,3.900000000000000000e+01,2.900000000000000000e+01,2.300000000000000000e+01,2.300000000000000000e+01,6.600000000000000311e-01,3.728531100000000000e+09
3.800000000000000000e+01,9.100000000000000000e+01,5.110000000000000000e+02,1.970000000000000000e+02,4.000000000000000000e+01,3.000000000000000000e+01,2.200000000000000000e+01,2.300000000000000000e+01,6.600000000000000311e-01,3.747085500000000000e+09
3.800000000000000000e+01,9.200000000000000000e+01,5.340000000000000000e+02,1.860000000000000000e+02,4.000000000000000000e+01,2.900000000000000000e+01,2.100000000000000000e+01,2.500000000000000000e+01,6.600000000000000311e-01,3.765513700000000000e+09
3.400000000000000000e+01,8.700000000000000000e+01,4.800000000000000000e+02,1.930000000000000000e+02,4.000000000000000000e+01,2.900000000000000000e+01,2.200000000000000000e+01,2.400000000000000000e+01,6.600000000000000311e-01,3.783912800000000000e+09
2.900000000000000000e+01,7.400000000000000000e+01,4.880000000000000000e+02,1.830000000000000000e+02,3.000000000000000000e+01,2.700000000000000000e+01,2.100000000000000000e+01,2.500000000000000000e+01,6.700000000000000400e-01,3.806210300000000000e+09
2.900000000000000000e+01,7.400000000000000000e+01,4.940000000000000000e+02,1.850000000000000000e+02,3.100000000000000000e+01,2.900000000000000000e+01,2.300000000000000000e+01,2.500000000000000000e+01,6.700000000000000400e-01,3.828312200000000000e+09
3.000000000000000000e+01,7.200000000000000000e+01,4.350000000000000000e+02,1.970000000000000000e+02,3.200000000000000000e+01,2.700000000000000000e+01,2.200000000000000000e+01,2.400000000000000000e+01,6.700000000000000400e-01,3.845719200000000000e+09
3.900000000000000000e+01,8.700000000000000000e+01,5.370000000000000000e+02,2.020000000000000000e+02,3.800000000000000000e+01,3.000000000000000000e+01,2.500000000000000000e+01,3.100000000000000000e+01,6.700000000000000400e-01,3.864547300000000000e+09
4.100000000000000000e+01,9.800000000000000000e+01,6.080000000000000000e+02,2.000000000000000000e+02,3.900000000000000000e+01,2.900000000000000000e+01,2.500000000000000000e+01,3.100000000000000000e+01,6.700000000000000400e-01,3.883856500000000000e+09
4.700000000000000000e+01,9.600000000000000000e+01,5.780000000000000000e+02,1.820000000000000000e+02,4.300000000000000000e+01,2.900000000000000000e+01,2.400000000000000000e+01,4.200000000000000000e+01,6.700000000000000400e-01,3.906828000000000000e+09
4.900000000000000000e+01,9.400000000000000000e+01,6.050000000000000000e+02,1.660000000000000000e+02,4.400000000000000000e+01,2.800000000000000000e+01,2.200000000000000000e+01,4.400000000000000000e+01,6.700000000000000400e-01,3.928264800000000000e+09
5.000000000000000000e+01,1.020000000000000000e+02,6.490000000000000000e+02,1.810000000000000000e+02,4.500000000000000000e+01,3.200000000000000000e+01,2.600000000000000000e+01,4.600000000000000000e+01,6.700000000000000400e-01,3.946792500000000000e+09
4.500000000000000000e+01,9.800000000000000000e+01,5.590000000000000000e+02,1.920000000000000000e+02,4.300000000000000000e+01,3.000000000000000000e+01,2.600000000000000000e+01,1.390000000000000000e+02,6.600000000000000311e-01,3.965057600000000000e+09
4.400000000000000000e+01,8.900000000000000000e+01,4.890000000000000000e+02,2.200000000000000000e+02,4.700000000000000000e+01,3.200000000000000000e+01,2.600000000000000000e+01,1.500000000000000000e+02,6.600000000000000311e-01,3.990169500000000000e+09
4.700000000000000000e+01,8.700000000000000000e+01,5.260000000000000000e+02,2.040000000000000000e+02,4.100000000000000000e+01,3.000000000000000000e+01,2.700000000000000000e+01,1.620000000000000000e+02,6.600000000000000311e-01,4.010120100000000000e+09
5.100000000000000000e+01,8.500000000000000000e+01,5.060000000000000000e+02,2.030000000000000000e+02,4.000000000000000000e+01,3.100000000000000000e+01,2.800000000000000000e+01,1.720000000000000000e+02,6.600000000000000311e-01,4.029706300000000000e+09
5.100000000000000000e+01,8.400000000000000000e+01,4.470000000000000000e+02,1.900000000000000000e+02,3.700000000000000000e+01,2.800000000000000000e+01,2.800000000000000000e+01,2.250000000000000000e+02,6.500000000000000222e-01,4.047588000000000000e+09
5.600000000000000000e+01,1.080000000000000000e+02,5.050000000000000000e+02,1.750000000000000000e+02,3.700000000000000000e+01,3.400000000000000000e+01,3.000000000000000000e+01,2.500000000000000000e+02,6.400000000000000133e-01,4.065763200000000000e+09
6.000000000000000000e+01,1.080000000000000000e+02,4.970000000000000000e+02,1.530000000000000000e+02,3.200000000000000000e+01,3.100000000000000000e+01,3.000000000000000000e+01,2.640000000000000000e+02,6.300000000000000044e-01,4.085160700000000000e+09
6.400000000000000000e+01,1.110000000000000000e+02,4.680000000000000000e+02,1.750000000000000000e+02,3.400000000000000000e+01,3.100000000000000000e+01,2.900000000000000000e+01,2.590000000000000000e+02,6.300000000000000044e-01,4.108027400000000000e+09
6.100000000000000000e+01,1.150000000000000000e+02,4.450000000000000000e+02,1.800000000000000000e+02,3.300000000000000000e+01,2.900000000000000000e+01,2.900000000000000000e+01,2.570000000000000000e+02,6.199999999999999956e-01,4.126691500000000000e+09
6.200000000000000000e+01,1.050000000000000000e+02,4.340000000000000000e+02,1.770000000000000000e+02,3.300000000000000000e+01,2.800000000000000000e+01,2.600000000000000000e+01,2.150000000000000000e+02,6.099999999999999867e-01,4.144801100000000000e+09
5.700000000000000000e+01,7.400000000000000000e+01,3.630000000000000000e+02,1.930000000000000000e+02,3.000000000000000000e+01,2.200000000000000000e+01,2.300000000000000000e+01,1.310000000000000000e+02,6.099999999999999867e-01,4.164889900000000000e+09
5.300000000000000000e+01,7.200000000000000000e+01,3.530000000000000000e+02,1.900000000000000000e+02,2.800000000000000000e+01,2.200000000000000000e+01,2.200000000000000000e+01,8.500000000000000000e+01,6.099999999999999867e-01,4.188058800000000000e+09
3.800000000000000000e+01,8.100000000000000000e+01,3.760000000000000000e+02,1.750000000000000000e+02,2.800000000000000000e+01,2.000000000000000000e+01,2.000000000000000000e+01,7.300000000000000000e+01,6.099999999999999867e-01,4.206784100000000000e+09
3.900000000000000000e+01,7.800000000000000000e+01,3.870000000000000000e+02,1.820000000000000000e+02,2.700000000000000000e+01,2.400000000000000000e+01,2.000000000000000000e+01,6.000000000000000000e+01,6.099999999999999867e-01,4.226254800000000000e+09
3.500000000000000000e+01,7.800000000000000000e+01,4.100000000000000000e+02,1.690000000000000000e+02,2.500000000000000000e+01,2.400000000000000000e+01,1.900000000000000000e+01,4.800000000000000000e+01,6.099999999999999867e-01,4.244377600000000000e+09
3.700000000000000000e+01,8.200000000000000000e+01,4.720000000000000000e+02,1.530000000000000000e+02,3.000000000000000000e+01,2.700000000000000000e+01,2.300000000000000000e+01,3.900000000000000000e+01,6.099999999999999867e-01,4.266640800000000000e+09
3.500000000000000000e+01,7.900000000000000000e+01,5.170000000000000000e+02,1.720000000000000000e+02,3.200000000000000000e+01,2.800000000000000000e+01,2.300000000000000000e+01,3.700000000000000000e+01,6.099999999999999867e-01,4.291048400000000000e+09
3.400000000000000000e+01,5.900000000000000000e+01,5.010000000000000000e+02,1.710000000000000000e+02,3.000000000000000000e+01,2.800000000000000000e+01,2.400000000000000000e+01,3.300000000000000000e+01,6.199999999999999956e-01,4.310085200000000000e+09
3.200000000000000000e+01,5.900000000000000000e+01,4.930000000000000000e+02,1.710000000000000000e+02,3.400000000000000000e+01,2.400000000000000000e+01,2.400000000000000000e+01,2.900000000000000000e+01,6.199999999999999956e-01,4.328413000000000000e+09
3.300000000000000000e+01,6.000000000000000000e+01,4.630000000000000000e+02,1.730000000000000000e+02,3.500000000000000000e+01,2.500000000000000000e+01,2.400000000000000000e+01,3.000000000000000000e+01,6.300000000000000044e-01,4.347273000000000000e+09
3.100000000000000000e+01,5.200000000000000000e+01,4.190000000000000000e+02,1.770000000000000000e+02,3.200000000000000000e+01,2.200000000000000000e+01,2.300000000000000000e+01,2.800000000000000000e+01,6.400000000000000133e-01,4.366685800000000000e+09
3.300000000000000000e+01,5.700000000000000000e+01,4.480000000000000000e+02,1.470000000000000000e+02,3.200000000000000000e+01,2.800000000000000000e+01,2.300000000000000000e+01,2.800000000000000000e+01,6.400000000000000133e-01,4.388600600000000000e+09
4.000000000000000000e+01,6.000000000000000000e+01,4.440000000000000000e+02,1.570000000000000000e+02,3.900000000000000000e+01,3.100000000000000000e+01,2.400000000000000000e+01,3.100000000000000000e+01,6.400000000000000133e-01,4.406716800000000000e+09
4.000000000000000000e+01,6.600000000000000000e+01,4.870000000000000000e+02,1.890000000000000000e+02,3.900000000000000000e+01,3.300000000000000000e+01,2.300000000000000000e+01,3.200000000000000000e+01,6.500000000000000222e-01,4.425630200000000000e+09
4.700000000000000000e+01,9.000000000000000000e+01,5.180000000000000000e+02,2.410000000000000000e+02,4.600000000000000000e+01,3.600000000000000000e+01,2.300000000000000000e+01,3.300000000000000000e+01,6.500000000000000222e-01,4.446123100000000000e+09
5.000000000000000000e+01,9.700000000000000000e+01,5.050000000000000000e+02,2.480000000000000000e+02,4.900000000000000000e+01,3.600000000000000000e+01,2.200000000000000000e+01,1.400000000000000000e+02,6.500000000000000222e-01,4.466404000000000000e+09
5.500000000000000000e+01,1.220000000000000000e+02,4.190000000000000000e+02,2.530000000000000000e+02,5.000000000000000000e+01,3.300000000000000000e+01,2.400000000000000000e+01,1.440000000000000000e+02,6.500000000000000222e-01,4.488584300000000000e+09
6.400000000000000000e+01,1.230000000000000000e+02,4.150000000000000000e+02,2.450000000000000000e+02,4.600000000000000000e+01,3.200000000000000000e+01,2.300000000000000000e+01,1.680000000000000000e+02,6.500000000000000222e-01,4.507167400000000000e+09
6.400000000000000000e+01,1.300000000000000000e+02,4.350000000000000000e+02,2.430000000000000000e+02,4.600000000000000000e+01,3.200000000000000000e+01,2.700000000000000000e+01,2.450000000000000000e+02,6.500000000000000222e-01,4.525322600000000000e+09
6.500000000000000000e+01,1.210000000000000000e+02,4.110000000000000000e+02,2.370000000000000000e+02,4.100000000000000000e+01,2.900000000000000000e+01,2.900000000000000000e+01,2.690000000000000000e+02,6.400000000000000133e-01,4.544546900000000000e+09
6.800000000000000000e+01,1.410000000000000000e+02,4.740000000000000000e+02,2.290000000000000000e+02,4.000000000000000000e+01,2.700000000000000000e+01,3.000000000000000000e+01,2.640000000000000000e+02,6.400000000000000133e-01,4.566289000000000000e+09
6.600000000000000000e+01,1.220000000000000000e+02,5.010000000000000000e+02,2.270000000000000000e+02,3.600000000000000000e+01,2.700000000000000000e+01,3.000000000000000000e+01,2.750000000000000000e+02,6.300000000000000044e-01,4.589194000000000000e+09
5.400000000000000000e+01,1.200000000000000000e+02,5.160000000000000000e+02,2.370000000000000000e+02,3.500000000000000000e+01,2.600000000000000000e+01,3.000000000000000000e+01,2.740000000000000000e+02,6.300000000000000044e-01,4.607259800000000000e+09
6.000000000000000000e+01,1.150000000000000000e+02,4.940000000000000000e+02,2.060000000000000000e+02,3.400000000000000000e+01,2.500000000000000000e+01,2.800000000000000000e+01,2.610000000000000000e+02,6.199999999999999956e-01,4.626129000000000000e+09
5.700000000000000000e+01,1.100000000000000000e+02,4.860000000000000000e+02,1.740000000000000000e+02,3.400000000000000000e+01,2.500000000000000000e+01,2.900000000000000000e+01,2.720000000000000000e+02,6.099999999999999867e-01,4.645129300000000000e+09
5.800000000000000000e+01,1.040000000000000000e+02,4.260000000000000000e+02,1.580000000000000000e+02,2.900000000000000000e+01,2.500000000000000000e+01,2.800000000000000000e+01,2.530000000000000000e+02,6.099999999999999867e-01,4.666425400000000000e+09
5.600000000000000000e+01,1.000000000000000000e+02,4.030000000000000000e+02,1.460000000000000000e+02,3.000000000000000000e+01,2.600000000000000000e+01,2.700000000000000000e+01,2.470000000000000000e+02,5.999999999999999778e-01,4.688589200000000000e+09
5.800000000000000000e+01,1.030000000000000000e+02,3.810000000000000000e+02,1.650000000000000000e+02,3.100000000000000000e+01,2.900000000000000000e+01,2.900000000000000000e+01,2.570000000000000000e+02,5.899999999999999689e-01,4.707075400000000000e+09
6.100000000000000000e+01,1.070000000000000000e+02,3.710000000000000000e+02,1.640000000000000000e+02,3.000000000000000000e+01,3.000000000000000000e+01,3.800000000000000000e+01,3.120000000000000000e+02,5.799999999999999600e-01,4.727238900000000000e+09
6.500000000000000000e+01,1.090000000000000000e+02,3.880000000000000000e+02,1.400000000000000000e+02,2.900000000000000000e+01,3.100000000000000000e+01,3.600000000000000000e+01,2.870000000000000000e+02,5.699999999999999512e-01,4.746039500000000000e+09
6.800000000000000000e+01,1.020000000000000000e+02,4.020000000000000000e+02,2.140000000000000000e+02,3.900000000000000000e+01,3.200000000000000000e+01,3.900000000000000000e+01,3.920000000000000000e+02,5.600000000000000533e-01,4.766271000000000000e+09
7.600000000000000000e+01,1.770000000000000000e+02,5.430000000000000000e+02,2.270000000000000000e+02,4.500000000000000000e+01,3.600000000000000000e+01,4.600000000000000000e+01,4.920000000000000000e+02,5.500000000000000444e-01,4.788569300000000000e+09
7.900000000000000000e+01,1.960000000000000000e+02,5.350000000000000000e+02,2.010000000000000000e+02,4.500000000000000000e+01,3.400000000000000000e+01,4.600000000000000000e+01,4.850000000000000000e+02,5.400000000000000355e-01,4.806979000000000000e+09
7.400000000000000000e+01,1.940000000000000000e+02,4.920000000000000000e+02,2.040000000000000000e+02,4.300000000000000000e+01,3.200000000000000000e+01,3.900000000000000000e+01,4.800000000000000000e+02,5.400000000000000355e-01,4.825253000000000000e+09
7.700000000000000000e+01,2.150000000000000000e+02,4.720000000000000000e+02,2.250000000000000000e+02,4.600000000000000000e+01,4.600000000000000000e+01,9.300000000000000000e+01,5.500000000000000000e+02,5.300000000000000266e-01,4.844433100000000000e+09
7.600000000000000000e+01,2.230000000000000000e+02,4.880000000000000000e+02,1.610000000000000000e+02,3.800000000000000000e+01,5.900000000000000000e+01,9.600000000000000000e+01,4.810000000000000000e+02,5.200000000000000178e-01,4.866248600000000000e+09
8.500000000000000000e+01,1.760000000000000000e+02,3.040000000000000000e+02,1.360000000000000000e+02,3.000000000000000000e+01,7.000000000000000000e+01,9.600000000000000000e+01,4.230000000000000000e+02,5.100000000000000089e-01,4.889285200000000000e+09
8.900000000000000000e+01,1.580000000000000000e+02,2.760000000000000000e+02,1.330000000000000000e+02,3.000000000000000000e+01,1.210000000000000000e+02,1.050000000000000000e+02,4.520000000000000000e+02,5.000000000000000000e-01,4.907562700000000000e+09
9.400000000000000000e+01,1.880000000000000000e+02,2.780000000000000000e+02,1.220000000000000000e+02,2.900000000000000000e+01,1.300000000000000000e+02,1.430000000000000000e+02,4.540000000000000000e+02,4.899999999999999911e-01,4.926288100000000000e+09
9.900000000000000000e+01,1.740000000000000000e+02,2.700000000000000000e+02,7.000000000000000000e+01,2.500000000000000000e+01,1.690000000000000000e+02,1.650000000000000000e+02,4.050000000000000000e+02,4.899999999999999911e-01,4.944840600000000000e+09
1.000000000000000000e+02,1.580000000000000000e+02,1.870000000000000000e+02,5.200000000000000000e+01,2.600000000000000000e+01,1.930000000000000000e+02,1.650000000000000000e+02,4.190000000000000000e+02,4.799999999999999822e-01,4.966265300000000000e+09
8.600000000000000000e+01,1.530000000000000000e+02,2.130000000000000000e+02,9.800000000000000000e+01,2.900000000000000000e+01,1.930000000000000000e+02,1.670000000000000000e+02,3.840000000000000000e+02,4.799999999999999822e-01,4.988622300000000000e+09
8.000000000000000000e+01,1.680000000000000000e+02,3.240000000000000000e+02,1.510000000000000000e+02,3.900000000000000000e+01,1.690000000000000000e+02,1.610000000000000000e+02,3.460000000000000000e+02,4.699999999999999734e-01,5.007416600000000000e+09
7.900000000000000000e+01,1.630000000000000000e+02,5.150000000000000000e+02,1.880000000000000000e+02,5.500000000000000000e+01,1.690000000000000000e+02,1.310000000000000000e+02,2.630000000000000000e+02,4.699999999999999734e-01,5.025603500000000000e+09
7.100000000000000000e+01,1.570000000000000000e+02,5.430000000000000000e+02,2.930000000000000000e+02,9.700000000000000000e+01,1.300000000000000000e+02,6.400000000000000000e+01,1.930000000000000000e+02,4.699999999999999734e-01,5.044359100000000000e+09
7.000000000000000000e+01,1.870000000000000000e+02,6.860000000000000000e+02,4.520000000000000000e+02,1.090000000000000000e+02,8.400000000000000000e+01,6.000000000000000000e+01,1.450000000000000000e+02,4.699999999999999734e-01,5.066243800000000000e+09
8.200000000000000000e+01,2.030000000000000000e+02,7.720000000000000000e+02,4.920000000000000000e+02,1.260000000000000000e+02,8.200000000000000000e+01,6.300000000000000000e+01,1.050000000000000000e+02,4.699999999999999734e-01,5.088420300000000000e+09
8.900000000000000000e+01,2.130000000000000000e+02,8.390000000000000000e+02,5.540000000000000000e+02,1.410000000000000000e+02,8.000000000000000000e+01,8.100000000000000000e+01,9.600000000000000000e+01,4.699999999999999734e-01,5.105878200000000000e+09
1.030000000000000000e+02,2.180000000000000000e+02,8.910000000000000000e+02,5.800000000000000000e+02,1.490000000000000000e+02,7.400000000000000000e+01,8.300000000000000000e+01,8.100000000000000000e+01,4.699999999999999734e-01,5.124202200000000000e+09
1.040000000000000000e+02,2.280000000000000000e+02,1.012000000000000000e+03,6.310000000000000000e+02,1.360000000000000000e+02,7.300000000000000000e+01,9.200000000000000000e+01,8.000000000000000000e+01,4.699999999999999734e-01,5.144042500000000000e+09
1.390000000000000000e+02,3.150000000000000000e+02,1.057000000000000000e+03,6.920000000000000000e+02,1.660000000000000000e+02,8.200000000000000000e+01,1.020000000000000000e+02,1.470000000000000000e+02,4.600000000000000200e-01,5.166235300000000000e+09
1.830000000000000000e+02,4.340000000000000000e+02,1.076000000000000000e+03,8.340000000000000000e+02,2.100000000000000000e+02,1.180000000000000000e+02,1.540000000000000000e+02,2.200000000000000000e+02,4.500000000000000111e-01,5.188377700000000000e+09
1.990000000000000000e+02,4.950000000000000000e+02,1.183000000000000000e+03,8.570000000000000000e+02,2.220000000000000000e+02,1.330000000000000000e+02,1.530000000000000000e+02,2.340000000000000000e+02,4.400000000000000022e-01,5.210884000000000000e+09
2.190000000000000000e+02,5.420000000000000000e+02,1.156000000000000000e+03,9.830000000000000000e+02,2.610000000000000000e+02,1.450000000000000000e+02,1.540000000000000000e+02,2.450000000000000000e+02,4.199999999999999845e-01,5.229022200000000000e+09
2.380000000000000000e+02,5.900000000000000000e+02,1.129000000000000000e+03,1.024000000000000000e+03,2.700000000000000000e+02,1.530000000000000000e+02,1.560000000000000000e+02,2.510000000000000000e+02,4.099999999999999756e-01,5.248673500000000000e+09
2.260000000000000000e+02,5.620000000000000000e+02,1.130000000000000000e+03,1.014000000000000000e+03,2.510000000000000000e+02,1.490000000000000000e+02,1.650000000000000000e+02,2.190000000000000000e+02,4.000000000000000222e-01,5.267858100000000000e+09
2.150000000000000000e+02,5.500000000000000000e+02,1.140000000000000000e+03,9.140000000000000000e+02,2.320000000000000000e+02,1.430000000000000000e+02,1.320000000000000000e+02,1.480000000000000000e+02,3.800000000000000044e-01,5.286686100000000000e+09
2.010000000000000000e+02,4.920000000000000000e+02,1.175000000000000000e+03,9.170000000000000000e+02,2.220000000000000000e+02,1.300000000000000000e+02,1.340000000000000000e+02,1.250000000000000000e+02,3.599999999999999867e-01,5.308762800000000000e+09
1.840000000000000000e+02,4.460000000000000000e+02,1.131000000000000000e+03,8.380000000000000000e+02,1.780000000000000000e+02,1.200000000000000000e+02,1.340000000000000000e+02,1.020000000000000000e+02,3.400000000000000244e-01,5.327416800000000000e+09
1.700000000000000000e+02,4.490000000000000000e+02,1.116000000000000000e+03,7.440000000000000000e+02,1.730000000000000000e+02,1.180000000000000000e+02,1.270000000000000000e+02,9.700000000000000000e+01,3.200000000000000067e-01,5.345384000000000000e+09
1.820000000000000000e+02,4.420000000000000000e+02,1.052000000000000000e+03,6.410000000000000000e+02,2.000000000000000000e+02,1.360000000000000000e+02,1.110000000000000000e+02,1.090000000000000000e+02,3.099999999999999978e-01,5.364349400000000000e+09
1.610000000000000000e+02,3.540000000000000000e+02,1.101000000000000000e+03,6.760000000000000000e+02,2.010000000000000000e+02,1.290000000000000000e+02,1.020000000000000000e+02,1.060000000000000000e+02,2.899999999999999800e-01,5.386342900000000000e+09
1.750000000000000000e+02,3.880000000000000000e+02,1.023000000000000000e+03,6.930000000000000000e+02,2.260000000000000000e+02,1.500000000000000000e+02,1.070000000000000000e+02,1.130000000000000000e+02,2.800000000000000266e-01,5.408655000000000000e+09
1.840000000000000000e+02,4.040000000000000000e+02,1.101000000000000000e+03,7.010000000000000000e+02,2.370000000000000000e+02,1.620000000000000000e+02,1.150000000000000000e+02,1.170000000000000000e+02,2.700000000000000178e-01,5.427133900000000000e+09
1.780000000000000000e+02,3.440000000000000000e+02,1.148000000000000000e+03,7.700000000000000000e+02,2.370000000000000000e+02,1.570000000000000000e+02,1.150000000000000000e+02,1.120000000000000000e+02,2.600000000000000089e-01,5.446749800000000000e+09
1.760000000000000000e+02,3.320000000000000000e+02,1.176000000000000000e+03,7.930000000000000000e+02,2.370000000000000000e+02,1.570000000000000000e+02,1.150000000000000000e+02,1.050000000000000000e+02,2.600000000000000089e-01,5.465386600000000000e+09
1.740000000000000000e+02,3.480000000000000000e+02,1.142000000000000000e+03,7.900000000000000000e+02,2.240000000000000000e+02,1.600000000000000000e+02,1.040000000000000000e+02,9.700000000000000000e+01,2.500000000000000000e-01,5.486347200000000000e+09
1.670000000000000000e+02,3.490000000000000000e+02,1.095000000000000000e+03,7.510000000000000000e+02,2.130000000000000000e+02,1.550000000000000000e+02,8.700000000000000000e+01,8.900000000000000000e+01,2.399999999999999911e-01,5.508675500000000000e+09
1.480000000000000000e+02,3.390000000000000000e+02,1.091000000000000000e+03,6.840000000000000000e+02,1.960000000000000000e+02,1.400000000000000000e+02,7.600000000000000000e+01,8.000000000000000000e+01,2.399999999999999911e-01,5.527815400000000000e+09
1.500000000000000000e+02,3.220000000000000000e+02,1.083000000000000000e+03,6.160000000000000000e+02,2.070000000000000000e+02,1.440000000000000000e+02,7.200000000000000000e+01,8.800000000000000000e+01,2.300000000000000100e-01,5.546073100000000000e+09
1.400000000000000000e+02,3.370000000000000000e+02,1.054000000000000000e+03,6.170000000000000000e+02,1.920000000000000000e+02,1.320000000000000000e+02,7.300000000000000000e+01,8.500000000000000000e+01,2.300000000000000100e-01,5.565672700000000000e+09
1.440000000000000000e+02,3.310000000000000000e+02,1.069000000000000000e+03,5.760000000000000000e+02,2.020000000000000000e+02,1.240000000000000000e+02,7.600000000000000000e+01,9.400000000000000000e+01,2.200000000000000011e-01,5.586614900000000000e+09
1.540000000000000000e+02,3.340000000000000000e+02,1.029000000000000000e+03,5.930000000000000000e+02,2.220000000000000000e+02,1.350000000000000000e+02,8.600000000000000000e+01,1.030000000000000000e+02,2.200000000000000011e-01,5.609081100000000000e+09
1.550000000000000000e+02,3.150000000000000000e+02,1.004000000000000000e+03,6.010000000000000000e+02,2.360000000000000000e+02,1.410000000000000000e+02,8.700000000000000000e+01,1.040000000000000000e+02,2.200000000000000011e-01,5.631436400000000000e+09
1.480000000000000000e+02,3.150000000000000000e+02,9.380000000000000000e+02,5.870000000000000000e+02,2.230000000000000000e+02,1.540000000000000000e+02,9.000000000000000000e+01,9.600000000000000000e+01,2.099999999999999922e-01,5.649809200000000000e+09
1.440000000000000000e+02,3.020000000000000000e+02,9.090000000000000000e+02,5.850000000000000000e+02,2.220000000000000000e+02,1.550000000000000000e+02,8.700000000000000000e+01,9.300000000000000000e+01,2.099999999999999922e-01,5.669171200000000000e+09
1.430000000000000000e+02,3.090000000000000000e+02,8.590000000000000000e+02,6.610000000000000000e+02,2.350000000000000000e+02,1.620000000000000000e+02,8.800000000000000000e+01,8.800000000000000000e+01,2.099999999999999922e-01,5.687634500000000000e+09
1.380000000000000000e+02,2.730000000000000000e+02,8.830000000000000000e+02,6.850000000000000000e+02,2.040000000000000000e+02,1.480000000000000000e+02,7.900000000000000000e+01,8.300000000000000000e+01,2.099999999999999922e-01,5.709314400000000000e+09
1.290000000000000000e+02,2.570000000000000000e+02,9.110000000000000000e+02,6.670000000000000000e+02,1.890000000000000000e+02,1.450000000000000000e+02,7.400000000000000000e+01,7.700000000000000000e+01,2.099999999999999922e-01,5.727361500000000000e+09
1.600000000000000000e+02,2.970000000000000000e+02,9.390000000000000000e+02,6.800000000000000000e+02,2.030000000000000000e+02,1.400000000000000000e+02,7.700000000000000000e+01,9.500000000000000000e+01,2.099999999999999922e-01,5.746133900000000000e+09
1.600000000000000000e+02,3.000000000000000000e+02,9.540000000000000000e+02,6.980000000000000000e+02,2.030000000000000000e+02,1.430000000000000000e+02,7.500000000000000000e+01,9.700000000000000000e+01,2.099999999999999922e-01,5.764963700000000000e+09
1.510000000000000000e+02,2.670000000000000000e+02,9.230000000000000000e+02,6.400000000000000000e+02,1.730000000000000000e+02,1.440000000000000000e+02,7.300000000000000000e+01,9.400000000000000000e+01,2.099999999999999922e-01,5.787127100000000000e+09
1.420000000000000000e+02,2.940000000000000000e+02,9.620000000000000000e+02,6.090000000000000000e+02,1.660000000000000000e+02,1.400000000000000000e+02,7.000000000000000000e+01,9.000000000000000000e+01,2.200000000000000011e-01,5.809170000000000000e+09
1.650000000000000000e+02,3.270000000000000000e+02,9.570000000000000000e+02,6.780000000000000000e+02,1.930000000000000000e+02,1.550000000000000000e+02,7.900000000000000000e+01,1.030000000000000000e+02,2.200000000000000011e-01,5.827505400000000000e+09
1.420000000000000000e+02,3.410000000000000000e+02,9.750000000000000000e+02,6.740000000000000000e+02,1.810000000000000000e+02,1.430000000000000000e+02,7.200000000000000000e+01,8.900000000000000000e+01,2.200000000000000011e-01,5.845802900000000000e+09
1.480000000000000000e+02,3.530000000000000000e+02,1.036000000000000000e+03,6.490000000000000000e+02,1.970000000000000000e+02,1.460000000000000000e+02,6.900000000000000000e+01,9.200000000000000000e+01,2.200000000000000011e-01,5.864670300000000000e+09
1.620000000000000000e+02,3.860000000000000000e+02,1.133000000000000000e+03,6.350000000000000000e+02,2.020000000000000000e+02,1.420000000000000000e+02,7.000000000000000000e+01,9.900000000000000000e+01,2.200000000000000011e-01,5.886923500000000000e+09
1.720000000000000000e+02,3.900000000000000000e+02,1.115000000000000000e+03,6.340000000000000000e+02,2.160000000000000000e+02,1.500000000000000000e+02,7.700000000000000000e+01,1.050000000000000000e+02,2.200000000000000011e-01,5.909301100000000000e+09
1.570000000000000000e+02,3.720000000000000000e+02,1.100000000000000000e+03,5.550000000000000000e+02,2.000000000000000000e+02,1.380000000000000000e+02,6.800000000000000000e+01,9.500000000000000000e+01,2.200000000000000011e-01,5.928404000000000000e+09
1.640000000000000000e+02,3.250000000000000000e+02,1.056000000000000000e+03,5.990000000000000000e+02,2.120000000000000000e+02,1.560000000000000000e+02,7.200000000000000000e+01,1.030000000000000000e+02,2.200000000000000011e-01,5.947000700000000000e+09
1.570000000000000000e+02,3.050000000000000000e+02,1.057000000000000000e+03,7.110000000000000000e+02,1.900000000000000000e+02,1.440000000000000000e+02,7.300000000000000000e+01,9.600000000000000000e+01,2.099999999999999922e-01,5.965091000000000000e+09
1.420000000000000000e+02,2.950000000000000000e+02,1.007000000000000000e+03,7.030000000000000000e+02,1.850000000000000000e+02,1.370000000000000000e+02,7.000000000000000000e+01,8.700000000000000000e+01,2.200000000000000011e-01,5.987112000000000000e+09
1.290000000000000000e+02,2.720000000000000000e+02,1.055000000000000000e+03,7.270000000000000000e+02,1.630000000000000000e+02,1.290000000000000000e+02,6.100000000000000000e+01,7.600000000000000000e+01,2.200000000000000011e-01,6.009345600000000000e+09
1.420000000000000000e+02,2.960000000000000000e+02,1.143000000000000000e+03,8.050000000000000000e+02,1.950000000000000000e+02,1.370000000000000000e+02,6.600000000000000000e+01,8.700000000000000000e+01,2.200000000000000011e-01,6.027413700000000000e+09
1.820000000000000000e+02,3.360000000000000000e+02,1.193000000000000000e+03,8.260000000000000000e+02,2.090000000000000000e+02,1.490000000000000000e+02,8.800000000000000000e+01,1.120000000000000000e+02,2.200000000000000011e-01,6.045618900000000000e+09
1.780000000000000000e+02,3.270000000000000000e+02,1.138000000000000000e+03,7.140000000000000000e+02,2.040000000000000000e+02,1.540000000000000000e+02,8.700000000000000000e+01,1.100000000000000000e+02,2.200000000000000011e-01,6.065373200000000000e+09
1.790000000000000000e+02,3.010000000000000000e+02,1.090000000000000000e+03,6.910000000000000000e+02,1.980000000000000000e+02,1.480000000000000000e+02,8.600000000000000000e+01,1.120000000000000000e+02,2.200000000000000011e-01,6.086538600000000000e+09
1.730000000000000000e+02,2.710000000000000000e+02,9.800000000000000000e+02,6.030000000000000000e+02,1.950000000000000000e+02,1.400000000000000000e+02,8.300000000000000000e+01,1.100000000000000000e+02,2.300000000000000100e-01,6.108502300000000000e+09
1.610000000000000000e+02,2.290000000000000000e+02,7.860000000000000000e+02,4.820000000000000000e+02,1.510000000000000000e+02,1.220000000000000000e+02,7.700000000000000000e+01,1.280000000000000000e+02,2.399999999999999911e-01,6.126902600000000000e+09
9.900000000000000000e+01,1.570000000000000000e+02,6.960000000000000000e+02,3.650000000000000000e+02,8.800000000000000000e+01,7.100000000000000000e+01,8.700000000000000000e+01,2.070000000000000000e+02,2.600000000000000089e-01,6.145275900000000000e+09
9.400000000000000000e+01,1.440000000000000000e+02,6.440000000000000000e+02,3.100000000000000000e+02,8.500000000000000000e+01,8.500000000000000000e+01,9.700000000000000000e+01,2.460000000000000000e+02,2.700000000000000178e-01,6.164134900000000000e+09
1.030000000000000000e+02,1.160000000000000000e+02,5.820000000000000000e+02,2.900000000000000000e+02,7.500000000000000000e+01,1.210000000000000000e+02,2.460000000000000000e+02,3.920000000000000000e+02,2.899999999999999800e-01,6.187323900000000000e+09
1.510000000000000000e+02,1.080000000000000000e+02,5.210000000000000000e+02,2.570000000000000000e+02,7.200000000000000000e+01,1.960000000000000000e+02,3.810000000000000000e+02,5.330000000000000000e+02,3.099999999999999978e-01,6.208681300000000000e+09
1.510000000000000000e+02,1.040000000000000000e+02,5.240000000000000000e+02,2.420000000000000000e+02,7.700000000000000000e+01,2.430000000000000000e+02,4.310000000000000000e+02,6.220000000000000000e+02,3.200000000000000067e-01,6.231101500000000000e+09
1.620000000000000000e+02,1.180000000000000000e+02,4.810000000000000000e+02,1.860000000000000000e+02,7.500000000000000000e+01,2.580000000000000000e+02,4.320000000000000000e+02,6.540000000000000000e+02,3.200000000000000067e-01,6.249702400000000000e+09
2.110000000000000000e+02,1.160000000000000000e+02,4.330000000000000000e+02,1.870000000000000000e+02,7.200000000000000000e+01,2.630000000000000000e+02,4.530000000000000000e+02,6.860000000000000000e+02,3.300000000000000155e-01,6.270554700000000000e+09
2.160000000000000000e+02,1.140000000000000000e+02,4.120000000000000000e+02,1.750000000000000000e+02,7.200000000000000000e+01,2.670000000000000000e+02,4.200000000000000000e+02,7.030000000000000000e+02,3.300000000000000155e-01,6.290682600000000000e+09
1.950000000000000000e+02,1.100000000000000000e+02,3.960000000000000000e+02,1.650000000000000000e+02,6.900000000000000000e+01,2.720000000000000000e+02,3.530000000000000000e+02,6.380000000000000000e+02,3.400000000000000244e-01,6.311056100000000000e+09
1.990000000000000000e+02,1.180000000000000000e+02,3.910000000000000000e+02,2.000000000000000000e+02,6.800000000000000000e+01,2.400000000000000000e+02,3.020000000000000000e+02,5.790000000000000000e+02,3.499999999999999778e-01,6.329694600000000000e+09
1.940000000000000000e+02,1.010000000000000000e+02,3.400000000000000000e+02,1.880000000000000000e+02,6.200000000000000000e+01,2.300000000000000000e+02,3.010000000000000000e+02,5.170000000000000000e+02,3.599999999999999867e-01,6.348229000000000000e+09
1.430000000000000000e+02,9.600000000000000000e+01,3.340000000000000000e+02,1.830000000000000000e+02,6.000000000000000000e+01,2.210000000000000000e+02,2.780000000000000000e+02,5.270000000000000000e+02,3.599999999999999867e-01,6.366731100000000000e+09
1.240000000000000000e+02,1.000000000000000000e+02,3.290000000000000000e+02,2.040000000000000000e+02,6.100000000000000000e+01,1.980000000000000000e+02,2.430000000000000000e+02,4.260000000000000000e+02,3.599999999999999867e-01,6.386025700000000000e+09
1.110000000000000000e+02,1.170000000000000000e+02,4.240000000000000000e+02,2.800000000000000000e+02,7.300000000000000000e+01,1.150000000000000000e+02,1.700000000000000000e+02,3.760000000000000000e+02,3.699999999999999956e-01,6.411194500000000000e+09
1.000000000000000000e+02,1.090000000000000000e+02,4.970000000000000000e+02,2.570000000000000000e+02,5.800000000000000000e+01,1.200000000000000000e+02,1.760000000000000000e+02,3.420000000000000000e+02,3.699999999999999956e-01,6.429088000000000000e+09
8.500000000000000000e+01,9.800000000000000000e+01,5.460000000000000000e+02,2.360000000000000000e+02,5.400000000000000000e+01,1.120000000000000000e+02,1.590000000000000000e+02,3.390000000000000000e+02,3.800000000000000044e-01,6.447618700000000000e+09
7.700000000000000000e+01,1.070000000000000000e+02,5.520000000000000000e+02,2.360000000000000000e+02,5.500000000000000000e+01,1.010000000000000000e+02,1.350000000000000000e+02,2.390000000000000000e+02,3.900000000000000133e-01,6.466035000000000000e+09
7.600000000000000000e+01,1.080000000000000000e+02,5.640000000000000000e+02,2.240000000000000000e+02,5.400000000000000000e+01,9.900000000000000000e+01,1.200000000000000000e+02,2.650000000000000000e+02,4.000000000000000222e-01,6.486239900000000000e+09
7.500000000000000000e+01,1.010000000000000000e+02,5.080000000000000000e+02,1.490000000000000000e+02,3.800000000000000000e+01,9.700000000000000000e+01,1.840000000000000000e+02,2.630000000000000000e+02,4.099999999999999756e-01,6.508455300000000000e+09
7.300000000000000000e+01,9.100000000000000000e+01,5.210000000000000000e+02,1.520000000000000000e+02,3.700000000000000000e+01,6.500000000000000000e+01,1.650000000000000000e+02,2.440000000000000000e+02,4.199999999999999845e-01,6.531547500000000000e+09
7.900000000000000000e+01,9.500000000000000000e+01,5.120000000000000000e+02,1.730000000000000000e+02,3.700000000000000000e+01,5.800000000000000000e+01,1.660000000000000000e+02,2.920000000000000000e+02,4.299999999999999933e-01,6.550258800000000000e+09
8.200000000000000000e+01,9.200000000000000000e+01,5.420000000000000000e+02,2.030000000000000000e+02,3.600000000000000000e+01,5.400000000000000000e+01,1.690000000000000000e+02,2.700000000000000000e+02,4.400000000000000022e-01,6.568846300000000000e+09
8.800000000000000000e+01,8.800000000000000000e+01,5.730000000000000000e+02,2.270000000000000000e+02,4.100000000000000000e+01,5.100000000000000000e+01,1.680000000000000000e+02,2.220000000000000000e+02,4.500000000000000111e-01,6.588599100000000000e+09
8.300000000000000000e+01,8.300000000000000000e+01,5.690000000000000000e+02,2.130000000000000000e+02,3.800000000000000000e+01,4.700000000000000000e+01,8.100000000000000000e+01,2.260000000000000000e+02,4.699999999999999734e-01,6.607897000000000000e+09
8.000000000000000000e+01,8.100000000000000000e+01,5.100000000000000000e+02,2.050000000000000000e+02,3.500000000000000000e+01,3.400000000000000000e+01,6.700000000000000000e+01,2.310000000000000000e+02,4.799999999999999822e-01,6.626304300000000000e+09
8.000000000000000000e+01,1.070000000000000000e+02,4.950000000000000000e+02,2.440000000000000000e+02,4.400000000000000000e+01,4.000000000000000000e+01,6.600000000000000000e+01,2.490000000000000000e+02,4.799999999999999822e-01,6.644341300000000000e+09
7.600000000000000000e+01,1.040000000000000000e+02,4.630000000000000000e+02,2.290000000000000000e+02,4.400000000000000000e+01,3.600000000000000000e+01,5.500000000000000000e+01,2.540000000000000000e+02,4.899999999999999911e-01,6.666599500000000000e+09
6.600000000000000000e+01,1.030000000000000000e+02,3.940000000000000000e+02,2.000000000000000000e+02,3.600000000000000000e+01,3.300000000000000000e+01,5.100000000000000000e+01,2.520000000000000000e+02,4.899999999999999911e-01,6.685731200000000000e+09
7.400000000000000000e+01,9.900000000000000000e+01,3.850000000000000000e+02,1.960000000000000000e+02,3.300000000000000000e+01,3.300000000000000000e+01,5.400000000000000000e+01,2.880000000000000000e+02,5.000000000000000000e-01,6.707901500000000000e+09
7.600000000000000000e+01,1.020000000000000000e+02,3.020000000000000000e+02,2.020000000000000000e+02,3.600000000000000000e+01,3.800000000000000000e+01,5.400000000000000000e+01,2.880000000000000000e+02,5.000000000000000000e-01,6.726136500000000000e+09
6.700000000000000000e+01,7.600000000000000000e+01,2.990000000000000000e+02,1.630000000000000000e+02,2.700000000000000000e+01,4.200000000000000000e+01,5.000000000000000000e+01,2.130000000000000000e+02,5.100000000000000089e-01,6.750224700000000000e+09
6.800000000000000000e+01,7.600000000000000000e+01,3.540000000000000000e+02,1.740000000000000000e+02,3.600000000000000000e+01,4.800000000000000000e+01,5.300000000000000000e+01,2.040000000000000000e+02,5.200000000000000178e-01,6.771879100000000000e+09
7.100000000000000000e+01,7.900000000000000000e+01,3.760000000000000000e+02,1.780000000000000000e+02,3.600000000000000000e+01,4.800000000000000000e+01,5.400000000000000000e+01,1.860000000000000000e+02,5.300000000000000266e-01,6.790644600000000000e+09
6.100000000000000000e+01,7.700000000000000000e+01,3.740000000000000000e+02,1.810000000000000000e+02,3.700000000000000000e+01,5.100000000000000000e+01,4.100000000000000000e+01,1.010000000000000000e+02,5.400000000000000355e-01,6.809029200000000000e+09
5.300000000000000000e+01,8.200000000000000000e+01,3.730000000000000000e+02,1.770000000000000000e+02,3.500000000000000000e+01,4.800000000000000000e+01,3.800000000000000000e+01,6.900000000000000000e+01,5.500000000000000444e-01,6.832297100000000000e+09
4.800000000000000000e+01,7.700000000000000000e+01,3.390000000000000000e+02,1.600000000000000000e+02,3.500000000000000000e+01,3.900000000000000000e+01,3.200000000000000000e+01,6.600000000000000000e+01,5.500000000000000444e-01,6.850907100000000000e+09
4.700000000000000000e+01,7.500000000000000000e+01,2.800000000000000000e+02,1.350000000000000000e+02,2.700000000000000000e+01,3.300000000000000000e+01,2.600000000000000000e+01,6.100000000000000000e+01,5.500000000000000444e-01,6.869310100000000000e+09
4.000000000000000000e+01,7.300000000000000000e+01,2.480000000000000000e+02,1.240000000000000000e+02,2.700000000000000000e+01,3.300000000000000000e+01,2.400000000000000000e+01,5.000000000000000000e+01,5.600000000000000533e-01,6.887347400000000000e+09
4.000000000000000000e+01,7.300000000000000000e+01,2.370000000000000000e+02,1.180000000000000000e+02,2.600000000000000000e+01,2.800000000000000000e+01,2.600000000000000000e+01,4.600000000000000000e+01,5.600000000000000533e-01,6.906747300000000000e+09
4.300000000000000000e+01,7.500000000000000000e+01,2.630000000000000000e+02,1.370000000000000000e+02,3.100000000000000000e+01,3.000000000000000000e+01,2.700000000000000000e+01,4.900000000000000000e+01,5.699999999999999512e-01,6.928608800000000000e+09
5.700000000000000000e+01,1.110000000000000000e+02,3.800000000000000000e+02,1.990000000000000000e+02,4.300000000000000000e+01,3.600000000000000000e+01,2.800000000000000000e+01,5.100000000000000000e+01,5.799999999999999600e-01,6.946506000000000000e+09
5.800000000000000000e+01,1.110000000000000000e+02,3.900000000000000000e+02,2.180000000000000000e+02,4.300000000000000000e+01,3.600000000000000000e+01,2.700000000000000000e+01,5.100000000000000000e+01,5.899999999999999689e-01,6.965266900000000000e+09
7.200000000000000000e+01,1.130000000000000000e+02,4.310000000000000000e+02,2.280000000000000000e+02,4.400000000000000000e+01,3.600000000000000000e+01,6.500000000000000000e+01,9.100000000000000000e+01,5.999999999999999778e-01,6.988262100000000000e+09
7.500000000000000000e+01,1.150000000000000000e+02,4.650000000000000000e+02,2.470000000000000000e+02,4.800000000000000000e+01,3.900000000000000000e+01,6.800000000000000000e+01,1.300000000000000000e+02,6.099999999999999867e-01,7.006901400000000000e+09
8.000000000000000000e+01,1.130000000000000000e+02,4.880000000000000000e+02,2.540000000000000000e+02,5.200000000000000000e+01,4.000000000000000000e+01,7.600000000000000000e+01,2.100000000000000000e+02,6.099999999999999867e-01,7.028434300000000000e+09
7.200000000000000000e+01,8.900000000000000000e+01,4.620000000000000000e+02,2.230000000000000000e+02,4.700000000000000000e+01,3.600000000000000000e+01,7.700000000000000000e+01,2.210000000000000000e+02,6.099999999999999867e-01,7.048402700000000000e+09
8.100000000000000000e+01,8.900000000000000000e+01,4.580000000000000000e+02,2.080000000000000000e+02,4.700000000000000000e+01,3.800000000000000000e+01,7.800000000000000000e+01,2.460000000000000000e+02,6.099999999999999867e-01,7.067150900000000000e+09
6.800000000000000000e+01,9.000000000000000000e+01,4.240000000000000000e+02,2.010000000000000000e+02,4.700000000000000000e+01,3.800000000000000000e+01,5.200000000000000000e+01,2.470000000000000000e+02,6.099999999999999867e-01,7.087189800000000000e+09
6.800000000000000000e+01,8.900000000000000000e+01,3.960000000000000000e+02,2.140000000000000000e+02,4.800000000000000000e+01,4.100000000000000000e+01,4.900000000000000000e+01,2.440000000000000000e+02,6.099999999999999867e-01,7.108114100000000000e+09
6.300000000000000000e+01,8.000000000000000000e+01,4.220000000000000000e+02,2.060000000000000000e+02,4.200000000000000000e+01,4.000000000000000000e+01,3.900000000000000000e+01,1.880000000000000000e+02,6.099999999999999867e-01,7.128481900000000000e+09
6.700000000000000000e+01,7.800000000000000000e+01,4.010000000000000000e+02,2.280000000000000000e+02,4.800000000000000000e+01,3.900000000000000000e+01,3.500000000000000000e+01,1.860000000000000000e+02,6.099999999999999867e-01,7.154517000000000000e+09
5.700000000000000000e+01,8.000000000000000000e+01,3.920000000000000000e+02,2.370000000000000000e+02,4.800000000000000000e+01,3.800000000000000000e+01,3.500000000000000000e+01,1.660000000000000000e+02,6.199999999999999956e-01,7.173327400000000000e+09
5.800000000000000000e+01,7.600000000000000000e+01,3.900000000000000000e+02,2.350000000000000000e+02,4.700000000000000000e+01,3.900000000000000000e+01,4.400000000000000000e+01,3.000000000000000000e+02,6.099999999999999867e-01,7.192444500000000000e+09
5.400000000000000000e+01,7.500000000000000000e+01,3.920000000000000000e+02,2.140000000000000000e+02,4.200000000000000000e+01,4.000000000000000000e+01,4.700000000000000000e+01,2.960000000000000000e+02,5.999999999999999778e-01,7.212286200000000000e+09
5.900000000000000000e+01,8.500000000000000000e+01,4.540000000000000000e+02,2.220000000000000000e+02,4.800000000000000000e+01,4.000000000000000000e+01,5.000000000000000000e+01,3.020000000000000000e+02,5.999999999999999778e-01,7.230672600000000000e+09
5.100000000000000000e+01,7.400000000000000000e+01,4.790000000000000000e+02,1.830000000000000000e+02,3.700000000000000000e+01,4.000000000000000000e+01,4.800000000000000000e+01,2.970000000000000000e+02,5.899999999999999689e-01,7.249355700000000000e+09
4.700000000000000000e+01,7.300000000000000000e+01,5.090000000000000000e+02,1.630000000000000000e+02,3.700000000000000000e+01,4.300000000000000000e+01,4.900000000000000000e+01,2.930000000000000000e+02,5.799999999999999600e-01,7.268166700000000000e+09
5.700000000000000000e+01,1.070000000000000000e+02,6.670000000000000000e+02,2.390000000000000000e+02,4.700000000000000000e+01,4.500000000000000000e+01,4.200000000000000000e+01,1.400000000000000000e+02,5.799999999999999600e-01,7.287579800000000000e+09
6.400000000000000000e+01,1.140000000000000000e+02,7.360000000000000000e+02,2.640000000000000000e+02,4.900000000000000000e+01,4.000000000000000000e+01,3.800000000000000000e+01,1.740000000000000000e+02,5.799999999999999600e-01,7.306062600000000000e+09
6.000000000000000000e+01,1.080000000000000000e+02,6.580000000000000000e+02,2.370000000000000000e+02,4.300000000000000000e+01,4.000000000000000000e+01,3.700000000000000000e+01,1.800000000000000000e+02,5.799999999999999600e-01,7.327356200000000000e+09
6.000000000000000000e+01,1.080000000000000000e+02,6.050000000000000000e+02,2.340000000000000000e+02,4.400000000000000000e+01,3.900000000000000000e+01,3.800000000000000000e+01,1.820000000000000000e+02,5.799999999999999600e-01,7.349048600000000000e+09
7.400000000000000000e+01,1.150000000000000000e+02,6.220000000000000000e+02,2.520000000000000000e+02,4.800000000000000000e+01,3.700000000000000000e+01,3.500000000000000000e+01,1.780000000000000000e+02,5.799999999999999600e-01,7.367279000000000000e+09
7.200000000000000000e+01,1.090000000000000000e+02,6.180000000000000000e+02,2.190000000000000000e+02,4.000000000000000000e+01,3.300000000000000000e+01,3.200000000000000000e+01,1.990000000000000000e+02,5.799999999999999600e-01,7.386979100000000000e+09
6.700000000000000000e+01,1.120000000000000000e+02,5.330000000000000000e+02,1.910000000000000000e+02,3.600000000000000000e+01,3.000000000000000000e+01,3.500000000000000000e+01,2.040000000000000000e+02,5.699999999999999512e-01,7.407936100000000000e+09
6.800000000000000000e+01,1.160000000000000000e+02,5.830000000000000000e+02,2.110000000000000000e+02,3.700000000000000000e+01,2.800000000000000000e+01,2.900000000000000000e+01,1.940000000000000000e+02,5.699999999999999512e-01,7.426785300000000000e+09
8.000000000000000000e+01,1.370000000000000000e+02,6.830000000000000000e+02,2.240000000000000000e+02,4.100000000000000000e+01,2.800000000000000000e+01,3.200000000000000000e+01,2.260000000000000000e+02,5.799999999999999600e-01,7.449457900000000000e+09
7.600000000000000000e+01,1.360000000000000000e+02,6.770000000000000000e+02,2.560000000000000000e+02,5.300000000000000000e+01,3.600000000000000000e+01,3.500000000000000000e+01,2.270000000000000000e+02,5.799999999999999600e-01,7.468237800000000000e+09
7.300000000000000000e+01,1.270000000000000000e+02,6.440000000000000000e+02,2.730000000000000000e+02,6.000000000000000000e+01,3.800000000000000000e+01,3.400000000000000000e+01,2.050000000000000000e+02,5.799999999999999600e-01,7.487493200000000000e+09
7.700000000000000000e+01,1.240000000000000000e+02,6.530000000000000000e+02,2.620000000000000000e+02,6.200000000000000000e+01,4.100000000000000000e+01,3.700000000000000000e+01,3.010000000000000000e+02,5.799999999999999600e-01,7.505831200000000000e+09
7.600000000000000000e+01,1.270000000000000000e+02,6.300000000000000000e+02,2.560000000000000000e+02,6.100000000000000000e+01,3.900000000000000000e+01,3.700000000000000000e+01,3.010000000000000000e+02,5.799999999999999600e-01,7.528675200000000000e+09
6.300000000000000000e+01,1.080000000000000000e+02,5.200000000000000000e+02,2.460000000000000000e+02,5.800000000000000000e+01,3.800000000000000000e+01,3.500000000000000000e+01,2.830000000000000000e+02,5.699999999999999512e-01,7.549652000000000000e+09
6.200000000000000000e+01,9.800000000000000000e+01,4.690000000000000000e+02,1.940000000000000000e+02,4.500000000000000000e+01,2.900000000000000000e+01,3.200000000000000000e+01,2.820000000000000000e+02,5.699999999999999512e-01,7.568607200000000000e+09
6.700000000000000000e+01,9.900000000000000000e+01,3.140000000000000000e+02,1.160000000000000000e+02,3.500000000000000000e+01,2.800000000000000000e+01,3.300000000000000000e+01,2.870000000000000000e+02,5.600000000000000533e-01,7.596793700000000000e+09
7.100000000000000000e+01,8.900000000000000000e+01,2.770000000000000000e+02,1.100000000000000000e+02,3.000000000000000000e+01,2.500000000000000000e+01,2.500000000000000000e+01,1.900000000000000000e+02,5.600000000000000533e-01,7.615878500000000000e+09
6.900000000000000000e+01,7.500000000000000000e+01,1.990000000000000000e+02,8.200000000000000000e+01,3.000000000000000000e+01,2.500000000000000000e+01,2.600000000000000000e+01,1.990000000000000000e+02,5.500000000000000444e-01,7.634046000000000000e+09
7.000000000000000000e+01,6.900000000000000000e+01,1.730000000000000000e+02,6.300000000000000000e+01,3.000000000000000000e+01,2.400000000000000000e+01,2.600000000000000000e+01,1.910000000000000000e+02,5.400000000000000355e-01,7.655517000000000000e+09
6.600000000000000000e+01,7.000000000000000000e+01,2.310000000000000000e+02,7.200000000000000000e+01,2.600000000000000000e+01,2.700000000000000000e+01,3.000000000000000000e+01,1.960000000000000000e+02,5.400000000000000355e-01,7.674711200000000000e+09
5.700000000000000000e+01,6.200000000000000000e+01,3.420000000000000000e+02,1.390000000000000000e+02,2.300000000000000000e+01,2.800000000000000000e+01,3.000000000000000000e+01,1.900000000000000000e+02,5.400000000000000355e-01,7.693011900000000000e+09
5.000000000000000000e+01,8.700000000000000000e+01,5.780000000000000000e+02,2.370000000000000000e+02,9.000000000000000000e+01,3.900000000000000000e+01,3.800000000000000000e+01,1.280000000000000000e+02,5.300000000000000266e-01,7.711953800000000000e+09
5.400000000000000000e+01,1.060000000000000000e+02,6.550000000000000000e+02,2.830000000000000000e+02,1.000000000000000000e+02,4.800000000000000000e+01,3.700000000000000000e+01,8.900000000000000000e+01,5.300000000000000266e-01,7.730900800000000000e+09
7.600000000000000000e+01,1.640000000000000000e+02,8.040000000000000000e+02,4.760000000000000000e+02,1.160000000000000000e+02,8.100000000000000000e+01,5.000000000000000000e+01,8.300000000000000000e+01,5.200000000000000178e-01,7.749102700000000000e+09
8.000000000000000000e+01,1.810000000000000000e+02,8.760000000000000000e+02,5.720000000000000000e+02,1.340000000000000000e+02,8.600000000000000000e+01,5.400000000000000000e+01,6.300000000000000000e+01,5.200000000000000178e-01,7.769638800000000000e+09
1.130000000000000000e+02,2.350000000000000000e+02,1.032000000000000000e+03,7.190000000000000000e+02,1.970000000000000000e+02,1.210000000000000000e+02,7.200000000000000000e+01,7.800000000000000000e+01,5.100000000000000089e-01,7.787991100000000000e+09
1.180000000000000000e+02,2.460000000000000000e+02,9.990000000000000000e+02,7.500000000000000000e+02,2.160000000000000000e+02,1.320000000000000000e+02,7.700000000000000000e+01,7.900000000000000000e+01,5.000000000000000000e-01,7.807379700000000000e+09
1.260000000000000000e+02,2.790000000000000000e+02,1.078000000000000000e+03,8.790000000000000000e+02,2.190000000000000000e+02,1.310000000000000000e+02,8.100000000000000000e+01,8.100000000000000000e+01,4.899999999999999911e-01,7.827515100000000000e+09
1.410000000000000000e+02,2.990000000000000000e+02,1.105000000000000000e+03,8.920000000000000000e+02,2.640000000000000000e+02,1.390000000000000000e+02,8.000000000000000000e+01,8.800000000000000000e+01,4.699999999999999734e-01,7.848878900000000000e+09
1.620000000000000000e+02,3.450000000000000000e+02,1.185000000000000000e+03,9.360000000000000000e+02,2.800000000000000000e+02,1.760000000000000000e+02,8.900000000000000000e+01,9.900000000000000000e+01,4.600000000000000200e-01,7.874882100000000000e+09
1.660000000000000000e+02,3.520000000000000000e+02,1.197000000000000000e+03,9.220000000000000000e+02,2.820000000000000000e+02,1.860000000000000000e+02,1.110000000000000000e+02,1.000000000000000000e+02,4.400000000000000022e-01,7.897485400000000000e+09
1.860000000000000000e+02,4.000000000000000000e+02,1.235000000000000000e+03,9.730000000000000000e+02,3.020000000000000000e+02,2.150000000000000000e+02,1.590000000000000000e+02,1.670000000000000000e+02,4.299999999999999933e-01,7.916462300000000000e+09
1.950000000000000000e+02,4.170000000000000000e+02,1.184000000000000000e+03,8.930000000000000000e+02,3.110000000000000000e+02,2.240000000000000000e+02,1.660000000000000000e+02,1.810000000000000000e+02,4.099999999999999756e-01,7.934729200000000000e+09
2.010000000000000000e+02,4.240000000000000000e+02,1.165000000000000000e+03,8.330000000000000000e+02,3.330000000000000000e+02,2.270000000000000000e+02,1.680000000000000000e+02,1.760000000000000000e+02,3.900000000000000133e-01,7.952825600000000000e+09
1.940000000000000000e+02,4.090000000000000000e+02,1.131000000000000000e+03,7.490000000000000000e+02,3.540000000000000000e+02,2.260000000000000000e+02,1.810000000000000000e+02,1.820000000000000000e+02,3.699999999999999956e-01,7.971584400000000000e+09
1.950000000000000000e+02,4.400000000000000000e+02,1.059000000000000000e+03,7.160000000000000000e+02,3.570000000000000000e+02,2.220000000000000000e+02,1.780000000000000000e+02,2.240000000000000000e+02,3.400000000000000244e-01,7.990231700000000000e+09
1.990000000000000000e+02,4.440000000000000000e+02,1.039000000000000000e+03,6.520000000000000000e+02,3.280000000000000000e+02,2.480000000000000000e+02,1.560000000000000000e+02,2.280000000000000000e+02,3.200000000000000067e-01,8.009272800000000000e+09
2.080000000000000000e+02,5.060000000000000000e+02,1.160000000000000000e+03,7.700000000000000000e+02,3.400000000000000000e+02,2.630000000000000000e+02,1.550000000000000000e+02,2.300000000000000000e+02,2.999999999999999889e-01,8.030931300000000000e+09
2.030000000000000000e+02,5.250000000000000000e+02,1.133000000000000000e+03,7.980000000000000000e+02,2.810000000000000000e+02,2.550000000000000000e+02,1.540000000000000000e+02,2.330000000000000000e+02,2.899999999999999800e-01,8.049240000000000000e+09
2.090000000000000000e+02,5.490000000000000000e+02,1.138000000000000000e+03,8.600000000000000000e+02,2.440000000000000000e+02,2.410000000000000000e+02,1.330000000000000000e+02,2.260000000000000000e+02,2.800000000000000266e-01,8.067484300000000000e+09
2.210000000000000000e+02,5.680000000000000000e+02,1.258000000000000000e+03,8.710000000000000000e+02,2.440000000000000000e+02,2.420000000000000000e+02,1.400000000000000000e+02,1.860000000000000000e+02,2.600000000000000089e-01,8.091299000000000000e+09
2.240000000000000000e+02,5.710000000000000000e+02,1.239000000000000000e+03,9.290000000000000000e+02,2.860000000000000000e+02,2.410000000000000000e+02,1.620000000000000000e+02,1.360000000000000000e+02,2.500000000000000000e-01,8.110849300000000000e+09
2.140000000000000000e+02,5.010000000000000000e+02,1.120000000000000000e+03,8.960000000000000000e+02,2.680000000000000000e+02,2.330000000000000000e+02,1.630000000000000000e+02,1.170000000000000000e+02,2.399999999999999911e-01,8.129634100000000000e+09
2.180000000000000000e+02,4.840000000000000000e+02,1.149000000000000000e+03,8.620000000000000000e+02,2.890000000000000000e+02,2.390000000000000000e+02,1.710000000000000000e+02,1.210000000000000000e+02,2.300000000000000100e-01,8.151968000000000000e+09
2.310000000000000000e+02,5.100000000000000000e+02,1.093000000000000000e+03,8.610000000000000000e+02,3.040000000000000000e+02,2.460000000000000000e+02,1.800000000000000000e+02,1.380000000000000000e+02,2.200000000000000011e-01,8.173230100000000000e+09
2.120000000000000000e+02,4.620000000000000000e+02,9.390000000000000000e+02,7.950000000000000000e+02,2.700000000000000000e+02,2.370000000000000000e+02,1.620000000000000000e+02,1.310000000000000000e+02,2.200000000000000011e-01,8.211069600000000000e+09
1.830000000000000000e+02,4.130000000000000000e+02,9.650000000000000000e+02,7.410000000000000000e+02,2.220000000000000000e+02,1.860000000000000000e+02,1.150000000000000000e+02,1.150000000000000000e+02,2.099999999999999922e-01,8.230086600000000000e+09
1.770000000000000000e+02,4.380000000000000000e+02,9.850000000000000000e+02,6.390000000000000000e+02,2.150000000000000000e+02,1.710000000000000000e+02,1.050000000000000000e+02,1.120000000000000000e+02,2.099999999999999922e-01,8.247583400000000000e+09
1.570000000000000000e+02,4.300000000000000000e+02,9.580000000000000000e+02,6.340000000000000000e+02,1.950000000000000000e+02,1.610000000000000000e+02,9.200000000000000000e+01,9.800000000000000000e+01,2.000000000000000111e-01,8.266360300000000000e+09
1.160000000000000000e+02,3.680000000000000000e+02,9.930000000000000000e+02,5.450000000000000000e+02,1.540000000000000000e+02,1.360000000000000000e+02,7.700000000000000000e+01,7.000000000000000000e+01,2.000000000000000111e-01,8.285247400000000000e+09
1.030000000000000000e+02,3.480000000000000000e+02,1.012000000000000000e+03,5.830000000000000000e+02,1.610000000000000000e+02,1.380000000000000000e+02,7.700000000000000000e+01,6.600000000000000000e+01,2.000000000000000111e-01,8.302728100000000000e+09
1.310000000000000000e+02,3.820000000000000000e+02,9.840000000000000000e+02,5.080000000000000000e+02,1.730000000000000000e+02,1.340000000000000000e+02,8.700000000000000000e+01,7.800000000000000000e+01,2.000000000000000111e-01,8.321335400000000000e+09
1.250000000000000000e+02,3.580000000000000000e+02,1.012000000000000000e+03,4.900000000000000000e+02,1.740000000000000000e+02,1.280000000000000000e+02,8.600000000000000000e+01,7.500000000000000000e+01,1.900000000000000022e-01,8.340868800000000000e+09
1.250000000000000000e+02,3.460000000000000000e+02,1.016000000000000000e+03,5.370000000000000000e+02,1.690000000000000000e+02,1.270000000000000000e+02,8.100000000000000000e+01,7.600000000000000000e+01,1.900000000000000022e-01,8.359321000000000000e+09
1.380000000000000000e+02,3.470000000000000000e+02,1.000000000000000000e+03,6.010000000000000000e+02,2.000000000000000000e+02,1.430000000000000000e+02,8.400000000000000000e+01,8.600000000000000000e+01,1.799999999999999933e-01,8.377133900000000000e+09
1.380000000000000000e+02,3.470000000000000000e+02,8.980000000000000000e+02,5.730000000000000000e+02,1.910000000000000000e+02,1.280000000000000000e+02,8.000000000000000000e+01,8.500000000000000000e+01,1.799999999999999933e-01,8.396362300000000000e+09
1.180000000000000000e+02,3.120000000000000000e+02,8.620000000000000000e+02,5.550000000000000000e+02,1.700000000000000000e+02,1.190000000000000000e+02,6.700000000000000000e+01,7.400000000000000000e+01,1.799999999999999933e-01,8.413575000000000000e+09
1.130000000000000000e+02,2.780000000000000000e+02,7.420000000000000000e+02,5.320000000000000000e+02,1.590000000000000000e+02,1.190000000000000000e+02,6.700000000000000000e+01,7.200000000000000000e+01,1.900000000000000022e-01,8.433003900000000000e+09
1.040000000000000000e+02,2.440000000000000000e+02,6.060000000000000000e+02,4.500000000000000000e+02,1.460000000000000000e+02,1.060000000000000000e+02,1.080000000000000000e+02,7.500000000000000000e+01,2.000000000000000111e-01,8.451904100000000000e+09
8.300000000000000000e+01,1.920000000000000000e+02,4.880000000000000000e+02,3.110000000000000000e+02,1.020000000000000000e+02,1.030000000000000000e+02,1.180000000000000000e+02,7.700000000000000000e+01,2.200000000000000011e-01,8.470699800000000000e+09
7.800000000000000000e+01,1.560000000000000000e+02,4.190000000000000000e+02,2.330000000000000000e+02,9.100000000000000000e+01,1.210000000000000000e+02,1.220000000000000000e+02,7.900000000000000000e+01,2.399999999999999911e-01,8.489175900000000000e+09
6.400000000000000000e+01,1.170000000000000000e+02,3.130000000000000000e+02,2.110000000000000000e+02,8.300000000000000000e+01,1.200000000000000000e+02,1.250000000000000000e+02,7.500000000000000000e+01,2.600000000000000089e-01,8.509739000000000000e+09
6.300000000000000000e+01,1.130000000000000000e+02,2.770000000000000000e+02,1.950000000000000000e+02,1.140000000000000000e+02,1.230000000000000000e+02,1.240000000000000000e+02,7.400000000000000000e+01,2.700000000000000178e-01,8.529289700000000000e+09
6.200000000000000000e+01,1.030000000000000000e+02,2.650000000000000000e+02,1.950000000000000000e+02,1.560000000000000000e+02,1.250000000000000000e+02,9.400000000000000000e+01,8.000000000000000000e+01,2.999999999999999889e-01,8.548420000000000000e+09
5.700000000000000000e+01,7.900000000000000000e+01,1.790000000000000000e+02,1.870000000000000000e+02,2.190000000000000000e+02,1.170000000000000000e+02,1.050000000000000000e+02,1.520000000000000000e+02,3.099999999999999978e-01,8.569825800000000000e+09
4.800000000000000000e+01,9.800000000000000000e+01,1.820000000000000000e+02,2.660000000000000000e+02,2.200000000000000000e+02,9.300000000000000000e+01,1.030000000000000000e+02,1.570000000000000000e+02,3.300000000000000155e-01,8.588403800000000000e+09
8.400000000000000000e+01,1.880000000000000000e+02,4.960000000000000000e+02,4.370000000000000000e+02,2.350000000000000000e+02,9.200000000000000000e+01,1.020000000000000000e+02,1.620000000000000000e+02,3.400000000000000244e-01,8.608996700000000000e+09
1.000000000000000000e+02,2.240000000000000000e+02,6.130000000000000000e+02,4.870000000000000000e+02,2.340000000000000000e+02,9.700000000000000000e+01,1.050000000000000000e+02,1.700000000000000000e+02,3.499999999999999778e-01,8.630657000000000000e+09
1.000000000000000000e+02,2.310000000000000000e+02,6.340000000000000000e+02,4.890000000000000000e+02,2.110000000000000000e+02,9.300000000000000000e+01,1.000000000000000000e+02,1.660000000000000000e+02,3.599999999999999867e-01,8.649305600000000000e+09
9.700000000000000000e+01,2.360000000000000000e+02,6.460000000000000000e+02,5.020000000000000000e+02,1.390000000000000000e+02,8.300000000000000000e+01,6.300000000000000000e+01,9.500000000000000000e+01,3.800000000000000044e-01,8.667549000000000000e+09
9.800000000000000000e+01,2.250000000000000000e+02,6.370000000000000000e+02,4.640000000000000000e+02,1.310000000000000000e+02,9.000000000000000000e+01,5.700000000000000000e+01,8.400000000000000000e+01,3.900000000000000133e-01,8.698341800000000000e+09
6.800000000000000000e+01,1.600000000000000000e+02,4.410000000000000000e+02,3.240000000000000000e+02,9.800000000000000000e+01,8.500000000000000000e+01,4.700000000000000000e+01,7.300000000000000000e+01,3.900000000000000133e-01,8.716202100000000000e+09
3.800000000000000000e+01,1.110000000000000000e+02,3.440000000000000000e+02,2.420000000000000000e+02,6.400000000000000000e+01,7.200000000000000000e+01,3.600000000000000000e+01,5.200000000000000000e+01,4.000000000000000222e-01,8.733994900000000000e+09
3.600000000000000000e+01,9.800000000000000000e+01,3.720000000000000000e+02,2.260000000000000000e+02,5.100000000000000000e+01,6.600000000000000000e+01,3.700000000000000000e+01,4.900000000000000000e+01,4.099999999999999756e-01,8.752703500000000000e+09
3.100000000000000000e+01,8.500000000000000000e+01,3.690000000000000000e+02,1.790000000000000000e+02,4.400000000000000000e+01,6.200000000000000000e+01,3.400000000000000000e+01,4.200000000000000000e+01,4.199999999999999845e-01,8.772379400000000000e+09
4.600000000000000000e+01,1.150000000000000000e+02,4.130000000000000000e+02,2.280000000000000000e+02,5.700000000000000000e+01,5.300000000000000000e+01,3.400000000000000000e+01,3.800000000000000000e+01,4.299999999999999933e-01,8.790854200000000000e+09
5.200000000000000000e+01,1.250000000000000000e+02,4.330000000000000000e+02,2.170000000000000000e+02,5.600000000000000000e+01,4.900000000000000000e+01,3.500000000000000000e+01,4.000000000000000000e+01,4.500000000000000111e-01,8.818711900000000000e+09
5.500000000000000000e+01,1.190000000000000000e+02,3.730000000000000000e+02,2.140000000000000000e+02,5.300000000000000000e+01,4.700000000000000000e+01,3.200000000000000000e+01,5.200000000000000000e+01,4.699999999999999734e-01,8.837332000000000000e+09
5.500000000000000000e+01,1.180000000000000000e+02,3.210000000000000000e+02,2.070000000000000000e+02,5.400000000000000000e+01,4.600000000000000000e+01,2.900000000000000000e+01,5.000000000000000000e+01,4.899999999999999911e-01,8.855528400000000000e+09
5.800000000000000000e+01,1.560000000000000000e+02,5.020000000000000000e+02,2.470000000000000000e+02,5.400000000000000000e+01,4.200000000000000000e+01,2.900000000000000000e+01,5.200000000000000000e+01,5.100000000000000089e-01,8.873867900000000000e+09
5.300000000000000000e+01,1.370000000000000000e+02,5.180000000000000000e+02,2.500000000000000000e+02,5.700000000000000000e+01,4.600000000000000000e+01,2.800000000000000000e+01,5.000000000000000000e+01,5.300000000000000266e-01,8.892165300000000000e+09
5.700000000000000000e+01,1.350000000000000000e+02,6.240000000000000000e+02,2.610000000000000000e+02,6.000000000000000000e+01,5.700000000000000000e+01,4.700000000000000000e+01,1.880000000000000000e+02,5.500000000000000444e-01,8.911655100000000000e+09
7.600000000000000000e+01,1.420000000000000000e+02,6.300000000000000000e+02,2.770000000000000000e+02,6.300000000000000000e+01,1.590000000000000000e+02,1.080000000000000000e+02,3.370000000000000000e+02,5.600000000000000533e-01,8.932057700000000000e+09
9.300000000000000000e+01,1.630000000000000000e+02,6.530000000000000000e+02,2.950000000000000000e+02,7.300000000000000000e+01,2.240000000000000000e+02,1.170000000000000000e+02,3.490000000000000000e+02,5.600000000000000533e-01,8.953441200000000000e+09
9.400000000000000000e+01,1.450000000000000000e+02,6.160000000000000000e+02,2.660000000000000000e+02,7.200000000000000000e+01,2.290000000000000000e+02,1.240000000000000000e+02,3.580000000000000000e+02,5.600000000000000533e-01,8.972118100000000000e+09
9.500000000000000000e+01,1.550000000000000000e+02,6.880000000000000000e+02,2.220000000000000000e+02,6.200000000000000000e+01,2.270000000000000000e+02,1.270000000000000000e+02,3.790000000000000000e+02,5.500000000000000444e-01,8.991567600000000000e+09
9.800000000000000000e+01,1.590000000000000000e+02,6.450000000000000000e+02,2.180000000000000000e+02,6.400000000000000000e+01,2.290000000000000000e+02,1.290000000000000000e+02,3.380000000000000000e+02,5.500000000000000444e-01,9.012947800000000000e+09
8.700000000000000000e+01,1.550000000000000000e+02,6.480000000000000000e+02,2.000000000000000000e+02,6.200000000000000000e+01,1.800000000000000000e+02,8.900000000000000000e+01,1.920000000000000000e+02,5.500000000000000444e-01,9.032686000000000000e+09
8.100000000000000000e+01,1.330000000000000000e+02,6.530000000000000000e+02,1.700000000000000000e+02,5.000000000000000000e+01,9.200000000000000000e+01,1.250000000000000000e+02,1.890000000000000000e+02,5.500000000000000444e-01,9.051112100000000000e+09
9.300000000000000000e+01,1.480000000000000000e+02,6.930000000000000000e+02,1.970000000000000000e+02,5.700000000000000000e+01,1.010000000000000000e+02,1.330000000000000000e+02,3.020000000000000000e+02,5.400000000000000355e-01,9.073391000000000000e+09
9.000000000000000000e+01,1.370000000000000000e+02,6.180000000000000000e+02,2.110000000000000000e+02,5.500000000000000000e+01,1.020000000000000000e+02,1.340000000000000000e+02,2.880000000000000000e+02,5.400000000000000355e-01,9.092618400000000000e+09
8.300000000000000000e+01,1.310000000000000000e+02,5.690000000000000000e+02,2.000000000000000000e+02,4.700000000000000000e+01,9.300000000000000000e+01,1.280000000000000000e+02,3.000000000000000000e+02,5.300000000000000266e-01,9.110946000000000000e+09
9.200000000000000000e+01,1.460000000000000000e+02,6.320000000000000000e+02,2.670000000000000000e+02,5.300000000000000000e+01,8.600000000000000000e+01,1.260000000000000000e+02,3.050000000000000000e+02,5.300000000000000266e-01,9.142032300000000000e+09
8.500000000000000000e+01,1.450000000000000000e+02,6.250000000000000000e+02,2.800000000000000000e+02,5.400000000000000000e+01,8.000000000000000000e+01,8.000000000000000000e+01,2.970000000000000000e+02,5.300000000000000266e-01,9.160235200000000000e+09
6.800000000000000000e+01,1.100000000000000000e+02,5.150000000000000000e+02,2.470000000000000000e+02,4.300000000000000000e+01,5.200000000000000000e+01,5.000000000000000000e+01,1.720000000000000000e+02,5.300000000000000266e-01,9.178961200000000000e+09
7.200000000000000000e+01,1.120000000000000000e+02,5.490000000000000000e+02,2.390000000000000000e+02,4.400000000000000000e+01,4.500000000000000000e+01,4.300000000000000000e+01,1.800000000000000000e+02,5.300000000000000266e-01,9.200799600000000000e+09
7.600000000000000000e+01,1.100000000000000000e+02,5.740000000000000000e+02,2.370000000000000000e+02,4.600000000000000000e+01,3.700000000000000000e+01,3.700000000000000000e+01,1.530000000000000000e+02,5.400000000000000355e-01,9.218392900000000000e+09
6.200000000000000000e+01,9.300000000000000000e+01,5.130000000000000000e+02,1.600000000000000000e+02,3.500000000000000000e+01,3.100000000000000000e+01,3.500000000000000000e+01,1.400000000000000000e+02,5.500000000000000444e-01,9.236207100000000000e+09
6.300000000000000000e+01,1.030000000000000000e+02,5.480000000000000000e+02,2.350000000000000000e+02,4.300000000000000000e+01,3.200000000000000000e+01,3.600000000000000000e+01,1.350000000000000000e+02,5.500000000000000444e-01,9.253456200000000000e+09
6.600000000000000000e+01,1.070000000000000000e+02,5.390000000000000000e+02,2.490000000000000000e+02,4.500000000000000000e+01,3.100000000000000000e+01,3.500000000000000000e+01,1.210000000000000000e+02,5.600000000000000533e-01,9.273712800000000000e+09
6.000000000000000000e+01,9.900000000000000000e+01,4.640000000000000000e+02,2.410000000000000000e+02,4.500000000000000000e+01,3.000000000000000000e+01,3.200000000000000000e+01,6.600000000000000000e+01,5.699999999999999512e-01,9.306686100000000000e+09
5.300000000000000000e+01,9.300000000000000000e+01,4.270000000000000000e+02,2.370000000000000000e+02,4.300000000000000000e+01,3.100000000000000000e+01,3.100000000000000000e+01,6.100000000000000000e+01,5.799999999999999600e-01,9.323881800000000000e+09
5.300000000000000000e+01,8.800000000000000000e+01,4.260000000000000000e+02,2.510000000000000000e+02,4.600000000000000000e+01,3.000000000000000000e+01,3.000000000000000000e+01,5.100000000000000000e+01,5.899999999999999689e-01,9.341240700000000000e+09
4.400000000000000000e+01,9.200000000000000000e+01,3.850000000000000000e+02,1.760000000000000000e+02,3.800000000000000000e+01,3.000000000000000000e+01,2.400000000000000000e+01,4.700000000000000000e+01,5.999999999999999778e-01,9.359982900000000000e+09
3.700000000000000000e+01,8.800000000000000000e+01,3.800000000000000000e+02,1.570000000000000000e+02,3.700000000000000000e+01,3.100000000000000000e+01,2.500000000000000000e+01,4.300000000000000000e+01,5.999999999999999778e-01,9.377481500000000000e+09
4.100000000000000000e+01,9.200000000000000000e+01,3.780000000000000000e+02,1.590000000000000000e+02,3.500000000000000000e+01,2.900000000000000000e+01,2.400000000000000000e+01,3.900000000000000000e+01,6.099999999999999867e-01,9.395650800000000000e+09
5.000000000000000000e+01,9.900000000000000000e+01,4.350000000000000000e+02,1.980000000000000000e+02,3.900000000000000000e+01,2.900000000000000000e+01,2.700000000000000000e+01,3.600000000000000000e+01,6.199999999999999956e-01,9.414801400000000000e+09
5.300000000000000000e+01,9.800000000000000000e+01,4.190000000000000000e+02,2.040000000000000000e+02,3.800000000000000000e+01,2.900000000000000000e+01,2.500000000000000000e+01,4.300000000000000000e+01,6.199999999999999956e-01,9.432531700000000000e+09
5.400000000000000000e+01,8.600000000000000000e+01,3.700000000000000000e+02,1.910000000000000000e+02,3.500000000000000000e+01,2.600000000000000000e+01,2.500000000000000000e+01,4.300000000000000000e+01,6.300000000000000044e-01,9.450692300000000000e+09
5.800000000000000000e+01,9.100000000000000000e+01,4.200000000000000000e+02,1.910000000000000000e+02,3.400000000000000000e+01,2.900000000000000000e+01,2.600000000000000000e+01,4.600000000000000000e+01,6.400000000000000133e-01,9.470015900000000000e+09
5.800000000000000000e+01,8.200000000000000000e+01,4.720000000000000000e+02,2.010000000000000000e+02,3.500000000000000000e+01,3.000000000000000000e+01,2.600000000000000000e+01,4.900000000000000000e+01,6.400000000000000133e-01,9.494528900000000000e+09
4.700000000000000000e+01,6.700000000000000000e+01,4.070000000000000000e+02,1.630000000000000000e+02,3.000000000000000000e+01,2.900000000000000000e+01,2.500000000000000000e+01,4.300000000000000000e+01,6.500000000000000222e-01,9.512674100000000000e+09
4.200000000000000000e+01,6.300000000000000000e+01,4.100000000000000000e+02,1.220000000000000000e+02,2.400000000000000000e+01,2.900000000000000000e+01,2.700000000000000000e+01,3.400000000000000000e+01,6.500000000000000222e-01,9.532932100000000000e+09
4.100000000000000000e+01,6.200000000000000000e+01,4.650000000000000000e+02,1.270000000000000000e+02,2.400000000000000000e+01,2.800000000000000000e+01,2.600000000000000000e+01,3.300000000000000000e+01,6.500000000000000222e-01,9.552237600000000000e+09
4.100000000000000000e+01,6.300000000000000000e+01,4.440000000000000000e+02,1.260000000000000000e+02,2.900000000000000000e+01,3.000000000000000000e+01,2.800000000000000000e+01,3.100000000000000000e+01,6.500000000000000222e-01,9.570908600000000000e+09
3.300000000000000000e+01,7.000000000000000000e+01,5.120000000000000000e+02,1.290000000000000000e+02,3.000000000000000000e+01,2.900000000000000000e+01,2.500000000000000000e+01,2.500000000000000000e+01,6.500000000000000222e-01,9.597858400000000000e+09
4.200000000000000000e+01,1.000000000000000000e+02,6.440000000000000000e+02,1.370000000000000000e+02,3.300000000000000000e+01,3.200000000000000000e+01,2.800000000000000000e+01,3.000000000000000000e+01,6.500000000000000222e-01,9.620695900000000000e+09
4.300000000000000000e+01,1.050000000000000000e+02,6.630000000000000000e+02,1.480000000000000000e+02,3.500000000000000000e+01,3.200000000000000000e+01,2.700000000000000000e+01,2.900000000000000000e+01,6.500000000000000222e-01,9.639435000000000000e+09
4.800000000000000000e+01,1.050000000000000000e+02,6.420000000000000000e+02,1.480000000000000000e+02,3.500000000000000000e+01,3.300000000000000000e+01,2.700000000000000000e+01,4.100000000000000000e+01,6.500000000000000222e-01,9.657405700000000000e+09
4.700000000000000000e+01,9.800000000000000000e+01,6.160000000000000000e+02,1.750000000000000000e+02,3.300000000000000000e+01,3.000000000000000000e+01,2.500000000000000000e+01,4.100000000000000000e+01,6.500000000000000222e-01,9.675358200000000000e+09
4.800000000000000000e+01,9.200000000000000000e+01,5.150000000000000000e+02,1.540000000000000000e+02,3.000000000000000000e+01,3.100000000000000000e+01,2.400000000000000000e+01,4.300000000000000000e+01,6.500000000000000222e-01,9.694498300000000000e+09
4.900000000000000000e+01,6.900000000000000000e+01,3.270000000000000000e+02,1.610000000000000000e+02,3.000000000000000000e+01,2.900000000000000000e+01,2.000000000000000000e+01,4.500000000000000000e+01,6.500000000000000222e-01,9.712363500000000000e+09
5.100000000000000000e+01,7.300000000000000000e+01,3.830000000000000000e+02,1.690000000000000000e+02,3.200000000000000000e+01,3.200000000000000000e+01,2.500000000000000000e+01,5.500000000000000000e+01,6.500000000000000222e-01,9.749423300000000000e+09
5.200000000000000000e+01,6.700000000000000000e+01,3.660000000000000000e+02,1.740000000000000000e+02,3.400000000000000000e+01,3.000000000000000000e+01,2.600000000000000000e+01,6.000000000000000000e+01,6.500000000000000222e-01,9.767337700000000000e+09
5.700000000000000000e+01,7.200000000000000000e+01,3.840000000000000000e+02,1.720000000000000000e+02,3.600000000000000000e+01,3.000000000000000000e+01,2.600000000000000000e+01,6.100000000000000000e+01,6.500000000000000222e-01,9.785374100000000000e+09
6.800000000000000000e+01,7.300000000000000000e+01,3.850000000000000000e+02,1.690000000000000000e+02,3.700000000000000000e+01,2.900000000000000000e+01,2.700000000000000000e+01,1.710000000000000000e+02,6.400000000000000133e-01,9.803532500000000000e+09
8.100000000000000000e+01,1.020000000000000000e+02,5.040000000000000000e+02,2.140000000000000000e+02,4.900000000000000000e+01,3.500000000000000000e+01,3.500000000000000000e+01,2.000000000000000000e+02,6.400000000000000133e-01,9.821182200000000000e+09
8.500000000000000000e+01,1.160000000000000000e+02,4.630000000000000000e+02,2.270000000000000000e+02,5.200000000000000000e+01,3.700000000000000000e+01,3.400000000000000000e+01,2.070000000000000000e+02,6.400000000000000133e-01,9.839441600000000000e+09
8.500000000000000000e+01,1.180000000000000000e+02,4.730000000000000000e+02,2.380000000000000000e+02,5.200000000000000000e+01,3.600000000000000000e+01,3.200000000000000000e+01,2.210000000000000000e+02,6.400000000000000133e-01,9.857435800000000000e+09
8.300000000000000000e+01,1.150000000000000000e+02,4.460000000000000000e+02,2.250000000000000000e+02,5.000000000000000000e+01,3.600000000000000000e+01,3.700000000000000000e+01,2.740000000000000000e+02,6.300000000000000044e-01,9.875052400000000000e+09
8.300000000000000000e+01,1.180000000000000000e+02,4.490000000000000000e+02,2.260000000000000000e+02,5.200000000000000000e+01,3.900000000000000000e+01,4.100000000000000000e+01,2.600000000000000000e+02,6.300000000000000044e-01,9.894144400000000000e+09
8.200000000000000000e+01,8.700000000000000000e+01,3.050000000000000000e+02,1.680000000000000000e+02,3.900000000000000000e+01,5.100000000000000000e+01,7.400000000000000000e+01,3.710000000000000000e+02,6.199999999999999956e-01,9.913221700000000000e+09
8.400000000000000000e+01,5.400000000000000000e+01,2.310000000000000000e+02,1.290000000000000000e+02,3.100000000000000000e+01,4.900000000000000000e+01,7.900000000000000000e+01,3.990000000000000000e+02,6.099999999999999867e-01,9.936766000000000000e+09
8.200000000000000000e+01,5.600000000000000000e+01,1.790000000000000000e+02,9.200000000000000000e+01,2.800000000000000000e+01,4.900000000000000000e+01,8.000000000000000000e+01,4.070000000000000000e+02,5.999999999999999778e-01,9.954974200000000000e+09
8.000000000000000000e+01,5.400000000000000000e+01,1.620000000000000000e+02,7.700000000000000000e+01,3.100000000000000000e+01,5.200000000000000000e+01,8.100000000000000000e+01,3.790000000000000000e+02,5.899999999999999689e-01,9.973535100000000000e+09
7.400000000000000000e+01,7.400000000000000000e+01,2.450000000000000000e+02,1.900000000000000000e+02,4.200000000000000000e+01,5.400000000000000000e+01,8.100000000000000000e+01,3.610000000000000000e+02,5.799999999999999600e-01,9.997255700000000000e+09
6.100000000000000000e+01,1.270000000000000000e+02,5.530000000000000000e+02,4.270000000000000000e+02,8.900000000000000000e+01,5.600000000000000000e+01,5.300000000000000000e+01,2.300000000000000000e+02,5.699999999999999512e-01,1.001635570000000000e+10
9.900000000000000000e+01,2.210000000000000000e+02,7.920000000000000000e+02,6.990000000000000000e+02,1.380000000000000000e+02,1.010000000000000000e+02,6.300000000000000000e+01,1.850000000000000000e+02,5.699999999999999512e-01,1.003481100000000000e+10
1.040000000000000000e+02,2.420000000000000000e+02,8.910000000000000000e+02,7.570000000000000000e+02,1.630000000000000000e+02,1.130000000000000000e+02,6.400000000000000000e+01,1.450000000000000000e+02,5.500000000000000444e-01,1.005623170000000000e+10
1.110000000000000000e+02,2.620000000000000000e+02,9.790000000000000000e+02,8.520000000000000000e+02,2.130000000000000000e+02,1.410000000000000000e+02,6.600000000000000000e+01,1.330000000000000000e+02,5.400000000000000355e-01,1.007407590000000000e+10
