5.400000000000000000e+01,2.050000000000000000e+02,6.230000000000000000e+02,1.250000000000000000e+02,4.300000000000000000e+01,1.870000000000000000e+02,6.800000000000000000e+01,2.400000000000000000e+02,5.400000000000000355e-01,4.749036000000000000e+08
5.700000000000000000e+01,2.120000000000000000e+02,5.860000000000000000e+02,1.160000000000000000e+02,4.300000000000000000e+01,1.950000000000000000e+02,4.900000000000000000e+01,2.530000000000000000e+02,5.400000000000000355e-01,5.028680000000000000e+08
4.700000000000000000e+01,2.110000000000000000e+02,6.510000000000000000e+02,1.100000000000000000e+02,3.900000000000000000e+01,2.010000000000000000e+02,6.200000000000000000e+01,2.280000000000000000e+02,5.400000000000000355e-01,7.898462000000000000e+08
5.400000000000000000e+01,1.860000000000000000e+02,6.460000000000000000e+02,1.120000000000000000e+02,3.800000000000000000e+01,1.370000000000000000e+02,6.300000000000000000e+01,2.770000000000000000e+02,5.300000000000000266e-01,8.071874000000000000e+08
5.400000000000000000e+01,1.810000000000000000e+02,6.340000000000000000e+02,1.040000000000000000e+02,3.600000000000000000e+01,1.340000000000000000e+02,6.000000000000000000e+01,2.470000000000000000e+02,5.200000000000000178e-01,8.241738000000000000e+08
6.800000000000000000e+01,1.860000000000000000e+02,6.100000000000000000e+02,1.710000000000000000e+02,5.300000000000000000e+01,1.320000000000000000e+02,6.800000000000000000e+01,2.290000000000000000e+02,5.200000000000000178e-01,8.419749000000000000e+08
6.900000000000000000e+01,1.880000000000000000e+02,6.200000000000000000e+02,2.040000000000000000e+02,5.900000000000000000e+01,1.450000000000000000e+02,9.800000000000000000e+01,2.670000000000000000e+02,5.100000000000000089e-01,8.588233000000000000e+08
7.300000000000000000e+01,1.690000000000000000e+02,5.860000000000000000e+02,2.060000000000000000e+02,6.100000000000000000e+01,1.670000000000000000e+02,2.300000000000000000e+02,3.940000000000000000e+02,5.000000000000000000e-01,8.753092000000000000e+08
7.000000000000000000e+01,1.550000000000000000e+02,6.120000000000000000e+02,2.080000000000000000e+02,6.400000000000000000e+01,1.900000000000000000e+02,2.680000000000000000e+02,3.580000000000000000e+02,4.899999999999999911e-01,8.921226000000000000e+08
7.200000000000000000e+01,1.680000000000000000e+02,5.960000000000000000e+02,2.120000000000000000e+02,6.500000000000000000e+01,2.030000000000000000e+02,2.910000000000000000e+02,3.720000000000000000e+02,4.799999999999999822e-01,9.097214000000000000e+08
6.600000000000000000e+01,1.560000000000000000e+02,6.580000000000000000e+02,1.720000000000000000e+02,5.600000000000000000e+01,2.150000000000000000e+02,3.210000000000000000e+02,3.750000000000000000e+02,4.799999999999999822e-01,9.272828000000000000e+08
6.900000000000000000e+01,1.950000000000000000e+02,6.270000000000000000e+02,1.540000000000000000e+02,5.600000000000000000e+01,2.140000000000000000e+02,3.360000000000000000e+02,3.600000000000000000e+02,4.699999999999999734e-01,9.435939000000000000e+08
7.400000000000000000e+01,2.070000000000000000e+02,5.890000000000000000e+02,1.570000000000000000e+02,5.600000000000000000e+01,1.920000000000000000e+02,2.730000000000000000e+02,2.490000000000000000e+02,4.699999999999999734e-01,9.610065000000000000e+08
7.600000000000000000e+01,2.040000000000000000e+02,6.330000000000000000e+02,1.600000000000000000e+02,5.500000000000000000e+01,1.800000000000000000e+02,4.070000000000000000e+02,2.490000000000000000e+02,4.600000000000000200e-01,9.782679000000000000e+08
7.900000000000000000e+01,2.320000000000000000e+02,6.860000000000000000e+02,1.770000000000000000e+02,5.900000000000000000e+01,2.060000000000000000e+02,4.570000000000000000e+02,3.460000000000000000e+02,4.600000000000000200e-01,9.951272000000000000e+08
7.400000000000000000e+01,2.420000000000000000e+02,7.210000000000000000e+02,1.920000000000000000e+02,5.600000000000000000e+01,2.250000000000000000e+02,4.510000000000000000e+02,3.640000000000000000e+02,4.500000000000000111e-01,1.012549900000000000e+09
6.900000000000000000e+01,2.110000000000000000e+02,7.580000000000000000e+02,1.870000000000000000e+02,5.200000000000000000e+01,2.250000000000000000e+02,5.640000000000000000e+02,3.450000000000000000e+02,4.400000000000000022e-01,1.030878400000000000e+09
6.200000000000000000e+01,2.110000000000000000e+02,7.520000000000000000e+02,1.840000000000000000e+02,5.100000000000000000e+01,2.240000000000000000e+02,5.820000000000000000e+02,4.000000000000000000e+02,4.299999999999999933e-01,1.048199000000000000e+09
7.200000000000000000e+01,2.300000000000000000e+02,7.010000000000000000e+02,1.850000000000000000e+02,5.700000000000000000e+01,2.160000000000000000e+02,4.910000000000000000e+02,3.990000000000000000e+02,4.199999999999999845e-01,1.065545300000000000e+09
6.700000000000000000e+01,1.930000000000000000e+02,6.240000000000000000e+02,1.690000000000000000e+02,5.100000000000000000e+01,1.790000000000000000e+02,4.520000000000000000e+02,3.110000000000000000e+02,4.199999999999999845e-01,1.082409400000000000e+09
7.600000000000000000e+01,1.790000000000000000e+02,5.230000000000000000e+02,1.480000000000000000e+02,5.400000000000000000e+01,1.450000000000000000e+02,4.840000000000000000e+02,3.200000000000000000e+02,4.099999999999999756e-01,1.098845700000000000e+09
7.900000000000000000e+01,2.130000000000000000e+02,4.990000000000000000e+02,1.350000000000000000e+02,5.500000000000000000e+01,1.300000000000000000e+02,3.510000000000000000e+02,3.420000000000000000e+02,4.099999999999999756e-01,1.115673500000000000e+09
8.200000000000000000e+01,2.080000000000000000e+02,5.850000000000000000e+02,1.400000000000000000e+02,5.700000000000000000e+01,1.260000000000000000e+02,3.320000000000000000e+02,2.500000000000000000e+02,4.099999999999999756e-01,1.132121500000000000e+09
7.100000000000000000e+01,1.820000000000000000e+02,5.620000000000000000e+02,1.260000000000000000e+02,4.900000000000000000e+01,1.710000000000000000e+02,3.170000000000000000e+02,2.980000000000000000e+02,4.099999999999999756e-01,1.149335900000000000e+09
7.100000000000000000e+01,1.760000000000000000e+02,5.520000000000000000e+02,1.230000000000000000e+02,5.000000000000000000e+01,1.700000000000000000e+02,3.040000000000000000e+02,3.090000000000000000e+02,4.099999999999999756e-01,1.166766800000000000e+09
6.600000000000000000e+01,1.850000000000000000e+02,5.470000000000000000e+02,1.160000000000000000e+02,4.900000000000000000e+01,1.630000000000000000e+02,2.780000000000000000e+02,2.930000000000000000e+02,4.000000000000000222e-01,1.183667300000000000e+09
5.800000000000000000e+01,1.570000000000000000e+02,5.320000000000000000e+02,1.080000000000000000e+02,4.400000000000000000e+01,1.590000000000000000e+02,2.610000000000000000e+02,2.790000000000000000e+02,4.000000000000000222e-01,1.201016600000000000e+09
5.500000000000000000e+01,1.550000000000000000e+02,4.860000000000000000e+02,1.150000000000000000e+02,4.400000000000000000e+01,1.700000000000000000e+02,2.480000000000000000e+02,2.750000000000000000e+02,4.000000000000000222e-01,1.218096700000000000e+09
5.600000000000000000e+01,1.580000000000000000e+02,4.910000000000000000e+02,1.160000000000000000e+02,4.100000000000000000e+01,1.440000000000000000e+02,2.870000000000000000e+02,2.500000000000000000e+02,4.099999999999999756e-01,1.235240800000000000e+09
5.700000000000000000e+01,1.720000000000000000e+02,5.400000000000000000e+02,1.100000000000000000e+02,4.200000000000000000e+01,1.620000000000000000e+02,3.250000000000000000e+02,2.350000000000000000e+02,4.099999999999999756e-01,1.253300200000000000e+09
5.600000000000000000e+01,1.930000000000000000e+02,5.790000000000000000e+02,1.110000000000000000e+02,3.800000000000000000e+01,1.630000000000000000e+02,2.870000000000000000e+02,2.100000000000000000e+02,4.099999999999999756e-01,1.271243300000000000e+09
5.800000000000000000e+01,1.790000000000000000e+02,6.400000000000000000e+02,1.230000000000000000e+02,4.000000000000000000e+01,1.610000000000000000e+02,2.770000000000000000e+02,1.940000000000000000e+02,4.199999999999999845e-01,1.289336000000000000e+09
5.600000000000000000e+01,1.790000000000000000e+02,6.750000000000000000e+02,1.110000000000000000e+02,3.600000000000000000e+01,1.460000000000000000e+02,2.810000000000000000e+02,1.970000000000000000e+02,4.199999999999999845e-01,1.307350000000000000e+09
6.400000000000000000e+01,1.870000000000000000e+02,7.360000000000000000e+02,1.080000000000000000e+02,3.500000000000000000e+01,1.140000000000000000e+02,2.540000000000000000e+02,1.910000000000000000e+02,4.199999999999999845e-01,1.324682500000000000e+09
6.700000000000000000e+01,1.950000000000000000e+02,7.380000000000000000e+02,1.160000000000000000e+02,3.500000000000000000e+01,8.700000000000000000e+01,2.280000000000000000e+02,2.290000000000000000e+02,4.299999999999999933e-01,1.342024500000000000e+09
7.100000000000000000e+01,2.170000000000000000e+02,7.190000000000000000e+02,1.410000000000000000e+02,4.600000000000000000e+01,8.800000000000000000e+01,2.250000000000000000e+02,2.200000000000000000e+02,4.299999999999999933e-01,1.359693600000000000e+09
7.300000000000000000e+01,2.380000000000000000e+02,6.420000000000000000e+02,1.320000000000000000e+02,4.400000000000000000e+01,9.000000000000000000e+01,2.480000000000000000e+02,2.360000000000000000e+02,4.299999999999999933e-01,1.376665100000000000e+09
7.300000000000000000e+01,2.380000000000000000e+02,6.160000000000000000e+02,1.330000000000000000e+02,4.500000000000000000e+01,9.200000000000000000e+01,2.370000000000000000e+02,2.280000000000000000e+02,4.400000000000000022e-01,1.394076600000000000e+09
6.800000000000000000e+01,2.330000000000000000e+02,5.780000000000000000e+02,1.420000000000000000e+02,4.700000000000000000e+01,8.800000000000000000e+01,2.170000000000000000e+02,1.990000000000000000e+02,4.400000000000000022e-01,1.413569500000000000e+09
6.600000000000000000e+01,2.220000000000000000e+02,5.550000000000000000e+02,1.380000000000000000e+02,4.400000000000000000e+01,6.300000000000000000e+01,1.640000000000000000e+02,1.500000000000000000e+02,4.500000000000000111e-01,1.430839900000000000e+09
5.500000000000000000e+01,1.730000000000000000e+02,5.110000000000000000e+02,1.010000000000000000e+02,3.400000000000000000e+01,5.700000000000000000e+01,1.730000000000000000e+02,1.690000000000000000e+02,4.600000000000000200e-01,1.448067100000000000e+09
5.500000000000000000e+01,1.420000000000000000e+02,5.410000000000000000e+02,9.700000000000000000e+01,3.400000000000000000e+01,5.100000000000000000e+01,1.280000000000000000e+02,1.380000000000000000e+02,4.600000000000000200e-01,1.465557400000000000e+09
5.700000000000000000e+01,1.490000000000000000e+02,5.080000000000000000e+02,9.500000000000000000e+01,3.400000000000000000e+01,4.900000000000000000e+01,1.190000000000000000e+02,1.400000000000000000e+02,4.699999999999999734e-01,1.482522300000000000e+09
5.600000000000000000e+01,1.600000000000000000e+02,4.530000000000000000e+02,7.500000000000000000e+01,3.000000000000000000e+01,4.800000000000000000e+01,1.200000000000000000e+02,1.420000000000000000e+02,4.699999999999999734e-01,1.499108100000000000e+09
5.700000000000000000e+01,1.550000000000000000e+02,4.690000000000000000e+02,8.700000000000000000e+01,3.200000000000000000e+01,4.900000000000000000e+01,1.440000000000000000e+02,1.450000000000000000e+02,4.799999999999999822e-01,1.515896800000000000e+09
6.000000000000000000e+01,1.570000000000000000e+02,4.830000000000000000e+02,9.800000000000000000e+01,3.300000000000000000e+01,3.900000000000000000e+01,1.300000000000000000e+02,1.260000000000000000e+02,4.899999999999999911e-01,1.533728600000000000e+09
5.400000000000000000e+01,1.430000000000000000e+02,4.240000000000000000e+02,9.100000000000000000e+01,3.000000000000000000e+01,3.600000000000000000e+01,1.290000000000000000e+02,1.280000000000000000e+02,5.000000000000000000e-01,1.551529100000000000e+09
5.300000000000000000e+01,1.420000000000000000e+02,3.980000000000000000e+02,8.900000000000000000e+01,3.300000000000000000e+01,3.700000000000000000e+01,1.580000000000000000e+02,1.390000000000000000e+02,5.100000000000000089e-01,1.569149700000000000e+09
5.400000000000000000e+01,1.450000000000000000e+02,4.510000000000000000e+02,1.000000000000000000e+02,3.400000000000000000e+01,3.600000000000000000e+01,1.940000000000000000e+02,1.370000000000000000e+02,5.200000000000000178e-01,1.586576100000000000e+09
5.000000000000000000e+01,1.510000000000000000e+02,4.130000000000000000e+02,9.400000000000000000e+01,3.400000000000000000e+01,3.500000000000000000e+01,1.790000000000000000e+02,1.220000000000000000e+02,5.200000000000000178e-01,1.604504300000000000e+09
4.900000000000000000e+01,1.490000000000000000e+02,4.560000000000000000e+02,8.400000000000000000e+01,3.000000000000000000e+01,3.000000000000000000e+01,1.760000000000000000e+02,1.520000000000000000e+02,5.300000000000000266e-01,1.622235300000000000e+09
5.300000000000000000e+01,1.530000000000000000e+02,4.860000000000000000e+02,9.700000000000000000e+01,3.400000000000000000e+01,3.200000000000000000e+01,2.000000000000000000e+02,1.580000000000000000e+02,5.300000000000000266e-01,1.640053900000000000e+09
5.400000000000000000e+01,1.560000000000000000e+02,4.900000000000000000e+02,1.000000000000000000e+02,3.300000000000000000e+01,3.000000000000000000e+01,1.820000000000000000e+02,1.630000000000000000e+02,5.400000000000000355e-01,1.658226200000000000e+09
4.800000000000000000e+01,1.380000000000000000e+02,4.370000000000000000e+02,9.300000000000000000e+01,3.100000000000000000e+01,2.700000000000000000e+01,1.460000000000000000e+02,1.550000000000000000e+02,5.400000000000000355e-01,1.676507600000000000e+09
4.900000000000000000e+01,1.320000000000000000e+02,4.580000000000000000e+02,8.800000000000000000e+01,3.100000000000000000e+01,2.800000000000000000e+01,1.430000000000000000e+02,1.530000000000000000e+02,5.400000000000000355e-01,1.694052800000000000e+09
4.800000000000000000e+01,1.400000000000000000e+02,5.200000000000000000e+02,9.600000000000000000e+01,3.200000000000000000e+01,2.800000000000000000e+01,1.390000000000000000e+02,1.310000000000000000e+02,5.500000000000000444e-01,1.710841900000000000e+09
4.700000000000000000e+01,1.500000000000000000e+02,5.270000000000000000e+02,8.900000000000000000e+01,2.700000000000000000e+01,2.700000000000000000e+01,1.310000000000000000e+02,2.030000000000000000e+02,5.500000000000000444e-01,1.727876000000000000e+09
4.200000000000000000e+01,1.390000000000000000e+02,5.320000000000000000e+02,8.100000000000000000e+01,2.400000000000000000e+01,2.500000000000000000e+01,1.200000000000000000e+02,1.910000000000000000e+02,5.500000000000000444e-01,1.745486100000000000e+09
4.900000000000000000e+01,1.460000000000000000e+02,5.630000000000000000e+02,1.090000000000000000e+02,2.800000000000000000e+01,2.800000000000000000e+01,1.200000000000000000e+02,2.140000000000000000e+02,5.500000000000000444e-01,1.761826500000000000e+09
5.200000000000000000e+01,1.550000000000000000e+02,5.970000000000000000e+02,1.270000000000000000e+02,3.200000000000000000e+01,2.900000000000000000e+01,1.250000000000000000e+02,2.140000000000000000e+02,5.400000000000000355e-01,1.779661500000000000e+09
4.900000000000000000e+01,1.770000000000000000e+02,5.580000000000000000e+02,1.220000000000000000e+02,3.200000000000000000e+01,2.900000000000000000e+01,1.260000000000000000e+02,2.050000000000000000e+02,5.400000000000000355e-01,1.797957200000000000e+09
4.700000000000000000e+01,1.750000000000000000e+02,5.350000000000000000e+02,1.170000000000000000e+02,3.300000000000000000e+01,2.900000000000000000e+01,1.150000000000000000e+02,1.500000000000000000e+02,5.400000000000000355e-01,1.815227700000000000e+09
5.100000000000000000e+01,1.750000000000000000e+02,6.820000000000000000e+02,1.240000000000000000e+02,3.600000000000000000e+01,3.300000000000000000e+01,1.510000000000000000e+02,1.570000000000000000e+02,5.400000000000000355e-01,1.832181300000000000e+09
4.300000000000000000e+01,1.700000000000000000e+02,7.040000000000000000e+02,1.040000000000000000e+02,3.300000000000000000e+01,3.000000000000000000e+01,1.500000000000000000e+02,1.490000000000000000e+02,5.400000000000000355e-01,1.849169200000000000e+09
4.300000000000000000e+01,1.600000000000000000e+02,6.650000000000000000e+02,1.040000000000000000e+02,3.300000000000000000e+01,3.000000000000000000e+01,1.420000000000000000e+02,1.440000000000000000e+02,5.400000000000000355e-01,1.866684900000000000e+09
5.000000000000000000e+01,1.190000000000000000e+02,6.800000000000000000e+02,1.180000000000000000e+02,3.500000000000000000e+01,3.200000000000000000e+01,1.420000000000000000e+02,1.640000000000000000e+02,5.300000000000000266e-01,1.884067300000000000e+09
5.600000000000000000e+01,1.150000000000000000e+02,7.240000000000000000e+02,1.380000000000000000e+02,3.900000000000000000e+01,3.400000000000000000e+01,1.210000000000000000e+02,1.580000000000000000e+02,5.300000000000000266e-01,1.900877600000000000e+09
5.900000000000000000e+01,1.020000000000000000e+02,5.710000000000000000e+02,1.340000000000000000e+02,3.800000000000000000e+01,3.300000000000000000e+01,1.350000000000000000e+02,1.550000000000000000e+02,5.300000000000000266e-01,1.917775800000000000e+09
6.300000000000000000e+01,1.030000000000000000e+02,5.600000000000000000e+02,1.300000000000000000e+02,3.700000000000000000e+01,3.300000000000000000e+01,1.340000000000000000e+02,1.430000000000000000e+02,5.300000000000000266e-01,1.936467800000000000e+09
6.100000000000000000e+01,1.370000000000000000e+02,5.510000000000000000e+02,1.110000000000000000e+02,3.500000000000000000e+01,3.100000000000000000e+01,1.390000000000000000e+02,1.670000000000000000e+02,5.300000000000000266e-01,1.953709600000000000e+09
5.600000000000000000e+01,1.340000000000000000e+02,5.380000000000000000e+02,9.500000000000000000e+01,3.300000000000000000e+01,3.000000000000000000e+01,1.480000000000000000e+02,1.560000000000000000e+02,5.400000000000000355e-01,1.971325700000000000e+09
5.900000000000000000e+01,1.530000000000000000e+02,6.280000000000000000e+02,1.350000000000000000e+02,4.200000000000000000e+01,3.000000000000000000e+01,1.650000000000000000e+02,1.430000000000000000e+02,5.400000000000000355e-01,1.988891700000000000e+09
5.500000000000000000e+01,1.590000000000000000e+02,6.530000000000000000e+02,1.460000000000000000e+02,4.200000000000000000e+01,2.900000000000000000e+01,1.250000000000000000e+02,1.640000000000000000e+02,5.400000000000000355e-01,2.006447600000000000e+09
5.500000000000000000e+01,1.650000000000000000e+02,6.400000000000000000e+02,1.470000000000000000e+02,4.300000000000000000e+01,2.800000000000000000e+01,1.200000000000000000e+02,1.530000000000000000e+02,5.400000000000000355e-01,2.023393000000000000e+09
5.700000000000000000e+01,1.580000000000000000e+02,6.840000000000000000e+02,1.500000000000000000e+02,4.400000000000000000e+01,3.000000000000000000e+01,1.320000000000000000e+02,1.390000000000000000e+02,5.400000000000000355e-01,2.042155100000000000e+09
5.700000000000000000e+01,1.660000000000000000e+02,6.780000000000000000e+02,1.620000000000000000e+02,4.400000000000000000e+01,2.900000000000000000e+01,1.210000000000000000e+02,1.340000000000000000e+02,5.400000000000000355e-01,2.059926800000000000e+09
5.100000000000000000e+01,1.500000000000000000e+02,5.560000000000000000e+02,1.280000000000000000e+02,3.700000000000000000e+01,3.000000000000000000e+01,1.020000000000000000e+02,1.600000000000000000e+02,5.400000000000000355e-01,2.076852400000000000e+09
5.400000000000000000e+01,1.490000000000000000e+02,5.740000000000000000e+02,1.160000000000000000e+02,3.800000000000000000e+01,3.200000000000000000e+01,9.500000000000000000e+01,1.460000000000000000e+02,5.400000000000000355e-01,2.093575600000000000e+09
5.000000000000000000e+01,1.550000000000000000e+02,5.770000000000000000e+02,1.190000000000000000e+02,3.800000000000000000e+01,3.300000000000000000e+01,1.500000000000000000e+02,1.470000000000000000e+02,5.500000000000000444e-01,2.111222300000000000e+09
5.500000000000000000e+01,1.610000000000000000e+02,5.180000000000000000e+02,1.290000000000000000e+02,4.300000000000000000e+01,3.700000000000000000e+01,1.420000000000000000e+02,1.640000000000000000e+02,5.500000000000000444e-01,2.129753000000000000e+09
6.200000000000000000e+01,1.710000000000000000e+02,5.290000000000000000e+02,1.280000000000000000e+02,4.800000000000000000e+01,4.100000000000000000e+01,1.470000000000000000e+02,1.650000000000000000e+02,5.500000000000000444e-01,2.146623400000000000e+09
5.700000000000000000e+01,1.620000000000000000e+02,5.060000000000000000e+02,1.130000000000000000e+02,4.300000000000000000e+01,3.700000000000000000e+01,1.490000000000000000e+02,1.410000000000000000e+02,5.500000000000000444e-01,2.163628500000000000e+09
5.500000000000000000e+01,1.590000000000000000e+02,4.490000000000000000e+02,1.080000000000000000e+02,4.200000000000000000e+01,3.700000000000000000e+01,1.490000000000000000e+02,1.430000000000000000e+02,5.500000000000000444e-01,2.181401900000000000e+09
5.700000000000000000e+01,1.550000000000000000e+02,3.800000000000000000e+02,9.900000000000000000e+01,4.000000000000000000e+01,3.600000000000000000e+01,1.350000000000000000e+02,1.480000000000000000e+02,5.500000000000000444e-01,2.198702000000000000e+09
5.100000000000000000e+01,1.230000000000000000e+02,3.540000000000000000e+02,8.700000000000000000e+01,3.500000000000000000e+01,2.900000000000000000e+01,1.290000000000000000e+02,1.220000000000000000e+02,5.500000000000000444e-01,2.216931900000000000e+09
4.000000000000000000e+01,9.600000000000000000e+01,2.210000000000000000e+02,6.000000000000000000e+01,2.600000000000000000e+01,2.400000000000000000e+01,1.240000000000000000e+02,1.150000000000000000e+02,5.500000000000000444e-01,2.235061700000000000e+09
4.300000000000000000e+01,1.170000000000000000e+02,1.780000000000000000e+02,6.700000000000000000e+01,2.600000000000000000e+01,2.600000000000000000e+01,1.160000000000000000e+02,1.100000000000000000e+02,5.500000000000000444e-01,2.254443400000000000e+09
4.000000000000000000e+01,1.200000000000000000e+02,2.640000000000000000e+02,7.900000000000000000e+01,2.600000000000000000e+01,2.300000000000000000e+01,1.120000000000000000e+02,8.500000000000000000e+01,5.500000000000000444e-01,2.275653700000000000e+09
4.600000000000000000e+01,1.380000000000000000e+02,4.220000000000000000e+02,1.320000000000000000e+02,4.400000000000000000e+01,3.100000000000000000e+01,5.200000000000000000e+01,6.400000000000000000e+01,5.600000000000000533e-01,2.297963700000000000e+09
4.700000000000000000e+01,1.430000000000000000e+02,5.450000000000000000e+02,1.780000000000000000e+02,4.500000000000000000e+01,3.300000000000000000e+01,4.600000000000000000e+01,4.100000000000000000e+01,5.600000000000000533e-01,2.317517600000000000e+09
5.200000000000000000e+01,1.540000000000000000e+02,6.600000000000000000e+02,1.930000000000000000e+02,5.400000000000000000e+01,3.500000000000000000e+01,4.100000000000000000e+01,3.800000000000000000e+01,5.600000000000000533e-01,2.338666300000000000e+09
6.400000000000000000e+01,1.720000000000000000e+02,7.690000000000000000e+02,2.390000000000000000e+02,7.200000000000000000e+01,4.300000000000000000e+01,4.300000000000000000e+01,4.100000000000000000e+01,5.600000000000000533e-01,2.365876400000000000e+09
7.300000000000000000e+01,2.170000000000000000e+02,8.470000000000000000e+02,3.440000000000000000e+02,8.100000000000000000e+01,4.500000000000000000e+01,4.200000000000000000e+01,4.400000000000000000e+01,5.600000000000000533e-01,2.385905600000000000e+09
1.070000000000000000e+02,3.240000000000000000e+02,9.830000000000000000e+02,4.450000000000000000e+02,9.900000000000000000e+01,5.800000000000000000e+01,4.300000000000000000e+01,6.300000000000000000e+01,5.500000000000000444e-01,2.404575200000000000e+09
1.440000000000000000e+02,4.270000000000000000e+02,1.083000000000000000e+03,6.780000000000000000e+02,1.540000000000000000e+02,8.400000000000000000e+01,5.100000000000000000e+01,8.600000000000000000e+01,5.300000000000000266e-01,2.423372800000000000e+09
1.650000000000000000e+02,4.710000000000000000e+02,1.159000000000000000e+03,8.480000000000000000e+02,1.980000000000000000e+02,1.000000000000000000e+02,5.300000000000000000e+01,9.300000000000000000e+01,5.100000000000000089e-01,2.444280700000000000e+09
1.670000000000000000e+02,4.790000000000000000e+02,1.208000000000000000e+03,1.109000000000000000e+03,2.430000000000000000e+02,1.100000000000000000e+02,6.100000000000000000e+01,9.600000000000000000e+01,4.899999999999999911e-01,2.463817500000000000e+09
1.880000000000000000e+02,5.070000000000000000e+02,1.255000000000000000e+03,1.164000000000000000e+03,2.540000000000000000e+02,1.180000000000000000e+02,6.800000000000000000e+01,1.080000000000000000e+02,4.799999999999999822e-01,2.482094800000000000e+09
2.030000000000000000e+02,5.410000000000000000e+02,1.221000000000000000e+03,1.266000000000000000e+03,2.710000000000000000e+02,1.330000000000000000e+02,7.500000000000000000e+01,1.160000000000000000e+02,4.600000000000000200e-01,2.502353600000000000e+09
2.220000000000000000e+02,5.900000000000000000e+02,1.232000000000000000e+03,1.239000000000000000e+03,2.800000000000000000e+02,1.370000000000000000e+02,8.000000000000000000e+01,1.230000000000000000e+02,4.400000000000000022e-01,2.521536200000000000e+09
2.410000000000000000e+02,6.250000000000000000e+02,1.165000000000000000e+03,1.225000000000000000e+03,2.850000000000000000e+02,1.480000000000000000e+02,9.000000000000000000e+01,1.350000000000000000e+02,4.199999999999999845e-01,2.540511000000000000e+09
2.600000000000000000e+02,6.300000000000000000e+02,1.181000000000000000e+03,1.008000000000000000e+03,2.730000000000000000e+02,1.530000000000000000e+02,9.000000000000000000e+01,1.440000000000000000e+02,3.900000000000000133e-01,2.559608500000000000e+09
2.510000000000000000e+02,6.170000000000000000e+02,1.106000000000000000e+03,9.550000000000000000e+02,2.660000000000000000e+02,1.510000000000000000e+02,8.800000000000000000e+01,1.370000000000000000e+02,3.599999999999999867e-01,2.578908700000000000e+09
2.330000000000000000e+02,5.610000000000000000e+02,1.073000000000000000e+03,8.310000000000000000e+02,2.560000000000000000e+02,1.380000000000000000e+02,8.300000000000000000e+01,1.280000000000000000e+02,3.300000000000000155e-01,2.597455300000000000e+09
2.380000000000000000e+02,5.310000000000000000e+02,9.940000000000000000e+02,7.710000000000000000e+02,2.600000000000000000e+02,1.410000000000000000e+02,8.800000000000000000e+01,1.300000000000000000e+02,3.099999999999999978e-01,2.618935100000000000e+09
2.170000000000000000e+02,5.050000000000000000e+02,1.040000000000000000e+03,6.280000000000000000e+02,2.410000000000000000e+02,1.290000000000000000e+02,8.400000000000000000e+01,1.220000000000000000e+02,2.899999999999999800e-01,2.637024800000000000e+09
1.960000000000000000e+02,5.330000000000000000e+02,1.000000000000000000e+03,6.270000000000000000e+02,2.150000000000000000e+02,1.150000000000000000e+02,7.700000000000000000e+01,1.090000000000000000e+02,2.700000000000000178e-01,2.655887500000000000e+09
1.980000000000000000e+02,5.500000000000000000e+02,1.027000000000000000e+03,6.110000000000000000e+02,2.210000000000000000e+02,1.160000000000000000e+02,8.000000000000000000e+01,1.110000000000000000e+02,2.600000000000000089e-01,2.674680900000000000e+09
1.950000000000000000e+02,5.320000000000000000e+02,1.043000000000000000e+03,5.360000000000000000e+02,2.130000000000000000e+02,1.140000000000000000e+02,7.700000000000000000e+01,1.070000000000000000e+02,2.399999999999999911e-01,2.694014500000000000e+09
1.510000000000000000e+02,4.540000000000000000e+02,1.023000000000000000e+03,4.690000000000000000e+02,1.730000000000000000e+02,9.400000000000000000e+01,6.200000000000000000e+01,8.100000000000000000e+01,2.300000000000000100e-01,2.713575000000000000e+09
1.330000000000000000e+02,4.010000000000000000e+02,9.770000000000000000e+02,4.720000000000000000e+02,1.460000000000000000e+02,7.900000000000000000e+01,5.100000000000000000e+01,7.200000000000000000e+01,2.200000000000000011e-01,2.733914200000000000e+09
1.350000000000000000e+02,3.760000000000000000e+02,9.240000000000000000e+02,4.830000000000000000e+02,1.460000000000000000e+02,7.900000000000000000e+01,4.900000000000000000e+01,7.500000000000000000e+01,2.099999999999999922e-01,2.753138700000000000e+09
1.270000000000000000e+02,3.720000000000000000e+02,9.700000000000000000e+02,4.860000000000000000e+02,1.500000000000000000e+02,8.000000000000000000e+01,4.400000000000000000e+01,7.200000000000000000e+01,2.000000000000000111e-01,2.772279600000000000e+09
1.410000000000000000e+02,4.990000000000000000e+02,1.062000000000000000e+03,4.760000000000000000e+02,1.510000000000000000e+02,8.300000000000000000e+01,4.600000000000000000e+01,7.700000000000000000e+01,1.900000000000000022e-01,2.790329400000000000e+09
1.460000000000000000e+02,5.320000000000000000e+02,1.100000000000000000e+03,5.080000000000000000e+02,1.650000000000000000e+02,9.400000000000000000e+01,5.400000000000000000e+01,7.900000000000000000e+01,1.799999999999999933e-01,2.808846400000000000e+09
1.560000000000000000e+02,5.830000000000000000e+02,1.109000000000000000e+03,5.490000000000000000e+02,1.800000000000000000e+02,1.030000000000000000e+02,6.000000000000000000e+01,8.100000000000000000e+01,1.700000000000000122e-01,2.827792900000000000e+09
1.820000000000000000e+02,6.250000000000000000e+02,1.116000000000000000e+03,5.890000000000000000e+02,1.880000000000000000e+02,1.090000000000000000e+02,6.600000000000000000e+01,9.200000000000000000e+01,1.700000000000000122e-01,2.846389000000000000e+09
1.980000000000000000e+02,6.540000000000000000e+02,1.122000000000000000e+03,5.750000000000000000e+02,1.890000000000000000e+02,1.070000000000000000e+02,7.000000000000000000e+01,1.020000000000000000e+02,1.600000000000000033e-01,2.864237400000000000e+09
1.870000000000000000e+02,5.550000000000000000e+02,9.910000000000000000e+02,6.160000000000000000e+02,1.840000000000000000e+02,1.030000000000000000e+02,7.000000000000000000e+01,9.900000000000000000e+01,1.499999999999999944e-01,2.883199900000000000e+09
1.970000000000000000e+02,5.500000000000000000e+02,1.017000000000000000e+03,6.590000000000000000e+02,2.080000000000000000e+02,1.130000000000000000e+02,7.200000000000000000e+01,1.090000000000000000e+02,1.499999999999999944e-01,2.901436800000000000e+09
2.030000000000000000e+02,5.460000000000000000e+02,1.037000000000000000e+03,6.270000000000000000e+02,2.050000000000000000e+02,1.130000000000000000e+02,7.200000000000000000e+01,1.110000000000000000e+02,1.499999999999999944e-01,2.921971900000000000e+09
1.880000000000000000e+02,5.080000000000000000e+02,1.072000000000000000e+03,5.890000000000000000e+02,2.050000000000000000e+02,1.160000000000000000e+02,7.500000000000000000e+01,1.060000000000000000e+02,1.400000000000000133e-01,2.940871200000000000e+09
1.850000000000000000e+02,4.910000000000000000e+02,1.154000000000000000e+03,6.310000000000000000e+02,2.120000000000000000e+02,1.230000000000000000e+02,7.600000000000000000e+01,1.050000000000000000e+02,1.400000000000000133e-01,2.959448900000000000e+09
1.970000000000000000e+02,5.210000000000000000e+02,1.175000000000000000e+03,6.240000000000000000e+02,2.220000000000000000e+02,1.320000000000000000e+02,8.200000000000000000e+01,1.120000000000000000e+02,1.300000000000000044e-01,2.978457100000000000e+09
1.810000000000000000e+02,4.880000000000000000e+02,1.221000000000000000e+03,5.630000000000000000e+02,1.840000000000000000e+02,1.120000000000000000e+02,7.500000000000000000e+01,1.010000000000000000e+02,1.300000000000000044e-01,2.997506100000000000e+09
1.660000000000000000e+02,4.810000000000000000e+02,1.196000000000000000e+03,5.580000000000000000e+02,1.780000000000000000e+02,1.040000000000000000e+02,7.100000000000000000e+01,9.500000000000000000e+01,1.199999999999999956e-01,3.016450700000000000e+09
1.630000000000000000e+02,4.640000000000000000e+02,1.174000000000000000e+03,5.620000000000000000e+02,1.740000000000000000e+02,9.700000000000000000e+01,6.500000000000000000e+01,9.400000000000000000e+01,1.199999999999999956e-01,3.035221400000000000e+09
1.480000000000000000e+02,4.250000000000000000e+02,1.028000000000000000e+03,5.160000000000000000e+02,1.510000000000000000e+02,8.400000000000000000e+01,5.900000000000000000e+01,8.400000000000000000e+01,1.300000000000000044e-01,3.056099000000000000e+09
1.420000000000000000e+02,3.990000000000000000e+02,1.011000000000000000e+03,5.140000000000000000e+02,1.430000000000000000e+02,7.200000000000000000e+01,4.900000000000000000e+01,7.800000000000000000e+01,1.300000000000000044e-01,3.074424300000000000e+09
1.420000000000000000e+02,4.310000000000000000e+02,9.170000000000000000e+02,4.780000000000000000e+02,1.330000000000000000e+02,7.200000000000000000e+01,4.900000000000000000e+01,7.900000000000000000e+01,1.300000000000000044e-01,3.094066000000000000e+09
1.550000000000000000e+02,4.220000000000000000e+02,9.640000000000000000e+02,4.960000000000000000e+02,1.500000000000000000e+02,7.700000000000000000e+01,5.200000000000000000e+01,8.500000000000000000e+01,1.400000000000000133e-01,3.113749300000000000e+09
1.370000000000000000e+02,3.930000000000000000e+02,9.340000000000000000e+02,4.400000000000000000e+02,1.350000000000000000e+02,7.100000000000000000e+01,4.900000000000000000e+01,7.300000000000000000e+01,1.400000000000000133e-01,3.133403700000000000e+09
1.400000000000000000e+02,4.160000000000000000e+02,9.510000000000000000e+02,4.720000000000000000e+02,1.560000000000000000e+02,7.900000000000000000e+01,5.500000000000000000e+01,7.900000000000000000e+01,1.400000000000000133e-01,3.152213200000000000e+09
1.270000000000000000e+02,4.020000000000000000e+02,9.020000000000000000e+02,4.510000000000000000e+02,1.450000000000000000e+02,7.100000000000000000e+01,5.400000000000000000e+01,7.300000000000000000e+01,1.499999999999999944e-01,3.171455900000000000e+09
1.150000000000000000e+02,3.910000000000000000e+02,8.480000000000000000e+02,4.510000000000000000e+02,1.500000000000000000e+02,6.900000000000000000e+01,5.100000000000000000e+01,6.800000000000000000e+01,1.499999999999999944e-01,3.190887400000000000e+09
1.030000000000000000e+02,3.910000000000000000e+02,7.910000000000000000e+02,4.300000000000000000e+02,1.480000000000000000e+02,7.200000000000000000e+01,5.100000000000000000e+01,6.300000000000000000e+01,1.499999999999999944e-01,3.209787500000000000e+09
1.150000000000000000e+02,4.150000000000000000e+02,7.980000000000000000e+02,4.680000000000000000e+02,1.580000000000000000e+02,7.900000000000000000e+01,5.300000000000000000e+01,6.800000000000000000e+01,1.600000000000000033e-01,3.229371900000000000e+09
1.260000000000000000e+02,3.800000000000000000e+02,7.720000000000000000e+02,4.140000000000000000e+02,1.470000000000000000e+02,7.500000000000000000e+01,4.900000000000000000e+01,6.900000000000000000e+01,1.600000000000000033e-01,3.248059600000000000e+09
1.440000000000000000e+02,4.360000000000000000e+02,9.370000000000000000e+02,4.050000000000000000e+02,1.650000000000000000e+02,8.400000000000000000e+01,5.000000000000000000e+01,7.600000000000000000e+01,1.600000000000000033e-01,3.267970700000000000e+09
1.490000000000000000e+02,4.220000000000000000e+02,9.340000000000000000e+02,3.880000000000000000e+02,1.650000000000000000e+02,8.800000000000000000e+01,5.200000000000000000e+01,7.900000000000000000e+01,1.600000000000000033e-01,3.287032300000000000e+09
1.410000000000000000e+02,3.820000000000000000e+02,9.640000000000000000e+02,3.950000000000000000e+02,1.450000000000000000e+02,8.100000000000000000e+01,4.800000000000000000e+01,7.600000000000000000e+01,1.600000000000000033e-01,3.306211700000000000e+09
1.400000000000000000e+02,3.930000000000000000e+02,9.470000000000000000e+02,3.580000000000000000e+02,1.450000000000000000e+02,7.800000000000000000e+01,4.800000000000000000e+01,7.500000000000000000e+01,1.600000000000000033e-01,3.324160200000000000e+09
1.500000000000000000e+02,4.320000000000000000e+02,9.360000000000000000e+02,3.570000000000000000e+02,1.470000000000000000e+02,8.200000000000000000e+01,5.200000000000000000e+01,7.900000000000000000e+01,1.600000000000000033e-01,3.343031300000000000e+09
1.480000000000000000e+02,4.190000000000000000e+02,8.200000000000000000e+02,3.420000000000000000e+02,1.450000000000000000e+02,8.500000000000000000e+01,5.600000000000000000e+01,8.000000000000000000e+01,1.600000000000000033e-01,3.361416900000000000e+09
1.450000000000000000e+02,3.940000000000000000e+02,8.440000000000000000e+02,3.420000000000000000e+02,1.420000000000000000e+02,8.400000000000000000e+01,5.600000000000000000e+01,7.800000000000000000e+01,1.600000000000000033e-01,3.378935700000000000e+09
1.470000000000000000e+02,3.980000000000000000e+02,7.730000000000000000e+02,3.170000000000000000e+02,1.450000000000000000e+02,8.400000000000000000e+01,5.600000000000000000e+01,7.800000000000000000e+01,1.600000000000000033e-01,3.397125900000000000e+09
1.550000000000000000e+02,3.880000000000000000e+02,8.580000000000000000e+02,3.360000000000000000e+02,1.470000000000000000e+02,8.900000000000000000e+01,5.900000000000000000e+01,8.300000000000000000e+01,1.600000000000000033e-01,3.415343500000000000e+09
1.280000000000000000e+02,3.360000000000000000e+02,9.030000000000000000e+02,3.030000000000000000e+02,1.300000000000000000e+02,7.900000000000000000e+01,5.100000000000000000e+01,6.900000000000000000e+01,1.700000000000000122e-01,3.433190800000000000e+09
1.120000000000000000e+02,3.340000000000000000e+02,1.001000000000000000e+03,3.060000000000000000e+02,1.130000000000000000e+02,6.700000000000000000e+01,4.400000000000000000e+01,6.000000000000000000e+01,1.700000000000000122e-01,3.451897100000000000e+09
1.130000000000000000e+02,3.390000000000000000e+02,9.300000000000000000e+02,3.060000000000000000e+02,1.120000000000000000e+02,6.500000000000000000e+01,4.400000000000000000e+01,5.900000000000000000e+01,1.700000000000000122e-01,3.472294400000000000e+09
1.160000000000000000e+02,3.310000000000000000e+02,9.560000000000000000e+02,3.230000000000000000e+02,1.140000000000000000e+02,6.900000000000000000e+01,4.600000000000000000e+01,6.500000000000000000e+01,1.799999999999999933e-01,3.492731800000000000e+09
1.010000000000000000e+02,3.220000000000000000e+02,9.030000000000000000e+02,3.060000000000000000e+02,1.060000000000000000e+02,6.400000000000000000e+01,4.300000000000000000e+01,5.700000000000000000e+01,1.799999999999999933e-01,3.510454700000000000e+09
9.900000000000000000e+01,3.140000000000000000e+02,8.810000000000000000e+02,3.050000000000000000e+02,1.040000000000000000e+02,6.200000000000000000e+01,4.000000000000000000e+01,5.400000000000000000e+01,1.900000000000000022e-01,3.529281300000000000e+09
8.700000000000000000e+01,2.690000000000000000e+02,7.250000000000000000e+02,2.680000000000000000e+02,9.700000000000000000e+01,5.900000000000000000e+01,3.700000000000000000e+01,5.000000000000000000e+01,2.000000000000000111e-01,3.548229800000000000e+09
8.500000000000000000e+01,2.650000000000000000e+02,8.460000000000000000e+02,2.720000000000000000e+02,9.300000000000000000e+01,5.800000000000000000e+01,3.500000000000000000e+01,4.900000000000000000e+01,2.200000000000000011e-01,3.570369200000000000e+09
8.800000000000000000e+01,2.680000000000000000e+02,8.410000000000000000e+02,2.590000000000000000e+02,9.600000000000000000e+01,5.800000000000000000e+01,3.600000000000000000e+01,4.800000000000000000e+01,2.300000000000000100e-01,3.592626500000000000e+09
7.900000000000000000e+01,2.350000000000000000e+02,8.120000000000000000e+02,2.770000000000000000e+02,8.300000000000000000e+01,5.200000000000000000e+01,3.300000000000000000e+01,4.600000000000000000e+01,2.500000000000000000e-01,3.610605700000000000e+09
7.500000000000000000e+01,2.180000000000000000e+02,7.920000000000000000e+02,2.670000000000000000e+02,8.100000000000000000e+01,5.300000000000000000e+01,3.400000000000000000e+01,4.500000000000000000e+01,2.600000000000000089e-01,3.629440900000000000e+09
8.900000000000000000e+01,2.350000000000000000e+02,7.770000000000000000e+02,3.080000000000000000e+02,8.800000000000000000e+01,5.700000000000000000e+01,3.600000000000000000e+01,5.100000000000000000e+01,2.800000000000000266e-01,3.648177800000000000e+09
8.700000000000000000e+01,2.360000000000000000e+02,6.650000000000000000e+02,2.940000000000000000e+02,8.600000000000000000e+01,5.400000000000000000e+01,3.700000000000000000e+01,5.000000000000000000e+01,2.999999999999999889e-01,3.670457300000000000e+09
7.800000000000000000e+01,2.190000000000000000e+02,6.290000000000000000e+02,2.670000000000000000e+02,7.800000000000000000e+01,4.600000000000000000e+01,3.300000000000000000e+01,4.400000000000000000e+01,3.200000000000000067e-01,3.692497300000000000e+09
8.400000000000000000e+01,2.400000000000000000e+02,5.960000000000000000e+02,2.240000000000000000e+02,7.800000000000000000e+01,4.600000000000000000e+01,3.200000000000000000e+01,4.600000000000000000e+01,3.400000000000000244e-01,3.711076800000000000e+09
8.100000000000000000e+01,2.430000000000000000e+02,5.950000000000000000e+02,2.520000000000000000e+02,7.600000000000000000e+01,4.300000000000000000e+01,3.100000000000000000e+01,4.700000000000000000e+01,3.599999999999999867e-01,3.729538600000000000e+09
6.500000000000000000e+01,2.240000000000000000e+02,6.290000000000000000e+02,2.130000000000000000e+02,6.400000000000000000e+01,3.700000000000000000e+01,2.800000000000000000e+01,3.800000000000000000e+01,3.800000000000000044e-01,3.748111400000000000e+09
6.700000000000000000e+01,2.170000000000000000e+02,6.900000000000000000e+02,2.110000000000000000e+02,6.700000000000000000e+01,4.000000000000000000e+01,2.700000000000000000e+01,4.100000000000000000e+01,4.000000000000000222e-01,3.770403000000000000e+09
5.800000000000000000e+01,2.050000000000000000e+02,6.370000000000000000e+02,2.070000000000000000e+02,6.000000000000000000e+01,3.800000000000000000e+01,2.500000000000000000e+01,3.800000000000000000e+01,4.199999999999999845e-01,3.793108100000000000e+09
4.300000000000000000e+01,1.720000000000000000e+02,6.310000000000000000e+02,2.010000000000000000e+02,5.900000000000000000e+01,3.800000000000000000e+01,2.600000000000000000e+01,3.100000000000000000e+01,4.400000000000000022e-01,3.811235900000000000e+09
4.300000000000000000e+01,1.590000000000000000e+02,5.610000000000000000e+02,1.640000000000000000e+02,6.000000000000000000e+01,3.900000000000000000e+01,2.500000000000000000e+01,3.100000000000000000e+01,4.500000000000000111e-01,3.832276100000000000e+09
4.200000000000000000e+01,1.670000000000000000e+02,4.830000000000000000e+02,1.680000000000000000e+02,5.700000000000000000e+01,3.600000000000000000e+01,2.400000000000000000e+01,3.000000000000000000e+01,4.699999999999999734e-01,3.849983500000000000e+09
4.200000000000000000e+01,1.570000000000000000e+02,4.330000000000000000e+02,1.820000000000000000e+02,5.500000000000000000e+01,3.400000000000000000e+01,2.500000000000000000e+01,3.100000000000000000e+01,4.899999999999999911e-01,3.872867400000000000e+09
4.100000000000000000e+01,1.740000000000000000e+02,4.140000000000000000e+02,1.810000000000000000e+02,5.100000000000000000e+01,3.200000000000000000e+01,2.400000000000000000e+01,3.200000000000000000e+01,5.000000000000000000e-01,3.890722300000000000e+09
4.100000000000000000e+01,1.890000000000000000e+02,3.780000000000000000e+02,1.740000000000000000e+02,4.600000000000000000e+01,3.300000000000000000e+01,2.300000000000000000e+01,3.100000000000000000e+01,5.200000000000000178e-01,3.908658500000000000e+09
4.000000000000000000e+01,2.000000000000000000e+02,3.570000000000000000e+02,1.580000000000000000e+02,4.200000000000000000e+01,3.000000000000000000e+01,2.300000000000000000e+01,2.900000000000000000e+01,5.300000000000000266e-01,3.929745000000000000e+09
4.600000000000000000e+01,1.910000000000000000e+02,4.750000000000000000e+02,1.430000000000000000e+02,4.200000000000000000e+01,3.900000000000000000e+01,2.700000000000000000e+01,3.100000000000000000e+01,5.400000000000000355e-01,3.952266600000000000e+09
3.900000000000000000e+01,1.890000000000000000e+02,4.130000000000000000e+02,1.150000000000000000e+02,3.600000000000000000e+01,3.600000000000000000e+01,2.500000000000000000e+01,2.500000000000000000e+01,5.600000000000000533e-01,3.970329700000000000e+09
4.200000000000000000e+01,1.790000000000000000e+02,4.190000000000000000e+02,1.230000000000000000e+02,4.300000000000000000e+01,3.800000000000000000e+01,2.600000000000000000e+01,2.400000000000000000e+01,5.699999999999999512e-01,3.989975600000000000e+09
5.700000000000000000e+01,1.890000000000000000e+02,4.570000000000000000e+02,1.520000000000000000e+02,5.600000000000000000e+01,4.200000000000000000e+01,3.300000000000000000e+01,3.700000000000000000e+01,5.799999999999999600e-01,4.008684200000000000e+09
5.700000000000000000e+01,2.000000000000000000e+02,4.620000000000000000e+02,1.590000000000000000e+02,5.600000000000000000e+01,4.200000000000000000e+01,3.200000000000000000e+01,3.800000000000000000e+01,5.899999999999999689e-01,4.030847100000000000e+09
5.000000000000000000e+01,1.780000000000000000e+02,3.170000000000000000e+02,1.420000000000000000e+02,5.200000000000000000e+01,3.600000000000000000e+01,2.900000000000000000e+01,3.700000000000000000e+01,5.899999999999999689e-01,4.053119400000000000e+09
5.000000000000000000e+01,1.940000000000000000e+02,2.810000000000000000e+02,1.430000000000000000e+02,5.400000000000000000e+01,3.500000000000000000e+01,3.100000000000000000e+01,3.700000000000000000e+01,5.999999999999999778e-01,4.071872200000000000e+09
4.800000000000000000e+01,1.950000000000000000e+02,3.000000000000000000e+02,1.360000000000000000e+02,5.400000000000000000e+01,3.500000000000000000e+01,3.200000000000000000e+01,3.700000000000000000e+01,6.099999999999999867e-01,4.090208100000000000e+09
4.600000000000000000e+01,2.050000000000000000e+02,3.680000000000000000e+02,1.430000000000000000e+02,5.400000000000000000e+01,3.900000000000000000e+01,3.000000000000000000e+01,3.300000000000000000e+01,6.099999999999999867e-01,4.108736600000000000e+09
4.700000000000000000e+01,1.900000000000000000e+02,3.750000000000000000e+02,1.430000000000000000e+02,5.400000000000000000e+01,3.800000000000000000e+01,3.000000000000000000e+01,3.200000000000000000e+01,6.099999999999999867e-01,4.130783900000000000e+09
4.600000000000000000e+01,1.850000000000000000e+02,3.690000000000000000e+02,1.450000000000000000e+02,5.300000000000000000e+01,3.700000000000000000e+01,2.900000000000000000e+01,3.000000000000000000e+01,6.199999999999999956e-01,4.152990000000000000e+09
4.600000000000000000e+01,1.660000000000000000e+02,3.710000000000000000e+02,1.340000000000000000e+02,5.200000000000000000e+01,3.800000000000000000e+01,2.700000000000000000e+01,3.000000000000000000e+01,6.199999999999999956e-01,4.171754300000000000e+09
4.600000000000000000e+01,1.490000000000000000e+02,3.470000000000000000e+02,1.320000000000000000e+02,4.700000000000000000e+01,3.600000000000000000e+01,2.700000000000000000e+01,3.000000000000000000e+01,6.199999999999999956e-01,4.189909200000000000e+09
2.900000000000000000e+01,1.060000000000000000e+02,2.790000000000000000e+02,8.200000000000000000e+01,2.800000000000000000e+01,2.400000000000000000e+01,2.000000000000000000e+01,2.100000000000000000e+01,6.199999999999999956e-01,4.208517300000000000e+09
3.000000000000000000e+01,9.400000000000000000e+01,3.040000000000000000e+02,7.600000000000000000e+01,2.900000000000000000e+01,2.800000000000000000e+01,2.200000000000000000e+01,2.600000000000000000e+01,6.199999999999999956e-01,4.230882000000000000e+09
3.100000000000000000e+01,1.120000000000000000e+02,3.170000000000000000e+02,7.200000000000000000e+01,3.000000000000000000e+01,2.700000000000000000e+01,2.200000000000000000e+01,2.400000000000000000e+01,6.199999999999999956e-01,4.253025700000000000e+09
2.900000000000000000e+01,1.090000000000000000e+02,3.200000000000000000e+02,6.900000000000000000e+01,2.700000000000000000e+01,2.500000000000000000e+01,2.300000000000000000e+01,2.400000000000000000e+01,6.199999999999999956e-01,4.272486200000000000e+09
2.700000000000000000e+01,1.130000000000000000e+02,3.260000000000000000e+02,6.900000000000000000e+01,2.800000000000000000e+01,2.400000000000000000e+01,2.000000000000000000e+01,2.500000000000000000e+01,6.099999999999999867e-01,4.292351400000000000e+09
2.700000000000000000e+01,1.220000000000000000e+02,3.480000000000000000e+02,7.800000000000000000e+01,2.800000000000000000e+01,2.300000000000000000e+01,2.100000000000000000e+01,2.600000000000000000e+01,6.099999999999999867e-01,4.310245400000000000e+09
3.200000000000000000e+01,1.310000000000000000e+02,3.740000000000000000e+02,9.400000000000000000e+01,2.900000000000000000e+01,2.600000000000000000e+01,2.200000000000000000e+01,2.400000000000000000e+01,6.099999999999999867e-01,4.335392100000000000e+09
3.200000000000000000e+01,1.140000000000000000e+02,3.910000000000000000e+02,9.900000000000000000e+01,2.800000000000000000e+01,2.500000000000000000e+01,2.200000000000000000e+01,2.500000000000000000e+01,6.099999999999999867e-01,4.354699400000000000e+09
3.600000000000000000e+01,1.180000000000000000e+02,4.180000000000000000e+02,1.010000000000000000e+02,2.800000000000000000e+01,2.500000000000000000e+01,2.300000000000000000e+01,2.900000000000000000e+01,6.099999999999999867e-01,4.373454500000000000e+09
3.800000000000000000e+01,1.140000000000000000e+02,4.650000000000000000e+02,9.400000000000000000e+01,2.800000000000000000e+01,2.600000000000000000e+01,2.600000000000000000e+01,3.500000000000000000e+01,6.099999999999999867e-01,4.391382400000000000e+09
4.400000000000000000e+01,1.110000000000000000e+02,6.670000000000000000e+02,1.150000000000000000e+02,3.300000000000000000e+01,2.800000000000000000e+01,2.700000000000000000e+01,3.900000000000000000e+01,5.999999999999999778e-01,4.410037700000000000e+09
4.300000000000000000e+01,1.070000000000000000e+02,6.760000000000000000e+02,1.230000000000000000e+02,3.400000000000000000e+01,2.400000000000000000e+01,2.600000000000000000e+01,3.900000000000000000e+01,5.999999999999999778e-01,4.430654800000000000e+09
4.300000000000000000e+01,1.070000000000000000e+02,6.920000000000000000e+02,1.190000000000000000e+02,3.400000000000000000e+01,2.400000000000000000e+01,2.600000000000000000e+01,4.000000000000000000e+01,5.999999999999999778e-01,4.453340200000000000e+09
4.000000000000000000e+01,1.040000000000000000e+02,6.820000000000000000e+02,1.210000000000000000e+02,3.500000000000000000e+01,2.500000000000000000e+01,2.500000000000000000e+01,3.800000000000000000e+01,5.999999999999999778e-01,4.471600600000000000e+09
4.200000000000000000e+01,1.110000000000000000e+02,6.860000000000000000e+02,1.280000000000000000e+02,3.500000000000000000e+01,2.600000000000000000e+01,2.400000000000000000e+01,3.200000000000000000e+01,6.099999999999999867e-01,4.490143000000000000e+09
4.000000000000000000e+01,1.280000000000000000e+02,5.070000000000000000e+02,1.070000000000000000e+02,3.100000000000000000e+01,2.400000000000000000e+01,2.200000000000000000e+01,3.000000000000000000e+01,6.099999999999999867e-01,4.509264000000000000e+09
4.500000000000000000e+01,1.420000000000000000e+02,5.480000000000000000e+02,1.180000000000000000e+02,3.400000000000000000e+01,2.700000000000000000e+01,2.700000000000000000e+01,3.400000000000000000e+01,6.099999999999999867e-01,4.530683600000000000e+09
4.700000000000000000e+01,1.440000000000000000e+02,5.310000000000000000e+02,1.310000000000000000e+02,3.400000000000000000e+01,2.900000000000000000e+01,2.700000000000000000e+01,3.300000000000000000e+01,6.199999999999999956e-01,4.552867100000000000e+09
4.800000000000000000e+01,1.490000000000000000e+02,5.530000000000000000e+02,1.360000000000000000e+02,3.800000000000000000e+01,2.900000000000000000e+01,2.700000000000000000e+01,3.400000000000000000e+01,6.199999999999999956e-01,4.571097900000000000e+09
4.600000000000000000e+01,1.430000000000000000e+02,5.060000000000000000e+02,1.360000000000000000e+02,3.800000000000000000e+01,3.000000000000000000e+01,2.600000000000000000e+01,3.400000000000000000e+01,6.199999999999999956e-01,4.596966500000000000e+09
4.100000000000000000e+01,1.130000000000000000e+02,4.360000000000000000e+02,1.310000000000000000e+02,3.800000000000000000e+01,3.000000000000000000e+01,2.700000000000000000e+01,3.100000000000000000e+01,6.199999999999999956e-01,4.616641300000000000e+09
4.100000000000000000e+01,1.260000000000000000e+02,3.440000000000000000e+02,1.020000000000000000e+02,3.500000000000000000e+01,2.900000000000000000e+01,2.300000000000000000e+01,2.600000000000000000e+01,6.199999999999999956e-01,4.635310900000000000e+09
3.800000000000000000e+01,1.440000000000000000e+02,4.010000000000000000e+02,9.200000000000000000e+01,3.700000000000000000e+01,2.800000000000000000e+01,2.200000000000000000e+01,2.600000000000000000e+01,6.199999999999999956e-01,4.653866800000000000e+09
4.100000000000000000e+01,1.460000000000000000e+02,4.120000000000000000e+02,8.800000000000000000e+01,3.500000000000000000e+01,2.700000000000000000e+01,2.200000000000000000e+01,2.500000000000000000e+01,6.199999999999999956e-01,4.673841800000000000e+09
4.000000000000000000e+01,1.450000000000000000e+02,4.410000000000000000e+02,7.900000000000000000e+01,3.200000000000000000e+01,2.400000000000000000e+01,2.300000000000000000e+01,2.500000000000000000e+01,6.199999999999999956e-01,4.691610900000000000e+09
4.000000000000000000e+01,1.430000000000000000e+02,4.460000000000000000e+02,8.000000000000000000e+01,3.100000000000000000e+01,2.300000000000000000e+01,2.300000000000000000e+01,2.500000000000000000e+01,6.199999999999999956e-01,4.709983200000000000e+09
2.800000000000000000e+01,1.060000000000000000e+02,4.410000000000000000e+02,6.800000000000000000e+01,2.600000000000000000e+01,2.100000000000000000e+01,2.000000000000000000e+01,2.200000000000000000e+01,6.199999999999999956e-01,4.729415700000000000e+09
3.300000000000000000e+01,8.600000000000000000e+01,3.970000000000000000e+02,6.500000000000000000e+01,2.800000000000000000e+01,2.400000000000000000e+01,2.400000000000000000e+01,2.500000000000000000e+01,6.199999999999999956e-01,4.751553700000000000e+09
3.000000000000000000e+01,7.600000000000000000e+01,3.870000000000000000e+02,6.800000000000000000e+01,2.600000000000000000e+01,2.400000000000000000e+01,2.300000000000000000e+01,2.400000000000000000e+01,6.199999999999999956e-01,4.773840800000000000e+09
3.100000000000000000e+01,7.700000000000000000e+01,3.560000000000000000e+02,7.800000000000000000e+01,2.800000000000000000e+01,2.500000000000000000e+01,2.500000000000000000e+01,2.200000000000000000e+01,6.099999999999999867e-01,4.792239000000000000e+09
3.100000000000000000e+01,7.700000000000000000e+01,3.620000000000000000e+02,7.900000000000000000e+01,2.900000000000000000e+01,2.600000000000000000e+01,2.500000000000000000e+01,2.400000000000000000e+01,6.099999999999999867e-01,4.810732600000000000e+09
3.200000000000000000e+01,7.900000000000000000e+01,4.060000000000000000e+02,8.100000000000000000e+01,2.900000000000000000e+01,2.500000000000000000e+01,2.400000000000000000e+01,2.300000000000000000e+01,6.099999999999999867e-01,4.829307900000000000e+09
3.700000000000000000e+01,8.800000000000000000e+01,5.240000000000000000e+02,1.050000000000000000e+02,3.500000000000000000e+01,2.700000000000000000e+01,2.400000000000000000e+01,2.400000000000000000e+01,6.099999999999999867e-01,4.851496000000000000e+09
3.900000000000000000e+01,9.400000000000000000e+01,5.290000000000000000e+02,1.110000000000000000e+02,3.700000000000000000e+01,3.000000000000000000e+01,2.600000000000000000e+01,2.500000000000000000e+01,6.099999999999999867e-01,4.873855300000000000e+09
4.000000000000000000e+01,9.200000000000000000e+01,5.880000000000000000e+02,1.030000000000000000e+02,3.700000000000000000e+01,3.000000000000000000e+01,2.300000000000000000e+01,2.600000000000000000e+01,6.099999999999999867e-01,4.892326900000000000e+09
3.900000000000000000e+01,9.800000000000000000e+01,6.170000000000000000e+02,1.100000000000000000e+02,3.700000000000000000e+01,3.000000000000000000e+01,2.300000000000000000e+01,2.600000000000000000e+01,6.099999999999999867e-01,4.911494700000000000e+09
3.800000000000000000e+01,9.200000000000000000e+01,6.000000000000000000e+02,1.080000000000000000e+02,3.700000000000000000e+01,2.900000000000000000e+01,2.400000000000000000e+01,2.600000000000000000e+01,6.099999999999999867e-01,4.930293300000000000e+09
3.100000000000000000e+01,1.140000000000000000e+02,6.460000000000000000e+02,8.900000000000000000e+01,3.000000000000000000e+01,2.500000000000000000e+01,2.200000000000000000e+01,2.100000000000000000e+01,6.099999999999999867e-01,4.951463900000000000e+09
3.400000000000000000e+01,1.110000000000000000e+02,6.310000000000000000e+02,9.400000000000000000e+01,3.300000000000000000e+01,2.500000000000000000e+01,2.300000000000000000e+01,2.500000000000000000e+01,6.099999999999999867e-01,4.974057500000000000e+09
3.600000000000000000e+01,1.340000000000000000e+02,6.310000000000000000e+02,1.100000000000000000e+02,3.500000000000000000e+01,2.500000000000000000e+01,2.500000000000000000e+01,2.500000000000000000e+01,6.099999999999999867e-01,4.992243100000000000e+09
4.800000000000000000e+01,1.530000000000000000e+02,7.100000000000000000e+02,1.300000000000000000e+02,4.400000000000000000e+01,2.700000000000000000e+01,2.800000000000000000e+01,3.100000000000000000e+01,6.099999999999999867e-01,5.010880600000000000e+09
4.800000000000000000e+01,1.530000000000000000e+02,6.880000000000000000e+02,1.320000000000000000e+02,4.400000000000000000e+01,2.700000000000000000e+01,2.600000000000000000e+01,3.000000000000000000e+01,6.099999999999999867e-01,5.030142300000000000e+09
4.900000000000000000e+01,1.260000000000000000e+02,5.650000000000000000e+02,1.290000000000000000e+02,4.400000000000000000e+01,2.700000000000000000e+01,2.500000000000000000e+01,3.100000000000000000e+01,6.099999999999999867e-01,5.052582200000000000e+09
4.500000000000000000e+01,1.320000000000000000e+02,5.870000000000000000e+02,1.210000000000000000e+02,4.000000000000000000e+01,2.500000000000000000e+01,2.400000000000000000e+01,3.000000000000000000e+01,6.099999999999999867e-01,5.070555700000000000e+09
4.300000000000000000e+01,1.140000000000000000e+02,5.900000000000000000e+02,1.240000000000000000e+02,4.100000000000000000e+01,2.600000000000000000e+01,2.400000000000000000e+01,2.900000000000000000e+01,6.199999999999999956e-01,5.089162400000000000e+09
3.100000000000000000e+01,8.400000000000000000e+01,4.840000000000000000e+02,1.030000000000000000e+02,3.100000000000000000e+01,2.300000000000000000e+01,2.000000000000000000e+01,2.200000000000000000e+01,6.199999999999999956e-01,5.108397900000000000e+09
3.300000000000000000e+01,9.100000000000000000e+01,5.250000000000000000e+02,1.080000000000000000e+02,3.200000000000000000e+01,2.500000000000000000e+01,2.300000000000000000e+01,2.300000000000000000e+01,6.199999999999999956e-01,5.130727100000000000e+09
3.000000000000000000e+01,8.800000000000000000e+01,5.900000000000000000e+02,1.270000000000000000e+02,3.100000000000000000e+01,2.500000000000000000e+01,2.300000000000000000e+01,2.200000000000000000e+01,6.199999999999999956e-01,5.152599100000000000e+09
2.800000000000000000e+01,7.600000000000000000e+01,5.650000000000000000e+02,1.200000000000000000e+02,3.000000000000000000e+01,2.400000000000000000e+01,2.200000000000000000e+01,2.200000000000000000e+01,6.199999999999999956e-01,5.171791800000000000e+09
2.600000000000000000e+01,6.700000000000000000e+01,5.400000000000000000e+02,1.010000000000000000e+02,2.600000000000000000e+01,2.400000000000000000e+01,2.000000000000000000e+01,2.300000000000000000e+01,6.199999999999999956e-01,5.190997500000000000e+09
2.900000000000000000e+01,7.100000000000000000e+01,5.650000000000000000e+02,1.070000000000000000e+02,2.800000000000000000e+01,2.600000000000000000e+01,2.200000000000000000e+01,2.400000000000000000e+01,6.199999999999999956e-01,5.209233500000000000e+09
3.100000000000000000e+01,7.400000000000000000e+01,5.700000000000000000e+02,1.140000000000000000e+02,2.900000000000000000e+01,2.700000000000000000e+01,2.000000000000000000e+01,2.300000000000000000e+01,6.199999999999999956e-01,5.230284800000000000e+09
3.200000000000000000e+01,7.900000000000000000e+01,4.820000000000000000e+02,9.000000000000000000e+01,2.900000000000000000e+01,2.800000000000000000e+01,2.200000000000000000e+01,2.600000000000000000e+01,6.199999999999999956e-01,5.252589600000000000e+09
3.100000000000000000e+01,8.200000000000000000e+01,4.700000000000000000e+02,9.200000000000000000e+01,2.900000000000000000e+01,2.800000000000000000e+01,2.200000000000000000e+01,2.400000000000000000e+01,6.300000000000000044e-01,5.270576000000000000e+09
3.200000000000000000e+01,8.100000000000000000e+01,4.950000000000000000e+02,9.400000000000000000e+01,2.900000000000000000e+01,2.600000000000000000e+01,2.200000000000000000e+01,2.300000000000000000e+01,6.199999999999999956e-01,5.288181600000000000e+09
3.400000000000000000e+01,8.400000000000000000e+01,4.300000000000000000e+02,9.000000000000000000e+01,3.000000000000000000e+01,2.800000000000000000e+01,2.300000000000000000e+01,2.500000000000000000e+01,6.199999999999999956e-01,5.309967900000000000e+09
3.300000000000000000e+01,1.050000000000000000e+02,5.230000000000000000e+02,8.400000000000000000e+01,3.100000000000000000e+01,2.600000000000000000e+01,2.300000000000000000e+01,2.800000000000000000e+01,6.199999999999999956e-01,5.332024200000000000e+09
3.400000000000000000e+01,1.010000000000000000e+02,5.360000000000000000e+02,8.200000000000000000e+01,3.000000000000000000e+01,2.400000000000000000e+01,2.100000000000000000e+01,2.700000000000000000e+01,6.199999999999999956e-01,5.352690600000000000e+09
3.500000000000000000e+01,1.070000000000000000e+02,5.520000000000000000e+02,7.900000000000000000e+01,3.100000000000000000e+01,2.500000000000000000e+01,2.200000000000000000e+01,2.800000000000000000e+01,6.199999999999999956e-01,5.372069400000000000e+09
3.500000000000000000e+01,1.150000000000000000e+02,5.740000000000000000e+02,8.600000000000000000e+01,3.200000000000000000e+01,2.600000000000000000e+01,2.300000000000000000e+01,2.900000000000000000e+01,6.199999999999999956e-01,5.392952500000000000e+09
3.700000000000000000e+01,1.180000000000000000e+02,6.690000000000000000e+02,9.000000000000000000e+01,3.100000000000000000e+01,2.400000000000000000e+01,2.100000000000000000e+01,2.800000000000000000e+01,6.199999999999999956e-01,5.411831900000000000e+09
3.300000000000000000e+01,9.100000000000000000e+01,5.640000000000000000e+02,7.800000000000000000e+01,2.700000000000000000e+01,2.500000000000000000e+01,2.100000000000000000e+01,2.500000000000000000e+01,6.199999999999999956e-01,5.430242600000000000e+09
3.400000000000000000e+01,9.300000000000000000e+01,5.340000000000000000e+02,8.000000000000000000e+01,2.700000000000000000e+01,2.700000000000000000e+01,2.100000000000000000e+01,2.700000000000000000e+01,6.199999999999999956e-01,5.459394600000000000e+09
3.400000000000000000e+01,9.700000000000000000e+01,5.100000000000000000e+02,7.900000000000000000e+01,2.500000000000000000e+01,2.600000000000000000e+01,2.100000000000000000e+01,3.000000000000000000e+01,6.199999999999999956e-01,5.478248800000000000e+09
3.500000000000000000e+01,8.900000000000000000e+01,4.230000000000000000e+02,6.800000000000000000e+01,2.500000000000000000e+01,2.500000000000000000e+01,1.900000000000000000e+01,4.700000000000000000e+01,6.199999999999999956e-01,5.497528700000000000e+09
2.700000000000000000e+01,8.300000000000000000e+01,2.860000000000000000e+02,4.700000000000000000e+01,2.300000000000000000e+01,2.500000000000000000e+01,1.700000000000000000e+01,4.700000000000000000e+01,6.099999999999999867e-01,5.515713900000000000e+09
3.100000000000000000e+01,9.300000000000000000e+01,3.310000000000000000e+02,7.500000000000000000e+01,2.500000000000000000e+01,2.400000000000000000e+01,1.900000000000000000e+01,5.000000000000000000e+01,6.099999999999999867e-01,5.533406200000000000e+09
3.200000000000000000e+01,1.090000000000000000e+02,4.120000000000000000e+02,9.400000000000000000e+01,2.900000000000000000e+01,2.600000000000000000e+01,1.900000000000000000e+01,5.000000000000000000e+01,6.099999999999999867e-01,5.552622300000000000e+09
3.900000000000000000e+01,1.190000000000000000e+02,4.890000000000000000e+02,1.190000000000000000e+02,4.100000000000000000e+01,3.100000000000000000e+01,2.200000000000000000e+01,5.000000000000000000e+01,6.099999999999999867e-01,5.572266500000000000e+09
4.000000000000000000e+01,1.260000000000000000e+02,5.630000000000000000e+02,1.460000000000000000e+02,4.800000000000000000e+01,3.300000000000000000e+01,2.300000000000000000e+01,3.400000000000000000e+01,6.099999999999999867e-01,5.591831300000000000e+09
7.300000000000000000e+01,1.920000000000000000e+02,7.030000000000000000e+02,2.220000000000000000e+02,8.300000000000000000e+01,5.100000000000000000e+01,3.600000000000000000e+01,5.100000000000000000e+01,5.999999999999999778e-01,5.613960900000000000e+09
8.300000000000000000e+01,2.470000000000000000e+02,8.620000000000000000e+02,2.410000000000000000e+02,9.400000000000000000e+01,5.700000000000000000e+01,4.000000000000000000e+01,5.300000000000000000e+01,5.899999999999999689e-01,5.633313600000000000e+09
9.200000000000000000e+01,2.610000000000000000e+02,9.470000000000000000e+02,2.500000000000000000e+02,9.900000000000000000e+01,6.000000000000000000e+01,4.200000000000000000e+01,5.700000000000000000e+01,5.699999999999999512e-01,5.652477100000000000e+09
1.080000000000000000e+02,3.120000000000000000e+02,1.032000000000000000e+03,3.020000000000000000e+02,1.070000000000000000e+02,6.400000000000000000e+01,4.700000000000000000e+01,6.300000000000000000e+01,5.600000000000000533e-01,5.670855900000000000e+09
1.170000000000000000e+02,3.640000000000000000e+02,1.112000000000000000e+03,3.280000000000000000e+02,1.080000000000000000e+02,6.800000000000000000e+01,4.800000000000000000e+01,6.600000000000000000e+01,5.400000000000000355e-01,5.691993900000000000e+09
1.050000000000000000e+02,3.430000000000000000e+02,1.054000000000000000e+03,3.110000000000000000e+02,9.600000000000000000e+01,6.100000000000000000e+01,4.300000000000000000e+01,5.900000000000000000e+01,5.200000000000000178e-01,5.713871400000000000e+09
1.290000000000000000e+02,3.640000000000000000e+02,1.035000000000000000e+03,4.230000000000000000e+02,1.230000000000000000e+02,7.600000000000000000e+01,4.900000000000000000e+01,7.700000000000000000e+01,5.000000000000000000e-01,5.732141100000000000e+09
1.440000000000000000e+02,4.180000000000000000e+02,9.740000000000000000e+02,5.080000000000000000e+02,1.370000000000000000e+02,8.000000000000000000e+01,5.500000000000000000e+01,8.300000000000000000e+01,4.799999999999999822e-01,5.752269700000000000e+09
1.630000000000000000e+02,4.000000000000000000e+02,9.510000000000000000e+02,5.440000000000000000e+02,1.640000000000000000e+02,9.700000000000000000e+01,6.100000000000000000e+01,9.400000000000000000e+01,4.500000000000000111e-01,5.770601200000000000e+09
1.710000000000000000e+02,3.680000000000000000e+02,9.250000000000000000e+02,5.820000000000000000e+02,1.700000000000000000e+02,1.010000000000000000e+02,6.300000000000000000e+01,1.000000000000000000e+02,4.299999999999999933e-01,5.791794600000000000e+09
1.920000000000000000e+02,4.340000000000000000e+02,9.920000000000000000e+02,6.610000000000000000e+02,2.180000000000000000e+02,1.170000000000000000e+02,7.500000000000000000e+01,1.100000000000000000e+02,4.000000000000000222e-01,5.813948400000000000e+09
1.860000000000000000e+02,4.300000000000000000e+02,9.800000000000000000e+02,7.260000000000000000e+02,2.100000000000000000e+02,1.120000000000000000e+02,7.500000000000000000e+01,1.040000000000000000e+02,3.699999999999999956e-01,5.832291700000000000e+09
1.910000000000000000e+02,4.590000000000000000e+02,1.027000000000000000e+03,7.490000000000000000e+02,2.280000000000000000e+02,1.200000000000000000e+02,7.900000000000000000e+01,1.070000000000000000e+02,3.499999999999999778e-01,5.850293500000000000e+09
1.830000000000000000e+02,5.380000000000000000e+02,1.082000000000000000e+03,7.840000000000000000e+02,2.210000000000000000e+02,1.150000000000000000e+02,7.600000000000000000e+01,1.000000000000000000e+02,3.300000000000000155e-01,5.880463100000000000e+09
1.910000000000000000e+02,5.570000000000000000e+02,1.118000000000000000e+03,7.770000000000000000e+02,2.370000000000000000e+02,1.230000000000000000e+02,8.100000000000000000e+01,1.000000000000000000e+02,3.099999999999999978e-01,5.899652900000000000e+09
1.710000000000000000e+02,5.250000000000000000e+02,1.152000000000000000e+03,7.310000000000000000e+02,1.940000000000000000e+02,1.060000000000000000e+02,6.900000000000000000e+01,8.800000000000000000e+01,2.899999999999999800e-01,5.917645400000000000e+09
1.720000000000000000e+02,5.130000000000000000e+02,1.170000000000000000e+03,6.400000000000000000e+02,2.010000000000000000e+02,1.110000000000000000e+02,6.900000000000000000e+01,8.900000000000000000e+01,2.800000000000000266e-01,5.935651100000000000e+09
1.590000000000000000e+02,4.780000000000000000e+02,1.176000000000000000e+03,5.500000000000000000e+02,1.740000000000000000e+02,9.900000000000000000e+01,6.100000000000000000e+01,8.100000000000000000e+01,2.600000000000000089e-01,5.953506200000000000e+09
1.560000000000000000e+02,4.430000000000000000e+02,1.124000000000000000e+03,4.990000000000000000e+02,1.650000000000000000e+02,9.800000000000000000e+01,6.300000000000000000e+01,8.400000000000000000e+01,2.500000000000000000e-01,5.971459100000000000e+09
1.390000000000000000e+02,4.530000000000000000e+02,1.119000000000000000e+03,5.720000000000000000e+02,1.490000000000000000e+02,8.700000000000000000e+01,5.900000000000000000e+01,8.000000000000000000e+01,2.399999999999999911e-01,5.999321100000000000e+09
1.390000000000000000e+02,4.570000000000000000e+02,1.092000000000000000e+03,5.530000000000000000e+02,1.450000000000000000e+02,8.500000000000000000e+01,6.000000000000000000e+01,8.200000000000000000e+01,2.300000000000000100e-01,6.018304800000000000e+09
1.510000000000000000e+02,4.740000000000000000e+02,1.061000000000000000e+03,5.860000000000000000e+02,1.610000000000000000e+02,9.100000000000000000e+01,6.400000000000000000e+01,8.900000000000000000e+01,2.200000000000000011e-01,6.036324000000000000e+09
1.550000000000000000e+02,4.650000000000000000e+02,1.092000000000000000e+03,6.430000000000000000e+02,1.740000000000000000e+02,1.020000000000000000e+02,6.900000000000000000e+01,8.900000000000000000e+01,2.099999999999999922e-01,6.059840100000000000e+09
1.510000000000000000e+02,4.160000000000000000e+02,1.134000000000000000e+03,6.250000000000000000e+02,1.840000000000000000e+02,1.010000000000000000e+02,6.800000000000000000e+01,9.200000000000000000e+01,2.000000000000000111e-01,6.077881200000000000e+09
1.640000000000000000e+02,4.240000000000000000e+02,1.059000000000000000e+03,5.660000000000000000e+02,1.870000000000000000e+02,1.030000000000000000e+02,6.800000000000000000e+01,9.600000000000000000e+01,1.900000000000000022e-01,6.096628700000000000e+09
1.820000000000000000e+02,4.400000000000000000e+02,1.052000000000000000e+03,5.950000000000000000e+02,2.050000000000000000e+02,1.130000000000000000e+02,7.600000000000000000e+01,1.050000000000000000e+02,1.799999999999999933e-01,6.116199200000000000e+09
1.770000000000000000e+02,4.510000000000000000e+02,1.007000000000000000e+03,6.140000000000000000e+02,2.020000000000000000e+02,1.130000000000000000e+02,7.200000000000000000e+01,1.040000000000000000e+02,1.799999999999999933e-01,6.134297500000000000e+09
1.800000000000000000e+02,4.320000000000000000e+02,9.270000000000000000e+02,5.790000000000000000e+02,2.050000000000000000e+02,1.080000000000000000e+02,7.200000000000000000e+01,1.080000000000000000e+02,1.799999999999999933e-01,6.152845100000000000e+09
1.810000000000000000e+02,4.390000000000000000e+02,8.800000000000000000e+02,5.540000000000000000e+02,2.010000000000000000e+02,1.040000000000000000e+02,7.000000000000000000e+01,1.030000000000000000e+02,1.700000000000000122e-01,6.171761100000000000e+09
1.850000000000000000e+02,4.330000000000000000e+02,9.480000000000000000e+02,5.930000000000000000e+02,2.220000000000000000e+02,1.160000000000000000e+02,7.500000000000000000e+01,1.110000000000000000e+02,1.700000000000000122e-01,6.191794400000000000e+09
1.730000000000000000e+02,4.210000000000000000e+02,8.750000000000000000e+02,5.750000000000000000e+02,2.150000000000000000e+02,1.110000000000000000e+02,7.100000000000000000e+01,1.080000000000000000e+02,1.600000000000000033e-01,6.213819200000000000e+09
1.810000000000000000e+02,4.720000000000000000e+02,9.260000000000000000e+02,4.930000000000000000e+02,2.030000000000000000e+02,1.040000000000000000e+02,7.200000000000000000e+01,1.100000000000000000e+02,1.600000000000000033e-01,6.232044300000000000e+09
1.950000000000000000e+02,5.150000000000000000e+02,9.830000000000000000e+02,5.420000000000000000e+02,2.150000000000000000e+02,1.100000000000000000e+02,7.400000000000000000e+01,1.180000000000000000e+02,1.499999999999999944e-01,6.250430800000000000e+09
2.040000000000000000e+02,5.350000000000000000e+02,9.440000000000000000e+02,5.740000000000000000e+02,2.280000000000000000e+02,1.150000000000000000e+02,7.500000000000000000e+01,1.220000000000000000e+02,1.400000000000000133e-01,6.276477200000000000e+09
1.960000000000000000e+02,5.500000000000000000e+02,8.630000000000000000e+02,4.960000000000000000e+02,2.040000000000000000e+02,1.020000000000000000e+02,6.800000000000000000e+01,1.110000000000000000e+02,1.400000000000000133e-01,6.295287600000000000e+09
2.040000000000000000e+02,5.600000000000000000e+02,9.030000000000000000e+02,5.120000000000000000e+02,2.080000000000000000e+02,1.060000000000000000e+02,6.800000000000000000e+01,1.120000000000000000e+02,1.300000000000000044e-01,6.314921700000000000e+09
1.880000000000000000e+02,4.830000000000000000e+02,9.190000000000000000e+02,4.900000000000000000e+02,2.040000000000000000e+02,1.020000000000000000e+02,6.500000000000000000e+01,1.000000000000000000e+02,1.300000000000000044e-01,6.333636000000000000e+09
1.680000000000000000e+02,4.460000000000000000e+02,9.620000000000000000e+02,4.420000000000000000e+02,1.830000000000000000e+02,9.400000000000000000e+01,7.200000000000000000e+01,9.000000000000000000e+01,1.199999999999999956e-01,6.358770300000000000e+09
1.440000000000000000e+02,4.040000000000000000e+02,1.021000000000000000e+03,4.100000000000000000e+02,1.550000000000000000e+02,8.400000000000000000e+01,8.300000000000000000e+01,7.900000000000000000e+01,1.199999999999999956e-01,6.377870500000000000e+09
1.420000000000000000e+02,3.480000000000000000e+02,1.068000000000000000e+03,4.170000000000000000e+02,1.560000000000000000e+02,8.800000000000000000e+01,8.700000000000000000e+01,8.000000000000000000e+01,1.199999999999999956e-01,6.397190100000000000e+09
1.240000000000000000e+02,3.230000000000000000e+02,1.103000000000000000e+03,3.620000000000000000e+02,1.390000000000000000e+02,8.000000000000000000e+01,8.500000000000000000e+01,7.100000000000000000e+01,1.199999999999999956e-01,6.416179700000000000e+09
1.280000000000000000e+02,3.430000000000000000e+02,1.034000000000000000e+03,3.780000000000000000e+02,1.340000000000000000e+02,7.900000000000000000e+01,8.500000000000000000e+01,7.000000000000000000e+01,1.199999999999999956e-01,6.434798300000000000e+09
1.150000000000000000e+02,3.140000000000000000e+02,9.340000000000000000e+02,3.250000000000000000e+02,1.200000000000000000e+02,7.200000000000000000e+01,7.400000000000000000e+01,6.200000000000000000e+01,1.300000000000000044e-01,6.455458100000000000e+09
1.160000000000000000e+02,3.290000000000000000e+02,8.880000000000000000e+02,2.970000000000000000e+02,1.160000000000000000e+02,6.900000000000000000e+01,5.600000000000000000e+01,5.900000000000000000e+01,1.300000000000000044e-01,6.474403500000000000e+09
1.080000000000000000e+02,3.210000000000000000e+02,9.250000000000000000e+02,2.680000000000000000e+02,1.000000000000000000e+02,6.000000000000000000e+01,4.700000000000000000e+01,5.400000000000000000e+01,1.400000000000000133e-01,6.494780600000000000e+09
1.140000000000000000e+02,3.010000000000000000e+02,8.460000000000000000e+02,2.970000000000000000e+02,1.170000000000000000e+02,6.700000000000000000e+01,5.000000000000000000e+01,6.200000000000000000e+01,1.499999999999999944e-01,6.513095200000000000e+09
1.060000000000000000e+02,2.590000000000000000e+02,8.510000000000000000e+02,2.980000000000000000e+02,1.100000000000000000e+02,6.600000000000000000e+01,4.700000000000000000e+01,6.100000000000000000e+01,1.600000000000000033e-01,6.533327700000000000e+09
1.100000000000000000e+02,2.960000000000000000e+02,8.700000000000000000e+02,3.080000000000000000e+02,1.130000000000000000e+02,6.900000000000000000e+01,4.500000000000000000e+01,6.400000000000000000e+01,1.799999999999999933e-01,6.555419000000000000e+09
1.070000000000000000e+02,2.800000000000000000e+02,8.670000000000000000e+02,3.030000000000000000e+02,1.100000000000000000e+02,6.800000000000000000e+01,4.400000000000000000e+01,6.400000000000000000e+01,1.900000000000000022e-01,6.573815000000000000e+09
1.010000000000000000e+02,2.680000000000000000e+02,7.620000000000000000e+02,3.140000000000000000e+02,1.110000000000000000e+02,6.800000000000000000e+01,4.600000000000000000e+01,6.400000000000000000e+01,2.099999999999999922e-01,6.593696200000000000e+09
8.500000000000000000e+01,2.490000000000000000e+02,7.380000000000000000e+02,2.870000000000000000e+02,9.100000000000000000e+01,5.700000000000000000e+01,3.800000000000000000e+01,5.400000000000000000e+01,2.300000000000000100e-01,6.614670400000000000e+09
7.500000000000000000e+01,2.440000000000000000e+02,7.580000000000000000e+02,2.500000000000000000e+02,8.600000000000000000e+01,4.900000000000000000e+01,3.400000000000000000e+01,4.600000000000000000e+01,2.399999999999999911e-01,6.633008700000000000e+09
6.700000000000000000e+01,2.100000000000000000e+02,7.280000000000000000e+02,2.330000000000000000e+02,7.900000000000000000e+01,4.200000000000000000e+01,3.300000000000000000e+01,4.300000000000000000e+01,2.600000000000000089e-01,6.651476600000000000e+09
7.500000000000000000e+01,2.140000000000000000e+02,6.560000000000000000e+02,2.280000000000000000e+02,8.300000000000000000e+01,4.500000000000000000e+01,3.200000000000000000e+01,4.600000000000000000e+01,2.800000000000000266e-01,6.674472200000000000e+09
7.100000000000000000e+01,2.100000000000000000e+02,6.320000000000000000e+02,1.850000000000000000e+02,7.900000000000000000e+01,4.200000000000000000e+01,2.900000000000000000e+01,4.200000000000000000e+01,2.999999999999999889e-01,6.693582900000000000e+09
7.500000000000000000e+01,2.220000000000000000e+02,6.170000000000000000e+02,1.730000000000000000e+02,7.600000000000000000e+01,4.400000000000000000e+01,3.000000000000000000e+01,4.500000000000000000e+01,3.200000000000000067e-01,6.712271100000000000e+09
7.300000000000000000e+01,2.230000000000000000e+02,5.130000000000000000e+02,1.630000000000000000e+02,7.000000000000000000e+01,4.300000000000000000e+01,2.900000000000000000e+01,4.300000000000000000e+01,3.400000000000000244e-01,6.735375900000000000e+09
6.900000000000000000e+01,2.010000000000000000e+02,4.070000000000000000e+02,1.370000000000000000e+02,6.300000000000000000e+01,4.100000000000000000e+01,2.700000000000000000e+01,4.000000000000000000e+01,3.599999999999999867e-01,6.754274000000000000e+09
5.200000000000000000e+01,1.720000000000000000e+02,3.490000000000000000e+02,9.900000000000000000e+01,5.300000000000000000e+01,3.600000000000000000e+01,2.500000000000000000e+01,3.300000000000000000e+01,3.800000000000000044e-01,6.773660600000000000e+09
4.200000000000000000e+01,1.820000000000000000e+02,2.530000000000000000e+02,8.100000000000000000e+01,3.800000000000000000e+01,3.600000000000000000e+01,2.100000000000000000e+01,2.700000000000000000e+01,4.000000000000000222e-01,6.801757800000000000e+09
4.000000000000000000e+01,1.940000000000000000e+02,3.930000000000000000e+02,8.600000000000000000e+01,3.600000000000000000e+01,3.400000000000000000e+01,2.400000000000000000e+01,2.600000000000000000e+01,4.199999999999999845e-01,6.819441900000000000e+09
4.600000000000000000e+01,1.980000000000000000e+02,4.450000000000000000e+02,1.080000000000000000e+02,5.200000000000000000e+01,3.500000000000000000e+01,2.600000000000000000e+01,3.100000000000000000e+01,4.400000000000000022e-01,6.839219700000000000e+09
4.700000000000000000e+01,2.000000000000000000e+02,4.480000000000000000e+02,1.110000000000000000e+02,5.400000000000000000e+01,3.500000000000000000e+01,2.700000000000000000e+01,3.300000000000000000e+01,4.600000000000000200e-01,6.857416000000000000e+09
4.900000000000000000e+01,2.090000000000000000e+02,4.570000000000000000e+02,1.170000000000000000e+02,5.400000000000000000e+01,3.400000000000000000e+01,2.600000000000000000e+01,3.200000000000000000e+01,4.699999999999999734e-01,6.875440400000000000e+09
5.000000000000000000e+01,2.110000000000000000e+02,4.550000000000000000e+02,1.170000000000000000e+02,5.600000000000000000e+01,3.700000000000000000e+01,2.900000000000000000e+01,3.400000000000000000e+01,4.899999999999999911e-01,6.893851200000000000e+09
5.500000000000000000e+01,2.050000000000000000e+02,4.440000000000000000e+02,1.520000000000000000e+02,6.100000000000000000e+01,3.700000000000000000e+01,2.700000000000000000e+01,3.700000000000000000e+01,5.100000000000000089e-01,6.913983500000000000e+09
6.800000000000000000e+01,2.180000000000000000e+02,4.260000000000000000e+02,1.800000000000000000e+02,6.400000000000000000e+01,4.200000000000000000e+01,3.000000000000000000e+01,4.300000000000000000e+01,5.200000000000000178e-01,6.931740600000000000e+09
7.100000000000000000e+01,2.190000000000000000e+02,4.450000000000000000e+02,1.880000000000000000e+02,6.400000000000000000e+01,4.200000000000000000e+01,3.000000000000000000e+01,4.300000000000000000e+01,5.400000000000000355e-01,6.952761600000000000e+09
7.000000000000000000e+01,2.020000000000000000e+02,4.520000000000000000e+02,1.890000000000000000e+02,6.500000000000000000e+01,4.300000000000000000e+01,3.000000000000000000e+01,4.300000000000000000e+01,5.500000000000000444e-01,6.982895500000000000e+09
7.000000000000000000e+01,1.780000000000000000e+02,4.600000000000000000e+02,1.890000000000000000e+02,6.500000000000000000e+01,3.800000000000000000e+01,2.900000000000000000e+01,4.400000000000000000e+01,5.500000000000000444e-01,7.000937200000000000e+09
6.800000000000000000e+01,1.670000000000000000e+02,3.830000000000000000e+02,1.670000000000000000e+02,6.100000000000000000e+01,4.000000000000000000e+01,2.900000000000000000e+01,4.100000000000000000e+01,5.600000000000000533e-01,7.018727200000000000e+09
4.900000000000000000e+01,1.340000000000000000e+02,3.670000000000000000e+02,1.220000000000000000e+02,4.500000000000000000e+01,3.000000000000000000e+01,2.300000000000000000e+01,3.200000000000000000e+01,5.699999999999999512e-01,7.036464700000000000e+09
4.500000000000000000e+01,1.410000000000000000e+02,3.380000000000000000e+02,1.070000000000000000e+02,4.100000000000000000e+01,3.100000000000000000e+01,2.300000000000000000e+01,3.200000000000000000e+01,5.799999999999999600e-01,7.056210600000000000e+09
4.400000000000000000e+01,1.390000000000000000e+02,3.090000000000000000e+02,1.010000000000000000e+02,3.900000000000000000e+01,3.100000000000000000e+01,2.400000000000000000e+01,3.400000000000000000e+01,5.799999999999999600e-01,7.074567000000000000e+09
4.100000000000000000e+01,1.320000000000000000e+02,3.320000000000000000e+02,1.010000000000000000e+02,3.600000000000000000e+01,3.000000000000000000e+01,2.200000000000000000e+01,3.000000000000000000e+01,5.899999999999999689e-01,7.095013300000000000e+09
2.600000000000000000e+01,1.170000000000000000e+02,3.100000000000000000e+02,6.500000000000000000e+01,2.500000000000000000e+01,2.400000000000000000e+01,2.100000000000000000e+01,2.800000000000000000e+01,5.899999999999999689e-01,7.113526300000000000e+09
3.200000000000000000e+01,1.200000000000000000e+02,4.140000000000000000e+02,6.900000000000000000e+01,2.600000000000000000e+01,2.600000000000000000e+01,2.400000000000000000e+01,2.900000000000000000e+01,5.899999999999999689e-01,7.132770500000000000e+09
3.200000000000000000e+01,9.900000000000000000e+01,4.140000000000000000e+02,6.600000000000000000e+01,2.600000000000000000e+01,2.300000000000000000e+01,2.400000000000000000e+01,2.600000000000000000e+01,5.899999999999999689e-01,7.161110000000000000e+09
3.300000000000000000e+01,1.060000000000000000e+02,4.220000000000000000e+02,6.900000000000000000e+01,2.700000000000000000e+01,2.500000000000000000e+01,2.400000000000000000e+01,2.300000000000000000e+01,5.899999999999999689e-01,7.184995600000000000e+09
4.400000000000000000e+01,1.500000000000000000e+02,5.340000000000000000e+02,9.400000000000000000e+01,3.600000000000000000e+01,3.000000000000000000e+01,2.800000000000000000e+01,2.800000000000000000e+01,5.899999999999999689e-01,7.202136500000000000e+09
4.400000000000000000e+01,1.540000000000000000e+02,6.490000000000000000e+02,1.370000000000000000e+02,3.800000000000000000e+01,3.200000000000000000e+01,2.600000000000000000e+01,2.700000000000000000e+01,5.899999999999999689e-01,7.220191100000000000e+09
4.600000000000000000e+01,1.570000000000000000e+02,6.110000000000000000e+02,1.350000000000000000e+02,3.900000000000000000e+01,3.100000000000000000e+01,2.600000000000000000e+01,2.800000000000000000e+01,5.899999999999999689e-01,7.243912700000000000e+09
4.700000000000000000e+01,1.620000000000000000e+02,6.190000000000000000e+02,1.420000000000000000e+02,3.900000000000000000e+01,3.200000000000000000e+01,2.400000000000000000e+01,2.900000000000000000e+01,5.899999999999999689e-01,7.261249700000000000e+09
5.300000000000000000e+01,1.660000000000000000e+02,6.750000000000000000e+02,1.480000000000000000e+02,4.200000000000000000e+01,3.400000000000000000e+01,2.600000000000000000e+01,3.300000000000000000e+01,5.899999999999999689e-01,7.278567700000000000e+09
4.800000000000000000e+01,1.420000000000000000e+02,6.570000000000000000e+02,1.530000000000000000e+02,4.200000000000000000e+01,3.300000000000000000e+01,2.300000000000000000e+01,3.100000000000000000e+01,5.899999999999999689e-01,7.296651800000000000e+09
5.500000000000000000e+01,1.510000000000000000e+02,6.000000000000000000e+02,1.530000000000000000e+02,5.000000000000000000e+01,3.300000000000000000e+01,2.400000000000000000e+01,3.400000000000000000e+01,5.899999999999999689e-01,7.315339300000000000e+09
5.800000000000000000e+01,1.530000000000000000e+02,5.790000000000000000e+02,1.550000000000000000e+02,5.000000000000000000e+01,3.500000000000000000e+01,2.700000000000000000e+01,3.500000000000000000e+01,5.899999999999999689e-01,7.333400100000000000e+09
5.800000000000000000e+01,1.460000000000000000e+02,5.790000000000000000e+02,1.520000000000000000e+02,5.000000000000000000e+01,3.500000000000000000e+01,2.800000000000000000e+01,3.500000000000000000e+01,5.999999999999999778e-01,7.363008100000000000e+09
5.400000000000000000e+01,1.360000000000000000e+02,5.170000000000000000e+02,1.450000000000000000e+02,4.700000000000000000e+01,3.100000000000000000e+01,2.600000000000000000e+01,3.100000000000000000e+01,5.999999999999999778e-01,7.380982300000000000e+09
5.100000000000000000e+01,1.260000000000000000e+02,4.930000000000000000e+02,1.290000000000000000e+02,4.100000000000000000e+01,2.900000000000000000e+01,2.500000000000000000e+01,3.100000000000000000e+01,6.099999999999999867e-01,7.399191300000000000e+09
4.500000000000000000e+01,9.100000000000000000e+01,4.680000000000000000e+02,8.300000000000000000e+01,3.300000000000000000e+01,2.800000000000000000e+01,2.600000000000000000e+01,2.800000000000000000e+01,6.099999999999999867e-01,7.417761100000000000e+09
3.400000000000000000e+01,7.400000000000000000e+01,4.490000000000000000e+02,8.000000000000000000e+01,3.000000000000000000e+01,2.400000000000000000e+01,2.100000000000000000e+01,2.300000000000000000e+01,6.099999999999999867e-01,7.435680000000000000e+09
3.600000000000000000e+01,7.600000000000000000e+01,4.750000000000000000e+02,9.800000000000000000e+01,3.200000000000000000e+01,2.500000000000000000e+01,2.300000000000000000e+01,2.500000000000000000e+01,6.099999999999999867e-01,7.454303200000000000e+09
3.800000000000000000e+01,9.100000000000000000e+01,5.420000000000000000e+02,1.060000000000000000e+02,3.300000000000000000e+01,2.600000000000000000e+01,2.400000000000000000e+01,2.500000000000000000e+01,6.099999999999999867e-01,7.477664700000000000e+09
3.600000000000000000e+01,8.700000000000000000e+01,5.010000000000000000e+02,1.010000000000000000e+02,3.300000000000000000e+01,2.500000000000000000e+01,2.400000000000000000e+01,2.300000000000000000e+01,6.099999999999999867e-01,7.495920200000000000e+09
3.800000000000000000e+01,9.300000000000000000e+01,4.690000000000000000e+02,1.200000000000000000e+02,3.600000000000000000e+01,2.500000000000000000e+01,2.400000000000000000e+01,2.600000000000000000e+01,6.199999999999999956e-01,7.514088800000000000e+09
3.900000000000000000e+01,9.600000000000000000e+01,4.670000000000000000e+02,1.220000000000000000e+02,3.500000000000000000e+01,2.500000000000000000e+01,2.300000000000000000e+01,2.700000000000000000e+01,6.199999999999999956e-01,7.535934100000000000e+09
3.600000000000000000e+01,9.300000000000000000e+01,4.430000000000000000e+02,1.030000000000000000e+02,3.200000000000000000e+01,2.300000000000000000e+01,2.200000000000000000e+01,2.600000000000000000e+01,6.199999999999999956e-01,7.554307500000000000e+09
4.500000000000000000e+01,1.140000000000000000e+02,4.010000000000000000e+02,1.180000000000000000e+02,4.000000000000000000e+01,2.500000000000000000e+01,2.300000000000000000e+01,3.000000000000000000e+01,6.199999999999999956e-01,7.574482200000000000e+09
5.600000000000000000e+01,1.380000000000000000e+02,3.680000000000000000e+02,1.420000000000000000e+02,4.900000000000000000e+01,3.000000000000000000e+01,2.600000000000000000e+01,3.700000000000000000e+01,6.199999999999999956e-01,7.598066800000000000e+09
5.400000000000000000e+01,1.450000000000000000e+02,3.200000000000000000e+02,1.290000000000000000e+02,4.300000000000000000e+01,2.800000000000000000e+01,2.300000000000000000e+01,3.300000000000000000e+01,6.199999999999999956e-01,7.621439200000000000e+09
5.600000000000000000e+01,1.470000000000000000e+02,3.290000000000000000e+02,1.260000000000000000e+02,4.600000000000000000e+01,2.900000000000000000e+01,2.600000000000000000e+01,3.400000000000000000e+01,6.199999999999999956e-01,7.641504500000000000e+09
5.600000000000000000e+01,1.490000000000000000e+02,3.730000000000000000e+02,1.290000000000000000e+02,4.600000000000000000e+01,3.000000000000000000e+01,2.500000000000000000e+01,3.400000000000000000e+01,6.300000000000000044e-01,7.661209800000000000e+09
5.200000000000000000e+01,1.360000000000000000e+02,3.710000000000000000e+02,1.200000000000000000e+02,4.400000000000000000e+01,2.800000000000000000e+01,2.400000000000000000e+01,3.300000000000000000e+01,6.300000000000000044e-01,7.680427100000000000e+09
3.900000000000000000e+01,1.080000000000000000e+02,3.640000000000000000e+02,9.300000000000000000e+01,3.500000000000000000e+01,2.400000000000000000e+01,2.100000000000000000e+01,2.600000000000000000e+01,6.300000000000000044e-01,7.697839400000000000e+09
3.700000000000000000e+01,9.200000000000000000e+01,3.930000000000000000e+02,8.600000000000000000e+01,3.500000000000000000e+01,2.300000000000000000e+01,2.200000000000000000e+01,2.600000000000000000e+01,6.300000000000000044e-01,7.717037200000000000e+09
3.900000000000000000e+01,1.010000000000000000e+02,4.870000000000000000e+02,1.100000000000000000e+02,3.800000000000000000e+01,2.600000000000000000e+01,2.400000000000000000e+01,2.800000000000000000e+01,6.300000000000000044e-01,7.740716300000000000e+09
4.200000000000000000e+01,1.240000000000000000e+02,5.260000000000000000e+02,1.280000000000000000e+02,3.900000000000000000e+01,2.600000000000000000e+01,2.400000000000000000e+01,2.800000000000000000e+01,6.300000000000000044e-01,7.759003200000000000e+09
5.300000000000000000e+01,1.430000000000000000e+02,5.830000000000000000e+02,1.530000000000000000e+02,4.500000000000000000e+01,3.500000000000000000e+01,2.700000000000000000e+01,3.000000000000000000e+01,6.300000000000000044e-01,7.776708800000000000e+09
5.500000000000000000e+01,1.540000000000000000e+02,6.070000000000000000e+02,1.600000000000000000e+02,4.400000000000000000e+01,3.500000000000000000e+01,2.800000000000000000e+01,3.200000000000000000e+01,6.300000000000000044e-01,7.798724100000000000e+09
5.700000000000000000e+01,1.580000000000000000e+02,5.990000000000000000e+02,1.610000000000000000e+02,4.400000000000000000e+01,3.700000000000000000e+01,2.800000000000000000e+01,3.300000000000000000e+01,6.300000000000000044e-01,7.821128600000000000e+09
5.300000000000000000e+01,1.480000000000000000e+02,5.240000000000000000e+02,1.430000000000000000e+02,3.900000000000000000e+01,3.500000000000000000e+01,2.500000000000000000e+01,3.000000000000000000e+01,6.300000000000000044e-01,7.839299500000000000e+09
5.800000000000000000e+01,1.500000000000000000e+02,5.180000000000000000e+02,1.520000000000000000e+02,4.400000000000000000e+01,3.700000000000000000e+01,2.700000000000000000e+01,3.500000000000000000e+01,6.300000000000000044e-01,7.857702800000000000e+09
4.500000000000000000e+01,1.320000000000000000e+02,5.120000000000000000e+02,1.330000000000000000e+02,3.400000000000000000e+01,2.800000000000000000e+01,2.200000000000000000e+01,2.900000000000000000e+01,6.300000000000000044e-01,7.877352400000000000e+09
4.400000000000000000e+01,1.230000000000000000e+02,5.570000000000000000e+02,1.250000000000000000e+02,3.600000000000000000e+01,2.800000000000000000e+01,2.100000000000000000e+01,2.900000000000000000e+01,6.300000000000000044e-01,7.897920400000000000e+09
4.200000000000000000e+01,1.150000000000000000e+02,5.510000000000000000e+02,1.230000000000000000e+02,3.500000000000000000e+01,2.500000000000000000e+01,2.000000000000000000e+01,2.800000000000000000e+01,6.300000000000000044e-01,7.916625100000000000e+09
4.100000000000000000e+01,1.180000000000000000e+02,5.590000000000000000e+02,1.210000000000000000e+02,3.600000000000000000e+01,2.600000000000000000e+01,2.000000000000000000e+01,2.700000000000000000e+01,6.400000000000000133e-01,7.942186600000000000e+09
3.100000000000000000e+01,9.000000000000000000e+01,5.350000000000000000e+02,8.600000000000000000e+01,2.900000000000000000e+01,2.400000000000000000e+01,1.800000000000000000e+01,2.300000000000000000e+01,6.400000000000000133e-01,7.960414500000000000e+09
2.700000000000000000e+01,7.700000000000000000e+01,4.390000000000000000e+02,5.700000000000000000e+01,2.700000000000000000e+01,2.400000000000000000e+01,1.900000000000000000e+01,2.400000000000000000e+01,6.300000000000000044e-01,7.978032800000000000e+09
3.300000000000000000e+01,9.700000000000000000e+01,3.810000000000000000e+02,9.400000000000000000e+01,3.100000000000000000e+01,2.600000000000000000e+01,2.000000000000000000e+01,2.500000000000000000e+01,6.300000000000000044e-01,7.996075900000000000e+09
3.600000000000000000e+01,1.050000000000000000e+02,3.870000000000000000e+02,9.300000000000000000e+01,3.300000000000000000e+01,2.800000000000000000e+01,2.000000000000000000e+01,2.500000000000000000e+01,6.300000000000000044e-01,8.024179500000000000e+09
3.600000000000000000e+01,1.000000000000000000e+02,3.780000000000000000e+02,9.500000000000000000e+01,3.400000000000000000e+01,2.700000000000000000e+01,2.200000000000000000e+01,2.700000000000000000e+01,6.300000000000000044e-01,8.047365400000000000e+09
3.400000000000000000e+01,9.600000000000000000e+01,3.760000000000000000e+02,9.300000000000000000e+01,3.300000000000000000e+01,2.600000000000000000e+01,2.100000000000000000e+01,2.500000000000000000e+01,6.300000000000000044e-01,8.064904200000000000e+09
3.500000000000000000e+01,9.900000000000000000e+01,3.940000000000000000e+02,9.600000000000000000e+01,3.300000000000000000e+01,2.500000000000000000e+01,2.200000000000000000e+01,2.600000000000000000e+01,6.300000000000000044e-01,8.082983600000000000e+09
2.900000000000000000e+01,7.500000000000000000e+01,4.330000000000000000e+02,6.700000000000000000e+01,2.700000000000000000e+01,2.600000000000000000e+01,2.300000000000000000e+01,2.400000000000000000e+01,6.199999999999999956e-01,8.100985100000000000e+09
2.500000000000000000e+01,6.900000000000000000e+01,4.880000000000000000e+02,7.500000000000000000e+01,2.500000000000000000e+01,2.400000000000000000e+01,2.200000000000000000e+01,2.300000000000000000e+01,6.199999999999999956e-01,8.118421800000000000e+09
2.600000000000000000e+01,7.300000000000000000e+01,5.310000000000000000e+02,7.400000000000000000e+01,2.300000000000000000e+01,2.500000000000000000e+01,2.000000000000000000e+01,2.300000000000000000e+01,6.199999999999999956e-01,8.137512100000000000e+09
3.500000000000000000e+01,8.900000000000000000e+01,4.930000000000000000e+02,7.800000000000000000e+01,2.700000000000000000e+01,3.000000000000000000e+01,2.200000000000000000e+01,2.400000000000000000e+01,6.099999999999999867e-01,8.156782300000000000e+09
3.700000000000000000e+01,9.600000000000000000e+01,5.430000000000000000e+02,8.300000000000000000e+01,2.700000000000000000e+01,2.900000000000000000e+01,2.200000000000000000e+01,2.300000000000000000e+01,6.099999999999999867e-01,8.175376500000000000e+09
3.800000000000000000e+01,1.040000000000000000e+02,5.060000000000000000e+02,8.700000000000000000e+01,2.800000000000000000e+01,2.800000000000000000e+01,2.100000000000000000e+01,2.400000000000000000e+01,6.099999999999999867e-01,8.196480600000000000e+09
3.800000000000000000e+01,1.020000000000000000e+02,4.670000000000000000e+02,8.000000000000000000e+01,3.000000000000000000e+01,2.900000000000000000e+01,2.200000000000000000e+01,2.400000000000000000e+01,6.099999999999999867e-01,8.220299800000000000e+09
3.800000000000000000e+01,9.900000000000000000e+01,4.020000000000000000e+02,7.800000000000000000e+01,3.000000000000000000e+01,2.900000000000000000e+01,2.300000000000000000e+01,2.400000000000000000e+01,6.099999999999999867e-01,8.238719900000000000e+09
3.300000000000000000e+01,8.900000000000000000e+01,4.770000000000000000e+02,8.000000000000000000e+01,2.700000000000000000e+01,2.400000000000000000e+01,2.100000000000000000e+01,2.300000000000000000e+01,6.099999999999999867e-01,8.258106500000000000e+09
3.200000000000000000e+01,8.100000000000000000e+01,5.050000000000000000e+02,1.020000000000000000e+02,3.000000000000000000e+01,2.900000000000000000e+01,2.200000000000000000e+01,2.600000000000000000e+01,6.099999999999999867e-01,8.278466800000000000e+09
2.900000000000000000e+01,7.400000000000000000e+01,5.160000000000000000e+02,1.030000000000000000e+02,3.000000000000000000e+01,2.700000000000000000e+01,2.200000000000000000e+01,2.500000000000000000e+01,6.099999999999999867e-01,8.296413700000000000e+09
3.000000000000000000e+01,7.700000000000000000e+01,5.240000000000000000e+02,1.030000000000000000e+02,2.900000000000000000e+01,2.600000000000000000e+01,2.200000000000000000e+01,2.600000000000000000e+01,6.099999999999999867e-01,8.317667100000000000e+09
2.800000000000000000e+01,7.500000000000000000e+01,5.490000000000000000e+02,1.040000000000000000e+02,2.800000000000000000e+01,2.600000000000000000e+01,2.200000000000000000e+01,2.700000000000000000e+01,6.099999999999999867e-01,8.347935300000000000e+09
2.900000000000000000e+01,7.300000000000000000e+01,5.290000000000000000e+02,1.040000000000000000e+02,3.000000000000000000e+01,2.700000000000000000e+01,2.200000000000000000e+01,2.800000000000000000e+01,6.199999999999999956e-01,8.366333600000000000e+09
2.800000000000000000e+01,7.100000000000000000e+01,5.600000000000000000e+02,8.300000000000000000e+01,2.600000000000000000e+01,2.200000000000000000e+01,2.100000000000000000e+01,2.600000000000000000e+01,6.199999999999999956e-01,8.385065800000000000e+09
2.900000000000000000e+01,7.200000000000000000e+01,5.640000000000000000e+02,7.500000000000000000e+01,2.500000000000000000e+01,2.400000000000000000e+01,2.100000000000000000e+01,2.700000000000000000e+01,6.199999999999999956e-01,8.403208900000000000e+09
2.900000000000000000e+01,7.300000000000000000e+01,5.390000000000000000e+02,7.300000000000000000e+01,2.500000000000000000e+01,2.500000000000000000e+01,2.200000000000000000e+01,2.600000000000000000e+01,6.099999999999999867e-01,8.421363100000000000e+09
3.300000000000000000e+01,8.400000000000000000e+01,5.260000000000000000e+02,7.700000000000000000e+01,2.700000000000000000e+01,2.500000000000000000e+01,2.200000000000000000e+01,2.700000000000000000e+01,6.099999999999999867e-01,8.439239300000000000e+09
3.200000000000000000e+01,8.500000000000000000e+01,4.740000000000000000e+02,7.200000000000000000e+01,2.600000000000000000e+01,2.400000000000000000e+01,2.200000000000000000e+01,2.500000000000000000e+01,6.099999999999999867e-01,8.459772800000000000e+09
3.300000000000000000e+01,8.900000000000000000e+01,3.490000000000000000e+02,6.600000000000000000e+01,2.600000000000000000e+01,2.500000000000000000e+01,2.200000000000000000e+01,2.600000000000000000e+01,6.099999999999999867e-01,8.481716900000000000e+09
3.100000000000000000e+01,8.500000000000000000e+01,3.040000000000000000e+02,5.900000000000000000e+01,2.800000000000000000e+01,2.300000000000000000e+01,2.100000000000000000e+01,2.500000000000000000e+01,6.099999999999999867e-01,8.499308200000000000e+09
3.300000000000000000e+01,1.080000000000000000e+02,3.780000000000000000e+02,9.100000000000000000e+01,2.900000000000000000e+01,2.400000000000000000e+01,2.200000000000000000e+01,2.500000000000000000e+01,5.999999999999999778e-01,8.518243500000000000e+09
3.100000000000000000e+01,1.270000000000000000e+02,4.380000000000000000e+02,9.000000000000000000e+01,2.900000000000000000e+01,2.400000000000000000e+01,2.100000000000000000e+01,2.300000000000000000e+01,5.999999999999999778e-01,8.542319200000000000e+09
3.700000000000000000e+01,1.420000000000000000e+02,4.920000000000000000e+02,1.100000000000000000e+02,3.300000000000000000e+01,2.700000000000000000e+01,2.400000000000000000e+01,2.500000000000000000e+01,5.999999999999999778e-01,8.561123700000000000e+09
3.700000000000000000e+01,1.440000000000000000e+02,5.660000000000000000e+02,1.260000000000000000e+02,3.700000000000000000e+01,3.200000000000000000e+01,2.400000000000000000e+01,2.400000000000000000e+01,5.999999999999999778e-01,8.578524400000000000e+09
5.700000000000000000e+01,1.860000000000000000e+02,6.520000000000000000e+02,1.860000000000000000e+02,5.500000000000000000e+01,4.200000000000000000e+01,2.800000000000000000e+01,3.100000000000000000e+01,5.999999999999999778e-01,8.596203100000000000e+09
8.000000000000000000e+01,2.510000000000000000e+02,7.690000000000000000e+02,2.100000000000000000e+02,8.800000000000000000e+01,5.700000000000000000e+01,3.500000000000000000e+01,4.500000000000000000e+01,5.899999999999999689e-01,8.616536000000000000e+09
9.100000000000000000e+01,2.720000000000000000e+02,8.390000000000000000e+02,2.450000000000000000e+02,1.250000000000000000e+02,6.600000000000000000e+01,3.800000000000000000e+01,5.100000000000000000e+01,5.799999999999999600e-01,8.639262200000000000e+09
1.020000000000000000e+02,2.980000000000000000e+02,9.620000000000000000e+02,3.000000000000000000e+02,1.460000000000000000e+02,7.200000000000000000e+01,4.200000000000000000e+01,5.800000000000000000e+01,5.600000000000000533e-01,8.659126000000000000e+09
1.060000000000000000e+02,3.250000000000000000e+02,1.013000000000000000e+03,3.180000000000000000e+02,1.500000000000000000e+02,7.200000000000000000e+01,4.300000000000000000e+01,6.000000000000000000e+01,5.400000000000000355e-01,8.677313600000000000e+09
1.160000000000000000e+02,3.110000000000000000e+02,1.069000000000000000e+03,3.550000000000000000e+02,1.530000000000000000e+02,7.400000000000000000e+01,5.000000000000000000e+01,6.800000000000000000e+01,5.200000000000000178e-01,8.698745700000000000e+09
1.380000000000000000e+02,3.730000000000000000e+02,1.142000000000000000e+03,5.340000000000000000e+02,1.720000000000000000e+02,8.500000000000000000e+01,5.500000000000000000e+01,8.000000000000000000e+01,5.000000000000000000e-01,8.717016700000000000e+09
1.410000000000000000e+02,3.780000000000000000e+02,1.186000000000000000e+03,5.450000000000000000e+02,1.550000000000000000e+02,8.000000000000000000e+01,5.500000000000000000e+01,8.000000000000000000e+01,4.799999999999999822e-01,8.735921700000000000e+09
1.670000000000000000e+02,4.800000000000000000e+02,1.210000000000000000e+03,6.020000000000000000e+02,1.650000000000000000e+02,9.800000000000000000e+01,6.200000000000000000e+01,9.200000000000000000e+01,4.500000000000000111e-01,8.758746300000000000e+09
1.830000000000000000e+02,5.380000000000000000e+02,1.216000000000000000e+03,6.440000000000000000e+02,1.790000000000000000e+02,1.040000000000000000e+02,6.400000000000000000e+01,9.900000000000000000e+01,4.299999999999999933e-01,8.776744300000000000e+09
1.820000000000000000e+02,5.720000000000000000e+02,1.240000000000000000e+03,6.530000000000000000e+02,1.850000000000000000e+02,1.040000000000000000e+02,6.200000000000000000e+01,9.600000000000000000e+01,4.000000000000000222e-01,8.796783900000000000e+09
1.650000000000000000e+02,5.320000000000000000e+02,1.196000000000000000e+03,5.380000000000000000e+02,1.630000000000000000e+02,9.400000000000000000e+01,5.700000000000000000e+01,8.700000000000000000e+01,3.599999999999999867e-01,8.819221400000000000e+09
1.650000000000000000e+02,5.480000000000000000e+02,1.165000000000000000e+03,5.690000000000000000e+02,1.700000000000000000e+02,9.600000000000000000e+01,5.600000000000000000e+01,8.700000000000000000e+01,3.300000000000000155e-01,8.837146300000000000e+09
1.360000000000000000e+02,4.580000000000000000e+02,1.122000000000000000e+03,5.160000000000000000e+02,1.470000000000000000e+02,7.200000000000000000e+01,5.100000000000000000e+01,7.400000000000000000e+01,3.099999999999999978e-01,8.855958100000000000e+09
1.210000000000000000e+02,3.960000000000000000e+02,1.102000000000000000e+03,4.810000000000000000e+02,1.380000000000000000e+02,7.200000000000000000e+01,5.100000000000000000e+01,6.800000000000000000e+01,2.899999999999999800e-01,8.879151800000000000e+09
1.140000000000000000e+02,3.540000000000000000e+02,1.048000000000000000e+03,4.580000000000000000e+02,1.270000000000000000e+02,7.000000000000000000e+01,4.900000000000000000e+01,6.700000000000000000e+01,2.800000000000000266e-01,8.898005600000000000e+09
1.310000000000000000e+02,4.070000000000000000e+02,1.024000000000000000e+03,5.090000000000000000e+02,1.380000000000000000e+02,7.700000000000000000e+01,5.400000000000000000e+01,7.500000000000000000e+01,2.700000000000000178e-01,8.924430100000000000e+09
1.520000000000000000e+02,3.830000000000000000e+02,9.590000000000000000e+02,5.470000000000000000e+02,1.530000000000000000e+02,9.200000000000000000e+01,6.200000000000000000e+01,8.800000000000000000e+01,2.600000000000000089e-01,8.943040700000000000e+09
1.660000000000000000e+02,4.790000000000000000e+02,9.400000000000000000e+02,5.310000000000000000e+02,1.530000000000000000e+02,9.800000000000000000e+01,6.100000000000000000e+01,9.000000000000000000e+01,2.600000000000000089e-01,8.961222400000000000e+09
1.740000000000000000e+02,5.280000000000000000e+02,1.023000000000000000e+03,5.740000000000000000e+02,1.500000000000000000e+02,9.300000000000000000e+01,6.200000000000000000e+01,9.200000000000000000e+01,2.399999999999999911e-01,8.984645500000000000e+09
1.850000000000000000e+02,5.470000000000000000e+02,9.880000000000000000e+02,5.830000000000000000e+02,1.630000000000000000e+02,9.900000000000000000e+01,6.500000000000000000e+01,9.800000000000000000e+01,2.300000000000000100e-01,9.002743400000000000e+09
1.760000000000000000e+02,5.220000000000000000e+02,9.910000000000000000e+02,5.310000000000000000e+02,1.510000000000000000e+02,9.300000000000000000e+01,5.900000000000000000e+01,9.200000000000000000e+01,2.300000000000000100e-01,9.021028200000000000e+09
1.600000000000000000e+02,5.200000000000000000e+02,9.980000000000000000e+02,4.380000000000000000e+02,1.300000000000000000e+02,8.100000000000000000e+01,5.100000000000000000e+01,8.000000000000000000e+01,2.200000000000000011e-01,9.039261100000000000e+09
1.500000000000000000e+02,4.370000000000000000e+02,9.860000000000000000e+02,4.540000000000000000e+02,1.360000000000000000e+02,8.000000000000000000e+01,5.100000000000000000e+01,7.900000000000000000e+01,2.200000000000000011e-01,9.058465600000000000e+09
1.480000000000000000e+02,4.000000000000000000e+02,8.950000000000000000e+02,3.960000000000000000e+02,1.430000000000000000e+02,8.700000000000000000e+01,5.100000000000000000e+01,8.100000000000000000e+01,2.200000000000000011e-01,9.076324000000000000e+09
1.430000000000000000e+02,3.840000000000000000e+02,9.930000000000000000e+02,3.810000000000000000e+02,1.360000000000000000e+02,8.400000000000000000e+01,5.100000000000000000e+01,7.800000000000000000e+01,2.099999999999999922e-01,9.097152300000000000e+09
1.370000000000000000e+02,3.780000000000000000e+02,9.950000000000000000e+02,3.580000000000000000e+02,1.320000000000000000e+02,8.200000000000000000e+01,4.900000000000000000e+01,7.400000000000000000e+01,2.099999999999999922e-01,9.118501600000000000e+09
1.620000000000000000e+02,4.440000000000000000e+02,1.057000000000000000e+03,4.550000000000000000e+02,1.550000000000000000e+02,9.300000000000000000e+01,5.700000000000000000e+01,8.700000000000000000e+01,2.000000000000000111e-01,9.141115200000000000e+09
1.660000000000000000e+02,4.640000000000000000e+02,1.052000000000000000e+03,4.400000000000000000e+02,1.600000000000000000e+02,9.500000000000000000e+01,5.800000000000000000e+01,8.800000000000000000e+01,2.000000000000000111e-01,9.159468000000000000e+09
1.680000000000000000e+02,4.500000000000000000e+02,1.044000000000000000e+03,4.410000000000000000e+02,1.610000000000000000e+02,9.600000000000000000e+01,6.000000000000000000e+01,8.900000000000000000e+01,1.900000000000000022e-01,9.178652500000000000e+09
1.720000000000000000e+02,4.400000000000000000e+02,9.410000000000000000e+02,4.360000000000000000e+02,1.590000000000000000e+02,9.700000000000000000e+01,5.900000000000000000e+01,9.100000000000000000e+01,1.799999999999999933e-01,9.201885300000000000e+09
1.710000000000000000e+02,4.110000000000000000e+02,9.060000000000000000e+02,4.380000000000000000e+02,1.580000000000000000e+02,9.500000000000000000e+01,5.900000000000000000e+01,9.000000000000000000e+01,1.799999999999999933e-01,9.219345000000000000e+09
1.390000000000000000e+02,3.250000000000000000e+02,9.420000000000000000e+02,3.620000000000000000e+02,1.400000000000000000e+02,8.100000000000000000e+01,5.100000000000000000e+01,7.400000000000000000e+01,1.799999999999999933e-01,9.238518100000000000e+09
1.410000000000000000e+02,3.210000000000000000e+02,1.012000000000000000e+03,3.770000000000000000e+02,1.390000000000000000e+02,7.900000000000000000e+01,5.100000000000000000e+01,7.700000000000000000e+01,1.799999999999999933e-01,9.261618600000000000e+09
1.340000000000000000e+02,3.590000000000000000e+02,1.016000000000000000e+03,3.710000000000000000e+02,1.350000000000000000e+02,7.400000000000000000e+01,4.400000000000000000e+01,7.200000000000000000e+01,1.799999999999999933e-01,9.279492000000000000e+09
1.340000000000000000e+02,4.180000000000000000e+02,1.068000000000000000e+03,3.960000000000000000e+02,1.420000000000000000e+02,7.800000000000000000e+01,4.700000000000000000e+01,6.900000000000000000e+01,1.799999999999999933e-01,9.299409700000000000e+09
1.350000000000000000e+02,4.340000000000000000e+02,1.103000000000000000e+03,4.090000000000000000e+02,1.470000000000000000e+02,8.400000000000000000e+01,5.000000000000000000e+01,7.000000000000000000e+01,1.700000000000000122e-01,9.330157300000000000e+09
1.500000000000000000e+02,4.780000000000000000e+02,1.111000000000000000e+03,4.560000000000000000e+02,1.530000000000000000e+02,8.800000000000000000e+01,5.600000000000000000e+01,7.900000000000000000e+01,1.700000000000000122e-01,9.348868500000000000e+09
1.420000000000000000e+02,4.500000000000000000e+02,1.025000000000000000e+03,4.650000000000000000e+02,1.440000000000000000e+02,8.300000000000000000e+01,5.300000000000000000e+01,7.400000000000000000e+01,1.700000000000000122e-01,9.369654200000000000e+09
1.360000000000000000e+02,4.200000000000000000e+02,1.003000000000000000e+03,4.760000000000000000e+02,1.380000000000000000e+02,8.200000000000000000e+01,5.200000000000000000e+01,7.200000000000000000e+01,1.600000000000000033e-01,9.389056400000000000e+09
1.430000000000000000e+02,4.100000000000000000e+02,9.620000000000000000e+02,5.040000000000000000e+02,1.440000000000000000e+02,8.300000000000000000e+01,5.200000000000000000e+01,8.000000000000000000e+01,1.700000000000000122e-01,9.406967700000000000e+09
1.750000000000000000e+02,4.690000000000000000e+02,8.970000000000000000e+02,5.610000000000000000e+02,1.820000000000000000e+02,1.000000000000000000e+02,6.500000000000000000e+01,1.010000000000000000e+02,1.700000000000000122e-01,9.427186500000000000e+09
1.610000000000000000e+02,4.230000000000000000e+02,8.150000000000000000e+02,5.190000000000000000e+02,1.800000000000000000e+02,9.500000000000000000e+01,5.800000000000000000e+01,9.300000000000000000e+01,1.700000000000000122e-01,9.448595400000000000e+09
1.560000000000000000e+02,4.210000000000000000e+02,8.120000000000000000e+02,4.880000000000000000e+02,1.780000000000000000e+02,9.400000000000000000e+01,5.700000000000000000e+01,9.000000000000000000e+01,1.600000000000000033e-01,9.467190300000000000e+09
1.520000000000000000e+02,3.900000000000000000e+02,8.960000000000000000e+02,4.630000000000000000e+02,1.730000000000000000e+02,9.200000000000000000e+01,5.700000000000000000e+01,8.900000000000000000e+01,1.600000000000000033e-01,9.484935800000000000e+09
1.300000000000000000e+02,3.390000000000000000e+02,9.370000000000000000e+02,3.870000000000000000e+02,1.570000000000000000e+02,8.200000000000000000e+01,5.300000000000000000e+01,7.900000000000000000e+01,1.600000000000000033e-01,9.503489500000000000e+09
8.300000000000000000e+01,2.350000000000000000e+02,9.500000000000000000e+02,2.930000000000000000e+02,1.090000000000000000e+02,5.700000000000000000e+01,3.800000000000000000e+01,4.800000000000000000e+01,1.600000000000000033e-01,9.520985200000000000e+09
1.010000000000000000e+02,3.000000000000000000e+02,9.220000000000000000e+02,3.060000000000000000e+02,1.100000000000000000e+02,6.500000000000000000e+01,4.300000000000000000e+01,5.800000000000000000e+01,1.700000000000000122e-01,9.539786100000000000e+09
1.110000000000000000e+02,3.220000000000000000e+02,9.130000000000000000e+02,3.440000000000000000e+02,1.150000000000000000e+02,6.700000000000000000e+01,4.300000000000000000e+01,6.100000000000000000e+01,1.799999999999999933e-01,9.562072500000000000e+09
1.060000000000000000e+02,3.370000000000000000e+02,7.990000000000000000e+02,3.370000000000000000e+02,1.150000000000000000e+02,6.500000000000000000e+01,4.300000000000000000e+01,5.800000000000000000e+01,1.799999999999999933e-01,9.580101000000000000e+09
1.060000000000000000e+02,3.500000000000000000e+02,7.700000000000000000e+02,3.520000000000000000e+02,1.140000000000000000e+02,6.600000000000000000e+01,4.300000000000000000e+01,5.700000000000000000e+01,1.900000000000000022e-01,9.606613500000000000e+09
1.090000000000000000e+02,3.430000000000000000e+02,7.670000000000000000e+02,3.640000000000000000e+02,1.160000000000000000e+02,6.700000000000000000e+01,4.300000000000000000e+01,6.100000000000000000e+01,2.000000000000000111e-01,9.624040100000000000e+09
9.200000000000000000e+01,3.020000000000000000e+02,7.310000000000000000e+02,3.380000000000000000e+02,9.600000000000000000e+01,5.600000000000000000e+01,3.800000000000000000e+01,5.300000000000000000e+01,2.099999999999999922e-01,9.642057700000000000e+09
8.600000000000000000e+01,3.110000000000000000e+02,7.770000000000000000e+02,2.990000000000000000e+02,8.800000000000000000e+01,5.100000000000000000e+01,3.900000000000000000e+01,5.000000000000000000e+01,2.200000000000000011e-01,9.666911200000000000e+09
8.700000000000000000e+01,3.040000000000000000e+02,8.200000000000000000e+02,2.970000000000000000e+02,9.000000000000000000e+01,5.200000000000000000e+01,3.800000000000000000e+01,5.000000000000000000e+01,2.300000000000000100e-01,9.684423300000000000e+09
8.700000000000000000e+01,2.930000000000000000e+02,7.910000000000000000e+02,2.900000000000000000e+02,9.800000000000000000e+01,5.200000000000000000e+01,3.900000000000000000e+01,5.100000000000000000e+01,2.500000000000000000e-01,9.702351400000000000e+09
8.400000000000000000e+01,3.080000000000000000e+02,8.210000000000000000e+02,2.970000000000000000e+02,9.600000000000000000e+01,4.900000000000000000e+01,3.900000000000000000e+01,5.000000000000000000e+01,2.600000000000000089e-01,9.719799800000000000e+09
8.700000000000000000e+01,2.930000000000000000e+02,8.430000000000000000e+02,2.880000000000000000e+02,9.800000000000000000e+01,5.300000000000000000e+01,3.900000000000000000e+01,5.200000000000000000e+01,2.800000000000000266e-01,9.740835600000000000e+09
8.000000000000000000e+01,2.520000000000000000e+02,7.740000000000000000e+02,2.650000000000000000e+02,9.200000000000000000e+01,5.100000000000000000e+01,3.700000000000000000e+01,5.000000000000000000e+01,2.899999999999999800e-01,9.759449800000000000e+09
8.600000000000000000e+01,2.480000000000000000e+02,8.260000000000000000e+02,2.600000000000000000e+02,9.600000000000000000e+01,5.600000000000000000e+01,4.100000000000000000e+01,5.600000000000000000e+01,2.999999999999999889e-01,9.777950600000000000e+09
9.300000000000000000e+01,2.520000000000000000e+02,8.660000000000000000e+02,2.630000000000000000e+02,9.500000000000000000e+01,5.900000000000000000e+01,4.200000000000000000e+01,5.700000000000000000e+01,3.099999999999999978e-01,9.801388200000000000e+09
8.300000000000000000e+01,2.360000000000000000e+02,9.080000000000000000e+02,2.190000000000000000e+02,8.400000000000000000e+01,5.400000000000000000e+01,3.600000000000000000e+01,5.100000000000000000e+01,3.200000000000000067e-01,9.820234900000000000e+09
8.300000000000000000e+01,2.450000000000000000e+02,9.730000000000000000e+02,2.390000000000000000e+02,8.800000000000000000e+01,5.400000000000000000e+01,3.600000000000000000e+01,4.900000000000000000e+01,3.300000000000000155e-01,9.838851900000000000e+09
9.600000000000000000e+01,2.790000000000000000e+02,1.030000000000000000e+03,2.590000000000000000e+02,9.200000000000000000e+01,5.900000000000000000e+01,4.000000000000000000e+01,5.700000000000000000e+01,3.400000000000000244e-01,9.869550500000000000e+09
9.800000000000000000e+01,3.140000000000000000e+02,9.660000000000000000e+02,2.630000000000000000e+02,9.200000000000000000e+01,6.100000000000000000e+01,4.000000000000000000e+01,5.700000000000000000e+01,3.300000000000000155e-01,9.887326300000000000e+09
9.300000000000000000e+01,3.160000000000000000e+02,9.330000000000000000e+02,2.370000000000000000e+02,9.300000000000000000e+01,6.000000000000000000e+01,3.700000000000000000e+01,5.600000000000000000e+01,3.400000000000000244e-01,9.906802600000000000e+09
9.200000000000000000e+01,2.930000000000000000e+02,8.530000000000000000e+02,2.480000000000000000e+02,9.300000000000000000e+01,6.100000000000000000e+01,3.700000000000000000e+01,5.500000000000000000e+01,3.400000000000000244e-01,9.924323500000000000e+09
8.500000000000000000e+01,2.770000000000000000e+02,7.600000000000000000e+02,2.190000000000000000e+02,8.900000000000000000e+01,5.800000000000000000e+01,3.700000000000000000e+01,5.300000000000000000e+01,3.400000000000000244e-01,9.942365700000000000e+09
7.300000000000000000e+01,2.640000000000000000e+02,7.480000000000000000e+02,2.110000000000000000e+02,8.300000000000000000e+01,5.400000000000000000e+01,3.300000000000000000e+01,4.500000000000000000e+01,3.499999999999999778e-01,9.962193500000000000e+09
5.900000000000000000e+01,2.120000000000000000e+02,7.610000000000000000e+02,2.080000000000000000e+02,7.300000000000000000e+01,4.300000000000000000e+01,2.900000000000000000e+01,3.600000000000000000e+01,3.499999999999999778e-01,9.982004300000000000e+09
5.800000000000000000e+01,1.980000000000000000e+02,7.990000000000000000e+02,2.080000000000000000e+02,5.900000000000000000e+01,4.000000000000000000e+01,3.000000000000000000e+01,3.700000000000000000e+01,3.599999999999999867e-01,1.000019960000000000e+10
6.200000000000000000e+01,2.140000000000000000e+02,7.960000000000000000e+02,1.990000000000000000e+02,5.500000000000000000e+01,3.800000000000000000e+01,3.000000000000000000e+01,3.700000000000000000e+01,3.699999999999999956e-01,1.001809100000000000e+10
6.300000000000000000e+01,2.160000000000000000e+02,7.940000000000000000e+02,1.990000000000000000e+02,5.200000000000000000e+01,3.700000000000000000e+01,3.000000000000000000e+01,3.600000000000000000e+01,3.800000000000000044e-01,1.004145340000000000e+10
5.800000000000000000e+01,1.880000000000000000e+02,7.220000000000000000e+02,1.830000000000000000e+02,5.100000000000000000e+01,3.600000000000000000e+01,2.800000000000000000e+01,3.500000000000000000e+01,3.900000000000000133e-01,1.006457590000000000e+10
6.100000000000000000e+01,1.820000000000000000e+02,6.720000000000000000e+02,1.720000000000000000e+02,5.300000000000000000e+01,3.700000000000000000e+01,2.900000000000000000e+01,3.900000000000000000e+01,4.000000000000000222e-01,1.008343060000000000e+10
