1.080000000000000000e+02,3.300000000000000000e+02,9.090000000000000000e+02,5.470000000000000000e+02,1.410000000000000000e+02,1.410000000000000000e+02,5.900000000000000000e+01,9.100000000000000000e+01,5.000000000000000000e-01,4.254376000000000000e+08
1.080000000000000000e+02,2.990000000000000000e+02,7.610000000000000000e+02,5.580000000000000000e+02,1.440000000000000000e+02,1.420000000000000000e+02,6.000000000000000000e+01,7.100000000000000000e+01,4.899999999999999911e-01,4.551217000000000000e+08
1.080000000000000000e+02,2.830000000000000000e+02,7.040000000000000000e+02,5.420000000000000000e+02,1.390000000000000000e+02,1.460000000000000000e+02,5.900000000000000000e+01,7.000000000000000000e+01,4.799999999999999822e-01,7.839168000000000000e+08
1.090000000000000000e+02,2.720000000000000000e+02,4.970000000000000000e+02,3.540000000000000000e+02,9.900000000000000000e+01,1.500000000000000000e+02,5.200000000000000000e+01,5.700000000000000000e+01,4.699999999999999734e-01,8.018808000000000000e+08
1.050000000000000000e+02,2.760000000000000000e+02,5.170000000000000000e+02,2.630000000000000000e+02,9.900000000000000000e+01,1.520000000000000000e+02,4.900000000000000000e+01,5.300000000000000000e+01,4.699999999999999734e-01,8.195914000000000000e+08
8.700000000000000000e+01,2.270000000000000000e+02,3.850000000000000000e+02,2.240000000000000000e+02,8.100000000000000000e+01,1.330000000000000000e+02,3.900000000000000000e+01,5.000000000000000000e+01,4.699999999999999734e-01,8.363669000000000000e+08
7.300000000000000000e+01,2.170000000000000000e+02,3.520000000000000000e+02,1.720000000000000000e+02,7.200000000000000000e+01,1.260000000000000000e+02,4.600000000000000000e+01,4.600000000000000000e+01,4.799999999999999822e-01,8.533660000000000000e+08
6.400000000000000000e+01,2.130000000000000000e+02,3.080000000000000000e+02,1.570000000000000000e+02,5.700000000000000000e+01,1.230000000000000000e+02,4.800000000000000000e+01,3.900000000000000000e+01,4.899999999999999911e-01,8.729466000000000000e+08
6.400000000000000000e+01,2.190000000000000000e+02,3.750000000000000000e+02,1.500000000000000000e+02,6.100000000000000000e+01,1.270000000000000000e+02,4.800000000000000000e+01,3.900000000000000000e+01,5.000000000000000000e-01,8.898244000000000000e+08
7.300000000000000000e+01,2.210000000000000000e+02,5.520000000000000000e+02,1.960000000000000000e+02,6.300000000000000000e+01,1.530000000000000000e+02,4.700000000000000000e+01,4.200000000000000000e+01,5.100000000000000089e-01,9.063485000000000000e+08
6.800000000000000000e+01,2.090000000000000000e+02,5.710000000000000000e+02,1.990000000000000000e+02,6.100000000000000000e+01,1.540000000000000000e+02,4.800000000000000000e+01,4.000000000000000000e+01,5.200000000000000178e-01,9.227637000000000000e+08
6.900000000000000000e+01,2.010000000000000000e+02,6.320000000000000000e+02,2.100000000000000000e+02,5.500000000000000000e+01,1.560000000000000000e+02,3.900000000000000000e+01,4.100000000000000000e+01,5.400000000000000355e-01,9.390254000000000000e+08
6.700000000000000000e+01,1.980000000000000000e+02,6.650000000000000000e+02,2.130000000000000000e+02,6.400000000000000000e+01,1.760000000000000000e+02,4.600000000000000000e+01,4.400000000000000000e+01,5.500000000000000444e-01,9.554773000000000000e+08
6.900000000000000000e+01,2.370000000000000000e+02,7.460000000000000000e+02,2.090000000000000000e+02,6.000000000000000000e+01,1.920000000000000000e+02,5.300000000000000000e+01,4.800000000000000000e+01,5.600000000000000533e-01,9.753406000000000000e+08
5.600000000000000000e+01,2.450000000000000000e+02,6.870000000000000000e+02,1.660000000000000000e+02,6.000000000000000000e+01,1.610000000000000000e+02,5.600000000000000000e+01,4.300000000000000000e+01,5.600000000000000533e-01,9.928031000000000000e+08
6.200000000000000000e+01,2.650000000000000000e+02,7.240000000000000000e+02,1.530000000000000000e+02,5.900000000000000000e+01,1.550000000000000000e+02,5.800000000000000000e+01,4.300000000000000000e+01,5.600000000000000533e-01,1.009489600000000000e+09
7.400000000000000000e+01,2.660000000000000000e+02,7.540000000000000000e+02,1.670000000000000000e+02,7.100000000000000000e+01,1.980000000000000000e+02,7.200000000000000000e+01,1.540000000000000000e+02,5.500000000000000444e-01,1.026780800000000000e+09
8.300000000000000000e+01,2.620000000000000000e+02,7.930000000000000000e+02,1.800000000000000000e+02,8.500000000000000000e+01,1.800000000000000000e+02,6.600000000000000000e+01,1.690000000000000000e+02,5.400000000000000355e-01,1.043518800000000000e+09
8.500000000000000000e+01,2.350000000000000000e+02,7.740000000000000000e+02,2.050000000000000000e+02,1.120000000000000000e+02,1.900000000000000000e+02,8.300000000000000000e+01,1.820000000000000000e+02,5.200000000000000178e-01,1.077788600000000000e+09
1.040000000000000000e+02,2.490000000000000000e+02,8.170000000000000000e+02,2.730000000000000000e+02,1.470000000000000000e+02,2.710000000000000000e+02,1.110000000000000000e+02,2.540000000000000000e+02,5.000000000000000000e-01,1.094908700000000000e+09
1.270000000000000000e+02,2.920000000000000000e+02,8.600000000000000000e+02,3.030000000000000000e+02,1.650000000000000000e+02,2.800000000000000000e+02,1.110000000000000000e+02,2.630000000000000000e+02,4.799999999999999822e-01,1.111420100000000000e+09
1.300000000000000000e+02,3.140000000000000000e+02,8.970000000000000000e+02,3.560000000000000000e+02,1.700000000000000000e+02,2.580000000000000000e+02,1.050000000000000000e+02,2.220000000000000000e+02,4.600000000000000200e-01,1.127662800000000000e+09
1.280000000000000000e+02,3.190000000000000000e+02,9.270000000000000000e+02,3.500000000000000000e+02,1.670000000000000000e+02,2.680000000000000000e+02,1.150000000000000000e+02,2.130000000000000000e+02,4.299999999999999933e-01,1.145497100000000000e+09
1.230000000000000000e+02,3.040000000000000000e+02,8.890000000000000000e+02,3.470000000000000000e+02,1.520000000000000000e+02,2.630000000000000000e+02,1.130000000000000000e+02,2.020000000000000000e+02,4.099999999999999756e-01,1.165221100000000000e+09
1.170000000000000000e+02,2.670000000000000000e+02,9.050000000000000000e+02,3.040000000000000000e+02,1.310000000000000000e+02,2.650000000000000000e+02,9.700000000000000000e+01,1.080000000000000000e+02,3.900000000000000133e-01,1.182494600000000000e+09
1.010000000000000000e+02,1.960000000000000000e+02,9.490000000000000000e+02,2.880000000000000000e+02,1.210000000000000000e+02,4.250000000000000000e+02,1.170000000000000000e+02,1.480000000000000000e+02,3.800000000000000044e-01,1.199039100000000000e+09
9.700000000000000000e+01,1.640000000000000000e+02,9.880000000000000000e+02,2.200000000000000000e+02,1.180000000000000000e+02,4.400000000000000000e+02,1.200000000000000000e+02,1.530000000000000000e+02,3.599999999999999867e-01,1.215843400000000000e+09
1.030000000000000000e+02,1.540000000000000000e+02,9.820000000000000000e+02,2.290000000000000000e+02,1.230000000000000000e+02,4.600000000000000000e+02,1.420000000000000000e+02,1.600000000000000000e+02,3.499999999999999778e-01,1.235518700000000000e+09
1.010000000000000000e+02,1.680000000000000000e+02,1.012000000000000000e+03,2.520000000000000000e+02,1.440000000000000000e+02,5.370000000000000000e+02,1.450000000000000000e+02,2.000000000000000000e+02,3.400000000000000244e-01,1.253801400000000000e+09
9.800000000000000000e+01,1.700000000000000000e+02,9.960000000000000000e+02,2.550000000000000000e+02,1.400000000000000000e+02,5.310000000000000000e+02,1.840000000000000000e+02,2.390000000000000000e+02,3.400000000000000244e-01,1.273929600000000000e+09
9.500000000000000000e+01,1.770000000000000000e+02,9.450000000000000000e+02,2.430000000000000000e+02,1.380000000000000000e+02,4.390000000000000000e+02,1.850000000000000000e+02,2.700000000000000000e+02,3.300000000000000155e-01,1.291538600000000000e+09
9.400000000000000000e+01,1.820000000000000000e+02,9.170000000000000000e+02,2.730000000000000000e+02,1.390000000000000000e+02,4.550000000000000000e+02,1.960000000000000000e+02,2.800000000000000000e+02,3.400000000000000244e-01,1.308205200000000000e+09
9.600000000000000000e+01,1.810000000000000000e+02,9.290000000000000000e+02,2.700000000000000000e+02,1.370000000000000000e+02,4.650000000000000000e+02,2.010000000000000000e+02,2.970000000000000000e+02,3.400000000000000244e-01,1.324395800000000000e+09
1.310000000000000000e+02,1.780000000000000000e+02,9.750000000000000000e+02,2.700000000000000000e+02,1.450000000000000000e+02,3.850000000000000000e+02,2.300000000000000000e+02,2.940000000000000000e+02,3.499999999999999778e-01,1.341167600000000000e+09
1.350000000000000000e+02,1.780000000000000000e+02,9.330000000000000000e+02,2.850000000000000000e+02,1.520000000000000000e+02,3.670000000000000000e+02,1.990000000000000000e+02,2.720000000000000000e+02,3.499999999999999778e-01,1.359297600000000000e+09
1.420000000000000000e+02,2.000000000000000000e+02,9.370000000000000000e+02,3.220000000000000000e+02,1.610000000000000000e+02,3.720000000000000000e+02,2.070000000000000000e+02,2.160000000000000000e+02,3.499999999999999778e-01,1.378560300000000000e+09
1.470000000000000000e+02,1.990000000000000000e+02,8.700000000000000000e+02,3.440000000000000000e+02,1.600000000000000000e+02,3.590000000000000000e+02,2.020000000000000000e+02,2.150000000000000000e+02,3.499999999999999778e-01,1.395506200000000000e+09
1.480000000000000000e+02,2.350000000000000000e+02,9.550000000000000000e+02,3.630000000000000000e+02,1.600000000000000000e+02,3.220000000000000000e+02,1.780000000000000000e+02,1.870000000000000000e+02,3.499999999999999778e-01,1.411800000000000000e+09
1.210000000000000000e+02,2.470000000000000000e+02,9.390000000000000000e+02,3.740000000000000000e+02,1.360000000000000000e+02,3.160000000000000000e+02,1.440000000000000000e+02,1.480000000000000000e+02,3.400000000000000244e-01,1.428530600000000000e+09
1.160000000000000000e+02,2.480000000000000000e+02,9.520000000000000000e+02,3.630000000000000000e+02,1.190000000000000000e+02,3.030000000000000000e+02,1.470000000000000000e+02,1.290000000000000000e+02,3.400000000000000244e-01,1.445539900000000000e+09
1.100000000000000000e+02,2.230000000000000000e+02,9.120000000000000000e+02,3.380000000000000000e+02,1.090000000000000000e+02,3.140000000000000000e+02,1.380000000000000000e+02,1.230000000000000000e+02,3.499999999999999778e-01,1.466043200000000000e+09
1.060000000000000000e+02,2.370000000000000000e+02,1.013000000000000000e+03,3.000000000000000000e+02,1.110000000000000000e+02,3.100000000000000000e+02,1.490000000000000000e+02,1.560000000000000000e+02,3.499999999999999778e-01,1.484837900000000000e+09
1.000000000000000000e+02,2.130000000000000000e+02,9.510000000000000000e+02,2.830000000000000000e+02,1.080000000000000000e+02,3.130000000000000000e+02,1.460000000000000000e+02,1.550000000000000000e+02,3.599999999999999867e-01,1.501437800000000000e+09
9.700000000000000000e+01,1.960000000000000000e+02,9.300000000000000000e+02,2.600000000000000000e+02,1.030000000000000000e+02,3.050000000000000000e+02,1.360000000000000000e+02,1.570000000000000000e+02,3.599999999999999867e-01,1.517756500000000000e+09
9.200000000000000000e+01,1.880000000000000000e+02,9.750000000000000000e+02,2.840000000000000000e+02,1.120000000000000000e+02,3.360000000000000000e+02,1.380000000000000000e+02,1.650000000000000000e+02,3.599999999999999867e-01,1.533999700000000000e+09
8.300000000000000000e+01,2.030000000000000000e+02,1.006000000000000000e+03,2.850000000000000000e+02,9.800000000000000000e+01,2.790000000000000000e+02,1.260000000000000000e+02,1.590000000000000000e+02,3.599999999999999867e-01,1.551949700000000000e+09
7.200000000000000000e+01,1.740000000000000000e+02,9.780000000000000000e+02,3.000000000000000000e+02,9.100000000000000000e+01,2.660000000000000000e+02,1.020000000000000000e+02,9.200000000000000000e+01,3.699999999999999956e-01,1.571991400000000000e+09
6.900000000000000000e+01,1.540000000000000000e+02,9.670000000000000000e+02,3.090000000000000000e+02,8.800000000000000000e+01,2.620000000000000000e+02,1.230000000000000000e+02,9.600000000000000000e+01,3.699999999999999956e-01,1.588936200000000000e+09
6.800000000000000000e+01,1.650000000000000000e+02,9.580000000000000000e+02,2.920000000000000000e+02,8.800000000000000000e+01,2.790000000000000000e+02,1.220000000000000000e+02,1.000000000000000000e+02,3.800000000000000044e-01,1.605154900000000000e+09
7.200000000000000000e+01,1.640000000000000000e+02,9.080000000000000000e+02,2.530000000000000000e+02,8.100000000000000000e+01,2.920000000000000000e+02,1.120000000000000000e+02,8.100000000000000000e+01,3.900000000000000133e-01,1.621543100000000000e+09
8.500000000000000000e+01,1.850000000000000000e+02,8.790000000000000000e+02,2.700000000000000000e+02,9.800000000000000000e+01,3.060000000000000000e+02,1.590000000000000000e+02,1.080000000000000000e+02,3.900000000000000133e-01,1.637794000000000000e+09
9.800000000000000000e+01,1.860000000000000000e+02,8.330000000000000000e+02,2.360000000000000000e+02,1.020000000000000000e+02,3.210000000000000000e+02,1.760000000000000000e+02,1.130000000000000000e+02,3.900000000000000133e-01,1.654306700000000000e+09
9.400000000000000000e+01,1.870000000000000000e+02,7.700000000000000000e+02,2.500000000000000000e+02,1.100000000000000000e+02,3.370000000000000000e+02,1.670000000000000000e+02,1.060000000000000000e+02,4.000000000000000222e-01,1.675325100000000000e+09
9.700000000000000000e+01,1.920000000000000000e+02,8.280000000000000000e+02,2.530000000000000000e+02,1.090000000000000000e+02,3.480000000000000000e+02,1.750000000000000000e+02,1.000000000000000000e+02,4.000000000000000222e-01,1.692472100000000000e+09
9.300000000000000000e+01,2.030000000000000000e+02,8.660000000000000000e+02,2.770000000000000000e+02,1.080000000000000000e+02,3.170000000000000000e+02,1.890000000000000000e+02,1.200000000000000000e+02,4.099999999999999756e-01,1.708757100000000000e+09
8.600000000000000000e+01,1.860000000000000000e+02,8.980000000000000000e+02,2.740000000000000000e+02,1.030000000000000000e+02,3.100000000000000000e+02,1.580000000000000000e+02,1.180000000000000000e+02,4.099999999999999756e-01,1.724995900000000000e+09
6.800000000000000000e+01,1.810000000000000000e+02,8.580000000000000000e+02,2.760000000000000000e+02,9.400000000000000000e+01,3.020000000000000000e+02,1.490000000000000000e+02,1.160000000000000000e+02,4.199999999999999845e-01,1.741412900000000000e+09
7.400000000000000000e+01,1.830000000000000000e+02,8.260000000000000000e+02,2.470000000000000000e+02,9.100000000000000000e+01,2.780000000000000000e+02,1.470000000000000000e+02,1.190000000000000000e+02,4.199999999999999845e-01,1.759559500000000000e+09
6.700000000000000000e+01,1.600000000000000000e+02,7.560000000000000000e+02,2.330000000000000000e+02,9.200000000000000000e+01,2.980000000000000000e+02,1.920000000000000000e+02,1.200000000000000000e+02,4.199999999999999845e-01,1.777953400000000000e+09
7.400000000000000000e+01,1.530000000000000000e+02,7.350000000000000000e+02,3.030000000000000000e+02,9.500000000000000000e+01,2.950000000000000000e+02,1.790000000000000000e+02,1.220000000000000000e+02,4.299999999999999933e-01,1.795203100000000000e+09
7.400000000000000000e+01,1.510000000000000000e+02,7.160000000000000000e+02,3.420000000000000000e+02,1.020000000000000000e+02,3.000000000000000000e+02,1.770000000000000000e+02,1.080000000000000000e+02,4.400000000000000022e-01,1.813121700000000000e+09
7.800000000000000000e+01,1.490000000000000000e+02,7.910000000000000000e+02,3.610000000000000000e+02,9.900000000000000000e+01,2.770000000000000000e+02,1.690000000000000000e+02,1.030000000000000000e+02,4.500000000000000111e-01,1.831284800000000000e+09
7.900000000000000000e+01,1.550000000000000000e+02,8.280000000000000000e+02,3.810000000000000000e+02,1.030000000000000000e+02,2.730000000000000000e+02,1.770000000000000000e+02,9.900000000000000000e+01,4.600000000000000200e-01,1.849186200000000000e+09
9.100000000000000000e+01,1.740000000000000000e+02,8.490000000000000000e+02,4.080000000000000000e+02,1.010000000000000000e+02,2.120000000000000000e+02,1.070000000000000000e+02,9.500000000000000000e+01,4.600000000000000200e-01,1.868265000000000000e+09
9.700000000000000000e+01,1.870000000000000000e+02,8.210000000000000000e+02,4.530000000000000000e+02,1.130000000000000000e+02,1.780000000000000000e+02,1.030000000000000000e+02,6.600000000000000000e+01,4.699999999999999734e-01,1.885169900000000000e+09
1.160000000000000000e+02,1.900000000000000000e+02,8.750000000000000000e+02,4.760000000000000000e+02,1.110000000000000000e+02,1.840000000000000000e+02,1.020000000000000000e+02,6.800000000000000000e+01,4.799999999999999822e-01,1.901822600000000000e+09
1.150000000000000000e+02,1.960000000000000000e+02,8.060000000000000000e+02,4.980000000000000000e+02,1.120000000000000000e+02,1.920000000000000000e+02,1.020000000000000000e+02,6.600000000000000000e+01,4.899999999999999911e-01,1.918772000000000000e+09
1.160000000000000000e+02,2.030000000000000000e+02,8.920000000000000000e+02,5.170000000000000000e+02,1.160000000000000000e+02,2.040000000000000000e+02,8.900000000000000000e+01,6.700000000000000000e+01,5.000000000000000000e-01,1.935610500000000000e+09
1.110000000000000000e+02,1.900000000000000000e+02,8.760000000000000000e+02,5.210000000000000000e+02,1.150000000000000000e+02,2.000000000000000000e+02,8.900000000000000000e+01,6.800000000000000000e+01,5.000000000000000000e-01,1.952105800000000000e+09
1.060000000000000000e+02,1.980000000000000000e+02,9.410000000000000000e+02,4.680000000000000000e+02,1.000000000000000000e+02,1.990000000000000000e+02,8.800000000000000000e+01,6.600000000000000000e+01,5.100000000000000089e-01,1.971290800000000000e+09
8.500000000000000000e+01,1.980000000000000000e+02,8.930000000000000000e+02,4.240000000000000000e+02,8.800000000000000000e+01,2.300000000000000000e+02,9.700000000000000000e+01,5.200000000000000000e+01,5.100000000000000089e-01,1.988801100000000000e+09
9.700000000000000000e+01,2.170000000000000000e+02,9.140000000000000000e+02,4.100000000000000000e+02,1.090000000000000000e+02,2.320000000000000000e+02,9.200000000000000000e+01,5.500000000000000000e+01,5.100000000000000089e-01,2.005471000000000000e+09
9.400000000000000000e+01,2.050000000000000000e+02,8.470000000000000000e+02,3.800000000000000000e+02,1.080000000000000000e+02,2.310000000000000000e+02,9.000000000000000000e+01,5.200000000000000000e+01,5.100000000000000089e-01,2.021692100000000000e+09
9.700000000000000000e+01,2.080000000000000000e+02,8.570000000000000000e+02,3.740000000000000000e+02,1.110000000000000000e+02,2.280000000000000000e+02,9.200000000000000000e+01,5.200000000000000000e+01,5.000000000000000000e-01,2.038173500000000000e+09
1.130000000000000000e+02,1.970000000000000000e+02,9.370000000000000000e+02,3.850000000000000000e+02,1.280000000000000000e+02,2.550000000000000000e+02,9.300000000000000000e+01,5.400000000000000000e+01,5.000000000000000000e-01,2.055598500000000000e+09
1.110000000000000000e+02,1.940000000000000000e+02,9.970000000000000000e+02,3.780000000000000000e+02,1.290000000000000000e+02,2.150000000000000000e+02,6.900000000000000000e+01,5.100000000000000000e+01,4.899999999999999911e-01,2.074051400000000000e+09
1.090000000000000000e+02,1.750000000000000000e+02,1.015000000000000000e+03,3.630000000000000000e+02,1.250000000000000000e+02,2.110000000000000000e+02,7.100000000000000000e+01,5.600000000000000000e+01,4.799999999999999822e-01,2.091958200000000000e+09
1.100000000000000000e+02,1.940000000000000000e+02,1.043000000000000000e+03,3.500000000000000000e+02,1.170000000000000000e+02,1.980000000000000000e+02,7.600000000000000000e+01,5.600000000000000000e+01,4.699999999999999734e-01,2.108577400000000000e+09
1.080000000000000000e+02,1.950000000000000000e+02,1.068000000000000000e+03,4.080000000000000000e+02,1.180000000000000000e+02,1.870000000000000000e+02,7.300000000000000000e+01,5.400000000000000000e+01,4.600000000000000200e-01,2.124795600000000000e+09
1.110000000000000000e+02,2.100000000000000000e+02,9.610000000000000000e+02,3.930000000000000000e+02,1.190000000000000000e+02,1.600000000000000000e+02,7.000000000000000000e+01,6.000000000000000000e+01,4.500000000000000111e-01,2.141478500000000000e+09
1.200000000000000000e+02,2.050000000000000000e+02,8.820000000000000000e+02,4.010000000000000000e+02,1.370000000000000000e+02,1.520000000000000000e+02,7.500000000000000000e+01,6.400000000000000000e+01,4.400000000000000022e-01,2.158085500000000000e+09
1.100000000000000000e+02,2.030000000000000000e+02,8.840000000000000000e+02,4.040000000000000000e+02,1.260000000000000000e+02,1.410000000000000000e+02,7.000000000000000000e+01,5.500000000000000000e+01,4.299999999999999933e-01,2.178131300000000000e+09
1.240000000000000000e+02,1.960000000000000000e+02,8.300000000000000000e+02,4.650000000000000000e+02,1.520000000000000000e+02,1.660000000000000000e+02,6.100000000000000000e+01,6.600000000000000000e+01,4.199999999999999845e-01,2.195615700000000000e+09
1.300000000000000000e+02,2.230000000000000000e+02,7.700000000000000000e+02,4.240000000000000000e+02,1.600000000000000000e+02,1.750000000000000000e+02,6.000000000000000000e+01,6.900000000000000000e+01,4.099999999999999756e-01,2.212044200000000000e+09
1.150000000000000000e+02,1.950000000000000000e+02,7.820000000000000000e+02,4.580000000000000000e+02,1.470000000000000000e+02,1.580000000000000000e+02,5.900000000000000000e+01,6.100000000000000000e+01,4.000000000000000222e-01,2.228014500000000000e+09
1.240000000000000000e+02,1.960000000000000000e+02,7.970000000000000000e+02,4.500000000000000000e+02,1.440000000000000000e+02,1.660000000000000000e+02,4.700000000000000000e+01,6.500000000000000000e+01,4.000000000000000222e-01,2.244522200000000000e+09
1.370000000000000000e+02,1.940000000000000000e+02,8.480000000000000000e+02,4.350000000000000000e+02,1.460000000000000000e+02,1.800000000000000000e+02,4.900000000000000000e+01,7.600000000000000000e+01,4.000000000000000222e-01,2.262598000000000000e+09
1.320000000000000000e+02,2.040000000000000000e+02,8.890000000000000000e+02,3.950000000000000000e+02,1.210000000000000000e+02,1.570000000000000000e+02,4.300000000000000000e+01,7.100000000000000000e+01,3.900000000000000133e-01,2.280385600000000000e+09
1.320000000000000000e+02,1.940000000000000000e+02,9.130000000000000000e+02,3.840000000000000000e+02,1.110000000000000000e+02,1.550000000000000000e+02,4.300000000000000000e+01,7.200000000000000000e+01,4.000000000000000222e-01,2.297474900000000000e+09
1.340000000000000000e+02,2.040000000000000000e+02,8.370000000000000000e+02,3.380000000000000000e+02,1.230000000000000000e+02,1.650000000000000000e+02,5.400000000000000000e+01,7.400000000000000000e+01,3.900000000000000133e-01,2.313939900000000000e+09
1.290000000000000000e+02,2.090000000000000000e+02,8.450000000000000000e+02,3.440000000000000000e+02,1.190000000000000000e+02,1.580000000000000000e+02,5.600000000000000000e+01,7.400000000000000000e+01,3.900000000000000133e-01,2.330031200000000000e+09
1.240000000000000000e+02,2.380000000000000000e+02,8.490000000000000000e+02,3.860000000000000000e+02,1.300000000000000000e+02,1.430000000000000000e+02,6.000000000000000000e+01,6.700000000000000000e+01,3.900000000000000133e-01,2.346243600000000000e+09
1.250000000000000000e+02,2.230000000000000000e+02,8.820000000000000000e+02,3.840000000000000000e+02,1.380000000000000000e+02,1.680000000000000000e+02,6.500000000000000000e+01,6.900000000000000000e+01,3.900000000000000133e-01,2.364393200000000000e+09
1.190000000000000000e+02,2.230000000000000000e+02,9.100000000000000000e+02,3.980000000000000000e+02,1.440000000000000000e+02,1.610000000000000000e+02,6.400000000000000000e+01,6.700000000000000000e+01,3.800000000000000044e-01,2.383488800000000000e+09
1.230000000000000000e+02,2.680000000000000000e+02,9.580000000000000000e+02,4.210000000000000000e+02,1.430000000000000000e+02,1.620000000000000000e+02,5.800000000000000000e+01,6.800000000000000000e+01,3.800000000000000044e-01,2.403350500000000000e+09
1.150000000000000000e+02,2.630000000000000000e+02,9.830000000000000000e+02,4.510000000000000000e+02,1.590000000000000000e+02,1.650000000000000000e+02,5.700000000000000000e+01,6.600000000000000000e+01,3.699999999999999956e-01,2.424685600000000000e+09
1.070000000000000000e+02,2.430000000000000000e+02,9.000000000000000000e+02,4.150000000000000000e+02,1.510000000000000000e+02,1.610000000000000000e+02,5.000000000000000000e+01,6.100000000000000000e+01,3.599999999999999867e-01,2.444926700000000000e+09
9.700000000000000000e+01,2.400000000000000000e+02,8.560000000000000000e+02,4.010000000000000000e+02,1.400000000000000000e+02,1.350000000000000000e+02,4.400000000000000000e+01,5.600000000000000000e+01,3.499999999999999778e-01,2.467968700000000000e+09
1.060000000000000000e+02,2.190000000000000000e+02,8.700000000000000000e+02,3.810000000000000000e+02,1.420000000000000000e+02,1.730000000000000000e+02,4.200000000000000000e+01,5.700000000000000000e+01,3.499999999999999778e-01,2.488127600000000000e+09
9.700000000000000000e+01,1.570000000000000000e+02,9.260000000000000000e+02,3.510000000000000000e+02,1.340000000000000000e+02,1.700000000000000000e+02,3.700000000000000000e+01,5.100000000000000000e+01,3.400000000000000244e-01,2.507117700000000000e+09
9.500000000000000000e+01,1.670000000000000000e+02,8.620000000000000000e+02,3.000000000000000000e+02,1.050000000000000000e+02,1.530000000000000000e+02,3.400000000000000000e+01,5.000000000000000000e+01,3.400000000000000244e-01,2.526598200000000000e+09
9.800000000000000000e+01,1.640000000000000000e+02,8.390000000000000000e+02,4.100000000000000000e+02,1.090000000000000000e+02,1.590000000000000000e+02,3.300000000000000000e+01,5.300000000000000000e+01,3.499999999999999778e-01,2.543879900000000000e+09
1.030000000000000000e+02,1.660000000000000000e+02,8.130000000000000000e+02,4.450000000000000000e+02,1.220000000000000000e+02,1.740000000000000000e+02,3.500000000000000000e+01,5.500000000000000000e+01,3.499999999999999778e-01,2.563732000000000000e+09
1.060000000000000000e+02,2.010000000000000000e+02,7.970000000000000000e+02,4.630000000000000000e+02,1.180000000000000000e+02,1.370000000000000000e+02,3.800000000000000000e+01,5.800000000000000000e+01,3.599999999999999867e-01,2.584617300000000000e+09
1.250000000000000000e+02,2.490000000000000000e+02,7.440000000000000000e+02,4.620000000000000000e+02,1.340000000000000000e+02,1.440000000000000000e+02,3.700000000000000000e+01,6.300000000000000000e+01,3.599999999999999867e-01,2.602046600000000000e+09
1.360000000000000000e+02,2.400000000000000000e+02,8.630000000000000000e+02,4.820000000000000000e+02,1.570000000000000000e+02,1.580000000000000000e+02,3.800000000000000000e+01,7.000000000000000000e+01,3.599999999999999867e-01,2.620141300000000000e+09
1.420000000000000000e+02,2.420000000000000000e+02,8.810000000000000000e+02,4.140000000000000000e+02,1.600000000000000000e+02,1.610000000000000000e+02,4.300000000000000000e+01,7.300000000000000000e+01,3.599999999999999867e-01,2.637688000000000000e+09
1.420000000000000000e+02,2.520000000000000000e+02,9.790000000000000000e+02,3.880000000000000000e+02,1.530000000000000000e+02,1.510000000000000000e+02,4.300000000000000000e+01,7.300000000000000000e+01,3.599999999999999867e-01,2.655518400000000000e+09
1.320000000000000000e+02,2.580000000000000000e+02,9.550000000000000000e+02,4.090000000000000000e+02,1.490000000000000000e+02,1.490000000000000000e+02,4.100000000000000000e+01,6.800000000000000000e+01,3.599999999999999867e-01,2.674727300000000000e+09
1.200000000000000000e+02,2.300000000000000000e+02,9.360000000000000000e+02,3.870000000000000000e+02,1.350000000000000000e+02,1.350000000000000000e+02,4.200000000000000000e+01,6.500000000000000000e+01,3.599999999999999867e-01,2.694071300000000000e+09
1.280000000000000000e+02,2.780000000000000000e+02,8.620000000000000000e+02,3.950000000000000000e+02,1.140000000000000000e+02,1.190000000000000000e+02,4.200000000000000000e+01,6.700000000000000000e+01,3.599999999999999867e-01,2.711267800000000000e+09
1.230000000000000000e+02,2.940000000000000000e+02,9.400000000000000000e+02,3.770000000000000000e+02,1.220000000000000000e+02,1.170000000000000000e+02,4.300000000000000000e+01,6.600000000000000000e+01,3.499999999999999778e-01,2.728927800000000000e+09
1.310000000000000000e+02,3.180000000000000000e+02,8.540000000000000000e+02,3.820000000000000000e+02,1.370000000000000000e+02,1.310000000000000000e+02,4.800000000000000000e+01,6.900000000000000000e+01,3.400000000000000244e-01,2.747280400000000000e+09
1.370000000000000000e+02,3.100000000000000000e+02,8.860000000000000000e+02,3.530000000000000000e+02,1.500000000000000000e+02,1.280000000000000000e+02,5.000000000000000000e+01,7.100000000000000000e+01,3.200000000000000067e-01,2.765683600000000000e+09
1.480000000000000000e+02,3.070000000000000000e+02,8.960000000000000000e+02,3.720000000000000000e+02,1.540000000000000000e+02,1.330000000000000000e+02,5.500000000000000000e+01,7.800000000000000000e+01,3.099999999999999978e-01,2.784624200000000000e+09
1.370000000000000000e+02,2.720000000000000000e+02,9.330000000000000000e+02,3.790000000000000000e+02,1.580000000000000000e+02,1.450000000000000000e+02,5.600000000000000000e+01,7.400000000000000000e+01,2.999999999999999889e-01,2.803642500000000000e+09
1.350000000000000000e+02,2.640000000000000000e+02,9.200000000000000000e+02,4.170000000000000000e+02,1.510000000000000000e+02,1.440000000000000000e+02,5.300000000000000000e+01,7.000000000000000000e+01,2.899999999999999800e-01,2.820945600000000000e+09
1.230000000000000000e+02,2.430000000000000000e+02,1.065000000000000000e+03,4.150000000000000000e+02,1.350000000000000000e+02,1.320000000000000000e+02,4.800000000000000000e+01,6.400000000000000000e+01,2.899999999999999800e-01,2.838768100000000000e+09
1.580000000000000000e+02,2.820000000000000000e+02,1.123000000000000000e+03,4.450000000000000000e+02,1.570000000000000000e+02,1.500000000000000000e+02,5.700000000000000000e+01,8.800000000000000000e+01,2.800000000000000266e-01,2.856679600000000000e+09
1.570000000000000000e+02,2.660000000000000000e+02,1.171000000000000000e+03,4.850000000000000000e+02,1.660000000000000000e+02,1.540000000000000000e+02,5.500000000000000000e+01,8.800000000000000000e+01,2.800000000000000266e-01,2.875403500000000000e+09
1.510000000000000000e+02,2.600000000000000000e+02,1.156000000000000000e+03,4.840000000000000000e+02,1.600000000000000000e+02,1.530000000000000000e+02,5.300000000000000000e+01,8.300000000000000000e+01,2.700000000000000178e-01,2.894346900000000000e+09
1.570000000000000000e+02,2.600000000000000000e+02,1.113000000000000000e+03,4.750000000000000000e+02,1.690000000000000000e+02,1.480000000000000000e+02,5.400000000000000000e+01,8.700000000000000000e+01,2.700000000000000178e-01,2.911797300000000000e+09
1.650000000000000000e+02,2.790000000000000000e+02,1.006000000000000000e+03,5.020000000000000000e+02,1.740000000000000000e+02,1.440000000000000000e+02,5.500000000000000000e+01,9.000000000000000000e+01,2.600000000000000089e-01,2.929466100000000000e+09
1.270000000000000000e+02,2.220000000000000000e+02,9.160000000000000000e+02,4.780000000000000000e+02,1.430000000000000000e+02,1.280000000000000000e+02,4.700000000000000000e+01,6.800000000000000000e+01,2.600000000000000089e-01,2.947450500000000000e+09
1.220000000000000000e+02,2.280000000000000000e+02,8.600000000000000000e+02,4.370000000000000000e+02,1.350000000000000000e+02,1.200000000000000000e+02,4.600000000000000000e+01,6.800000000000000000e+01,2.700000000000000178e-01,2.967287800000000000e+09
1.170000000000000000e+02,2.350000000000000000e+02,8.600000000000000000e+02,4.020000000000000000e+02,1.290000000000000000e+02,1.020000000000000000e+02,4.600000000000000000e+01,6.500000000000000000e+01,2.700000000000000178e-01,2.987360600000000000e+09
1.120000000000000000e+02,2.270000000000000000e+02,8.310000000000000000e+02,3.850000000000000000e+02,1.190000000000000000e+02,1.050000000000000000e+02,4.400000000000000000e+01,6.400000000000000000e+01,2.800000000000000266e-01,3.005587400000000000e+09
1.170000000000000000e+02,2.150000000000000000e+02,8.630000000000000000e+02,3.840000000000000000e+02,1.300000000000000000e+02,1.070000000000000000e+02,4.400000000000000000e+01,6.800000000000000000e+01,2.800000000000000266e-01,3.023263100000000000e+09
1.190000000000000000e+02,2.120000000000000000e+02,9.400000000000000000e+02,3.690000000000000000e+02,1.310000000000000000e+02,1.070000000000000000e+02,4.300000000000000000e+01,7.000000000000000000e+01,2.899999999999999800e-01,3.042005200000000000e+09
1.120000000000000000e+02,2.150000000000000000e+02,9.580000000000000000e+02,3.660000000000000000e+02,1.300000000000000000e+02,1.050000000000000000e+02,4.000000000000000000e+01,6.700000000000000000e+01,2.899999999999999800e-01,3.059933800000000000e+09
1.120000000000000000e+02,2.050000000000000000e+02,9.220000000000000000e+02,3.810000000000000000e+02,1.300000000000000000e+02,1.060000000000000000e+02,3.900000000000000000e+01,6.600000000000000000e+01,2.999999999999999889e-01,3.079806000000000000e+09
1.050000000000000000e+02,2.080000000000000000e+02,9.750000000000000000e+02,4.080000000000000000e+02,1.280000000000000000e+02,1.050000000000000000e+02,3.800000000000000000e+01,6.200000000000000000e+01,2.999999999999999889e-01,3.098561900000000000e+09
1.150000000000000000e+02,1.870000000000000000e+02,9.350000000000000000e+02,3.780000000000000000e+02,1.260000000000000000e+02,1.170000000000000000e+02,4.600000000000000000e+01,6.800000000000000000e+01,3.099999999999999978e-01,3.116719700000000000e+09
1.150000000000000000e+02,1.830000000000000000e+02,9.070000000000000000e+02,3.750000000000000000e+02,1.280000000000000000e+02,1.100000000000000000e+02,4.400000000000000000e+01,6.600000000000000000e+01,3.200000000000000067e-01,3.134936500000000000e+09
1.150000000000000000e+02,1.850000000000000000e+02,8.950000000000000000e+02,4.050000000000000000e+02,1.350000000000000000e+02,1.150000000000000000e+02,4.600000000000000000e+01,6.400000000000000000e+01,3.200000000000000067e-01,3.153768500000000000e+09
1.230000000000000000e+02,2.190000000000000000e+02,9.070000000000000000e+02,4.140000000000000000e+02,1.420000000000000000e+02,1.150000000000000000e+02,5.000000000000000000e+01,6.800000000000000000e+01,3.200000000000000067e-01,3.173039600000000000e+09
1.350000000000000000e+02,2.220000000000000000e+02,8.970000000000000000e+02,3.770000000000000000e+02,1.400000000000000000e+02,1.210000000000000000e+02,5.000000000000000000e+01,7.400000000000000000e+01,3.200000000000000067e-01,3.193378200000000000e+09
1.180000000000000000e+02,2.290000000000000000e+02,9.250000000000000000e+02,3.550000000000000000e+02,1.250000000000000000e+02,1.050000000000000000e+02,4.300000000000000000e+01,6.500000000000000000e+01,3.200000000000000067e-01,3.211355400000000000e+09
1.160000000000000000e+02,2.290000000000000000e+02,8.640000000000000000e+02,3.610000000000000000e+02,1.270000000000000000e+02,1.070000000000000000e+02,4.400000000000000000e+01,6.400000000000000000e+01,3.200000000000000067e-01,3.229021500000000000e+09
1.090000000000000000e+02,2.170000000000000000e+02,8.170000000000000000e+02,3.200000000000000000e+02,1.160000000000000000e+02,9.600000000000000000e+01,4.100000000000000000e+01,6.100000000000000000e+01,3.300000000000000155e-01,3.247674600000000000e+09
1.050000000000000000e+02,2.110000000000000000e+02,8.180000000000000000e+02,2.990000000000000000e+02,1.110000000000000000e+02,1.030000000000000000e+02,3.800000000000000000e+01,5.800000000000000000e+01,3.400000000000000244e-01,3.269532500000000000e+09
1.000000000000000000e+02,2.170000000000000000e+02,7.980000000000000000e+02,3.650000000000000000e+02,1.130000000000000000e+02,1.160000000000000000e+02,3.900000000000000000e+01,5.300000000000000000e+01,3.499999999999999778e-01,3.288544500000000000e+09
9.100000000000000000e+01,1.950000000000000000e+02,6.960000000000000000e+02,3.630000000000000000e+02,1.150000000000000000e+02,1.160000000000000000e+02,3.600000000000000000e+01,4.800000000000000000e+01,3.599999999999999867e-01,3.306774600000000000e+09
8.300000000000000000e+01,2.060000000000000000e+02,6.590000000000000000e+02,3.510000000000000000e+02,1.030000000000000000e+02,1.130000000000000000e+02,3.400000000000000000e+01,4.500000000000000000e+01,3.699999999999999956e-01,3.325113100000000000e+09
8.000000000000000000e+01,2.140000000000000000e+02,6.810000000000000000e+02,3.740000000000000000e+02,9.200000000000000000e+01,1.140000000000000000e+02,3.400000000000000000e+01,4.200000000000000000e+01,3.800000000000000044e-01,3.343238500000000000e+09
8.300000000000000000e+01,2.170000000000000000e+02,7.360000000000000000e+02,3.950000000000000000e+02,9.200000000000000000e+01,1.080000000000000000e+02,3.500000000000000000e+01,4.600000000000000000e+01,3.900000000000000133e-01,3.361214000000000000e+09
8.100000000000000000e+01,1.980000000000000000e+02,9.280000000000000000e+02,3.410000000000000000e+02,8.900000000000000000e+01,1.100000000000000000e+02,3.600000000000000000e+01,5.200000000000000000e+01,4.000000000000000222e-01,3.381210800000000000e+09
8.200000000000000000e+01,1.960000000000000000e+02,1.002000000000000000e+03,3.350000000000000000e+02,8.300000000000000000e+01,1.020000000000000000e+02,3.600000000000000000e+01,5.200000000000000000e+01,4.099999999999999756e-01,3.398713800000000000e+09
8.500000000000000000e+01,1.870000000000000000e+02,9.930000000000000000e+02,3.180000000000000000e+02,8.400000000000000000e+01,1.030000000000000000e+02,3.700000000000000000e+01,5.100000000000000000e+01,4.199999999999999845e-01,3.417646200000000000e+09
9.100000000000000000e+01,1.820000000000000000e+02,9.750000000000000000e+02,2.800000000000000000e+02,8.600000000000000000e+01,1.050000000000000000e+02,3.700000000000000000e+01,5.500000000000000000e+01,4.299999999999999933e-01,3.434654700000000000e+09
9.100000000000000000e+01,1.570000000000000000e+02,9.740000000000000000e+02,2.550000000000000000e+02,8.900000000000000000e+01,1.040000000000000000e+02,4.300000000000000000e+01,5.700000000000000000e+01,4.299999999999999933e-01,3.452401600000000000e+09
8.800000000000000000e+01,1.760000000000000000e+02,8.050000000000000000e+02,2.590000000000000000e+02,9.100000000000000000e+01,8.600000000000000000e+01,4.200000000000000000e+01,5.400000000000000000e+01,4.400000000000000022e-01,3.471250600000000000e+09
9.100000000000000000e+01,1.840000000000000000e+02,7.450000000000000000e+02,2.680000000000000000e+02,9.400000000000000000e+01,8.900000000000000000e+01,4.200000000000000000e+01,5.600000000000000000e+01,4.400000000000000022e-01,3.488846400000000000e+09
9.800000000000000000e+01,2.110000000000000000e+02,7.360000000000000000e+02,2.880000000000000000e+02,9.400000000000000000e+01,8.500000000000000000e+01,4.600000000000000000e+01,6.000000000000000000e+01,4.500000000000000111e-01,3.506800200000000000e+09
1.030000000000000000e+02,2.080000000000000000e+02,7.180000000000000000e+02,2.860000000000000000e+02,1.010000000000000000e+02,8.800000000000000000e+01,5.000000000000000000e+01,6.300000000000000000e+01,4.500000000000000111e-01,3.525314400000000000e+09
1.100000000000000000e+02,2.110000000000000000e+02,6.760000000000000000e+02,2.600000000000000000e+02,9.800000000000000000e+01,9.300000000000000000e+01,4.400000000000000000e+01,5.900000000000000000e+01,4.500000000000000111e-01,3.545911900000000000e+09
1.110000000000000000e+02,2.040000000000000000e+02,6.180000000000000000e+02,2.770000000000000000e+02,9.600000000000000000e+01,9.600000000000000000e+01,4.300000000000000000e+01,5.700000000000000000e+01,4.500000000000000111e-01,3.571205100000000000e+09
1.110000000000000000e+02,2.010000000000000000e+02,6.010000000000000000e+02,2.940000000000000000e+02,9.300000000000000000e+01,1.010000000000000000e+02,4.200000000000000000e+01,5.500000000000000000e+01,4.600000000000000200e-01,3.589874500000000000e+09
1.070000000000000000e+02,1.900000000000000000e+02,7.120000000000000000e+02,3.160000000000000000e+02,9.500000000000000000e+01,1.010000000000000000e+02,4.000000000000000000e+01,5.400000000000000000e+01,4.699999999999999734e-01,3.608058300000000000e+09
1.120000000000000000e+02,2.250000000000000000e+02,8.260000000000000000e+02,3.660000000000000000e+02,1.040000000000000000e+02,1.100000000000000000e+02,3.900000000000000000e+01,5.100000000000000000e+01,4.699999999999999734e-01,3.626010600000000000e+09
1.100000000000000000e+02,2.090000000000000000e+02,8.080000000000000000e+02,3.620000000000000000e+02,1.090000000000000000e+02,1.120000000000000000e+02,4.000000000000000000e+01,5.500000000000000000e+01,4.799999999999999822e-01,3.646115100000000000e+09
1.070000000000000000e+02,1.900000000000000000e+02,8.720000000000000000e+02,3.490000000000000000e+02,1.130000000000000000e+02,1.020000000000000000e+02,4.000000000000000000e+01,5.600000000000000000e+01,4.899999999999999911e-01,3.666393100000000000e+09
1.080000000000000000e+02,1.850000000000000000e+02,9.390000000000000000e+02,3.300000000000000000e+02,1.200000000000000000e+02,1.080000000000000000e+02,4.100000000000000000e+01,5.900000000000000000e+01,4.799999999999999822e-01,3.688183300000000000e+09
1.220000000000000000e+02,1.760000000000000000e+02,9.440000000000000000e+02,3.640000000000000000e+02,1.400000000000000000e+02,1.420000000000000000e+02,4.000000000000000000e+01,6.100000000000000000e+01,4.699999999999999734e-01,3.707383400000000000e+09
1.340000000000000000e+02,1.430000000000000000e+02,9.610000000000000000e+02,3.170000000000000000e+02,1.520000000000000000e+02,1.600000000000000000e+02,3.600000000000000000e+01,6.900000000000000000e+01,4.699999999999999734e-01,3.725359700000000000e+09
1.260000000000000000e+02,1.540000000000000000e+02,9.920000000000000000e+02,3.160000000000000000e+02,1.470000000000000000e+02,1.570000000000000000e+02,3.600000000000000000e+01,6.600000000000000000e+01,4.600000000000000200e-01,3.744816300000000000e+09
1.330000000000000000e+02,1.860000000000000000e+02,9.860000000000000000e+02,3.220000000000000000e+02,1.460000000000000000e+02,1.620000000000000000e+02,4.000000000000000000e+01,6.800000000000000000e+01,4.500000000000000111e-01,3.765174900000000000e+09
1.310000000000000000e+02,2.120000000000000000e+02,9.620000000000000000e+02,3.330000000000000000e+02,1.430000000000000000e+02,1.580000000000000000e+02,3.900000000000000000e+01,6.600000000000000000e+01,4.400000000000000022e-01,3.784869900000000000e+09
1.220000000000000000e+02,2.150000000000000000e+02,9.070000000000000000e+02,2.800000000000000000e+02,1.280000000000000000e+02,1.410000000000000000e+02,5.100000000000000000e+01,6.800000000000000000e+01,4.199999999999999845e-01,3.805188600000000000e+09
1.100000000000000000e+02,2.150000000000000000e+02,8.030000000000000000e+02,2.980000000000000000e+02,1.230000000000000000e+02,1.230000000000000000e+02,5.200000000000000000e+01,6.200000000000000000e+01,4.199999999999999845e-01,3.824381200000000000e+09
1.320000000000000000e+02,2.330000000000000000e+02,8.370000000000000000e+02,3.380000000000000000e+02,1.580000000000000000e+02,1.420000000000000000e+02,5.500000000000000000e+01,7.400000000000000000e+01,4.000000000000000222e-01,3.852477500000000000e+09
1.320000000000000000e+02,2.200000000000000000e+02,7.970000000000000000e+02,3.280000000000000000e+02,1.590000000000000000e+02,1.400000000000000000e+02,5.600000000000000000e+01,7.400000000000000000e+01,3.900000000000000133e-01,3.870290100000000000e+09
1.310000000000000000e+02,1.960000000000000000e+02,7.220000000000000000e+02,3.160000000000000000e+02,1.590000000000000000e+02,1.580000000000000000e+02,8.200000000000000000e+01,9.400000000000000000e+01,3.800000000000000044e-01,3.889952700000000000e+09
1.320000000000000000e+02,2.130000000000000000e+02,7.470000000000000000e+02,2.870000000000000000e+02,1.560000000000000000e+02,1.720000000000000000e+02,1.300000000000000000e+02,1.080000000000000000e+02,3.699999999999999956e-01,3.908462900000000000e+09
1.300000000000000000e+02,2.050000000000000000e+02,7.640000000000000000e+02,2.770000000000000000e+02,1.430000000000000000e+02,1.620000000000000000e+02,1.320000000000000000e+02,1.080000000000000000e+02,3.599999999999999867e-01,3.927386400000000000e+09
1.120000000000000000e+02,2.090000000000000000e+02,7.590000000000000000e+02,2.260000000000000000e+02,9.900000000000000000e+01,1.460000000000000000e+02,1.350000000000000000e+02,1.040000000000000000e+02,3.599999999999999867e-01,3.945764900000000000e+09
1.040000000000000000e+02,2.020000000000000000e+02,8.000000000000000000e+02,2.040000000000000000e+02,9.300000000000000000e+01,1.550000000000000000e+02,1.370000000000000000e+02,1.040000000000000000e+02,3.599999999999999867e-01,3.968120100000000000e+09
1.040000000000000000e+02,2.280000000000000000e+02,8.780000000000000000e+02,2.550000000000000000e+02,9.000000000000000000e+01,1.390000000000000000e+02,1.250000000000000000e+02,8.800000000000000000e+01,3.599999999999999867e-01,3.987647500000000000e+09
1.300000000000000000e+02,2.350000000000000000e+02,9.090000000000000000e+02,3.050000000000000000e+02,1.200000000000000000e+02,1.210000000000000000e+02,7.500000000000000000e+01,8.100000000000000000e+01,3.499999999999999778e-01,4.005985500000000000e+09
1.320000000000000000e+02,2.560000000000000000e+02,9.230000000000000000e+02,3.400000000000000000e+02,1.180000000000000000e+02,1.330000000000000000e+02,7.200000000000000000e+01,7.900000000000000000e+01,3.499999999999999778e-01,4.026064500000000000e+09
1.350000000000000000e+02,2.540000000000000000e+02,9.260000000000000000e+02,4.630000000000000000e+02,1.280000000000000000e+02,1.370000000000000000e+02,6.300000000000000000e+01,7.700000000000000000e+01,3.400000000000000244e-01,4.045347800000000000e+09
1.480000000000000000e+02,2.830000000000000000e+02,9.970000000000000000e+02,5.050000000000000000e+02,1.520000000000000000e+02,1.490000000000000000e+02,6.200000000000000000e+01,7.900000000000000000e+01,3.400000000000000244e-01,4.067644000000000000e+09
1.540000000000000000e+02,2.810000000000000000e+02,1.017000000000000000e+03,5.300000000000000000e+02,1.590000000000000000e+02,1.550000000000000000e+02,5.900000000000000000e+01,7.900000000000000000e+01,3.400000000000000244e-01,4.090071300000000000e+09
1.240000000000000000e+02,2.640000000000000000e+02,1.045000000000000000e+03,5.250000000000000000e+02,1.360000000000000000e+02,1.430000000000000000e+02,4.700000000000000000e+01,6.000000000000000000e+01,3.400000000000000244e-01,4.108641400000000000e+09
1.330000000000000000e+02,2.990000000000000000e+02,1.100000000000000000e+03,5.370000000000000000e+02,1.490000000000000000e+02,1.430000000000000000e+02,4.600000000000000000e+01,6.600000000000000000e+01,3.400000000000000244e-01,4.126394500000000000e+09
1.360000000000000000e+02,2.890000000000000000e+02,1.048000000000000000e+03,4.900000000000000000e+02,1.600000000000000000e+02,1.430000000000000000e+02,4.700000000000000000e+01,6.600000000000000000e+01,3.300000000000000155e-01,4.145347500000000000e+09
1.480000000000000000e+02,2.780000000000000000e+02,1.012000000000000000e+03,4.760000000000000000e+02,1.790000000000000000e+02,1.550000000000000000e+02,4.600000000000000000e+01,6.800000000000000000e+01,3.200000000000000067e-01,4.165729700000000000e+09
1.590000000000000000e+02,2.850000000000000000e+02,1.098000000000000000e+03,4.580000000000000000e+02,1.920000000000000000e+02,1.660000000000000000e+02,5.000000000000000000e+01,7.700000000000000000e+01,3.099999999999999978e-01,4.186988900000000000e+09
1.740000000000000000e+02,3.060000000000000000e+02,1.053000000000000000e+03,4.870000000000000000e+02,2.130000000000000000e+02,1.760000000000000000e+02,5.500000000000000000e+01,8.400000000000000000e+01,2.899999999999999800e-01,4.206158300000000000e+09
1.840000000000000000e+02,2.890000000000000000e+02,1.067000000000000000e+03,4.870000000000000000e+02,2.130000000000000000e+02,1.750000000000000000e+02,5.800000000000000000e+01,8.900000000000000000e+01,2.800000000000000266e-01,4.225275100000000000e+09
1.800000000000000000e+02,2.850000000000000000e+02,1.099000000000000000e+03,4.530000000000000000e+02,2.060000000000000000e+02,1.740000000000000000e+02,6.000000000000000000e+01,8.900000000000000000e+01,2.700000000000000178e-01,4.246086800000000000e+09
1.620000000000000000e+02,2.910000000000000000e+02,1.084000000000000000e+03,4.400000000000000000e+02,1.850000000000000000e+02,1.490000000000000000e+02,5.500000000000000000e+01,8.400000000000000000e+01,2.600000000000000089e-01,4.267188400000000000e+09
1.460000000000000000e+02,2.850000000000000000e+02,9.540000000000000000e+02,4.250000000000000000e+02,1.650000000000000000e+02,1.260000000000000000e+02,5.200000000000000000e+01,7.500000000000000000e+01,2.500000000000000000e-01,4.287347500000000000e+09
1.410000000000000000e+02,3.340000000000000000e+02,1.051000000000000000e+03,4.220000000000000000e+02,1.570000000000000000e+02,1.230000000000000000e+02,4.900000000000000000e+01,7.400000000000000000e+01,2.399999999999999911e-01,4.305773300000000000e+09
1.330000000000000000e+02,3.490000000000000000e+02,1.032000000000000000e+03,4.690000000000000000e+02,1.640000000000000000e+02,1.190000000000000000e+02,4.900000000000000000e+01,7.200000000000000000e+01,2.300000000000000100e-01,4.324448100000000000e+09
1.380000000000000000e+02,3.740000000000000000e+02,1.007000000000000000e+03,4.870000000000000000e+02,1.720000000000000000e+02,1.220000000000000000e+02,4.500000000000000000e+01,7.200000000000000000e+01,2.099999999999999922e-01,4.346339900000000000e+09
1.470000000000000000e+02,3.750000000000000000e+02,1.020000000000000000e+03,5.460000000000000000e+02,1.790000000000000000e+02,1.240000000000000000e+02,4.900000000000000000e+01,7.600000000000000000e+01,2.000000000000000111e-01,4.367285300000000000e+09
1.600000000000000000e+02,3.770000000000000000e+02,1.133000000000000000e+03,5.570000000000000000e+02,1.830000000000000000e+02,1.340000000000000000e+02,5.200000000000000000e+01,8.200000000000000000e+01,1.900000000000000022e-01,4.388082500000000000e+09
1.560000000000000000e+02,3.080000000000000000e+02,1.027000000000000000e+03,5.270000000000000000e+02,1.720000000000000000e+02,1.300000000000000000e+02,5.400000000000000000e+01,8.200000000000000000e+01,1.900000000000000022e-01,4.406807400000000000e+09
1.560000000000000000e+02,2.840000000000000000e+02,9.600000000000000000e+02,4.540000000000000000e+02,1.620000000000000000e+02,1.310000000000000000e+02,5.100000000000000000e+01,8.000000000000000000e+01,1.900000000000000022e-01,4.426045100000000000e+09
1.590000000000000000e+02,2.980000000000000000e+02,9.780000000000000000e+02,4.970000000000000000e+02,1.640000000000000000e+02,1.310000000000000000e+02,5.400000000000000000e+01,8.200000000000000000e+01,1.900000000000000022e-01,4.446230900000000000e+09
1.600000000000000000e+02,3.020000000000000000e+02,1.012000000000000000e+03,4.860000000000000000e+02,1.500000000000000000e+02,1.400000000000000000e+02,5.100000000000000000e+01,8.000000000000000000e+01,1.900000000000000022e-01,4.466953400000000000e+09
1.510000000000000000e+02,2.950000000000000000e+02,9.620000000000000000e+02,4.870000000000000000e+02,1.490000000000000000e+02,1.330000000000000000e+02,4.800000000000000000e+01,7.700000000000000000e+01,1.900000000000000022e-01,4.489626900000000000e+09
1.680000000000000000e+02,2.990000000000000000e+02,9.970000000000000000e+02,5.000000000000000000e+02,1.880000000000000000e+02,1.450000000000000000e+02,5.400000000000000000e+01,8.700000000000000000e+01,1.799999999999999933e-01,4.508291500000000000e+09
1.550000000000000000e+02,2.840000000000000000e+02,1.043000000000000000e+03,5.180000000000000000e+02,1.940000000000000000e+02,1.430000000000000000e+02,5.400000000000000000e+01,8.200000000000000000e+01,1.799999999999999933e-01,4.526838800000000000e+09
1.640000000000000000e+02,2.510000000000000000e+02,1.044000000000000000e+03,4.860000000000000000e+02,1.970000000000000000e+02,1.520000000000000000e+02,5.400000000000000000e+01,8.400000000000000000e+01,1.900000000000000022e-01,4.545553800000000000e+09
1.560000000000000000e+02,2.890000000000000000e+02,1.132000000000000000e+03,4.690000000000000000e+02,1.890000000000000000e+02,1.310000000000000000e+02,5.400000000000000000e+01,7.900000000000000000e+01,1.900000000000000022e-01,4.565071500000000000e+09
1.750000000000000000e+02,3.270000000000000000e+02,1.075000000000000000e+03,4.720000000000000000e+02,2.100000000000000000e+02,1.420000000000000000e+02,6.000000000000000000e+01,8.700000000000000000e+01,1.900000000000000022e-01,4.589479400000000000e+09
1.530000000000000000e+02,3.560000000000000000e+02,1.106000000000000000e+03,5.200000000000000000e+02,1.830000000000000000e+02,1.360000000000000000e+02,5.500000000000000000e+01,7.500000000000000000e+01,1.900000000000000022e-01,4.609511900000000000e+09
1.790000000000000000e+02,3.860000000000000000e+02,1.133000000000000000e+03,5.060000000000000000e+02,1.870000000000000000e+02,1.460000000000000000e+02,5.700000000000000000e+01,8.500000000000000000e+01,1.799999999999999933e-01,4.627774100000000000e+09
1.710000000000000000e+02,4.240000000000000000e+02,1.157000000000000000e+03,5.070000000000000000e+02,1.800000000000000000e+02,1.380000000000000000e+02,5.700000000000000000e+01,8.200000000000000000e+01,1.799999999999999933e-01,4.646543800000000000e+09
2.000000000000000000e+02,4.260000000000000000e+02,1.066000000000000000e+03,5.170000000000000000e+02,2.290000000000000000e+02,2.060000000000000000e+02,6.600000000000000000e+01,1.030000000000000000e+02,1.700000000000000122e-01,4.666015200000000000e+09
2.100000000000000000e+02,4.260000000000000000e+02,1.064000000000000000e+03,5.450000000000000000e+02,2.390000000000000000e+02,2.260000000000000000e+02,6.500000000000000000e+01,1.070000000000000000e+02,1.600000000000000033e-01,4.687302000000000000e+09
2.380000000000000000e+02,4.490000000000000000e+02,1.037000000000000000e+03,5.500000000000000000e+02,2.550000000000000000e+02,2.340000000000000000e+02,6.600000000000000000e+01,1.210000000000000000e+02,1.499999999999999944e-01,4.705844800000000000e+09
2.330000000000000000e+02,4.850000000000000000e+02,9.700000000000000000e+02,6.760000000000000000e+02,3.030000000000000000e+02,2.420000000000000000e+02,7.000000000000000000e+01,1.240000000000000000e+02,1.499999999999999944e-01,4.729627000000000000e+09
2.330000000000000000e+02,4.490000000000000000e+02,9.830000000000000000e+02,7.630000000000000000e+02,3.210000000000000000e+02,2.590000000000000000e+02,7.000000000000000000e+01,1.250000000000000000e+02,1.400000000000000133e-01,4.747728900000000000e+09
2.150000000000000000e+02,4.480000000000000000e+02,1.010000000000000000e+03,7.960000000000000000e+02,2.950000000000000000e+02,2.190000000000000000e+02,6.400000000000000000e+01,1.130000000000000000e+02,1.300000000000000044e-01,4.768361300000000000e+09
2.090000000000000000e+02,4.420000000000000000e+02,1.058000000000000000e+03,7.840000000000000000e+02,2.980000000000000000e+02,2.250000000000000000e+02,6.600000000000000000e+01,1.110000000000000000e+02,1.300000000000000044e-01,4.789781000000000000e+09
1.850000000000000000e+02,3.950000000000000000e+02,1.085000000000000000e+03,7.550000000000000000e+02,2.850000000000000000e+02,2.250000000000000000e+02,6.700000000000000000e+01,1.000000000000000000e+02,1.300000000000000044e-01,4.808896800000000000e+09
1.670000000000000000e+02,3.310000000000000000e+02,1.084000000000000000e+03,6.750000000000000000e+02,2.230000000000000000e+02,2.110000000000000000e+02,5.900000000000000000e+01,8.500000000000000000e+01,1.300000000000000044e-01,4.842215100000000000e+09
1.650000000000000000e+02,3.260000000000000000e+02,1.038000000000000000e+03,5.540000000000000000e+02,1.990000000000000000e+02,1.900000000000000000e+02,5.900000000000000000e+01,8.600000000000000000e+01,1.199999999999999956e-01,4.859927500000000000e+09
1.500000000000000000e+02,2.910000000000000000e+02,9.830000000000000000e+02,4.730000000000000000e+02,1.930000000000000000e+02,1.820000000000000000e+02,6.000000000000000000e+01,8.000000000000000000e+01,1.199999999999999956e-01,4.881351900000000000e+09
1.210000000000000000e+02,2.690000000000000000e+02,9.820000000000000000e+02,4.460000000000000000e+02,1.490000000000000000e+02,1.530000000000000000e+02,5.100000000000000000e+01,6.800000000000000000e+01,1.300000000000000044e-01,4.899149400000000000e+09
1.170000000000000000e+02,2.770000000000000000e+02,9.420000000000000000e+02,4.710000000000000000e+02,1.690000000000000000e+02,1.450000000000000000e+02,4.800000000000000000e+01,6.400000000000000000e+01,1.300000000000000044e-01,4.916519300000000000e+09
1.370000000000000000e+02,2.740000000000000000e+02,9.370000000000000000e+02,4.370000000000000000e+02,1.740000000000000000e+02,1.570000000000000000e+02,4.600000000000000000e+01,7.300000000000000000e+01,1.400000000000000133e-01,4.934235900000000000e+09
1.360000000000000000e+02,2.720000000000000000e+02,9.320000000000000000e+02,4.280000000000000000e+02,1.690000000000000000e+02,1.660000000000000000e+02,4.800000000000000000e+01,7.000000000000000000e+01,1.400000000000000133e-01,4.953258100000000000e+09
1.490000000000000000e+02,2.600000000000000000e+02,1.007000000000000000e+03,5.250000000000000000e+02,1.740000000000000000e+02,1.800000000000000000e+02,4.600000000000000000e+01,7.500000000000000000e+01,1.499999999999999944e-01,4.972460100000000000e+09
1.480000000000000000e+02,2.290000000000000000e+02,9.350000000000000000e+02,5.150000000000000000e+02,1.740000000000000000e+02,1.710000000000000000e+02,4.600000000000000000e+01,7.500000000000000000e+01,1.600000000000000033e-01,4.991741500000000000e+09
1.590000000000000000e+02,2.490000000000000000e+02,9.450000000000000000e+02,5.260000000000000000e+02,1.850000000000000000e+02,1.820000000000000000e+02,5.100000000000000000e+01,8.100000000000000000e+01,1.700000000000000122e-01,5.010840400000000000e+09
1.690000000000000000e+02,2.810000000000000000e+02,9.400000000000000000e+02,5.610000000000000000e+02,2.060000000000000000e+02,1.900000000000000000e+02,5.600000000000000000e+01,8.300000000000000000e+01,1.700000000000000122e-01,5.029028700000000000e+09
1.740000000000000000e+02,2.850000000000000000e+02,9.510000000000000000e+02,5.650000000000000000e+02,2.050000000000000000e+02,1.870000000000000000e+02,6.300000000000000000e+01,8.900000000000000000e+01,1.799999999999999933e-01,5.047436900000000000e+09
1.710000000000000000e+02,2.730000000000000000e+02,8.170000000000000000e+02,5.010000000000000000e+02,2.040000000000000000e+02,1.840000000000000000e+02,6.400000000000000000e+01,8.900000000000000000e+01,1.799999999999999933e-01,5.066812700000000000e+09
1.790000000000000000e+02,2.980000000000000000e+02,8.220000000000000000e+02,5.420000000000000000e+02,2.140000000000000000e+02,1.980000000000000000e+02,6.400000000000000000e+01,9.400000000000000000e+01,1.900000000000000022e-01,5.089384000000000000e+09
1.920000000000000000e+02,3.270000000000000000e+02,8.780000000000000000e+02,6.260000000000000000e+02,2.120000000000000000e+02,2.000000000000000000e+02,6.700000000000000000e+01,9.800000000000000000e+01,1.900000000000000022e-01,5.108139300000000000e+09
1.700000000000000000e+02,2.860000000000000000e+02,9.360000000000000000e+02,6.110000000000000000e+02,1.970000000000000000e+02,1.920000000000000000e+02,6.300000000000000000e+01,9.100000000000000000e+01,1.900000000000000022e-01,5.126700900000000000e+09
1.720000000000000000e+02,2.820000000000000000e+02,9.480000000000000000e+02,6.060000000000000000e+02,1.990000000000000000e+02,1.920000000000000000e+02,5.700000000000000000e+01,9.000000000000000000e+01,2.000000000000000111e-01,5.148157600000000000e+09
1.730000000000000000e+02,2.790000000000000000e+02,9.800000000000000000e+02,5.820000000000000000e+02,2.030000000000000000e+02,1.990000000000000000e+02,1.020000000000000000e+02,9.400000000000000000e+01,2.000000000000000111e-01,5.169397600000000000e+09
1.670000000000000000e+02,2.690000000000000000e+02,9.670000000000000000e+02,5.430000000000000000e+02,2.030000000000000000e+02,1.880000000000000000e+02,1.030000000000000000e+02,9.200000000000000000e+01,2.000000000000000111e-01,5.188099400000000000e+09
1.470000000000000000e+02,2.330000000000000000e+02,9.830000000000000000e+02,4.050000000000000000e+02,1.700000000000000000e+02,1.860000000000000000e+02,1.020000000000000000e+02,8.300000000000000000e+01,2.000000000000000111e-01,5.206687000000000000e+09
1.450000000000000000e+02,2.290000000000000000e+02,9.030000000000000000e+02,3.610000000000000000e+02,1.610000000000000000e+02,1.750000000000000000e+02,1.040000000000000000e+02,8.400000000000000000e+01,2.000000000000000111e-01,5.224925700000000000e+09
1.400000000000000000e+02,2.510000000000000000e+02,8.630000000000000000e+02,3.960000000000000000e+02,1.640000000000000000e+02,1.760000000000000000e+02,1.060000000000000000e+02,7.800000000000000000e+01,2.099999999999999922e-01,5.244919800000000000e+09
1.230000000000000000e+02,2.500000000000000000e+02,7.960000000000000000e+02,3.610000000000000000e+02,1.490000000000000000e+02,1.660000000000000000e+02,1.090000000000000000e+02,7.800000000000000000e+01,2.200000000000000011e-01,5.273557700000000000e+09
1.170000000000000000e+02,2.560000000000000000e+02,8.180000000000000000e+02,3.560000000000000000e+02,1.360000000000000000e+02,1.660000000000000000e+02,1.380000000000000000e+02,9.900000000000000000e+01,2.200000000000000011e-01,5.293447000000000000e+09
1.220000000000000000e+02,2.640000000000000000e+02,7.110000000000000000e+02,3.170000000000000000e+02,1.660000000000000000e+02,1.520000000000000000e+02,1.390000000000000000e+02,1.050000000000000000e+02,2.300000000000000100e-01,5.310990900000000000e+09
1.160000000000000000e+02,2.560000000000000000e+02,7.770000000000000000e+02,2.910000000000000000e+02,1.620000000000000000e+02,1.530000000000000000e+02,1.370000000000000000e+02,1.030000000000000000e+02,2.300000000000000100e-01,5.330136000000000000e+09
1.210000000000000000e+02,2.610000000000000000e+02,7.680000000000000000e+02,2.320000000000000000e+02,1.510000000000000000e+02,1.540000000000000000e+02,1.580000000000000000e+02,1.090000000000000000e+02,2.300000000000000100e-01,5.348274400000000000e+09
1.320000000000000000e+02,2.690000000000000000e+02,8.370000000000000000e+02,2.620000000000000000e+02,1.660000000000000000e+02,1.520000000000000000e+02,1.360000000000000000e+02,1.030000000000000000e+02,2.300000000000000100e-01,5.371091800000000000e+09
1.450000000000000000e+02,2.650000000000000000e+02,8.280000000000000000e+02,2.700000000000000000e+02,1.770000000000000000e+02,1.750000000000000000e+02,1.090000000000000000e+02,8.400000000000000000e+01,2.300000000000000100e-01,5.389378000000000000e+09
1.350000000000000000e+02,2.240000000000000000e+02,8.540000000000000000e+02,2.700000000000000000e+02,1.540000000000000000e+02,1.720000000000000000e+02,1.060000000000000000e+02,7.500000000000000000e+01,2.399999999999999911e-01,5.407589700000000000e+09
1.380000000000000000e+02,2.270000000000000000e+02,8.170000000000000000e+02,2.740000000000000000e+02,1.500000000000000000e+02,1.670000000000000000e+02,1.080000000000000000e+02,7.500000000000000000e+01,2.399999999999999911e-01,5.426072000000000000e+09
1.310000000000000000e+02,1.880000000000000000e+02,8.370000000000000000e+02,2.600000000000000000e+02,1.450000000000000000e+02,1.550000000000000000e+02,7.200000000000000000e+01,6.700000000000000000e+01,2.399999999999999911e-01,5.445081000000000000e+09
1.230000000000000000e+02,1.890000000000000000e+02,8.530000000000000000e+02,2.830000000000000000e+02,1.490000000000000000e+02,1.480000000000000000e+02,6.300000000000000000e+01,6.700000000000000000e+01,2.500000000000000000e-01,5.465938000000000000e+09
1.070000000000000000e+02,1.670000000000000000e+02,8.320000000000000000e+02,3.000000000000000000e+02,1.310000000000000000e+02,1.120000000000000000e+02,5.300000000000000000e+01,6.000000000000000000e+01,2.500000000000000000e-01,5.487344200000000000e+09
1.380000000000000000e+02,2.660000000000000000e+02,7.770000000000000000e+02,3.780000000000000000e+02,1.590000000000000000e+02,1.310000000000000000e+02,5.200000000000000000e+01,7.600000000000000000e+01,2.500000000000000000e-01,5.510446800000000000e+09
1.340000000000000000e+02,2.630000000000000000e+02,7.680000000000000000e+02,3.770000000000000000e+02,1.620000000000000000e+02,1.340000000000000000e+02,4.900000000000000000e+01,7.400000000000000000e+01,2.500000000000000000e-01,5.528632600000000000e+09
1.410000000000000000e+02,2.710000000000000000e+02,7.780000000000000000e+02,3.840000000000000000e+02,1.670000000000000000e+02,1.380000000000000000e+02,4.700000000000000000e+01,8.000000000000000000e+01,2.500000000000000000e-01,5.547942800000000000e+09
1.380000000000000000e+02,2.590000000000000000e+02,7.170000000000000000e+02,3.730000000000000000e+02,1.460000000000000000e+02,1.430000000000000000e+02,4.200000000000000000e+01,7.800000000000000000e+01,2.500000000000000000e-01,5.567308400000000000e+09
1.360000000000000000e+02,2.590000000000000000e+02,7.730000000000000000e+02,3.580000000000000000e+02,1.450000000000000000e+02,1.400000000000000000e+02,4.100000000000000000e+01,7.800000000000000000e+01,2.600000000000000089e-01,5.588160400000000000e+09
1.050000000000000000e+02,1.620000000000000000e+02,7.640000000000000000e+02,3.140000000000000000e+02,1.140000000000000000e+02,1.270000000000000000e+02,3.800000000000000000e+01,6.200000000000000000e+01,2.700000000000000178e-01,5.606080000000000000e+09
1.040000000000000000e+02,1.680000000000000000e+02,8.380000000000000000e+02,3.270000000000000000e+02,1.110000000000000000e+02,1.370000000000000000e+02,4.500000000000000000e+01,6.300000000000000000e+01,2.800000000000000266e-01,5.624739900000000000e+09
8.500000000000000000e+01,1.640000000000000000e+02,8.790000000000000000e+02,3.390000000000000000e+02,1.010000000000000000e+02,1.290000000000000000e+02,4.400000000000000000e+01,5.200000000000000000e+01,2.899999999999999800e-01,5.644162600000000000e+09
9.300000000000000000e+01,1.710000000000000000e+02,8.880000000000000000e+02,3.370000000000000000e+02,1.090000000000000000e+02,1.310000000000000000e+02,4.600000000000000000e+01,5.300000000000000000e+01,2.999999999999999889e-01,5.667098300000000000e+09
9.400000000000000000e+01,1.770000000000000000e+02,8.970000000000000000e+02,3.310000000000000000e+02,1.060000000000000000e+02,1.270000000000000000e+02,4.600000000000000000e+01,5.200000000000000000e+01,3.099999999999999978e-01,5.686777400000000000e+09
8.800000000000000000e+01,1.860000000000000000e+02,9.470000000000000000e+02,3.000000000000000000e+02,1.150000000000000000e+02,1.400000000000000000e+02,4.700000000000000000e+01,4.800000000000000000e+01,3.099999999999999978e-01,5.706185000000000000e+09
8.900000000000000000e+01,1.830000000000000000e+02,8.920000000000000000e+02,3.160000000000000000e+02,1.170000000000000000e+02,1.360000000000000000e+02,3.900000000000000000e+01,4.600000000000000000e+01,3.200000000000000067e-01,5.726568100000000000e+09
8.500000000000000000e+01,1.760000000000000000e+02,8.900000000000000000e+02,3.140000000000000000e+02,1.140000000000000000e+02,1.440000000000000000e+02,3.900000000000000000e+01,4.400000000000000000e+01,3.300000000000000155e-01,5.746579800000000000e+09
9.100000000000000000e+01,1.790000000000000000e+02,8.810000000000000000e+02,3.490000000000000000e+02,1.240000000000000000e+02,1.450000000000000000e+02,4.300000000000000000e+01,5.200000000000000000e+01,3.400000000000000244e-01,5.781495900000000000e+09
9.200000000000000000e+01,1.810000000000000000e+02,9.450000000000000000e+02,3.960000000000000000e+02,1.340000000000000000e+02,1.480000000000000000e+02,4.600000000000000000e+01,5.300000000000000000e+01,3.400000000000000244e-01,5.799749500000000000e+09
9.200000000000000000e+01,1.730000000000000000e+02,9.380000000000000000e+02,4.290000000000000000e+02,1.290000000000000000e+02,1.310000000000000000e+02,4.700000000000000000e+01,5.600000000000000000e+01,3.499999999999999778e-01,5.818405400000000000e+09
1.250000000000000000e+02,1.900000000000000000e+02,9.980000000000000000e+02,4.630000000000000000e+02,1.420000000000000000e+02,1.280000000000000000e+02,5.200000000000000000e+01,7.600000000000000000e+01,3.499999999999999778e-01,5.836758700000000000e+09
1.460000000000000000e+02,2.120000000000000000e+02,9.340000000000000000e+02,4.640000000000000000e+02,1.590000000000000000e+02,1.200000000000000000e+02,5.500000000000000000e+01,8.600000000000000000e+01,3.400000000000000244e-01,5.854453400000000000e+09
1.370000000000000000e+02,2.080000000000000000e+02,9.410000000000000000e+02,4.270000000000000000e+02,1.470000000000000000e+02,1.110000000000000000e+02,5.100000000000000000e+01,8.000000000000000000e+01,3.400000000000000244e-01,5.873283500000000000e+09
1.450000000000000000e+02,1.960000000000000000e+02,8.150000000000000000e+02,3.890000000000000000e+02,1.530000000000000000e+02,1.180000000000000000e+02,5.000000000000000000e+01,8.500000000000000000e+01,3.400000000000000244e-01,5.892404600000000000e+09
1.420000000000000000e+02,1.860000000000000000e+02,8.140000000000000000e+02,3.520000000000000000e+02,1.520000000000000000e+02,1.200000000000000000e+02,4.800000000000000000e+01,8.300000000000000000e+01,3.400000000000000244e-01,5.909990700000000000e+09
1.360000000000000000e+02,2.020000000000000000e+02,7.920000000000000000e+02,3.420000000000000000e+02,1.450000000000000000e+02,1.260000000000000000e+02,4.700000000000000000e+01,7.800000000000000000e+01,3.400000000000000244e-01,5.928934900000000000e+09
1.240000000000000000e+02,2.230000000000000000e+02,8.230000000000000000e+02,3.640000000000000000e+02,1.280000000000000000e+02,1.330000000000000000e+02,4.200000000000000000e+01,7.100000000000000000e+01,3.400000000000000244e-01,5.948218000000000000e+09
1.500000000000000000e+02,2.480000000000000000e+02,8.520000000000000000e+02,3.890000000000000000e+02,1.530000000000000000e+02,1.630000000000000000e+02,4.700000000000000000e+01,8.600000000000000000e+01,3.400000000000000244e-01,5.967296900000000000e+09
1.500000000000000000e+02,2.750000000000000000e+02,9.380000000000000000e+02,4.070000000000000000e+02,1.450000000000000000e+02,1.560000000000000000e+02,4.600000000000000000e+01,8.400000000000000000e+01,3.400000000000000244e-01,5.988726100000000000e+09
1.470000000000000000e+02,2.730000000000000000e+02,8.780000000000000000e+02,4.230000000000000000e+02,1.350000000000000000e+02,1.530000000000000000e+02,4.400000000000000000e+01,8.200000000000000000e+01,3.300000000000000155e-01,6.006938700000000000e+09
1.300000000000000000e+02,2.470000000000000000e+02,8.430000000000000000e+02,3.950000000000000000e+02,1.250000000000000000e+02,1.430000000000000000e+02,4.200000000000000000e+01,7.000000000000000000e+01,3.300000000000000155e-01,6.026765400000000000e+09
1.220000000000000000e+02,2.140000000000000000e+02,8.240000000000000000e+02,3.750000000000000000e+02,1.220000000000000000e+02,1.360000000000000000e+02,4.000000000000000000e+01,6.700000000000000000e+01,3.300000000000000155e-01,6.046338900000000000e+09
9.800000000000000000e+01,1.880000000000000000e+02,8.200000000000000000e+02,4.040000000000000000e+02,9.800000000000000000e+01,1.070000000000000000e+02,3.600000000000000000e+01,5.100000000000000000e+01,3.400000000000000244e-01,6.066138800000000000e+09
8.100000000000000000e+01,1.540000000000000000e+02,7.540000000000000000e+02,3.720000000000000000e+02,8.500000000000000000e+01,1.180000000000000000e+02,3.500000000000000000e+01,4.500000000000000000e+01,3.599999999999999867e-01,6.088611800000000000e+09
9.400000000000000000e+01,1.560000000000000000e+02,8.020000000000000000e+02,3.450000000000000000e+02,9.300000000000000000e+01,1.180000000000000000e+02,3.900000000000000000e+01,5.400000000000000000e+01,3.699999999999999956e-01,6.107411400000000000e+09
8.900000000000000000e+01,1.590000000000000000e+02,8.220000000000000000e+02,3.300000000000000000e+02,9.400000000000000000e+01,1.190000000000000000e+02,3.600000000000000000e+01,5.300000000000000000e+01,3.800000000000000044e-01,6.126087200000000000e+09
9.200000000000000000e+01,1.860000000000000000e+02,8.760000000000000000e+02,3.280000000000000000e+02,9.300000000000000000e+01,1.220000000000000000e+02,3.500000000000000000e+01,5.300000000000000000e+01,3.900000000000000133e-01,6.146089500000000000e+09
8.200000000000000000e+01,1.820000000000000000e+02,8.320000000000000000e+02,2.480000000000000000e+02,7.900000000000000000e+01,1.120000000000000000e+02,3.600000000000000000e+01,4.900000000000000000e+01,3.900000000000000133e-01,6.169877200000000000e+09
1.010000000000000000e+02,1.830000000000000000e+02,8.420000000000000000e+02,2.620000000000000000e+02,1.010000000000000000e+02,1.140000000000000000e+02,3.600000000000000000e+01,5.900000000000000000e+01,4.000000000000000222e-01,6.188589000000000000e+09
9.600000000000000000e+01,1.900000000000000000e+02,8.320000000000000000e+02,2.470000000000000000e+02,9.900000000000000000e+01,1.090000000000000000e+02,3.300000000000000000e+01,5.400000000000000000e+01,4.199999999999999845e-01,6.207828900000000000e+09
1.080000000000000000e+02,1.890000000000000000e+02,7.940000000000000000e+02,2.590000000000000000e+02,1.080000000000000000e+02,1.270000000000000000e+02,3.600000000000000000e+01,6.000000000000000000e+01,4.299999999999999933e-01,6.226983200000000000e+09
1.010000000000000000e+02,1.520000000000000000e+02,6.920000000000000000e+02,2.450000000000000000e+02,1.060000000000000000e+02,1.340000000000000000e+02,3.700000000000000000e+01,5.800000000000000000e+01,4.400000000000000022e-01,6.245718300000000000e+09
1.050000000000000000e+02,1.530000000000000000e+02,7.010000000000000000e+02,2.390000000000000000e+02,1.110000000000000000e+02,1.410000000000000000e+02,3.400000000000000000e+01,8.600000000000000000e+01,4.500000000000000111e-01,6.265723100000000000e+09
1.020000000000000000e+02,1.510000000000000000e+02,6.480000000000000000e+02,2.430000000000000000e+02,1.140000000000000000e+02,1.470000000000000000e+02,5.300000000000000000e+01,9.200000000000000000e+01,4.400000000000000022e-01,6.287145400000000000e+09
1.030000000000000000e+02,1.590000000000000000e+02,6.290000000000000000e+02,2.530000000000000000e+02,1.150000000000000000e+02,1.500000000000000000e+02,5.800000000000000000e+01,9.200000000000000000e+01,4.400000000000000022e-01,6.306169900000000000e+09
9.600000000000000000e+01,1.430000000000000000e+02,6.010000000000000000e+02,2.290000000000000000e+02,1.130000000000000000e+02,1.780000000000000000e+02,9.100000000000000000e+01,1.450000000000000000e+02,4.400000000000000022e-01,6.324888000000000000e+09
1.160000000000000000e+02,1.570000000000000000e+02,6.640000000000000000e+02,2.260000000000000000e+02,1.280000000000000000e+02,2.000000000000000000e+02,1.220000000000000000e+02,1.490000000000000000e+02,4.400000000000000022e-01,6.345329800000000000e+09
1.130000000000000000e+02,1.570000000000000000e+02,6.890000000000000000e+02,2.260000000000000000e+02,1.270000000000000000e+02,2.830000000000000000e+02,1.300000000000000000e+02,1.840000000000000000e+02,4.400000000000000022e-01,6.370672900000000000e+09
1.050000000000000000e+02,1.460000000000000000e+02,7.090000000000000000e+02,2.020000000000000000e+02,1.090000000000000000e+02,3.100000000000000000e+02,1.310000000000000000e+02,1.920000000000000000e+02,4.299999999999999933e-01,6.389298300000000000e+09
9.500000000000000000e+01,1.310000000000000000e+02,7.570000000000000000e+02,1.750000000000000000e+02,9.800000000000000000e+01,3.190000000000000000e+02,1.330000000000000000e+02,2.020000000000000000e+02,4.299999999999999933e-01,6.407433800000000000e+09
8.800000000000000000e+01,1.330000000000000000e+02,7.740000000000000000e+02,1.640000000000000000e+02,8.600000000000000000e+01,3.090000000000000000e+02,1.300000000000000000e+02,1.840000000000000000e+02,4.199999999999999845e-01,6.425772300000000000e+09
6.200000000000000000e+01,1.120000000000000000e+02,6.960000000000000000e+02,1.430000000000000000e+02,5.800000000000000000e+01,2.980000000000000000e+02,1.260000000000000000e+02,2.020000000000000000e+02,4.199999999999999845e-01,6.445034300000000000e+09
7.500000000000000000e+01,1.500000000000000000e+02,6.650000000000000000e+02,1.760000000000000000e+02,6.800000000000000000e+01,2.240000000000000000e+02,1.220000000000000000e+02,1.670000000000000000e+02,4.199999999999999845e-01,6.466052000000000000e+09
7.600000000000000000e+01,1.510000000000000000e+02,6.460000000000000000e+02,1.710000000000000000e+02,7.100000000000000000e+01,1.820000000000000000e+02,1.180000000000000000e+02,1.520000000000000000e+02,4.199999999999999845e-01,6.489253100000000000e+09
7.700000000000000000e+01,1.420000000000000000e+02,5.840000000000000000e+02,1.930000000000000000e+02,7.100000000000000000e+01,1.650000000000000000e+02,1.180000000000000000e+02,1.370000000000000000e+02,4.299999999999999933e-01,6.507708900000000000e+09
7.700000000000000000e+01,1.390000000000000000e+02,5.690000000000000000e+02,2.170000000000000000e+02,7.600000000000000000e+01,1.460000000000000000e+02,9.900000000000000000e+01,1.110000000000000000e+02,4.299999999999999933e-01,6.531184400000000000e+09
8.400000000000000000e+01,1.480000000000000000e+02,6.510000000000000000e+02,2.630000000000000000e+02,9.200000000000000000e+01,1.350000000000000000e+02,7.400000000000000000e+01,7.400000000000000000e+01,4.299999999999999933e-01,6.549865000000000000e+09
8.900000000000000000e+01,1.290000000000000000e+02,6.610000000000000000e+02,2.780000000000000000e+02,1.010000000000000000e+02,1.350000000000000000e+02,7.000000000000000000e+01,1.150000000000000000e+02,4.400000000000000022e-01,6.571642600000000000e+09
8.400000000000000000e+01,1.270000000000000000e+02,6.810000000000000000e+02,2.980000000000000000e+02,9.800000000000000000e+01,1.270000000000000000e+02,6.600000000000000000e+01,1.160000000000000000e+02,4.400000000000000022e-01,6.589764200000000000e+09
8.700000000000000000e+01,1.250000000000000000e+02,6.440000000000000000e+02,2.920000000000000000e+02,1.060000000000000000e+02,1.440000000000000000e+02,8.000000000000000000e+01,1.160000000000000000e+02,4.500000000000000111e-01,6.608666900000000000e+09
8.700000000000000000e+01,1.320000000000000000e+02,7.090000000000000000e+02,2.680000000000000000e+02,1.030000000000000000e+02,1.510000000000000000e+02,8.200000000000000000e+01,1.150000000000000000e+02,4.600000000000000200e-01,6.628132200000000000e+09
9.200000000000000000e+01,1.410000000000000000e+02,7.470000000000000000e+02,2.760000000000000000e+02,1.010000000000000000e+02,1.490000000000000000e+02,7.800000000000000000e+01,1.160000000000000000e+02,4.699999999999999734e-01,6.648768000000000000e+09
7.500000000000000000e+01,1.230000000000000000e+02,7.280000000000000000e+02,2.480000000000000000e+02,8.000000000000000000e+01,1.390000000000000000e+02,8.100000000000000000e+01,5.500000000000000000e+01,4.799999999999999822e-01,6.674763700000000000e+09
7.500000000000000000e+01,1.310000000000000000e+02,7.050000000000000000e+02,2.340000000000000000e+02,7.900000000000000000e+01,1.360000000000000000e+02,8.300000000000000000e+01,4.800000000000000000e+01,4.799999999999999822e-01,6.693695100000000000e+09
7.800000000000000000e+01,1.410000000000000000e+02,7.370000000000000000e+02,2.450000000000000000e+02,8.400000000000000000e+01,1.130000000000000000e+02,6.500000000000000000e+01,5.200000000000000000e+01,4.899999999999999911e-01,6.711107800000000000e+09
8.100000000000000000e+01,1.640000000000000000e+02,7.670000000000000000e+02,3.010000000000000000e+02,8.300000000000000000e+01,8.900000000000000000e+01,6.900000000000000000e+01,5.500000000000000000e+01,4.899999999999999911e-01,6.729307500000000000e+09
7.400000000000000000e+01,1.650000000000000000e+02,7.850000000000000000e+02,3.180000000000000000e+02,7.900000000000000000e+01,8.900000000000000000e+01,6.700000000000000000e+01,4.800000000000000000e+01,4.899999999999999911e-01,6.748037400000000000e+09
7.000000000000000000e+01,1.580000000000000000e+02,7.760000000000000000e+02,3.130000000000000000e+02,8.000000000000000000e+01,9.200000000000000000e+01,7.100000000000000000e+01,4.400000000000000000e+01,4.899999999999999911e-01,6.767927700000000000e+09
7.200000000000000000e+01,1.540000000000000000e+02,7.730000000000000000e+02,3.000000000000000000e+02,7.900000000000000000e+01,8.900000000000000000e+01,6.700000000000000000e+01,4.400000000000000000e+01,4.899999999999999911e-01,6.789808500000000000e+09
7.700000000000000000e+01,1.650000000000000000e+02,7.980000000000000000e+02,3.410000000000000000e+02,8.200000000000000000e+01,9.200000000000000000e+01,6.200000000000000000e+01,4.600000000000000000e+01,5.000000000000000000e-01,6.808578300000000000e+09
7.500000000000000000e+01,1.470000000000000000e+02,7.870000000000000000e+02,3.080000000000000000e+02,8.700000000000000000e+01,9.700000000000000000e+01,6.500000000000000000e+01,4.700000000000000000e+01,5.000000000000000000e-01,6.828567300000000000e+09
7.700000000000000000e+01,1.470000000000000000e+02,7.090000000000000000e+02,2.840000000000000000e+02,8.600000000000000000e+01,1.190000000000000000e+02,6.600000000000000000e+01,6.300000000000000000e+01,5.000000000000000000e-01,6.854429800000000000e+09
8.300000000000000000e+01,1.510000000000000000e+02,7.420000000000000000e+02,2.940000000000000000e+02,8.900000000000000000e+01,1.380000000000000000e+02,5.900000000000000000e+01,9.300000000000000000e+01,5.100000000000000089e-01,6.873760600000000000e+09
8.000000000000000000e+01,1.480000000000000000e+02,7.970000000000000000e+02,3.150000000000000000e+02,9.100000000000000000e+01,1.430000000000000000e+02,6.800000000000000000e+01,9.700000000000000000e+01,5.100000000000000089e-01,6.892225400000000000e+09
7.200000000000000000e+01,1.290000000000000000e+02,7.820000000000000000e+02,2.580000000000000000e+02,7.800000000000000000e+01,1.710000000000000000e+02,7.200000000000000000e+01,1.080000000000000000e+02,5.100000000000000089e-01,6.911452100000000000e+09
7.600000000000000000e+01,1.280000000000000000e+02,7.230000000000000000e+02,2.460000000000000000e+02,7.700000000000000000e+01,2.520000000000000000e+02,9.600000000000000000e+01,1.130000000000000000e+02,5.100000000000000089e-01,6.930452400000000000e+09
7.800000000000000000e+01,1.050000000000000000e+02,6.800000000000000000e+02,1.910000000000000000e+02,7.600000000000000000e+01,3.910000000000000000e+02,1.940000000000000000e+02,1.650000000000000000e+02,5.200000000000000178e-01,6.948657700000000000e+09
8.700000000000000000e+01,1.010000000000000000e+02,6.140000000000000000e+02,1.630000000000000000e+02,7.600000000000000000e+01,4.240000000000000000e+02,2.320000000000000000e+02,2.040000000000000000e+02,5.200000000000000178e-01,6.968721000000000000e+09
9.100000000000000000e+01,1.090000000000000000e+02,4.990000000000000000e+02,1.170000000000000000e+02,7.700000000000000000e+01,4.630000000000000000e+02,2.810000000000000000e+02,2.570000000000000000e+02,5.100000000000000089e-01,6.988519700000000000e+09
9.900000000000000000e+01,1.070000000000000000e+02,4.130000000000000000e+02,9.700000000000000000e+01,8.000000000000000000e+01,4.990000000000000000e+02,3.040000000000000000e+02,2.910000000000000000e+02,5.100000000000000089e-01,7.008123300000000000e+09
1.150000000000000000e+02,1.160000000000000000e+02,3.010000000000000000e+02,9.600000000000000000e+01,1.030000000000000000e+02,6.230000000000000000e+02,3.260000000000000000e+02,3.280000000000000000e+02,5.100000000000000089e-01,7.027130500000000000e+09
1.400000000000000000e+02,1.200000000000000000e+02,2.740000000000000000e+02,9.800000000000000000e+01,1.130000000000000000e+02,6.050000000000000000e+02,3.990000000000000000e+02,5.410000000000000000e+02,5.100000000000000089e-01,7.047338900000000000e+09
1.370000000000000000e+02,1.330000000000000000e+02,2.460000000000000000e+02,1.090000000000000000e+02,1.200000000000000000e+02,6.210000000000000000e+02,4.290000000000000000e+02,6.110000000000000000e+02,5.000000000000000000e-01,7.068747900000000000e+09
1.390000000000000000e+02,1.240000000000000000e+02,2.040000000000000000e+02,1.070000000000000000e+02,1.210000000000000000e+02,6.030000000000000000e+02,4.150000000000000000e+02,6.120000000000000000e+02,5.000000000000000000e-01,7.089781600000000000e+09
1.400000000000000000e+02,1.240000000000000000e+02,1.350000000000000000e+02,1.020000000000000000e+02,1.180000000000000000e+02,5.990000000000000000e+02,4.170000000000000000e+02,6.430000000000000000e+02,5.000000000000000000e-01,7.108472800000000000e+09
1.280000000000000000e+02,1.060000000000000000e+02,1.790000000000000000e+02,9.200000000000000000e+01,9.800000000000000000e+01,4.430000000000000000e+02,4.050000000000000000e+02,6.840000000000000000e+02,5.000000000000000000e-01,7.127710000000000000e+09
9.300000000000000000e+01,1.170000000000000000e+02,1.970000000000000000e+02,8.500000000000000000e+01,7.700000000000000000e+01,3.640000000000000000e+02,3.260000000000000000e+02,5.340000000000000000e+02,5.000000000000000000e-01,7.146739900000000000e+09
9.100000000000000000e+01,1.010000000000000000e+02,2.530000000000000000e+02,8.700000000000000000e+01,6.000000000000000000e+01,2.910000000000000000e+02,2.730000000000000000e+02,4.350000000000000000e+02,4.899999999999999911e-01,7.168604700000000000e+09
8.300000000000000000e+01,1.060000000000000000e+02,2.940000000000000000e+02,1.010000000000000000e+02,5.400000000000000000e+01,2.650000000000000000e+02,2.880000000000000000e+02,4.110000000000000000e+02,4.799999999999999822e-01,7.192409000000000000e+09
6.600000000000000000e+01,1.050000000000000000e+02,3.410000000000000000e+02,1.190000000000000000e+02,5.400000000000000000e+01,1.840000000000000000e+02,2.620000000000000000e+02,3.330000000000000000e+02,4.799999999999999822e-01,7.210298000000000000e+09
5.800000000000000000e+01,1.060000000000000000e+02,3.300000000000000000e+02,1.340000000000000000e+02,5.200000000000000000e+01,1.520000000000000000e+02,2.440000000000000000e+02,1.810000000000000000e+02,4.799999999999999822e-01,7.233385400000000000e+09
5.200000000000000000e+01,9.100000000000000000e+01,3.260000000000000000e+02,1.580000000000000000e+02,5.500000000000000000e+01,1.150000000000000000e+02,1.910000000000000000e+02,1.220000000000000000e+02,4.799999999999999822e-01,7.251734100000000000e+09
3.500000000000000000e+01,9.000000000000000000e+01,3.070000000000000000e+02,1.540000000000000000e+02,5.700000000000000000e+01,8.900000000000000000e+01,1.680000000000000000e+02,1.070000000000000000e+02,4.899999999999999911e-01,7.273734900000000000e+09
3.800000000000000000e+01,9.000000000000000000e+01,2.940000000000000000e+02,1.500000000000000000e+02,5.400000000000000000e+01,1.100000000000000000e+02,1.350000000000000000e+02,1.060000000000000000e+02,4.899999999999999911e-01,7.291674800000000000e+09
3.500000000000000000e+01,9.100000000000000000e+01,2.930000000000000000e+02,1.390000000000000000e+02,5.100000000000000000e+01,1.030000000000000000e+02,1.360000000000000000e+02,9.800000000000000000e+01,5.000000000000000000e-01,7.309879000000000000e+09
3.400000000000000000e+01,8.300000000000000000e+01,2.780000000000000000e+02,1.300000000000000000e+02,5.200000000000000000e+01,1.010000000000000000e+02,1.370000000000000000e+02,9.300000000000000000e+01,5.000000000000000000e-01,7.329360300000000000e+09
3.600000000000000000e+01,7.700000000000000000e+01,2.790000000000000000e+02,1.250000000000000000e+02,4.900000000000000000e+01,1.000000000000000000e+02,1.420000000000000000e+02,9.500000000000000000e+01,5.000000000000000000e-01,7.348031200000000000e+09
3.900000000000000000e+01,7.400000000000000000e+01,2.650000000000000000e+02,1.290000000000000000e+02,4.600000000000000000e+01,1.010000000000000000e+02,1.360000000000000000e+02,9.300000000000000000e+01,5.100000000000000089e-01,7.367209000000000000e+09
3.700000000000000000e+01,6.800000000000000000e+01,2.490000000000000000e+02,1.470000000000000000e+02,4.500000000000000000e+01,6.900000000000000000e+01,7.500000000000000000e+01,6.300000000000000000e+01,5.200000000000000178e-01,7.389860800000000000e+09
4.400000000000000000e+01,8.100000000000000000e+01,2.010000000000000000e+02,2.610000000000000000e+02,5.000000000000000000e+01,5.900000000000000000e+01,6.800000000000000000e+01,6.100000000000000000e+01,5.400000000000000355e-01,7.408394000000000000e+09
5.800000000000000000e+01,1.160000000000000000e+02,2.130000000000000000e+02,3.460000000000000000e+02,6.500000000000000000e+01,6.200000000000000000e+01,6.500000000000000000e+01,6.500000000000000000e+01,5.600000000000000533e-01,7.427028900000000000e+09
6.500000000000000000e+01,1.430000000000000000e+02,2.000000000000000000e+02,3.570000000000000000e+02,8.700000000000000000e+01,5.600000000000000000e+01,8.400000000000000000e+01,7.200000000000000000e+01,5.799999999999999600e-01,7.446488300000000000e+09
8.400000000000000000e+01,2.000000000000000000e+02,1.980000000000000000e+02,3.820000000000000000e+02,9.300000000000000000e+01,5.700000000000000000e+01,1.360000000000000000e+02,1.210000000000000000e+02,5.899999999999999689e-01,7.477034400000000000e+09
8.700000000000000000e+01,2.180000000000000000e+02,1.860000000000000000e+02,4.150000000000000000e+02,1.030000000000000000e+02,5.500000000000000000e+01,1.460000000000000000e+02,1.290000000000000000e+02,6.099999999999999867e-01,7.495143200000000000e+09
8.500000000000000000e+01,2.290000000000000000e+02,1.620000000000000000e+02,3.670000000000000000e+02,1.080000000000000000e+02,5.600000000000000000e+01,1.540000000000000000e+02,1.320000000000000000e+02,6.199999999999999956e-01,7.512903200000000000e+09
8.800000000000000000e+01,2.500000000000000000e+02,1.410000000000000000e+02,3.110000000000000000e+02,1.040000000000000000e+02,5.100000000000000000e+01,1.550000000000000000e+02,1.290000000000000000e+02,6.300000000000000044e-01,7.530335900000000000e+09
9.000000000000000000e+01,2.550000000000000000e+02,1.470000000000000000e+02,3.290000000000000000e+02,9.400000000000000000e+01,4.900000000000000000e+01,1.410000000000000000e+02,1.230000000000000000e+02,6.500000000000000222e-01,7.548931100000000000e+09
8.700000000000000000e+01,2.230000000000000000e+02,1.350000000000000000e+02,3.260000000000000000e+02,9.300000000000000000e+01,4.300000000000000000e+01,9.400000000000000000e+01,7.900000000000000000e+01,6.600000000000000311e-01,7.571964900000000000e+09
9.600000000000000000e+01,2.640000000000000000e+02,1.410000000000000000e+02,2.800000000000000000e+02,8.500000000000000000e+01,4.400000000000000000e+01,7.700000000000000000e+01,6.700000000000000000e+01,6.800000000000000488e-01,7.596349100000000000e+09
1.020000000000000000e+02,2.560000000000000000e+02,1.450000000000000000e+02,2.670000000000000000e+02,7.800000000000000000e+01,4.100000000000000000e+01,5.700000000000000000e+01,6.600000000000000000e+01,6.899999999999999467e-01,7.614699700000000000e+09
9.300000000000000000e+01,2.260000000000000000e+02,1.580000000000000000e+02,2.930000000000000000e+02,8.400000000000000000e+01,4.200000000000000000e+01,5.100000000000000000e+01,7.300000000000000000e+01,6.999999999999999556e-01,7.631915400000000000e+09
8.900000000000000000e+01,2.220000000000000000e+02,1.590000000000000000e+02,2.700000000000000000e+02,7.900000000000000000e+01,4.200000000000000000e+01,4.500000000000000000e+01,7.200000000000000000e+01,6.999999999999999556e-01,7.649717800000000000e+09
7.400000000000000000e+01,2.210000000000000000e+02,1.530000000000000000e+02,2.330000000000000000e+02,7.200000000000000000e+01,3.800000000000000000e+01,3.600000000000000000e+01,6.600000000000000000e+01,6.999999999999999556e-01,7.669631300000000000e+09
5.900000000000000000e+01,1.570000000000000000e+02,1.400000000000000000e+02,2.280000000000000000e+02,7.200000000000000000e+01,4.300000000000000000e+01,3.300000000000000000e+01,6.300000000000000000e+01,6.999999999999999556e-01,7.690241800000000000e+09
4.500000000000000000e+01,1.480000000000000000e+02,1.380000000000000000e+02,2.360000000000000000e+02,7.000000000000000000e+01,4.400000000000000000e+01,2.700000000000000000e+01,4.900000000000000000e+01,6.999999999999999556e-01,7.721146300000000000e+09
4.300000000000000000e+01,1.460000000000000000e+02,1.650000000000000000e+02,1.650000000000000000e+02,4.900000000000000000e+01,4.200000000000000000e+01,2.300000000000000000e+01,3.200000000000000000e+01,6.999999999999999556e-01,7.738555700000000000e+09
5.100000000000000000e+01,1.310000000000000000e+02,2.020000000000000000e+02,1.280000000000000000e+02,5.000000000000000000e+01,4.700000000000000000e+01,2.400000000000000000e+01,2.900000000000000000e+01,6.999999999999999556e-01,7.757656800000000000e+09
5.200000000000000000e+01,1.250000000000000000e+02,2.050000000000000000e+02,1.390000000000000000e+02,5.200000000000000000e+01,4.800000000000000000e+01,2.500000000000000000e+01,3.000000000000000000e+01,6.899999999999999467e-01,7.777905800000000000e+09
5.300000000000000000e+01,1.200000000000000000e+02,2.040000000000000000e+02,1.520000000000000000e+02,6.100000000000000000e+01,4.800000000000000000e+01,2.400000000000000000e+01,3.100000000000000000e+01,6.899999999999999467e-01,7.795947900000000000e+09
5.800000000000000000e+01,1.190000000000000000e+02,2.130000000000000000e+02,1.370000000000000000e+02,7.600000000000000000e+01,5.300000000000000000e+01,2.600000000000000000e+01,3.200000000000000000e+01,6.800000000000000488e-01,7.814227900000000000e+09
6.900000000000000000e+01,1.560000000000000000e+02,2.320000000000000000e+02,1.380000000000000000e+02,8.200000000000000000e+01,5.700000000000000000e+01,2.600000000000000000e+01,3.500000000000000000e+01,6.800000000000000488e-01,7.831522900000000000e+09
5.800000000000000000e+01,1.660000000000000000e+02,1.960000000000000000e+02,1.360000000000000000e+02,7.900000000000000000e+01,5.500000000000000000e+01,2.600000000000000000e+01,3.100000000000000000e+01,6.700000000000000400e-01,7.849295000000000000e+09
7.300000000000000000e+01,1.600000000000000000e+02,1.930000000000000000e+02,1.410000000000000000e+02,7.800000000000000000e+01,6.400000000000000000e+01,2.500000000000000000e+01,3.200000000000000000e+01,6.600000000000000311e-01,7.871232000000000000e+09
7.600000000000000000e+01,1.850000000000000000e+02,2.480000000000000000e+02,1.210000000000000000e+02,6.700000000000000000e+01,6.100000000000000000e+01,2.400000000000000000e+01,3.200000000000000000e+01,6.600000000000000311e-01,7.894780000000000000e+09
7.900000000000000000e+01,2.120000000000000000e+02,4.090000000000000000e+02,1.270000000000000000e+02,5.000000000000000000e+01,5.800000000000000000e+01,2.300000000000000000e+01,3.200000000000000000e+01,6.600000000000000311e-01,7.912784200000000000e+09
7.700000000000000000e+01,2.230000000000000000e+02,4.280000000000000000e+02,1.160000000000000000e+02,4.300000000000000000e+01,5.900000000000000000e+01,2.600000000000000000e+01,3.000000000000000000e+01,6.600000000000000311e-01,7.930769500000000000e+09
8.200000000000000000e+01,2.200000000000000000e+02,4.490000000000000000e+02,1.160000000000000000e+02,4.100000000000000000e+01,5.700000000000000000e+01,2.500000000000000000e+01,2.900000000000000000e+01,6.600000000000000311e-01,7.948869400000000000e+09
7.300000000000000000e+01,2.240000000000000000e+02,4.860000000000000000e+02,1.040000000000000000e+02,4.600000000000000000e+01,4.900000000000000000e+01,2.600000000000000000e+01,3.100000000000000000e+01,6.500000000000000222e-01,7.971938000000000000e+09
1.170000000000000000e+02,2.000000000000000000e+02,4.680000000000000000e+02,1.050000000000000000e+02,4.400000000000000000e+01,4.600000000000000000e+01,2.600000000000000000e+01,3.100000000000000000e+01,6.500000000000000222e-01,7.992078600000000000e+09
1.140000000000000000e+02,1.950000000000000000e+02,3.620000000000000000e+02,9.100000000000000000e+01,4.600000000000000000e+01,5.700000000000000000e+01,2.600000000000000000e+01,3.200000000000000000e+01,6.500000000000000222e-01,8.010179500000000000e+09
1.180000000000000000e+02,1.460000000000000000e+02,3.630000000000000000e+02,1.410000000000000000e+02,4.400000000000000000e+01,5.900000000000000000e+01,2.300000000000000000e+01,3.200000000000000000e+01,6.600000000000000311e-01,8.029130700000000000e+09
1.430000000000000000e+02,1.370000000000000000e+02,3.710000000000000000e+02,1.530000000000000000e+02,4.400000000000000000e+01,7.300000000000000000e+01,2.600000000000000000e+01,4.000000000000000000e+01,6.600000000000000311e-01,8.047415600000000000e+09
2.050000000000000000e+02,1.370000000000000000e+02,3.390000000000000000e+02,1.470000000000000000e+02,3.900000000000000000e+01,7.200000000000000000e+01,2.800000000000000000e+01,4.800000000000000000e+01,6.600000000000000311e-01,8.069226600000000000e+09
2.030000000000000000e+02,1.410000000000000000e+02,3.510000000000000000e+02,1.450000000000000000e+02,3.800000000000000000e+01,7.200000000000000000e+01,2.900000000000000000e+01,4.800000000000000000e+01,6.600000000000000311e-01,8.089278200000000000e+09
2.150000000000000000e+02,1.060000000000000000e+02,3.450000000000000000e+02,1.490000000000000000e+02,3.500000000000000000e+01,6.600000000000000000e+01,2.700000000000000000e+01,4.800000000000000000e+01,6.600000000000000311e-01,8.107900000000000000e+09
2.170000000000000000e+02,1.160000000000000000e+02,2.910000000000000000e+02,9.900000000000000000e+01,3.300000000000000000e+01,5.800000000000000000e+01,2.900000000000000000e+01,4.900000000000000000e+01,6.600000000000000311e-01,8.127368800000000000e+09
2.060000000000000000e+02,1.060000000000000000e+02,2.650000000000000000e+02,7.800000000000000000e+01,3.400000000000000000e+01,3.900000000000000000e+01,2.900000000000000000e+01,4.400000000000000000e+01,6.500000000000000222e-01,8.149930900000000000e+09
1.570000000000000000e+02,1.040000000000000000e+02,2.650000000000000000e+02,7.500000000000000000e+01,3.800000000000000000e+01,3.600000000000000000e+01,2.600000000000000000e+01,3.600000000000000000e+01,6.500000000000000222e-01,8.175003100000000000e+09
1.320000000000000000e+02,9.700000000000000000e+01,2.570000000000000000e+02,7.700000000000000000e+01,3.800000000000000000e+01,3.200000000000000000e+01,2.400000000000000000e+01,3.700000000000000000e+01,6.400000000000000133e-01,8.192896800000000000e+09
1.210000000000000000e+02,9.700000000000000000e+01,2.700000000000000000e+02,7.600000000000000000e+01,3.800000000000000000e+01,3.100000000000000000e+01,2.500000000000000000e+01,4.100000000000000000e+01,6.400000000000000133e-01,8.211273400000000000e+09
1.130000000000000000e+02,8.300000000000000000e+01,2.990000000000000000e+02,9.100000000000000000e+01,3.600000000000000000e+01,3.200000000000000000e+01,2.300000000000000000e+01,4.100000000000000000e+01,6.300000000000000044e-01,8.231753600000000000e+09
1.310000000000000000e+02,1.080000000000000000e+02,3.400000000000000000e+02,9.400000000000000000e+01,3.600000000000000000e+01,3.400000000000000000e+01,2.000000000000000000e+01,4.400000000000000000e+01,6.300000000000000044e-01,8.253239300000000000e+09
1.520000000000000000e+02,1.180000000000000000e+02,3.610000000000000000e+02,9.700000000000000000e+01,3.100000000000000000e+01,3.200000000000000000e+01,2.700000000000000000e+01,1.170000000000000000e+02,6.199999999999999956e-01,8.273962900000000000e+09
1.620000000000000000e+02,1.160000000000000000e+02,3.500000000000000000e+02,9.200000000000000000e+01,3.000000000000000000e+01,3.300000000000000000e+01,2.700000000000000000e+01,1.160000000000000000e+02,6.199999999999999956e-01,8.291700700000000000e+09
1.670000000000000000e+02,1.310000000000000000e+02,3.460000000000000000e+02,8.400000000000000000e+01,3.100000000000000000e+01,3.800000000000000000e+01,3.000000000000000000e+01,1.160000000000000000e+02,6.099999999999999867e-01,8.309948100000000000e+09
1.740000000000000000e+02,1.340000000000000000e+02,4.160000000000000000e+02,7.100000000000000000e+01,3.300000000000000000e+01,4.000000000000000000e+01,2.900000000000000000e+01,1.220000000000000000e+02,6.099999999999999867e-01,8.329708600000000000e+09
1.530000000000000000e+02,1.200000000000000000e+02,3.780000000000000000e+02,8.300000000000000000e+01,3.000000000000000000e+01,4.000000000000000000e+01,2.900000000000000000e+01,1.230000000000000000e+02,6.099999999999999867e-01,8.348367700000000000e+09
2.070000000000000000e+02,1.190000000000000000e+02,3.490000000000000000e+02,8.800000000000000000e+01,3.100000000000000000e+01,4.800000000000000000e+01,3.000000000000000000e+01,9.200000000000000000e+01,6.099999999999999867e-01,8.370680600000000000e+09
2.090000000000000000e+02,1.590000000000000000e+02,4.750000000000000000e+02,1.360000000000000000e+02,4.900000000000000000e+01,5.000000000000000000e+01,3.000000000000000000e+01,9.900000000000000000e+01,6.099999999999999867e-01,8.392235400000000000e+09
2.080000000000000000e+02,1.620000000000000000e+02,4.610000000000000000e+02,1.370000000000000000e+02,5.000000000000000000e+01,1.690000000000000000e+02,6.300000000000000000e+01,1.520000000000000000e+02,6.099999999999999867e-01,8.410708100000000000e+09
2.040000000000000000e+02,1.720000000000000000e+02,3.810000000000000000e+02,1.380000000000000000e+02,6.000000000000000000e+01,5.540000000000000000e+02,7.600000000000000000e+01,1.500000000000000000e+02,6.099999999999999867e-01,8.428746800000000000e+09
2.230000000000000000e+02,1.940000000000000000e+02,4.580000000000000000e+02,1.300000000000000000e+02,6.100000000000000000e+01,8.820000000000000000e+02,9.800000000000000000e+01,1.600000000000000000e+02,6.199999999999999956e-01,8.450164800000000000e+09
1.740000000000000000e+02,1.960000000000000000e+02,4.930000000000000000e+02,1.420000000000000000e+02,6.400000000000000000e+01,9.350000000000000000e+02,1.020000000000000000e+02,1.460000000000000000e+02,6.300000000000000044e-01,8.470305300000000000e+09
1.760000000000000000e+02,1.920000000000000000e+02,3.860000000000000000e+02,1.010000000000000000e+02,5.600000000000000000e+01,9.940000000000000000e+02,1.060000000000000000e+02,1.440000000000000000e+02,6.400000000000000133e-01,8.490544100000000000e+09
1.900000000000000000e+02,1.950000000000000000e+02,4.220000000000000000e+02,1.040000000000000000e+02,5.600000000000000000e+01,1.044000000000000000e+03,9.700000000000000000e+01,2.000000000000000000e+02,6.400000000000000133e-01,8.508612400000000000e+09
2.430000000000000000e+02,2.360000000000000000e+02,4.480000000000000000e+02,1.050000000000000000e+02,6.200000000000000000e+01,9.240000000000000000e+02,1.030000000000000000e+02,2.040000000000000000e+02,6.500000000000000222e-01,8.532592700000000000e+09
2.660000000000000000e+02,2.320000000000000000e+02,3.820000000000000000e+02,1.010000000000000000e+02,6.100000000000000000e+01,6.390000000000000000e+02,9.100000000000000000e+01,2.020000000000000000e+02,6.600000000000000311e-01,8.551648900000000000e+09
3.010000000000000000e+02,2.250000000000000000e+02,3.280000000000000000e+02,7.300000000000000000e+01,5.900000000000000000e+01,5.600000000000000000e+02,8.600000000000000000e+01,2.100000000000000000e+02,6.600000000000000311e-01,8.571943300000000000e+09
3.120000000000000000e+02,2.040000000000000000e+02,3.100000000000000000e+02,8.400000000000000000e+01,6.100000000000000000e+01,4.540000000000000000e+02,8.300000000000000000e+01,2.100000000000000000e+02,6.600000000000000311e-01,8.591725700000000000e+09
3.150000000000000000e+02,1.960000000000000000e+02,2.760000000000000000e+02,1.020000000000000000e+02,7.800000000000000000e+01,4.080000000000000000e+02,1.010000000000000000e+02,1.220000000000000000e+02,6.600000000000000311e-01,8.610051900000000000e+09
2.840000000000000000e+02,1.730000000000000000e+02,2.170000000000000000e+02,1.140000000000000000e+02,7.100000000000000000e+01,3.860000000000000000e+02,1.090000000000000000e+02,1.440000000000000000e+02,6.600000000000000311e-01,8.630748700000000000e+09
2.740000000000000000e+02,2.140000000000000000e+02,1.750000000000000000e+02,1.140000000000000000e+02,7.900000000000000000e+01,4.210000000000000000e+02,1.260000000000000000e+02,1.780000000000000000e+02,6.500000000000000222e-01,8.648841200000000000e+09
2.630000000000000000e+02,2.210000000000000000e+02,1.760000000000000000e+02,1.200000000000000000e+02,7.800000000000000000e+01,4.290000000000000000e+02,1.280000000000000000e+02,1.800000000000000000e+02,6.400000000000000133e-01,8.668637400000000000e+09
2.740000000000000000e+02,2.420000000000000000e+02,2.400000000000000000e+02,1.580000000000000000e+02,7.800000000000000000e+01,4.290000000000000000e+02,2.060000000000000000e+02,2.030000000000000000e+02,6.300000000000000044e-01,8.691745700000000000e+09
2.950000000000000000e+02,2.830000000000000000e+02,3.050000000000000000e+02,1.680000000000000000e+02,7.400000000000000000e+01,3.270000000000000000e+02,2.130000000000000000e+02,2.060000000000000000e+02,6.300000000000000044e-01,8.710111300000000000e+09
3.160000000000000000e+02,3.580000000000000000e+02,5.000000000000000000e+02,3.980000000000000000e+02,9.400000000000000000e+01,3.030000000000000000e+02,2.120000000000000000e+02,2.000000000000000000e+02,6.199999999999999956e-01,8.729748900000000000e+09
3.770000000000000000e+02,4.520000000000000000e+02,6.720000000000000000e+02,4.670000000000000000e+02,9.700000000000000000e+01,2.140000000000000000e+02,2.030000000000000000e+02,1.640000000000000000e+02,5.999999999999999778e-01,8.753064800000000000e+09
3.940000000000000000e+02,4.960000000000000000e+02,7.440000000000000000e+02,5.440000000000000000e+02,1.380000000000000000e+02,2.160000000000000000e+02,2.350000000000000000e+02,2.000000000000000000e+02,5.899999999999999689e-01,8.773743400000000000e+09
4.130000000000000000e+02,6.010000000000000000e+02,7.400000000000000000e+02,5.420000000000000000e+02,1.470000000000000000e+02,2.670000000000000000e+02,2.210000000000000000e+02,2.060000000000000000e+02,5.699999999999999512e-01,8.791944900000000000e+09
4.680000000000000000e+02,6.270000000000000000e+02,7.700000000000000000e+02,5.530000000000000000e+02,1.460000000000000000e+02,3.550000000000000000e+02,2.950000000000000000e+02,2.210000000000000000e+02,5.600000000000000533e-01,8.811648900000000000e+09
4.880000000000000000e+02,6.820000000000000000e+02,6.770000000000000000e+02,4.310000000000000000e+02,1.360000000000000000e+02,3.660000000000000000e+02,3.270000000000000000e+02,2.740000000000000000e+02,5.400000000000000355e-01,8.832381000000000000e+09
4.640000000000000000e+02,6.670000000000000000e+02,5.140000000000000000e+02,3.660000000000000000e+02,1.400000000000000000e+02,4.720000000000000000e+02,3.650000000000000000e+02,3.250000000000000000e+02,5.200000000000000178e-01,8.850072800000000000e+09
4.570000000000000000e+02,7.130000000000000000e+02,4.140000000000000000e+02,2.350000000000000000e+02,1.040000000000000000e+02,4.940000000000000000e+02,3.570000000000000000e+02,3.630000000000000000e+02,5.200000000000000178e-01,8.870034600000000000e+09
4.440000000000000000e+02,6.790000000000000000e+02,4.000000000000000000e+02,2.140000000000000000e+02,1.000000000000000000e+02,5.070000000000000000e+02,3.540000000000000000e+02,4.040000000000000000e+02,5.100000000000000089e-01,8.902088400000000000e+09
3.920000000000000000e+02,7.260000000000000000e+02,2.770000000000000000e+02,1.650000000000000000e+02,1.030000000000000000e+02,5.030000000000000000e+02,3.090000000000000000e+02,4.370000000000000000e+02,5.100000000000000089e-01,8.923048900000000000e+09
3.610000000000000000e+02,6.750000000000000000e+02,4.460000000000000000e+02,2.240000000000000000e+02,1.130000000000000000e+02,5.280000000000000000e+02,2.840000000000000000e+02,4.160000000000000000e+02,5.000000000000000000e-01,8.965324300000000000e+09
3.270000000000000000e+02,6.260000000000000000e+02,5.560000000000000000e+02,2.700000000000000000e+02,1.060000000000000000e+02,4.360000000000000000e+02,2.340000000000000000e+02,3.850000000000000000e+02,4.899999999999999911e-01,8.985959600000000000e+09
3.420000000000000000e+02,5.810000000000000000e+02,6.730000000000000000e+02,5.550000000000000000e+02,1.310000000000000000e+02,4.010000000000000000e+02,2.170000000000000000e+02,3.300000000000000000e+02,4.799999999999999822e-01,9.003170100000000000e+09
4.350000000000000000e+02,6.370000000000000000e+02,7.350000000000000000e+02,6.180000000000000000e+02,1.550000000000000000e+02,3.590000000000000000e+02,1.800000000000000000e+02,2.750000000000000000e+02,4.600000000000000200e-01,9.021360200000000000e+09
4.530000000000000000e+02,5.770000000000000000e+02,8.030000000000000000e+02,6.740000000000000000e+02,1.610000000000000000e+02,2.750000000000000000e+02,1.400000000000000000e+02,1.990000000000000000e+02,4.600000000000000200e-01,9.038824400000000000e+09
4.500000000000000000e+02,5.700000000000000000e+02,8.350000000000000000e+02,6.740000000000000000e+02,1.610000000000000000e+02,2.000000000000000000e+02,1.010000000000000000e+02,1.630000000000000000e+02,4.400000000000000022e-01,9.057609700000000000e+09
4.630000000000000000e+02,6.590000000000000000e+02,8.080000000000000000e+02,6.610000000000000000e+02,1.730000000000000000e+02,2.830000000000000000e+02,1.060000000000000000e+02,1.540000000000000000e+02,4.400000000000000022e-01,9.077042100000000000e+09
4.330000000000000000e+02,6.690000000000000000e+02,7.260000000000000000e+02,4.540000000000000000e+02,1.610000000000000000e+02,4.150000000000000000e+02,2.590000000000000000e+02,1.840000000000000000e+02,4.299999999999999933e-01,9.095714300000000000e+09
3.470000000000000000e+02,5.680000000000000000e+02,6.820000000000000000e+02,3.670000000000000000e+02,1.330000000000000000e+02,4.330000000000000000e+02,2.780000000000000000e+02,2.160000000000000000e+02,4.099999999999999756e-01,9.112724800000000000e+09
3.330000000000000000e+02,5.710000000000000000e+02,6.110000000000000000e+02,2.590000000000000000e+02,1.220000000000000000e+02,4.550000000000000000e+02,2.840000000000000000e+02,2.550000000000000000e+02,4.000000000000000222e-01,9.130537300000000000e+09
3.540000000000000000e+02,5.240000000000000000e+02,4.260000000000000000e+02,1.790000000000000000e+02,1.120000000000000000e+02,4.580000000000000000e+02,3.000000000000000000e+02,3.010000000000000000e+02,3.900000000000000133e-01,9.148454100000000000e+09
4.250000000000000000e+02,4.480000000000000000e+02,3.800000000000000000e+02,1.490000000000000000e+02,9.300000000000000000e+01,4.400000000000000000e+02,3.350000000000000000e+02,3.680000000000000000e+02,3.800000000000000044e-01,9.166847000000000000e+09
4.280000000000000000e+02,3.980000000000000000e+02,3.590000000000000000e+02,1.420000000000000000e+02,8.500000000000000000e+01,3.260000000000000000e+02,3.100000000000000000e+02,4.040000000000000000e+02,3.699999999999999956e-01,9.186054100000000000e+09
4.120000000000000000e+02,3.740000000000000000e+02,3.160000000000000000e+02,1.280000000000000000e+02,8.000000000000000000e+01,2.830000000000000000e+02,2.950000000000000000e+02,3.930000000000000000e+02,3.699999999999999956e-01,9.204406300000000000e+09
4.110000000000000000e+02,3.010000000000000000e+02,3.310000000000000000e+02,1.240000000000000000e+02,8.200000000000000000e+01,2.380000000000000000e+02,2.920000000000000000e+02,3.720000000000000000e+02,3.800000000000000044e-01,9.222262600000000000e+09
3.880000000000000000e+02,3.570000000000000000e+02,4.770000000000000000e+02,1.740000000000000000e+02,8.500000000000000000e+01,2.270000000000000000e+02,2.790000000000000000e+02,3.550000000000000000e+02,3.800000000000000044e-01,9.240544700000000000e+09
3.720000000000000000e+02,3.810000000000000000e+02,6.700000000000000000e+02,2.840000000000000000e+02,1.010000000000000000e+02,1.750000000000000000e+02,2.410000000000000000e+02,2.990000000000000000e+02,3.900000000000000133e-01,9.259353400000000000e+09
3.770000000000000000e+02,3.970000000000000000e+02,7.540000000000000000e+02,3.890000000000000000e+02,1.260000000000000000e+02,1.800000000000000000e+02,1.330000000000000000e+02,2.290000000000000000e+02,4.000000000000000222e-01,9.279785100000000000e+09
3.960000000000000000e+02,4.800000000000000000e+02,7.600000000000000000e+02,4.140000000000000000e+02,1.320000000000000000e+02,2.010000000000000000e+02,1.260000000000000000e+02,1.990000000000000000e+02,4.000000000000000222e-01,9.298125400000000000e+09
3.600000000000000000e+02,5.330000000000000000e+02,7.440000000000000000e+02,4.180000000000000000e+02,1.320000000000000000e+02,2.290000000000000000e+02,1.770000000000000000e+02,3.450000000000000000e+02,4.000000000000000222e-01,9.316885300000000000e+09
3.730000000000000000e+02,5.240000000000000000e+02,7.130000000000000000e+02,4.060000000000000000e+02,1.330000000000000000e+02,2.690000000000000000e+02,2.580000000000000000e+02,3.560000000000000000e+02,4.000000000000000222e-01,9.334576100000000000e+09
3.080000000000000000e+02,4.980000000000000000e+02,5.660000000000000000e+02,3.550000000000000000e+02,1.180000000000000000e+02,2.840000000000000000e+02,2.580000000000000000e+02,3.510000000000000000e+02,3.800000000000000044e-01,9.352856600000000000e+09
3.160000000000000000e+02,5.050000000000000000e+02,6.520000000000000000e+02,3.700000000000000000e+02,1.100000000000000000e+02,2.990000000000000000e+02,2.640000000000000000e+02,3.530000000000000000e+02,3.800000000000000044e-01,9.372282000000000000e+09
3.830000000000000000e+02,4.590000000000000000e+02,6.720000000000000000e+02,3.720000000000000000e+02,1.070000000000000000e+02,3.160000000000000000e+02,2.660000000000000000e+02,3.610000000000000000e+02,3.699999999999999956e-01,9.391790600000000000e+09
4.100000000000000000e+02,4.260000000000000000e+02,7.170000000000000000e+02,3.670000000000000000e+02,1.110000000000000000e+02,3.040000000000000000e+02,2.510000000000000000e+02,3.300000000000000000e+02,3.699999999999999956e-01,9.411015300000000000e+09
4.440000000000000000e+02,4.120000000000000000e+02,6.800000000000000000e+02,3.640000000000000000e+02,1.120000000000000000e+02,2.600000000000000000e+02,1.660000000000000000e+02,3.000000000000000000e+02,3.699999999999999956e-01,9.431762700000000000e+09
4.350000000000000000e+02,3.960000000000000000e+02,7.310000000000000000e+02,3.930000000000000000e+02,1.190000000000000000e+02,2.300000000000000000e+02,1.540000000000000000e+02,2.980000000000000000e+02,3.599999999999999867e-01,9.456362200000000000e+09
4.280000000000000000e+02,3.800000000000000000e+02,6.790000000000000000e+02,4.310000000000000000e+02,1.350000000000000000e+02,2.100000000000000000e+02,1.500000000000000000e+02,3.080000000000000000e+02,3.599999999999999867e-01,9.483390100000000000e+09
3.930000000000000000e+02,3.460000000000000000e+02,6.730000000000000000e+02,4.380000000000000000e+02,1.340000000000000000e+02,1.660000000000000000e+02,1.940000000000000000e+02,3.460000000000000000e+02,3.599999999999999867e-01,9.505581900000000000e+09
3.960000000000000000e+02,3.680000000000000000e+02,6.470000000000000000e+02,4.370000000000000000e+02,1.290000000000000000e+02,1.900000000000000000e+02,2.050000000000000000e+02,3.310000000000000000e+02,3.599999999999999867e-01,9.525905000000000000e+09
4.230000000000000000e+02,3.750000000000000000e+02,6.900000000000000000e+02,4.420000000000000000e+02,1.340000000000000000e+02,3.520000000000000000e+02,2.500000000000000000e+02,4.700000000000000000e+02,3.699999999999999956e-01,9.549438500000000000e+09
4.370000000000000000e+02,3.520000000000000000e+02,6.410000000000000000e+02,4.240000000000000000e+02,1.410000000000000000e+02,4.110000000000000000e+02,2.880000000000000000e+02,5.030000000000000000e+02,3.699999999999999956e-01,9.569164700000000000e+09
4.550000000000000000e+02,3.600000000000000000e+02,5.060000000000000000e+02,2.610000000000000000e+02,1.080000000000000000e+02,4.260000000000000000e+02,2.890000000000000000e+02,4.990000000000000000e+02,3.699999999999999956e-01,9.589964000000000000e+09
4.290000000000000000e+02,3.550000000000000000e+02,5.640000000000000000e+02,2.710000000000000000e+02,1.450000000000000000e+02,4.380000000000000000e+02,2.600000000000000000e+02,4.780000000000000000e+02,3.699999999999999956e-01,9.608263700000000000e+09
4.560000000000000000e+02,2.950000000000000000e+02,5.810000000000000000e+02,3.780000000000000000e+02,2.540000000000000000e+02,4.450000000000000000e+02,2.350000000000000000e+02,4.270000000000000000e+02,3.699999999999999956e-01,9.626572300000000000e+09
4.010000000000000000e+02,2.610000000000000000e+02,5.420000000000000000e+02,3.720000000000000000e+02,2.760000000000000000e+02,3.410000000000000000e+02,1.820000000000000000e+02,2.700000000000000000e+02,3.699999999999999956e-01,9.646625300000000000e+09
3.960000000000000000e+02,2.710000000000000000e+02,6.870000000000000000e+02,4.470000000000000000e+02,2.760000000000000000e+02,2.880000000000000000e+02,1.100000000000000000e+02,2.020000000000000000e+02,3.599999999999999867e-01,9.668673200000000000e+09
3.570000000000000000e+02,3.690000000000000000e+02,7.570000000000000000e+02,4.910000000000000000e+02,2.760000000000000000e+02,2.530000000000000000e+02,9.400000000000000000e+01,1.800000000000000000e+02,3.499999999999999778e-01,9.689948400000000000e+09
3.360000000000000000e+02,4.450000000000000000e+02,7.220000000000000000e+02,4.610000000000000000e+02,2.580000000000000000e+02,2.390000000000000000e+02,8.400000000000000000e+01,1.580000000000000000e+02,3.300000000000000155e-01,9.708331500000000000e+09
2.510000000000000000e+02,4.850000000000000000e+02,6.910000000000000000e+02,3.990000000000000000e+02,1.510000000000000000e+02,1.980000000000000000e+02,6.000000000000000000e+01,1.400000000000000000e+02,3.200000000000000067e-01,9.728074800000000000e+09
2.130000000000000000e+02,5.080000000000000000e+02,7.060000000000000000e+02,4.030000000000000000e+02,9.300000000000000000e+01,2.000000000000000000e+02,5.600000000000000000e+01,1.230000000000000000e+02,3.200000000000000067e-01,9.747441900000000000e+09
1.840000000000000000e+02,5.250000000000000000e+02,5.450000000000000000e+02,2.850000000000000000e+02,6.000000000000000000e+01,1.710000000000000000e+02,5.200000000000000000e+01,1.000000000000000000e+02,3.200000000000000067e-01,9.769403100000000000e+09
2.690000000000000000e+02,4.370000000000000000e+02,4.400000000000000000e+02,1.980000000000000000e+02,6.800000000000000000e+01,2.990000000000000000e+02,1.110000000000000000e+02,1.460000000000000000e+02,3.300000000000000155e-01,9.789722900000000000e+09
2.620000000000000000e+02,3.590000000000000000e+02,3.900000000000000000e+02,1.970000000000000000e+02,8.300000000000000000e+01,6.490000000000000000e+02,1.270000000000000000e+02,1.530000000000000000e+02,3.499999999999999778e-01,9.808946700000000000e+09
3.510000000000000000e+02,3.010000000000000000e+02,3.690000000000000000e+02,1.550000000000000000e+02,8.600000000000000000e+01,7.720000000000000000e+02,1.340000000000000000e+02,1.790000000000000000e+02,3.699999999999999956e-01,9.827939300000000000e+09
3.750000000000000000e+02,2.530000000000000000e+02,2.830000000000000000e+02,1.290000000000000000e+02,8.200000000000000000e+01,9.080000000000000000e+02,1.360000000000000000e+02,2.110000000000000000e+02,3.800000000000000044e-01,9.848046800000000000e+09
3.890000000000000000e+02,1.890000000000000000e+02,1.790000000000000000e+02,1.190000000000000000e+02,8.200000000000000000e+01,9.350000000000000000e+02,1.420000000000000000e+02,2.380000000000000000e+02,4.000000000000000222e-01,9.868781600000000000e+09
4.170000000000000000e+02,1.480000000000000000e+02,1.880000000000000000e+02,1.170000000000000000e+02,7.600000000000000000e+01,9.080000000000000000e+02,1.420000000000000000e+02,2.920000000000000000e+02,4.099999999999999756e-01,9.888906800000000000e+09
4.350000000000000000e+02,1.540000000000000000e+02,1.990000000000000000e+02,9.500000000000000000e+01,5.600000000000000000e+01,7.040000000000000000e+02,1.310000000000000000e+02,2.970000000000000000e+02,4.299999999999999933e-01,9.908146500000000000e+09
4.360000000000000000e+02,1.840000000000000000e+02,4.190000000000000000e+02,1.020000000000000000e+02,4.900000000000000000e+01,5.660000000000000000e+02,1.270000000000000000e+02,2.910000000000000000e+02,4.600000000000000200e-01,9.926767100000000000e+09
4.190000000000000000e+02,1.880000000000000000e+02,4.270000000000000000e+02,1.140000000000000000e+02,6.500000000000000000e+01,3.190000000000000000e+02,1.390000000000000000e+02,2.930000000000000000e+02,4.699999999999999734e-01,9.945284100000000000e+09
3.960000000000000000e+02,1.820000000000000000e+02,5.120000000000000000e+02,1.390000000000000000e+02,7.300000000000000000e+01,2.440000000000000000e+02,1.400000000000000000e+02,2.870000000000000000e+02,4.899999999999999911e-01,9.966416000000000000e+09
3.060000000000000000e+02,2.000000000000000000e+02,5.780000000000000000e+02,1.560000000000000000e+02,7.900000000000000000e+01,2.340000000000000000e+02,1.160000000000000000e+02,2.410000000000000000e+02,5.000000000000000000e-01,9.986958400000000000e+09
2.940000000000000000e+02,3.310000000000000000e+02,7.470000000000000000e+02,2.110000000000000000e+02,9.000000000000000000e+01,2.330000000000000000e+02,1.170000000000000000e+02,2.780000000000000000e+02,5.000000000000000000e-01,1.000576720000000000e+10
2.060000000000000000e+02,3.940000000000000000e+02,8.030000000000000000e+02,2.850000000000000000e+02,1.140000000000000000e+02,3.190000000000000000e+02,1.200000000000000000e+02,2.950000000000000000e+02,4.799999999999999822e-01,1.002529040000000000e+10
1.970000000000000000e+02,4.220000000000000000e+02,8.230000000000000000e+02,3.030000000000000000e+02,1.200000000000000000e+02,3.130000000000000000e+02,1.120000000000000000e+02,3.450000000000000000e+02,4.600000000000000200e-01,1.004494060000000000e+10
