2.700000000000000000e+01,5.700000000000000000e+01,4.130000000000000000e+02,6.900000000000000000e+01,2.700000000000000000e+01,1.220000000000000000e+02,8.400000000000000000e+01,2.600000000000000000e+01,5.500000000000000444e-01,4.631643000000000000e+08
2.700000000000000000e+01,5.800000000000000000e+01,4.000000000000000000e+02,7.200000000000000000e+01,2.600000000000000000e+01,1.320000000000000000e+02,7.400000000000000000e+01,2.500000000000000000e+01,5.400000000000000355e-01,4.971640000000000000e+08
2.700000000000000000e+01,5.300000000000000000e+01,3.670000000000000000e+02,7.600000000000000000e+01,2.800000000000000000e+01,1.310000000000000000e+02,7.100000000000000000e+01,2.600000000000000000e+01,5.500000000000000444e-01,1.057197000000000000e+09
2.800000000000000000e+01,5.400000000000000000e+01,3.650000000000000000e+02,7.600000000000000000e+01,2.800000000000000000e+01,1.350000000000000000e+02,7.400000000000000000e+01,2.500000000000000000e+01,5.500000000000000444e-01,1.074691100000000000e+09
2.900000000000000000e+01,5.800000000000000000e+01,4.310000000000000000e+02,6.000000000000000000e+01,2.600000000000000000e+01,1.290000000000000000e+02,7.400000000000000000e+01,2.800000000000000000e+01,5.500000000000000444e-01,1.093226900000000000e+09
2.700000000000000000e+01,5.500000000000000000e+01,4.610000000000000000e+02,5.900000000000000000e+01,2.600000000000000000e+01,1.200000000000000000e+02,5.500000000000000000e+01,2.500000000000000000e+01,5.500000000000000444e-01,1.112746700000000000e+09
2.900000000000000000e+01,5.900000000000000000e+01,4.630000000000000000e+02,5.700000000000000000e+01,2.800000000000000000e+01,1.230000000000000000e+02,7.000000000000000000e+01,2.900000000000000000e+01,5.500000000000000444e-01,1.130817600000000000e+09
2.700000000000000000e+01,6.200000000000000000e+01,4.830000000000000000e+02,5.200000000000000000e+01,2.600000000000000000e+01,1.430000000000000000e+02,7.900000000000000000e+01,2.600000000000000000e+01,5.500000000000000444e-01,1.150430200000000000e+09
3.000000000000000000e+01,6.400000000000000000e+01,5.530000000000000000e+02,6.100000000000000000e+01,2.800000000000000000e+01,1.360000000000000000e+02,8.500000000000000000e+01,3.000000000000000000e+01,5.500000000000000444e-01,1.169120300000000000e+09
2.800000000000000000e+01,6.100000000000000000e+01,4.960000000000000000e+02,6.200000000000000000e+01,3.100000000000000000e+01,1.410000000000000000e+02,1.030000000000000000e+02,2.900000000000000000e+01,5.500000000000000444e-01,1.189153700000000000e+09
3.100000000000000000e+01,5.000000000000000000e+01,4.170000000000000000e+02,6.600000000000000000e+01,3.100000000000000000e+01,1.670000000000000000e+02,1.100000000000000000e+02,3.000000000000000000e+01,5.500000000000000444e-01,1.206724500000000000e+09
2.800000000000000000e+01,4.600000000000000000e+01,4.060000000000000000e+02,6.100000000000000000e+01,2.900000000000000000e+01,1.610000000000000000e+02,1.010000000000000000e+02,2.600000000000000000e+01,5.500000000000000444e-01,1.224091900000000000e+09
3.200000000000000000e+01,4.300000000000000000e+01,4.030000000000000000e+02,6.100000000000000000e+01,3.000000000000000000e+01,1.440000000000000000e+02,9.700000000000000000e+01,2.900000000000000000e+01,5.500000000000000444e-01,1.240608900000000000e+09
3.000000000000000000e+01,4.100000000000000000e+01,3.490000000000000000e+02,5.800000000000000000e+01,2.900000000000000000e+01,1.630000000000000000e+02,9.500000000000000000e+01,2.700000000000000000e+01,5.500000000000000444e-01,1.257664100000000000e+09
3.300000000000000000e+01,5.300000000000000000e+01,3.440000000000000000e+02,6.200000000000000000e+01,3.100000000000000000e+01,1.600000000000000000e+02,7.800000000000000000e+01,2.600000000000000000e+01,5.500000000000000444e-01,1.274457600000000000e+09
2.900000000000000000e+01,5.300000000000000000e+01,3.380000000000000000e+02,5.800000000000000000e+01,2.900000000000000000e+01,1.350000000000000000e+02,7.500000000000000000e+01,2.500000000000000000e+01,5.400000000000000355e-01,1.291240300000000000e+09
3.100000000000000000e+01,5.400000000000000000e+01,3.580000000000000000e+02,6.600000000000000000e+01,2.900000000000000000e+01,1.080000000000000000e+02,7.900000000000000000e+01,2.600000000000000000e+01,5.400000000000000355e-01,1.307992000000000000e+09
3.100000000000000000e+01,6.200000000000000000e+01,3.310000000000000000e+02,7.100000000000000000e+01,3.000000000000000000e+01,1.280000000000000000e+02,9.200000000000000000e+01,2.100000000000000000e+01,5.400000000000000355e-01,1.325161200000000000e+09
3.500000000000000000e+01,6.500000000000000000e+01,3.310000000000000000e+02,7.100000000000000000e+01,3.100000000000000000e+01,1.210000000000000000e+02,9.500000000000000000e+01,2.200000000000000000e+01,5.400000000000000355e-01,1.353525900000000000e+09
3.200000000000000000e+01,5.600000000000000000e+01,3.260000000000000000e+02,6.200000000000000000e+01,2.600000000000000000e+01,1.180000000000000000e+02,9.500000000000000000e+01,2.000000000000000000e+01,5.400000000000000355e-01,1.372477100000000000e+09
3.300000000000000000e+01,5.500000000000000000e+01,3.350000000000000000e+02,6.800000000000000000e+01,2.600000000000000000e+01,1.180000000000000000e+02,9.200000000000000000e+01,2.200000000000000000e+01,5.400000000000000355e-01,1.390004700000000000e+09
3.800000000000000000e+01,6.200000000000000000e+01,3.130000000000000000e+02,7.500000000000000000e+01,3.300000000000000000e+01,1.570000000000000000e+02,9.000000000000000000e+01,2.500000000000000000e+01,5.400000000000000355e-01,1.407393300000000000e+09
3.700000000000000000e+01,5.600000000000000000e+01,3.310000000000000000e+02,8.100000000000000000e+01,3.100000000000000000e+01,1.570000000000000000e+02,7.800000000000000000e+01,2.700000000000000000e+01,5.400000000000000355e-01,1.424114000000000000e+09
3.200000000000000000e+01,5.700000000000000000e+01,3.390000000000000000e+02,7.900000000000000000e+01,3.000000000000000000e+01,1.440000000000000000e+02,7.000000000000000000e+01,2.500000000000000000e+01,5.400000000000000355e-01,1.440603700000000000e+09
3.200000000000000000e+01,5.400000000000000000e+01,3.500000000000000000e+02,8.000000000000000000e+01,2.900000000000000000e+01,1.470000000000000000e+02,7.100000000000000000e+01,2.600000000000000000e+01,5.400000000000000355e-01,1.457406600000000000e+09
3.200000000000000000e+01,5.500000000000000000e+01,3.780000000000000000e+02,7.500000000000000000e+01,2.900000000000000000e+01,1.430000000000000000e+02,6.500000000000000000e+01,2.400000000000000000e+01,5.500000000000000444e-01,1.473820900000000000e+09
2.900000000000000000e+01,5.200000000000000000e+01,4.520000000000000000e+02,7.200000000000000000e+01,2.400000000000000000e+01,1.040000000000000000e+02,6.600000000000000000e+01,2.300000000000000000e+01,5.500000000000000444e-01,1.493141300000000000e+09
3.200000000000000000e+01,6.000000000000000000e+01,4.640000000000000000e+02,6.900000000000000000e+01,2.700000000000000000e+01,1.150000000000000000e+02,7.600000000000000000e+01,2.300000000000000000e+01,5.500000000000000444e-01,1.511596300000000000e+09
3.400000000000000000e+01,6.200000000000000000e+01,4.480000000000000000e+02,7.900000000000000000e+01,2.800000000000000000e+01,1.240000000000000000e+02,7.100000000000000000e+01,2.400000000000000000e+01,5.500000000000000444e-01,1.540740200000000000e+09
3.300000000000000000e+01,6.500000000000000000e+01,4.730000000000000000e+02,8.100000000000000000e+01,3.000000000000000000e+01,1.290000000000000000e+02,8.000000000000000000e+01,2.400000000000000000e+01,5.600000000000000533e-01,1.562479000000000000e+09
3.400000000000000000e+01,7.500000000000000000e+01,4.900000000000000000e+02,8.400000000000000000e+01,3.300000000000000000e+01,1.520000000000000000e+02,8.400000000000000000e+01,2.900000000000000000e+01,5.600000000000000533e-01,1.583542600000000000e+09
3.100000000000000000e+01,7.200000000000000000e+01,4.440000000000000000e+02,7.500000000000000000e+01,3.200000000000000000e+01,1.750000000000000000e+02,7.900000000000000000e+01,2.600000000000000000e+01,5.699999999999999512e-01,1.601444200000000000e+09
2.700000000000000000e+01,6.300000000000000000e+01,4.300000000000000000e+02,7.500000000000000000e+01,3.100000000000000000e+01,1.540000000000000000e+02,6.600000000000000000e+01,2.700000000000000000e+01,5.699999999999999512e-01,1.618353200000000000e+09
2.600000000000000000e+01,6.500000000000000000e+01,4.540000000000000000e+02,6.600000000000000000e+01,3.200000000000000000e+01,1.610000000000000000e+02,8.100000000000000000e+01,2.700000000000000000e+01,5.699999999999999512e-01,1.637201600000000000e+09
3.200000000000000000e+01,7.200000000000000000e+01,4.630000000000000000e+02,7.400000000000000000e+01,3.700000000000000000e+01,2.160000000000000000e+02,9.300000000000000000e+01,2.900000000000000000e+01,5.699999999999999512e-01,1.654906800000000000e+09
3.000000000000000000e+01,5.900000000000000000e+01,4.180000000000000000e+02,7.100000000000000000e+01,3.400000000000000000e+01,2.130000000000000000e+02,9.200000000000000000e+01,2.400000000000000000e+01,5.699999999999999512e-01,1.672825500000000000e+09
3.000000000000000000e+01,5.900000000000000000e+01,4.010000000000000000e+02,7.100000000000000000e+01,3.500000000000000000e+01,1.960000000000000000e+02,9.300000000000000000e+01,2.500000000000000000e+01,5.699999999999999512e-01,1.690071300000000000e+09
2.900000000000000000e+01,5.900000000000000000e+01,3.830000000000000000e+02,6.300000000000000000e+01,3.400000000000000000e+01,1.960000000000000000e+02,9.300000000000000000e+01,2.300000000000000000e+01,5.699999999999999512e-01,1.707490500000000000e+09
3.400000000000000000e+01,5.300000000000000000e+01,4.280000000000000000e+02,7.700000000000000000e+01,3.500000000000000000e+01,1.830000000000000000e+02,8.200000000000000000e+01,2.300000000000000000e+01,5.699999999999999512e-01,1.724182800000000000e+09
2.900000000000000000e+01,4.100000000000000000e+01,4.260000000000000000e+02,7.900000000000000000e+01,2.900000000000000000e+01,1.040000000000000000e+02,5.800000000000000000e+01,2.100000000000000000e+01,5.699999999999999512e-01,1.740714100000000000e+09
3.300000000000000000e+01,5.100000000000000000e+01,4.610000000000000000e+02,9.400000000000000000e+01,3.100000000000000000e+01,7.600000000000000000e+01,5.200000000000000000e+01,2.400000000000000000e+01,5.699999999999999512e-01,1.758265800000000000e+09
3.200000000000000000e+01,5.100000000000000000e+01,5.050000000000000000e+02,1.480000000000000000e+02,3.500000000000000000e+01,6.600000000000000000e+01,4.800000000000000000e+01,2.300000000000000000e+01,5.799999999999999600e-01,1.777283200000000000e+09
3.300000000000000000e+01,5.300000000000000000e+01,5.020000000000000000e+02,1.570000000000000000e+02,3.500000000000000000e+01,5.400000000000000000e+01,4.500000000000000000e+01,2.300000000000000000e+01,5.799999999999999600e-01,1.795408400000000000e+09
2.600000000000000000e+01,4.800000000000000000e+01,4.150000000000000000e+02,1.550000000000000000e+02,3.600000000000000000e+01,4.400000000000000000e+01,3.500000000000000000e+01,2.100000000000000000e+01,5.799999999999999600e-01,1.812694700000000000e+09
2.500000000000000000e+01,4.900000000000000000e+01,3.760000000000000000e+02,1.550000000000000000e+02,3.900000000000000000e+01,3.800000000000000000e+01,2.800000000000000000e+01,2.200000000000000000e+01,5.899999999999999689e-01,1.829912500000000000e+09
2.200000000000000000e+01,4.700000000000000000e+01,3.880000000000000000e+02,1.680000000000000000e+02,4.900000000000000000e+01,3.300000000000000000e+01,2.400000000000000000e+01,2.200000000000000000e+01,5.899999999999999689e-01,1.846428700000000000e+09
2.500000000000000000e+01,5.200000000000000000e+01,3.720000000000000000e+02,1.360000000000000000e+02,4.700000000000000000e+01,2.900000000000000000e+01,3.000000000000000000e+01,2.200000000000000000e+01,5.999999999999999778e-01,1.862767000000000000e+09
2.500000000000000000e+01,4.900000000000000000e+01,3.920000000000000000e+02,1.400000000000000000e+02,4.600000000000000000e+01,2.900000000000000000e+01,3.100000000000000000e+01,2.200000000000000000e+01,5.999999999999999778e-01,1.881293300000000000e+09
2.800000000000000000e+01,5.500000000000000000e+01,4.130000000000000000e+02,1.460000000000000000e+02,4.300000000000000000e+01,4.000000000000000000e+01,4.300000000000000000e+01,2.600000000000000000e+01,6.099999999999999867e-01,1.899292700000000000e+09
3.000000000000000000e+01,5.600000000000000000e+01,4.540000000000000000e+02,1.480000000000000000e+02,4.100000000000000000e+01,4.900000000000000000e+01,4.300000000000000000e+01,2.600000000000000000e+01,6.199999999999999956e-01,1.916501100000000000e+09
3.300000000000000000e+01,5.700000000000000000e+01,4.430000000000000000e+02,1.320000000000000000e+02,3.200000000000000000e+01,1.650000000000000000e+02,6.600000000000000000e+01,3.100000000000000000e+01,6.199999999999999956e-01,1.933927600000000000e+09
3.400000000000000000e+01,6.300000000000000000e+01,4.300000000000000000e+02,1.270000000000000000e+02,2.800000000000000000e+01,2.210000000000000000e+02,9.400000000000000000e+01,3.300000000000000000e+01,6.300000000000000044e-01,1.951464800000000000e+09
3.600000000000000000e+01,6.800000000000000000e+01,4.460000000000000000e+02,1.130000000000000000e+02,3.400000000000000000e+01,2.550000000000000000e+02,9.900000000000000000e+01,3.500000000000000000e+01,6.300000000000000044e-01,1.968539500000000000e+09
3.800000000000000000e+01,7.200000000000000000e+01,4.500000000000000000e+02,1.020000000000000000e+02,3.600000000000000000e+01,2.560000000000000000e+02,9.800000000000000000e+01,3.300000000000000000e+01,6.300000000000000044e-01,1.985929100000000000e+09
3.800000000000000000e+01,7.300000000000000000e+01,4.710000000000000000e+02,9.000000000000000000e+01,3.500000000000000000e+01,2.560000000000000000e+02,1.020000000000000000e+02,3.300000000000000000e+01,6.400000000000000133e-01,2.002781300000000000e+09
3.400000000000000000e+01,7.100000000000000000e+01,4.730000000000000000e+02,8.200000000000000000e+01,3.300000000000000000e+01,2.070000000000000000e+02,1.050000000000000000e+02,2.900000000000000000e+01,6.400000000000000133e-01,2.021238100000000000e+09
3.400000000000000000e+01,6.500000000000000000e+01,4.790000000000000000e+02,7.800000000000000000e+01,3.400000000000000000e+01,1.750000000000000000e+02,8.500000000000000000e+01,2.800000000000000000e+01,6.400000000000000133e-01,2.038672100000000000e+09
3.200000000000000000e+01,7.000000000000000000e+01,4.850000000000000000e+02,7.700000000000000000e+01,3.000000000000000000e+01,1.330000000000000000e+02,8.100000000000000000e+01,2.700000000000000000e+01,6.300000000000000044e-01,2.055375300000000000e+09
2.700000000000000000e+01,6.600000000000000000e+01,4.660000000000000000e+02,7.400000000000000000e+01,2.900000000000000000e+01,1.430000000000000000e+02,8.700000000000000000e+01,2.700000000000000000e+01,6.300000000000000044e-01,2.071694600000000000e+09
2.500000000000000000e+01,7.200000000000000000e+01,4.210000000000000000e+02,7.800000000000000000e+01,3.100000000000000000e+01,1.460000000000000000e+02,9.200000000000000000e+01,2.700000000000000000e+01,6.300000000000000044e-01,2.092022000000000000e+09
2.600000000000000000e+01,7.100000000000000000e+01,4.210000000000000000e+02,7.800000000000000000e+01,3.200000000000000000e+01,1.470000000000000000e+02,7.800000000000000000e+01,2.600000000000000000e+01,6.300000000000000044e-01,2.109945000000000000e+09
2.300000000000000000e+01,7.000000000000000000e+01,4.290000000000000000e+02,7.600000000000000000e+01,3.000000000000000000e+01,1.170000000000000000e+02,8.200000000000000000e+01,2.500000000000000000e+01,6.300000000000000044e-01,2.127419200000000000e+09
2.500000000000000000e+01,6.500000000000000000e+01,4.490000000000000000e+02,7.600000000000000000e+01,3.000000000000000000e+01,1.040000000000000000e+02,8.500000000000000000e+01,2.300000000000000000e+01,6.300000000000000044e-01,2.144446500000000000e+09
2.600000000000000000e+01,6.100000000000000000e+01,4.730000000000000000e+02,8.300000000000000000e+01,2.600000000000000000e+01,1.090000000000000000e+02,8.000000000000000000e+01,2.100000000000000000e+01,6.199999999999999956e-01,2.161359900000000000e+09
2.700000000000000000e+01,6.200000000000000000e+01,4.840000000000000000e+02,8.800000000000000000e+01,3.000000000000000000e+01,1.280000000000000000e+02,8.900000000000000000e+01,2.200000000000000000e+01,6.199999999999999956e-01,2.177720700000000000e+09
2.900000000000000000e+01,6.000000000000000000e+01,4.500000000000000000e+02,9.100000000000000000e+01,2.900000000000000000e+01,1.220000000000000000e+02,9.500000000000000000e+01,2.300000000000000000e+01,6.199999999999999956e-01,2.194946900000000000e+09
3.000000000000000000e+01,5.900000000000000000e+01,4.220000000000000000e+02,9.100000000000000000e+01,2.900000000000000000e+01,1.170000000000000000e+02,9.000000000000000000e+01,2.300000000000000000e+01,6.199999999999999956e-01,2.211510900000000000e+09
3.200000000000000000e+01,8.500000000000000000e+01,4.660000000000000000e+02,1.020000000000000000e+02,3.100000000000000000e+01,1.190000000000000000e+02,8.400000000000000000e+01,2.500000000000000000e+01,6.199999999999999956e-01,2.228964800000000000e+09
3.100000000000000000e+01,8.900000000000000000e+01,4.940000000000000000e+02,1.280000000000000000e+02,3.300000000000000000e+01,1.020000000000000000e+02,8.000000000000000000e+01,2.500000000000000000e+01,6.199999999999999956e-01,2.245997900000000000e+09
3.400000000000000000e+01,8.400000000000000000e+01,4.680000000000000000e+02,1.430000000000000000e+02,3.600000000000000000e+01,6.800000000000000000e+01,5.800000000000000000e+01,2.500000000000000000e+01,6.199999999999999956e-01,2.262974400000000000e+09
3.300000000000000000e+01,8.700000000000000000e+01,5.090000000000000000e+02,1.470000000000000000e+02,3.900000000000000000e+01,6.000000000000000000e+01,3.700000000000000000e+01,2.400000000000000000e+01,6.199999999999999956e-01,2.280436000000000000e+09
3.200000000000000000e+01,8.400000000000000000e+01,5.050000000000000000e+02,1.580000000000000000e+02,3.900000000000000000e+01,5.900000000000000000e+01,2.700000000000000000e+01,2.300000000000000000e+01,6.300000000000000044e-01,2.299880700000000000e+09
3.000000000000000000e+01,5.800000000000000000e+01,4.600000000000000000e+02,1.520000000000000000e+02,3.800000000000000000e+01,5.200000000000000000e+01,3.200000000000000000e+01,2.300000000000000000e+01,6.300000000000000044e-01,2.317817600000000000e+09
3.300000000000000000e+01,6.300000000000000000e+01,4.590000000000000000e+02,1.350000000000000000e+02,3.700000000000000000e+01,5.700000000000000000e+01,4.600000000000000000e+01,2.600000000000000000e+01,6.300000000000000044e-01,2.335173100000000000e+09
3.100000000000000000e+01,6.400000000000000000e+01,5.030000000000000000e+02,1.250000000000000000e+02,3.500000000000000000e+01,1.140000000000000000e+02,7.400000000000000000e+01,2.500000000000000000e+01,6.300000000000000044e-01,2.352142300000000000e+09
3.000000000000000000e+01,7.400000000000000000e+01,5.030000000000000000e+02,1.160000000000000000e+02,3.000000000000000000e+01,1.350000000000000000e+02,8.300000000000000000e+01,2.600000000000000000e+01,6.300000000000000044e-01,2.368669600000000000e+09
3.200000000000000000e+01,8.000000000000000000e+01,5.640000000000000000e+02,1.160000000000000000e+02,3.000000000000000000e+01,1.410000000000000000e+02,1.060000000000000000e+02,2.500000000000000000e+01,6.300000000000000044e-01,2.385406000000000000e+09
3.900000000000000000e+01,1.000000000000000000e+02,6.920000000000000000e+02,1.370000000000000000e+02,3.500000000000000000e+01,1.660000000000000000e+02,1.300000000000000000e+02,3.500000000000000000e+01,6.300000000000000044e-01,2.403987400000000000e+09
4.000000000000000000e+01,1.010000000000000000e+02,6.940000000000000000e+02,1.390000000000000000e+02,3.400000000000000000e+01,1.770000000000000000e+02,1.360000000000000000e+02,3.500000000000000000e+01,6.300000000000000044e-01,2.421714600000000000e+09
4.000000000000000000e+01,1.100000000000000000e+02,7.440000000000000000e+02,1.460000000000000000e+02,3.000000000000000000e+01,1.630000000000000000e+02,1.270000000000000000e+02,3.500000000000000000e+01,6.199999999999999956e-01,2.440436500000000000e+09
4.300000000000000000e+01,1.070000000000000000e+02,7.330000000000000000e+02,1.490000000000000000e+02,3.600000000000000000e+01,1.760000000000000000e+02,1.280000000000000000e+02,7.400000000000000000e+01,6.199999999999999956e-01,2.459174400000000000e+09
4.100000000000000000e+01,1.050000000000000000e+02,7.070000000000000000e+02,1.380000000000000000e+02,3.600000000000000000e+01,1.830000000000000000e+02,1.110000000000000000e+02,7.500000000000000000e+01,6.099999999999999867e-01,2.476391000000000000e+09
3.500000000000000000e+01,8.800000000000000000e+01,5.630000000000000000e+02,1.180000000000000000e+02,3.300000000000000000e+01,1.670000000000000000e+02,8.400000000000000000e+01,7.300000000000000000e+01,6.099999999999999867e-01,2.494002500000000000e+09
3.300000000000000000e+01,8.000000000000000000e+01,5.340000000000000000e+02,1.120000000000000000e+02,3.300000000000000000e+01,1.510000000000000000e+02,6.800000000000000000e+01,7.400000000000000000e+01,6.099999999999999867e-01,2.510795600000000000e+09
3.200000000000000000e+01,7.100000000000000000e+01,4.580000000000000000e+02,1.020000000000000000e+02,3.400000000000000000e+01,1.380000000000000000e+02,9.900000000000000000e+01,7.700000000000000000e+01,5.999999999999999778e-01,2.527789200000000000e+09
3.300000000000000000e+01,6.700000000000000000e+01,4.600000000000000000e+02,1.130000000000000000e+02,3.500000000000000000e+01,1.450000000000000000e+02,9.500000000000000000e+01,4.700000000000000000e+01,5.999999999999999778e-01,2.544531700000000000e+09
3.400000000000000000e+01,6.400000000000000000e+01,4.450000000000000000e+02,1.150000000000000000e+02,3.400000000000000000e+01,1.410000000000000000e+02,9.500000000000000000e+01,4.400000000000000000e+01,5.999999999999999778e-01,2.561315400000000000e+09
3.500000000000000000e+01,5.800000000000000000e+01,4.780000000000000000e+02,1.130000000000000000e+02,3.300000000000000000e+01,1.350000000000000000e+02,9.300000000000000000e+01,4.000000000000000000e+01,5.999999999999999778e-01,2.579486900000000000e+09
3.700000000000000000e+01,6.900000000000000000e+01,4.890000000000000000e+02,1.120000000000000000e+02,3.400000000000000000e+01,1.380000000000000000e+02,9.500000000000000000e+01,3.800000000000000000e+01,5.999999999999999778e-01,2.597638200000000000e+09
3.500000000000000000e+01,6.100000000000000000e+01,4.450000000000000000e+02,9.600000000000000000e+01,3.100000000000000000e+01,1.780000000000000000e+02,9.000000000000000000e+01,3.100000000000000000e+01,5.999999999999999778e-01,2.615544900000000000e+09
3.100000000000000000e+01,5.400000000000000000e+01,4.050000000000000000e+02,7.700000000000000000e+01,2.500000000000000000e+01,1.470000000000000000e+02,9.000000000000000000e+01,2.400000000000000000e+01,5.999999999999999778e-01,2.633311600000000000e+09
3.900000000000000000e+01,7.600000000000000000e+01,4.730000000000000000e+02,8.600000000000000000e+01,3.200000000000000000e+01,1.430000000000000000e+02,9.000000000000000000e+01,2.700000000000000000e+01,5.999999999999999778e-01,2.653482500000000000e+09
3.600000000000000000e+01,7.700000000000000000e+01,4.240000000000000000e+02,9.900000000000000000e+01,3.200000000000000000e+01,1.460000000000000000e+02,8.800000000000000000e+01,2.500000000000000000e+01,6.099999999999999867e-01,2.671558300000000000e+09
3.500000000000000000e+01,6.800000000000000000e+01,3.850000000000000000e+02,9.800000000000000000e+01,3.300000000000000000e+01,1.470000000000000000e+02,9.200000000000000000e+01,2.400000000000000000e+01,6.099999999999999867e-01,2.689878200000000000e+09
3.700000000000000000e+01,6.800000000000000000e+01,3.930000000000000000e+02,1.020000000000000000e+02,3.700000000000000000e+01,1.190000000000000000e+02,8.100000000000000000e+01,2.600000000000000000e+01,6.099999999999999867e-01,2.710387200000000000e+09
4.000000000000000000e+01,7.700000000000000000e+01,4.400000000000000000e+02,1.070000000000000000e+02,3.700000000000000000e+01,1.190000000000000000e+02,8.000000000000000000e+01,2.600000000000000000e+01,6.199999999999999956e-01,2.729571700000000000e+09
3.600000000000000000e+01,6.900000000000000000e+01,3.950000000000000000e+02,1.100000000000000000e+02,3.300000000000000000e+01,1.150000000000000000e+02,7.900000000000000000e+01,2.500000000000000000e+01,6.199999999999999956e-01,2.748104000000000000e+09
3.500000000000000000e+01,6.800000000000000000e+01,3.990000000000000000e+02,9.600000000000000000e+01,3.000000000000000000e+01,1.300000000000000000e+02,9.300000000000000000e+01,2.800000000000000000e+01,6.199999999999999956e-01,2.766491300000000000e+09
3.400000000000000000e+01,7.300000000000000000e+01,4.880000000000000000e+02,1.150000000000000000e+02,3.300000000000000000e+01,1.430000000000000000e+02,9.600000000000000000e+01,2.900000000000000000e+01,6.199999999999999956e-01,2.783949100000000000e+09
3.400000000000000000e+01,7.300000000000000000e+01,4.960000000000000000e+02,1.130000000000000000e+02,2.800000000000000000e+01,1.300000000000000000e+02,8.300000000000000000e+01,2.900000000000000000e+01,6.199999999999999956e-01,2.801285800000000000e+09
2.800000000000000000e+01,6.300000000000000000e+01,4.820000000000000000e+02,1.050000000000000000e+02,2.700000000000000000e+01,1.310000000000000000e+02,8.200000000000000000e+01,2.600000000000000000e+01,6.199999999999999956e-01,2.819105400000000000e+09
3.200000000000000000e+01,8.500000000000000000e+01,4.930000000000000000e+02,1.250000000000000000e+02,3.000000000000000000e+01,2.010000000000000000e+02,8.800000000000000000e+01,3.100000000000000000e+01,6.199999999999999956e-01,2.837272900000000000e+09
3.200000000000000000e+01,8.600000000000000000e+01,4.900000000000000000e+02,1.260000000000000000e+02,3.500000000000000000e+01,2.530000000000000000e+02,1.050000000000000000e+02,2.900000000000000000e+01,6.300000000000000044e-01,2.854104600000000000e+09
3.100000000000000000e+01,8.100000000000000000e+01,4.180000000000000000e+02,1.210000000000000000e+02,3.200000000000000000e+01,2.500000000000000000e+02,9.900000000000000000e+01,2.800000000000000000e+01,6.300000000000000044e-01,2.871598200000000000e+09
2.900000000000000000e+01,8.000000000000000000e+01,3.900000000000000000e+02,1.310000000000000000e+02,3.500000000000000000e+01,2.460000000000000000e+02,9.600000000000000000e+01,2.800000000000000000e+01,6.300000000000000044e-01,2.888469600000000000e+09
3.100000000000000000e+01,8.500000000000000000e+01,3.660000000000000000e+02,1.470000000000000000e+02,4.300000000000000000e+01,2.450000000000000000e+02,9.300000000000000000e+01,2.900000000000000000e+01,6.400000000000000133e-01,2.905720900000000000e+09
2.900000000000000000e+01,6.300000000000000000e+01,3.490000000000000000e+02,1.220000000000000000e+02,4.500000000000000000e+01,1.940000000000000000e+02,9.100000000000000000e+01,2.500000000000000000e+01,6.400000000000000133e-01,2.923013800000000000e+09
3.000000000000000000e+01,6.300000000000000000e+01,3.430000000000000000e+02,1.320000000000000000e+02,4.600000000000000000e+01,1.040000000000000000e+02,5.300000000000000000e+01,2.300000000000000000e+01,6.400000000000000133e-01,2.940652600000000000e+09
3.100000000000000000e+01,6.700000000000000000e+01,3.360000000000000000e+02,1.270000000000000000e+02,4.600000000000000000e+01,1.050000000000000000e+02,6.500000000000000000e+01,2.400000000000000000e+01,6.400000000000000133e-01,2.957661200000000000e+09
3.500000000000000000e+01,7.400000000000000000e+01,3.940000000000000000e+02,1.210000000000000000e+02,4.800000000000000000e+01,1.090000000000000000e+02,6.800000000000000000e+01,2.500000000000000000e+01,6.400000000000000133e-01,2.975126200000000000e+09
3.800000000000000000e+01,8.200000000000000000e+01,4.290000000000000000e+02,1.100000000000000000e+02,4.100000000000000000e+01,1.050000000000000000e+02,7.200000000000000000e+01,2.400000000000000000e+01,6.400000000000000133e-01,2.992017600000000000e+09
3.300000000000000000e+01,7.500000000000000000e+01,4.150000000000000000e+02,1.310000000000000000e+02,4.000000000000000000e+01,1.420000000000000000e+02,6.900000000000000000e+01,2.300000000000000000e+01,6.500000000000000222e-01,3.009945900000000000e+09
3.200000000000000000e+01,9.100000000000000000e+01,4.460000000000000000e+02,1.460000000000000000e+02,3.800000000000000000e+01,1.380000000000000000e+02,8.300000000000000000e+01,2.300000000000000000e+01,6.500000000000000222e-01,3.028046900000000000e+09
3.100000000000000000e+01,9.700000000000000000e+01,4.860000000000000000e+02,1.480000000000000000e+02,4.000000000000000000e+01,1.290000000000000000e+02,6.700000000000000000e+01,2.200000000000000000e+01,6.500000000000000222e-01,3.045004900000000000e+09
3.100000000000000000e+01,9.200000000000000000e+01,4.700000000000000000e+02,1.560000000000000000e+02,3.900000000000000000e+01,1.590000000000000000e+02,8.100000000000000000e+01,2.400000000000000000e+01,6.500000000000000222e-01,3.063414200000000000e+09
2.600000000000000000e+01,8.400000000000000000e+01,4.960000000000000000e+02,1.600000000000000000e+02,4.200000000000000000e+01,1.770000000000000000e+02,1.040000000000000000e+02,2.700000000000000000e+01,6.500000000000000222e-01,3.081146000000000000e+09
2.900000000000000000e+01,8.900000000000000000e+01,4.980000000000000000e+02,1.720000000000000000e+02,3.900000000000000000e+01,1.650000000000000000e+02,1.030000000000000000e+02,2.600000000000000000e+01,6.500000000000000222e-01,3.098448100000000000e+09
3.000000000000000000e+01,7.000000000000000000e+01,4.590000000000000000e+02,1.600000000000000000e+02,4.000000000000000000e+01,1.730000000000000000e+02,9.400000000000000000e+01,2.700000000000000000e+01,6.500000000000000222e-01,3.115546700000000000e+09
3.600000000000000000e+01,7.400000000000000000e+01,5.230000000000000000e+02,1.560000000000000000e+02,4.100000000000000000e+01,1.830000000000000000e+02,1.000000000000000000e+02,2.800000000000000000e+01,6.500000000000000222e-01,3.132601400000000000e+09
4.800000000000000000e+01,9.100000000000000000e+01,5.730000000000000000e+02,1.650000000000000000e+02,4.800000000000000000e+01,1.690000000000000000e+02,9.100000000000000000e+01,3.100000000000000000e+01,6.600000000000000311e-01,3.151163000000000000e+09
4.800000000000000000e+01,8.900000000000000000e+01,5.510000000000000000e+02,1.560000000000000000e+02,4.600000000000000000e+01,1.650000000000000000e+02,8.300000000000000000e+01,2.900000000000000000e+01,6.600000000000000311e-01,3.168848200000000000e+09
4.800000000000000000e+01,8.300000000000000000e+01,5.290000000000000000e+02,1.450000000000000000e+02,4.600000000000000000e+01,1.470000000000000000e+02,8.200000000000000000e+01,2.800000000000000000e+01,6.600000000000000311e-01,3.185630400000000000e+09
5.100000000000000000e+01,1.110000000000000000e+02,5.470000000000000000e+02,1.390000000000000000e+02,4.800000000000000000e+01,1.560000000000000000e+02,8.500000000000000000e+01,3.300000000000000000e+01,6.600000000000000311e-01,3.203176200000000000e+09
5.200000000000000000e+01,1.060000000000000000e+02,4.840000000000000000e+02,1.360000000000000000e+02,4.800000000000000000e+01,1.960000000000000000e+02,1.030000000000000000e+02,1.390000000000000000e+02,6.600000000000000311e-01,3.220960800000000000e+09
3.900000000000000000e+01,9.200000000000000000e+01,4.210000000000000000e+02,1.170000000000000000e+02,3.500000000000000000e+01,1.960000000000000000e+02,1.000000000000000000e+02,1.430000000000000000e+02,6.500000000000000222e-01,3.238386600000000000e+09
3.900000000000000000e+01,9.300000000000000000e+01,4.080000000000000000e+02,1.530000000000000000e+02,3.800000000000000000e+01,1.840000000000000000e+02,8.200000000000000000e+01,1.460000000000000000e+02,6.500000000000000222e-01,3.255213400000000000e+09
4.300000000000000000e+01,9.500000000000000000e+01,4.470000000000000000e+02,1.470000000000000000e+02,4.600000000000000000e+01,1.840000000000000000e+02,8.100000000000000000e+01,1.500000000000000000e+02,6.500000000000000222e-01,3.274124800000000000e+09
3.900000000000000000e+01,6.900000000000000000e+01,4.700000000000000000e+02,1.440000000000000000e+02,4.500000000000000000e+01,1.720000000000000000e+02,8.000000000000000000e+01,1.510000000000000000e+02,6.500000000000000222e-01,3.291370600000000000e+09
3.300000000000000000e+01,6.700000000000000000e+01,4.240000000000000000e+02,1.490000000000000000e+02,4.600000000000000000e+01,2.280000000000000000e+02,8.400000000000000000e+01,7.100000000000000000e+01,6.500000000000000222e-01,3.309176700000000000e+09
3.400000000000000000e+01,6.500000000000000000e+01,4.200000000000000000e+02,1.510000000000000000e+02,4.900000000000000000e+01,2.430000000000000000e+02,8.900000000000000000e+01,6.000000000000000000e+01,6.500000000000000222e-01,3.326161300000000000e+09
3.400000000000000000e+01,6.800000000000000000e+01,4.450000000000000000e+02,1.170000000000000000e+02,4.700000000000000000e+01,2.570000000000000000e+02,9.300000000000000000e+01,5.500000000000000000e+01,6.400000000000000133e-01,3.344436100000000000e+09
3.400000000000000000e+01,6.800000000000000000e+01,4.280000000000000000e+02,9.600000000000000000e+01,3.900000000000000000e+01,2.620000000000000000e+02,1.140000000000000000e+02,4.600000000000000000e+01,6.400000000000000133e-01,3.361726900000000000e+09
3.300000000000000000e+01,5.900000000000000000e+01,4.190000000000000000e+02,1.050000000000000000e+02,4.000000000000000000e+01,2.770000000000000000e+02,1.130000000000000000e+02,3.800000000000000000e+01,6.400000000000000133e-01,3.378973100000000000e+09
3.200000000000000000e+01,6.600000000000000000e+01,4.330000000000000000e+02,1.150000000000000000e+02,3.700000000000000000e+01,1.960000000000000000e+02,8.900000000000000000e+01,3.000000000000000000e+01,6.400000000000000133e-01,3.397452000000000000e+09
3.500000000000000000e+01,9.200000000000000000e+01,4.870000000000000000e+02,1.610000000000000000e+02,4.200000000000000000e+01,1.600000000000000000e+02,8.300000000000000000e+01,3.100000000000000000e+01,6.400000000000000133e-01,3.415475200000000000e+09
3.200000000000000000e+01,9.200000000000000000e+01,4.590000000000000000e+02,1.760000000000000000e+02,4.100000000000000000e+01,1.340000000000000000e+02,7.900000000000000000e+01,2.700000000000000000e+01,6.500000000000000222e-01,3.432732700000000000e+09
2.900000000000000000e+01,9.300000000000000000e+01,4.440000000000000000e+02,1.750000000000000000e+02,4.400000000000000000e+01,1.720000000000000000e+02,6.100000000000000000e+01,2.500000000000000000e+01,6.500000000000000222e-01,3.450685300000000000e+09
3.300000000000000000e+01,1.060000000000000000e+02,4.330000000000000000e+02,1.750000000000000000e+02,4.400000000000000000e+01,1.510000000000000000e+02,7.200000000000000000e+01,3.200000000000000000e+01,6.500000000000000222e-01,3.468878400000000000e+09
3.100000000000000000e+01,1.000000000000000000e+02,4.590000000000000000e+02,1.690000000000000000e+02,4.400000000000000000e+01,1.490000000000000000e+02,7.300000000000000000e+01,3.200000000000000000e+01,6.600000000000000311e-01,3.487302100000000000e+09
2.900000000000000000e+01,8.800000000000000000e+01,4.280000000000000000e+02,1.280000000000000000e+02,3.800000000000000000e+01,1.500000000000000000e+02,7.200000000000000000e+01,3.200000000000000000e+01,6.600000000000000311e-01,3.505094600000000000e+09
3.200000000000000000e+01,9.300000000000000000e+01,4.590000000000000000e+02,1.170000000000000000e+02,3.900000000000000000e+01,1.530000000000000000e+02,7.500000000000000000e+01,3.300000000000000000e+01,6.600000000000000311e-01,3.523004500000000000e+09
3.200000000000000000e+01,8.900000000000000000e+01,4.670000000000000000e+02,1.220000000000000000e+02,3.600000000000000000e+01,1.290000000000000000e+02,7.400000000000000000e+01,3.100000000000000000e+01,6.600000000000000311e-01,3.542210100000000000e+09
2.700000000000000000e+01,9.500000000000000000e+01,4.690000000000000000e+02,1.260000000000000000e+02,3.600000000000000000e+01,1.190000000000000000e+02,6.000000000000000000e+01,2.500000000000000000e+01,6.600000000000000311e-01,3.560713900000000000e+09
3.600000000000000000e+01,1.000000000000000000e+02,5.240000000000000000e+02,1.200000000000000000e+02,3.600000000000000000e+01,1.090000000000000000e+02,5.800000000000000000e+01,2.600000000000000000e+01,6.600000000000000311e-01,3.579115000000000000e+09
3.600000000000000000e+01,1.000000000000000000e+02,5.090000000000000000e+02,1.230000000000000000e+02,3.500000000000000000e+01,1.100000000000000000e+02,5.700000000000000000e+01,2.400000000000000000e+01,6.600000000000000311e-01,3.597072900000000000e+09
3.500000000000000000e+01,9.600000000000000000e+01,4.900000000000000000e+02,1.110000000000000000e+02,3.700000000000000000e+01,2.160000000000000000e+02,9.100000000000000000e+01,2.800000000000000000e+01,6.600000000000000311e-01,3.615082200000000000e+09
3.400000000000000000e+01,1.010000000000000000e+02,4.630000000000000000e+02,1.210000000000000000e+02,3.600000000000000000e+01,2.200000000000000000e+02,8.700000000000000000e+01,2.700000000000000000e+01,6.600000000000000311e-01,3.634772400000000000e+09
4.000000000000000000e+01,1.020000000000000000e+02,4.790000000000000000e+02,1.430000000000000000e+02,3.500000000000000000e+01,2.200000000000000000e+02,8.700000000000000000e+01,2.900000000000000000e+01,6.600000000000000311e-01,3.652949100000000000e+09
3.400000000000000000e+01,1.020000000000000000e+02,4.200000000000000000e+02,1.580000000000000000e+02,3.300000000000000000e+01,2.240000000000000000e+02,8.800000000000000000e+01,2.700000000000000000e+01,6.600000000000000311e-01,3.671874400000000000e+09
3.500000000000000000e+01,1.060000000000000000e+02,3.910000000000000000e+02,1.600000000000000000e+02,3.400000000000000000e+01,2.260000000000000000e+02,8.900000000000000000e+01,2.700000000000000000e+01,6.600000000000000311e-01,3.692758800000000000e+09
3.900000000000000000e+01,1.130000000000000000e+02,4.120000000000000000e+02,1.650000000000000000e+02,3.200000000000000000e+01,1.330000000000000000e+02,5.000000000000000000e+01,2.600000000000000000e+01,6.600000000000000311e-01,3.712185600000000000e+09
4.000000000000000000e+01,1.120000000000000000e+02,4.380000000000000000e+02,1.660000000000000000e+02,3.700000000000000000e+01,1.540000000000000000e+02,6.700000000000000000e+01,2.800000000000000000e+01,6.600000000000000311e-01,3.745145500000000000e+09
3.400000000000000000e+01,9.100000000000000000e+01,4.040000000000000000e+02,1.360000000000000000e+02,3.400000000000000000e+01,1.940000000000000000e+02,7.000000000000000000e+01,2.800000000000000000e+01,6.700000000000000400e-01,3.763780000000000000e+09
3.800000000000000000e+01,8.800000000000000000e+01,4.090000000000000000e+02,1.240000000000000000e+02,4.000000000000000000e+01,1.940000000000000000e+02,7.400000000000000000e+01,3.100000000000000000e+01,6.700000000000000400e-01,3.781853000000000000e+09
3.900000000000000000e+01,8.400000000000000000e+01,4.460000000000000000e+02,1.270000000000000000e+02,3.900000000000000000e+01,1.920000000000000000e+02,7.400000000000000000e+01,3.000000000000000000e+01,6.700000000000000400e-01,3.801119700000000000e+09
3.500000000000000000e+01,8.600000000000000000e+01,4.130000000000000000e+02,1.460000000000000000e+02,4.000000000000000000e+01,1.900000000000000000e+02,7.300000000000000000e+01,2.700000000000000000e+01,6.700000000000000400e-01,3.820660800000000000e+09
3.900000000000000000e+01,9.500000000000000000e+01,5.200000000000000000e+02,1.580000000000000000e+02,4.900000000000000000e+01,1.580000000000000000e+02,5.400000000000000000e+01,2.900000000000000000e+01,6.700000000000000400e-01,3.838647700000000000e+09
3.700000000000000000e+01,1.020000000000000000e+02,5.430000000000000000e+02,1.650000000000000000e+02,5.000000000000000000e+01,2.240000000000000000e+02,1.190000000000000000e+02,3.000000000000000000e+01,6.700000000000000400e-01,3.856712800000000000e+09
3.300000000000000000e+01,9.900000000000000000e+01,5.090000000000000000e+02,1.600000000000000000e+02,4.600000000000000000e+01,2.320000000000000000e+02,1.220000000000000000e+02,2.700000000000000000e+01,6.700000000000000400e-01,3.875045200000000000e+09
2.900000000000000000e+01,9.200000000000000000e+01,4.900000000000000000e+02,1.470000000000000000e+02,4.500000000000000000e+01,2.330000000000000000e+02,1.240000000000000000e+02,2.700000000000000000e+01,6.700000000000000400e-01,3.893168400000000000e+09
3.500000000000000000e+01,8.300000000000000000e+01,5.810000000000000000e+02,1.870000000000000000e+02,5.000000000000000000e+01,2.340000000000000000e+02,1.250000000000000000e+02,3.000000000000000000e+01,6.700000000000000400e-01,3.912249200000000000e+09
3.200000000000000000e+01,6.900000000000000000e+01,5.340000000000000000e+02,1.820000000000000000e+02,3.800000000000000000e+01,2.250000000000000000e+02,1.240000000000000000e+02,2.800000000000000000e+01,6.700000000000000400e-01,3.933528200000000000e+09
3.500000000000000000e+01,6.300000000000000000e+01,5.890000000000000000e+02,1.750000000000000000e+02,3.700000000000000000e+01,1.110000000000000000e+02,1.040000000000000000e+02,2.600000000000000000e+01,6.700000000000000400e-01,3.953346500000000000e+09
3.500000000000000000e+01,6.400000000000000000e+01,6.280000000000000000e+02,1.770000000000000000e+02,4.100000000000000000e+01,2.390000000000000000e+02,1.140000000000000000e+02,2.500000000000000000e+01,6.700000000000000400e-01,3.972137200000000000e+09
3.700000000000000000e+01,6.200000000000000000e+01,6.230000000000000000e+02,1.940000000000000000e+02,4.400000000000000000e+01,2.450000000000000000e+02,1.270000000000000000e+02,3.100000000000000000e+01,6.800000000000000488e-01,3.991059600000000000e+09
3.700000000000000000e+01,6.800000000000000000e+01,5.590000000000000000e+02,1.300000000000000000e+02,3.900000000000000000e+01,2.560000000000000000e+02,1.300000000000000000e+02,6.100000000000000000e+01,6.800000000000000488e-01,4.011124700000000000e+09
3.700000000000000000e+01,7.800000000000000000e+01,5.880000000000000000e+02,1.290000000000000000e+02,4.100000000000000000e+01,2.740000000000000000e+02,1.400000000000000000e+02,6.100000000000000000e+01,6.800000000000000488e-01,4.034350400000000000e+09
3.800000000000000000e+01,7.700000000000000000e+01,5.470000000000000000e+02,1.310000000000000000e+02,4.200000000000000000e+01,2.800000000000000000e+02,1.500000000000000000e+02,6.300000000000000000e+01,6.800000000000000488e-01,4.052714500000000000e+09
4.100000000000000000e+01,8.000000000000000000e+01,5.810000000000000000e+02,1.430000000000000000e+02,4.400000000000000000e+01,2.150000000000000000e+02,1.630000000000000000e+02,6.500000000000000000e+01,6.800000000000000488e-01,4.072306300000000000e+09
4.000000000000000000e+01,8.700000000000000000e+01,6.110000000000000000e+02,1.190000000000000000e+02,4.200000000000000000e+01,2.160000000000000000e+02,1.630000000000000000e+02,8.000000000000000000e+01,6.700000000000000400e-01,4.092067300000000000e+09
3.600000000000000000e+01,9.000000000000000000e+01,6.460000000000000000e+02,1.400000000000000000e+02,4.500000000000000000e+01,2.060000000000000000e+02,1.710000000000000000e+02,6.000000000000000000e+01,6.700000000000000400e-01,4.111420300000000000e+09
3.600000000000000000e+01,8.000000000000000000e+01,5.690000000000000000e+02,1.240000000000000000e+02,4.300000000000000000e+01,1.980000000000000000e+02,1.680000000000000000e+02,6.300000000000000000e+01,6.600000000000000311e-01,4.132858700000000000e+09
3.300000000000000000e+01,7.700000000000000000e+01,5.460000000000000000e+02,1.310000000000000000e+02,4.200000000000000000e+01,1.980000000000000000e+02,1.400000000000000000e+02,6.100000000000000000e+01,6.600000000000000311e-01,4.151058000000000000e+09
3.100000000000000000e+01,7.800000000000000000e+01,5.180000000000000000e+02,1.540000000000000000e+02,3.600000000000000000e+01,1.590000000000000000e+02,1.190000000000000000e+02,6.000000000000000000e+01,6.600000000000000311e-01,4.169667400000000000e+09
3.000000000000000000e+01,7.000000000000000000e+01,5.450000000000000000e+02,1.580000000000000000e+02,3.900000000000000000e+01,1.740000000000000000e+02,1.130000000000000000e+02,3.900000000000000000e+01,6.500000000000000222e-01,4.188266600000000000e+09
2.800000000000000000e+01,6.500000000000000000e+01,4.980000000000000000e+02,1.440000000000000000e+02,3.100000000000000000e+01,1.700000000000000000e+02,1.030000000000000000e+02,3.700000000000000000e+01,6.500000000000000222e-01,4.210174400000000000e+09
2.900000000000000000e+01,6.900000000000000000e+01,5.040000000000000000e+02,1.460000000000000000e+02,3.100000000000000000e+01,2.140000000000000000e+02,1.150000000000000000e+02,3.300000000000000000e+01,6.500000000000000222e-01,4.232607700000000000e+09
3.300000000000000000e+01,7.600000000000000000e+01,5.450000000000000000e+02,1.450000000000000000e+02,3.500000000000000000e+01,2.270000000000000000e+02,1.220000000000000000e+02,3.500000000000000000e+01,6.500000000000000222e-01,4.250868800000000000e+09
3.200000000000000000e+01,7.900000000000000000e+01,4.990000000000000000e+02,1.090000000000000000e+02,3.500000000000000000e+01,2.270000000000000000e+02,1.200000000000000000e+02,5.700000000000000000e+01,6.500000000000000222e-01,4.269061300000000000e+09
3.200000000000000000e+01,7.500000000000000000e+01,4.720000000000000000e+02,1.040000000000000000e+02,3.500000000000000000e+01,2.440000000000000000e+02,1.410000000000000000e+02,5.800000000000000000e+01,6.500000000000000222e-01,4.288307600000000000e+09
3.800000000000000000e+01,7.100000000000000000e+01,5.530000000000000000e+02,1.050000000000000000e+02,4.000000000000000000e+01,2.680000000000000000e+02,1.850000000000000000e+02,6.300000000000000000e+01,6.500000000000000222e-01,4.310940000000000000e+09
3.500000000000000000e+01,6.700000000000000000e+01,5.840000000000000000e+02,1.020000000000000000e+02,4.100000000000000000e+01,2.370000000000000000e+02,1.800000000000000000e+02,6.300000000000000000e+01,6.500000000000000222e-01,4.329853100000000000e+09
3.400000000000000000e+01,6.600000000000000000e+01,6.090000000000000000e+02,9.800000000000000000e+01,3.900000000000000000e+01,2.220000000000000000e+02,1.860000000000000000e+02,6.200000000000000000e+01,6.500000000000000222e-01,4.349477000000000000e+09
3.400000000000000000e+01,5.900000000000000000e+01,6.490000000000000000e+02,9.200000000000000000e+01,4.000000000000000000e+01,2.320000000000000000e+02,2.060000000000000000e+02,4.900000000000000000e+01,6.400000000000000133e-01,4.731002300000000000e+09
3.400000000000000000e+01,6.500000000000000000e+01,7.560000000000000000e+02,1.080000000000000000e+02,3.900000000000000000e+01,1.990000000000000000e+02,2.120000000000000000e+02,6.700000000000000000e+01,6.400000000000000133e-01,4.748658300000000000e+09
3.300000000000000000e+01,6.300000000000000000e+01,7.400000000000000000e+02,1.140000000000000000e+02,3.700000000000000000e+01,1.800000000000000000e+02,1.850000000000000000e+02,6.400000000000000000e+01,6.300000000000000044e-01,4.766089700000000000e+09
3.400000000000000000e+01,6.800000000000000000e+01,7.190000000000000000e+02,1.140000000000000000e+02,3.700000000000000000e+01,1.660000000000000000e+02,1.810000000000000000e+02,6.400000000000000000e+01,6.199999999999999956e-01,4.783877100000000000e+09
3.300000000000000000e+01,6.700000000000000000e+01,6.740000000000000000e+02,1.110000000000000000e+02,3.700000000000000000e+01,1.710000000000000000e+02,1.730000000000000000e+02,6.500000000000000000e+01,6.099999999999999867e-01,4.801804600000000000e+09
3.600000000000000000e+01,7.900000000000000000e+01,6.580000000000000000e+02,1.220000000000000000e+02,4.200000000000000000e+01,1.610000000000000000e+02,1.660000000000000000e+02,6.300000000000000000e+01,5.999999999999999778e-01,4.819949800000000000e+09
3.500000000000000000e+01,8.100000000000000000e+01,5.190000000000000000e+02,1.070000000000000000e+02,3.900000000000000000e+01,1.900000000000000000e+02,1.480000000000000000e+02,4.100000000000000000e+01,5.999999999999999778e-01,4.839925100000000000e+09
3.200000000000000000e+01,8.000000000000000000e+01,4.470000000000000000e+02,9.000000000000000000e+01,4.200000000000000000e+01,1.880000000000000000e+02,1.420000000000000000e+02,6.500000000000000000e+01,5.999999999999999778e-01,4.858460300000000000e+09
3.100000000000000000e+01,7.200000000000000000e+01,4.280000000000000000e+02,8.400000000000000000e+01,4.000000000000000000e+01,1.950000000000000000e+02,2.020000000000000000e+02,6.800000000000000000e+01,5.899999999999999689e-01,4.877130000000000000e+09
2.800000000000000000e+01,7.200000000000000000e+01,4.200000000000000000e+02,7.700000000000000000e+01,3.800000000000000000e+01,2.350000000000000000e+02,2.080000000000000000e+02,6.800000000000000000e+01,5.899999999999999689e-01,4.894074400000000000e+09
2.500000000000000000e+01,5.500000000000000000e+01,3.660000000000000000e+02,6.000000000000000000e+01,3.300000000000000000e+01,2.420000000000000000e+02,2.160000000000000000e+02,7.000000000000000000e+01,5.799999999999999600e-01,4.911097300000000000e+09
2.600000000000000000e+01,4.700000000000000000e+01,3.320000000000000000e+02,6.100000000000000000e+01,3.100000000000000000e+01,2.200000000000000000e+02,2.310000000000000000e+02,8.200000000000000000e+01,5.699999999999999512e-01,4.928880300000000000e+09
2.600000000000000000e+01,4.300000000000000000e+01,3.680000000000000000e+02,6.100000000000000000e+01,2.800000000000000000e+01,2.520000000000000000e+02,2.290000000000000000e+02,6.600000000000000000e+01,5.699999999999999512e-01,4.946048000000000000e+09
2.700000000000000000e+01,5.300000000000000000e+01,4.690000000000000000e+02,8.500000000000000000e+01,2.900000000000000000e+01,2.600000000000000000e+02,1.950000000000000000e+02,6.500000000000000000e+01,5.699999999999999512e-01,4.962968300000000000e+09
3.200000000000000000e+01,6.400000000000000000e+01,4.810000000000000000e+02,8.900000000000000000e+01,3.300000000000000000e+01,2.330000000000000000e+02,1.890000000000000000e+02,6.700000000000000000e+01,5.699999999999999512e-01,4.980506000000000000e+09
3.100000000000000000e+01,6.500000000000000000e+01,5.000000000000000000e+02,8.800000000000000000e+01,3.000000000000000000e+01,2.190000000000000000e+02,1.610000000000000000e+02,6.300000000000000000e+01,5.799999999999999600e-01,4.997292200000000000e+09
2.800000000000000000e+01,6.700000000000000000e+01,5.360000000000000000e+02,1.160000000000000000e+02,3.600000000000000000e+01,2.300000000000000000e+02,1.320000000000000000e+02,4.600000000000000000e+01,5.799999999999999600e-01,5.015072400000000000e+09
2.800000000000000000e+01,7.100000000000000000e+01,4.800000000000000000e+02,1.320000000000000000e+02,3.300000000000000000e+01,1.880000000000000000e+02,1.330000000000000000e+02,4.100000000000000000e+01,5.799999999999999600e-01,5.034179900000000000e+09
2.900000000000000000e+01,6.400000000000000000e+01,3.930000000000000000e+02,1.470000000000000000e+02,3.500000000000000000e+01,1.700000000000000000e+02,1.150000000000000000e+02,3.800000000000000000e+01,5.899999999999999689e-01,5.052027300000000000e+09
2.900000000000000000e+01,5.200000000000000000e+01,3.670000000000000000e+02,1.800000000000000000e+02,3.400000000000000000e+01,1.400000000000000000e+02,1.120000000000000000e+02,3.000000000000000000e+01,5.899999999999999689e-01,5.069280300000000000e+09
3.300000000000000000e+01,5.600000000000000000e+01,4.180000000000000000e+02,1.870000000000000000e+02,3.700000000000000000e+01,1.360000000000000000e+02,1.110000000000000000e+02,3.100000000000000000e+01,5.999999999999999778e-01,5.086850200000000000e+09
3.300000000000000000e+01,5.700000000000000000e+01,3.910000000000000000e+02,1.810000000000000000e+02,3.500000000000000000e+01,2.120000000000000000e+02,1.060000000000000000e+02,2.900000000000000000e+01,5.999999999999999778e-01,5.104560800000000000e+09
3.300000000000000000e+01,5.100000000000000000e+01,4.100000000000000000e+02,1.800000000000000000e+02,3.900000000000000000e+01,2.160000000000000000e+02,1.150000000000000000e+02,3.100000000000000000e+01,6.099999999999999867e-01,5.121483800000000000e+09
3.300000000000000000e+01,5.400000000000000000e+01,4.570000000000000000e+02,1.610000000000000000e+02,3.700000000000000000e+01,2.140000000000000000e+02,1.090000000000000000e+02,3.100000000000000000e+01,6.199999999999999956e-01,5.138562300000000000e+09
3.000000000000000000e+01,5.300000000000000000e+01,4.780000000000000000e+02,1.270000000000000000e+02,3.900000000000000000e+01,2.290000000000000000e+02,1.070000000000000000e+02,3.200000000000000000e+01,6.300000000000000044e-01,5.155812900000000000e+09
2.800000000000000000e+01,5.000000000000000000e+01,4.270000000000000000e+02,1.260000000000000000e+02,3.900000000000000000e+01,2.520000000000000000e+02,1.100000000000000000e+02,2.900000000000000000e+01,6.400000000000000133e-01,5.173064400000000000e+09
2.900000000000000000e+01,5.600000000000000000e+01,4.290000000000000000e+02,1.190000000000000000e+02,3.700000000000000000e+01,1.860000000000000000e+02,1.040000000000000000e+02,2.800000000000000000e+01,6.400000000000000133e-01,5.190637400000000000e+09
3.300000000000000000e+01,1.080000000000000000e+02,5.680000000000000000e+02,1.140000000000000000e+02,3.600000000000000000e+01,1.760000000000000000e+02,8.600000000000000000e+01,2.500000000000000000e+01,6.400000000000000133e-01,5.206947800000000000e+09
3.200000000000000000e+01,1.230000000000000000e+02,6.020000000000000000e+02,1.160000000000000000e+02,3.800000000000000000e+01,1.830000000000000000e+02,1.010000000000000000e+02,2.400000000000000000e+01,6.400000000000000133e-01,5.223922200000000000e+09
3.300000000000000000e+01,1.260000000000000000e+02,5.940000000000000000e+02,1.100000000000000000e+02,3.500000000000000000e+01,2.320000000000000000e+02,9.500000000000000000e+01,2.600000000000000000e+01,6.500000000000000222e-01,5.240445600000000000e+09
3.400000000000000000e+01,1.330000000000000000e+02,5.900000000000000000e+02,1.060000000000000000e+02,3.500000000000000000e+01,2.220000000000000000e+02,1.020000000000000000e+02,2.900000000000000000e+01,6.500000000000000222e-01,5.259034400000000000e+09
3.700000000000000000e+01,1.750000000000000000e+02,6.670000000000000000e+02,1.310000000000000000e+02,4.000000000000000000e+01,2.110000000000000000e+02,1.010000000000000000e+02,2.800000000000000000e+01,6.400000000000000133e-01,5.276509400000000000e+09
3.700000000000000000e+01,1.780000000000000000e+02,6.160000000000000000e+02,1.400000000000000000e+02,4.200000000000000000e+01,2.110000000000000000e+02,9.700000000000000000e+01,3.000000000000000000e+01,6.400000000000000133e-01,5.294725100000000000e+09
5.600000000000000000e+01,1.870000000000000000e+02,5.680000000000000000e+02,1.490000000000000000e+02,4.300000000000000000e+01,2.040000000000000000e+02,7.300000000000000000e+01,3.400000000000000000e+01,6.400000000000000133e-01,5.312095100000000000e+09
6.000000000000000000e+01,2.170000000000000000e+02,5.870000000000000000e+02,1.580000000000000000e+02,4.500000000000000000e+01,1.260000000000000000e+02,7.400000000000000000e+01,3.200000000000000000e+01,6.400000000000000133e-01,5.328908000000000000e+09
6.000000000000000000e+01,2.290000000000000000e+02,5.820000000000000000e+02,1.580000000000000000e+02,4.400000000000000000e+01,1.110000000000000000e+02,8.000000000000000000e+01,3.000000000000000000e+01,6.400000000000000133e-01,5.345306200000000000e+09
5.900000000000000000e+01,1.990000000000000000e+02,5.280000000000000000e+02,1.480000000000000000e+02,4.000000000000000000e+01,1.240000000000000000e+02,8.900000000000000000e+01,3.200000000000000000e+01,6.400000000000000133e-01,5.362351500000000000e+09
6.100000000000000000e+01,1.750000000000000000e+02,5.180000000000000000e+02,1.690000000000000000e+02,3.700000000000000000e+01,1.220000000000000000e+02,9.800000000000000000e+01,3.400000000000000000e+01,6.400000000000000133e-01,5.378773000000000000e+09
4.600000000000000000e+01,1.830000000000000000e+02,4.950000000000000000e+02,1.590000000000000000e+02,3.100000000000000000e+01,1.230000000000000000e+02,9.500000000000000000e+01,2.900000000000000000e+01,6.400000000000000133e-01,5.395512800000000000e+09
4.100000000000000000e+01,1.460000000000000000e+02,4.830000000000000000e+02,1.520000000000000000e+02,2.800000000000000000e+01,1.390000000000000000e+02,9.700000000000000000e+01,2.900000000000000000e+01,6.400000000000000133e-01,5.412502400000000000e+09
3.700000000000000000e+01,1.360000000000000000e+02,5.070000000000000000e+02,1.580000000000000000e+02,2.900000000000000000e+01,1.250000000000000000e+02,7.800000000000000000e+01,2.900000000000000000e+01,6.500000000000000222e-01,5.429247300000000000e+09
3.800000000000000000e+01,1.420000000000000000e+02,5.050000000000000000e+02,1.660000000000000000e+02,2.900000000000000000e+01,1.090000000000000000e+02,8.400000000000000000e+01,2.800000000000000000e+01,6.500000000000000222e-01,5.446183000000000000e+09
3.500000000000000000e+01,1.550000000000000000e+02,4.700000000000000000e+02,1.500000000000000000e+02,3.900000000000000000e+01,1.400000000000000000e+02,1.020000000000000000e+02,2.800000000000000000e+01,6.500000000000000222e-01,5.462813000000000000e+09
3.300000000000000000e+01,1.210000000000000000e+02,4.560000000000000000e+02,1.540000000000000000e+02,4.000000000000000000e+01,1.440000000000000000e+02,1.060000000000000000e+02,2.900000000000000000e+01,6.600000000000000311e-01,8.069587000000000000e+09
3.600000000000000000e+01,1.570000000000000000e+02,4.610000000000000000e+02,1.590000000000000000e+02,4.100000000000000000e+01,1.240000000000000000e+02,1.050000000000000000e+02,2.900000000000000000e+01,6.600000000000000311e-01,8.088073400000000000e+09
4.700000000000000000e+01,2.180000000000000000e+02,4.950000000000000000e+02,1.790000000000000000e+02,4.500000000000000000e+01,1.250000000000000000e+02,1.030000000000000000e+02,3.200000000000000000e+01,6.600000000000000311e-01,8.108305600000000000e+09
5.000000000000000000e+01,2.470000000000000000e+02,4.730000000000000000e+02,1.580000000000000000e+02,4.500000000000000000e+01,1.230000000000000000e+02,8.600000000000000000e+01,3.100000000000000000e+01,6.600000000000000311e-01,8.127191200000000000e+09
5.100000000000000000e+01,2.440000000000000000e+02,4.780000000000000000e+02,1.470000000000000000e+02,4.100000000000000000e+01,1.220000000000000000e+02,5.500000000000000000e+01,2.900000000000000000e+01,6.700000000000000400e-01,8.146538500000000000e+09
5.300000000000000000e+01,2.440000000000000000e+02,5.220000000000000000e+02,1.500000000000000000e+02,4.500000000000000000e+01,1.750000000000000000e+02,5.500000000000000000e+01,3.300000000000000000e+01,6.700000000000000400e-01,8.164709100000000000e+09
5.100000000000000000e+01,2.280000000000000000e+02,5.230000000000000000e+02,1.480000000000000000e+02,4.400000000000000000e+01,1.790000000000000000e+02,5.000000000000000000e+01,3.200000000000000000e+01,6.700000000000000400e-01,8.183157600000000000e+09
4.900000000000000000e+01,1.890000000000000000e+02,5.920000000000000000e+02,1.270000000000000000e+02,4.200000000000000000e+01,1.840000000000000000e+02,5.200000000000000000e+01,3.000000000000000000e+01,6.700000000000000400e-01,8.201424700000000000e+09
4.500000000000000000e+01,1.450000000000000000e+02,5.960000000000000000e+02,1.290000000000000000e+02,4.400000000000000000e+01,2.030000000000000000e+02,6.600000000000000000e+01,3.600000000000000000e+01,6.600000000000000311e-01,8.220411500000000000e+09
4.000000000000000000e+01,1.360000000000000000e+02,5.760000000000000000e+02,1.200000000000000000e+02,4.200000000000000000e+01,2.400000000000000000e+02,6.600000000000000000e+01,3.600000000000000000e+01,6.600000000000000311e-01,8.238279700000000000e+09
3.700000000000000000e+01,1.340000000000000000e+02,5.480000000000000000e+02,1.080000000000000000e+02,3.900000000000000000e+01,2.050000000000000000e+02,7.900000000000000000e+01,3.500000000000000000e+01,6.600000000000000311e-01,8.256816700000000000e+09
3.700000000000000000e+01,1.210000000000000000e+02,5.750000000000000000e+02,1.170000000000000000e+02,4.100000000000000000e+01,2.080000000000000000e+02,8.900000000000000000e+01,3.800000000000000000e+01,6.600000000000000311e-01,8.274916700000000000e+09
3.100000000000000000e+01,6.400000000000000000e+01,4.560000000000000000e+02,1.070000000000000000e+02,4.000000000000000000e+01,2.150000000000000000e+02,9.100000000000000000e+01,3.600000000000000000e+01,6.600000000000000311e-01,8.293096200000000000e+09
3.100000000000000000e+01,9.600000000000000000e+01,4.390000000000000000e+02,1.010000000000000000e+02,3.600000000000000000e+01,2.080000000000000000e+02,1.060000000000000000e+02,3.200000000000000000e+01,6.600000000000000311e-01,8.313058200000000000e+09
3.400000000000000000e+01,1.000000000000000000e+02,4.200000000000000000e+02,1.020000000000000000e+02,3.500000000000000000e+01,1.700000000000000000e+02,1.190000000000000000e+02,4.100000000000000000e+01,6.600000000000000311e-01,8.332712800000000000e+09
3.700000000000000000e+01,1.040000000000000000e+02,4.030000000000000000e+02,9.700000000000000000e+01,3.300000000000000000e+01,1.900000000000000000e+02,1.150000000000000000e+02,5.700000000000000000e+01,6.500000000000000222e-01,8.351475400000000000e+09
3.600000000000000000e+01,1.100000000000000000e+02,4.090000000000000000e+02,9.600000000000000000e+01,3.200000000000000000e+01,1.880000000000000000e+02,1.100000000000000000e+02,5.600000000000000000e+01,6.500000000000000222e-01,8.371006100000000000e+09
3.400000000000000000e+01,1.090000000000000000e+02,4.660000000000000000e+02,9.000000000000000000e+01,3.000000000000000000e+01,1.770000000000000000e+02,1.090000000000000000e+02,5.800000000000000000e+01,6.500000000000000222e-01,8.389875100000000000e+09
3.500000000000000000e+01,7.800000000000000000e+01,4.790000000000000000e+02,1.600000000000000000e+02,3.800000000000000000e+01,1.660000000000000000e+02,8.900000000000000000e+01,5.700000000000000000e+01,6.500000000000000222e-01,8.408850900000000000e+09
3.600000000000000000e+01,8.400000000000000000e+01,4.980000000000000000e+02,1.680000000000000000e+02,3.800000000000000000e+01,1.370000000000000000e+02,9.800000000000000000e+01,5.100000000000000000e+01,6.500000000000000222e-01,8.426760300000000000e+09
3.200000000000000000e+01,1.330000000000000000e+02,5.310000000000000000e+02,1.760000000000000000e+02,3.900000000000000000e+01,1.250000000000000000e+02,1.160000000000000000e+02,3.100000000000000000e+01,6.500000000000000222e-01,8.446072200000000000e+09
3.400000000000000000e+01,1.350000000000000000e+02,5.020000000000000000e+02,1.730000000000000000e+02,3.900000000000000000e+01,1.420000000000000000e+02,1.230000000000000000e+02,2.900000000000000000e+01,6.500000000000000222e-01,8.464743600000000000e+09
3.300000000000000000e+01,1.370000000000000000e+02,4.460000000000000000e+02,1.720000000000000000e+02,3.900000000000000000e+01,1.480000000000000000e+02,1.250000000000000000e+02,2.700000000000000000e+01,6.500000000000000222e-01,8.486193700000000000e+09
3.100000000000000000e+01,1.410000000000000000e+02,4.540000000000000000e+02,1.330000000000000000e+02,3.300000000000000000e+01,2.040000000000000000e+02,1.520000000000000000e+02,2.900000000000000000e+01,6.600000000000000311e-01,8.508521000000000000e+09
2.900000000000000000e+01,1.460000000000000000e+02,4.680000000000000000e+02,1.260000000000000000e+02,3.500000000000000000e+01,2.190000000000000000e+02,1.370000000000000000e+02,2.700000000000000000e+01,6.600000000000000311e-01,8.527109000000000000e+09
3.100000000000000000e+01,1.330000000000000000e+02,4.620000000000000000e+02,1.200000000000000000e+02,3.600000000000000000e+01,2.230000000000000000e+02,1.200000000000000000e+02,2.700000000000000000e+01,6.600000000000000311e-01,8.546010400000000000e+09
3.300000000000000000e+01,1.560000000000000000e+02,4.650000000000000000e+02,1.130000000000000000e+02,3.500000000000000000e+01,2.080000000000000000e+02,1.120000000000000000e+02,2.700000000000000000e+01,6.600000000000000311e-01,8.565312800000000000e+09
3.800000000000000000e+01,1.560000000000000000e+02,5.370000000000000000e+02,1.260000000000000000e+02,3.500000000000000000e+01,2.060000000000000000e+02,1.100000000000000000e+02,2.800000000000000000e+01,6.600000000000000311e-01,8.586056300000000000e+09
3.800000000000000000e+01,1.540000000000000000e+02,5.250000000000000000e+02,1.030000000000000000e+02,3.500000000000000000e+01,1.580000000000000000e+02,6.800000000000000000e+01,2.500000000000000000e+01,6.600000000000000311e-01,8.608281300000000000e+09
4.000000000000000000e+01,1.450000000000000000e+02,5.250000000000000000e+02,1.060000000000000000e+02,3.800000000000000000e+01,1.520000000000000000e+02,1.000000000000000000e+02,3.000000000000000000e+01,6.600000000000000311e-01,8.627285900000000000e+09
3.700000000000000000e+01,1.150000000000000000e+02,5.400000000000000000e+02,1.440000000000000000e+02,3.800000000000000000e+01,1.300000000000000000e+02,9.900000000000000000e+01,2.800000000000000000e+01,6.600000000000000311e-01,1.034885300000000000e+10
3.800000000000000000e+01,1.270000000000000000e+02,5.530000000000000000e+02,1.500000000000000000e+02,3.900000000000000000e+01,1.270000000000000000e+02,9.600000000000000000e+01,2.700000000000000000e+01,6.600000000000000311e-01,1.036614050000000000e+10
3.300000000000000000e+01,1.500000000000000000e+02,4.740000000000000000e+02,1.590000000000000000e+02,4.000000000000000000e+01,1.230000000000000000e+02,9.500000000000000000e+01,2.500000000000000000e+01,6.600000000000000311e-01,1.038279690000000000e+10
3.200000000000000000e+01,1.530000000000000000e+02,5.140000000000000000e+02,1.600000000000000000e+02,4.000000000000000000e+01,1.140000000000000000e+02,9.300000000000000000e+01,2.400000000000000000e+01,6.600000000000000311e-01,1.039927920000000000e+10
3.700000000000000000e+01,1.660000000000000000e+02,5.480000000000000000e+02,1.700000000000000000e+02,3.700000000000000000e+01,1.470000000000000000e+02,8.000000000000000000e+01,2.700000000000000000e+01,6.600000000000000311e-01,1.041640580000000000e+10
3.800000000000000000e+01,1.660000000000000000e+02,5.460000000000000000e+02,1.480000000000000000e+02,3.600000000000000000e+01,2.050000000000000000e+02,8.000000000000000000e+01,2.800000000000000000e+01,6.600000000000000311e-01,1.043281590000000000e+10
3.600000000000000000e+01,1.310000000000000000e+02,5.510000000000000000e+02,1.420000000000000000e+02,3.300000000000000000e+01,2.120000000000000000e+02,8.200000000000000000e+01,2.800000000000000000e+01,6.600000000000000311e-01,1.044905970000000000e+10
3.800000000000000000e+01,1.060000000000000000e+02,6.240000000000000000e+02,1.370000000000000000e+02,3.900000000000000000e+01,2.240000000000000000e+02,8.900000000000000000e+01,3.100000000000000000e+01,6.600000000000000311e-01,1.046566540000000000e+10
3.900000000000000000e+01,1.010000000000000000e+02,6.060000000000000000e+02,1.400000000000000000e+02,3.800000000000000000e+01,2.270000000000000000e+02,9.700000000000000000e+01,3.100000000000000000e+01,6.600000000000000311e-01,1.048282830000000000e+10
3.400000000000000000e+01,1.020000000000000000e+02,6.280000000000000000e+02,1.270000000000000000e+02,3.700000000000000000e+01,1.950000000000000000e+02,7.400000000000000000e+01,2.700000000000000000e+01,6.500000000000000222e-01,1.050025050000000000e+10
3.700000000000000000e+01,1.100000000000000000e+02,6.160000000000000000e+02,1.340000000000000000e+02,4.400000000000000000e+01,1.200000000000000000e+02,7.000000000000000000e+01,3.000000000000000000e+01,6.500000000000000222e-01,1.051777550000000000e+10
3.300000000000000000e+01,1.050000000000000000e+02,6.120000000000000000e+02,1.380000000000000000e+02,4.400000000000000000e+01,1.150000000000000000e+02,7.700000000000000000e+01,2.900000000000000000e+01,6.500000000000000222e-01,1.053463020000000000e+10
3.800000000000000000e+01,1.030000000000000000e+02,5.550000000000000000e+02,1.430000000000000000e+02,4.300000000000000000e+01,1.170000000000000000e+02,7.100000000000000000e+01,2.900000000000000000e+01,6.500000000000000222e-01,1.055116670000000000e+10
4.000000000000000000e+01,1.050000000000000000e+02,5.130000000000000000e+02,1.370000000000000000e+02,4.300000000000000000e+01,1.500000000000000000e+02,8.600000000000000000e+01,3.300000000000000000e+01,6.500000000000000222e-01,1.056799730000000000e+10
3.800000000000000000e+01,8.000000000000000000e+01,4.250000000000000000e+02,1.310000000000000000e+02,4.500000000000000000e+01,1.870000000000000000e+02,9.400000000000000000e+01,3.200000000000000000e+01,6.500000000000000222e-01,1.058437630000000000e+10
3.800000000000000000e+01,7.700000000000000000e+01,4.370000000000000000e+02,1.190000000000000000e+02,4.300000000000000000e+01,2.360000000000000000e+02,1.000000000000000000e+02,3.100000000000000000e+01,6.500000000000000222e-01,1.060120510000000000e+10
4.200000000000000000e+01,8.700000000000000000e+01,4.260000000000000000e+02,1.160000000000000000e+02,4.500000000000000000e+01,2.450000000000000000e+02,9.400000000000000000e+01,3.200000000000000000e+01,6.500000000000000222e-01,1.061747430000000000e+10
3.700000000000000000e+01,8.100000000000000000e+01,4.320000000000000000e+02,9.800000000000000000e+01,4.100000000000000000e+01,2.410000000000000000e+02,1.090000000000000000e+02,3.000000000000000000e+01,6.500000000000000222e-01,1.068347300000000000e+10
3.500000000000000000e+01,7.200000000000000000e+01,4.490000000000000000e+02,9.600000000000000000e+01,4.000000000000000000e+01,2.470000000000000000e+02,1.040000000000000000e+02,3.000000000000000000e+01,6.500000000000000222e-01,1.070150240000000000e+10
3.700000000000000000e+01,7.500000000000000000e+01,5.160000000000000000e+02,1.000000000000000000e+02,3.700000000000000000e+01,2.250000000000000000e+02,1.020000000000000000e+02,3.100000000000000000e+01,6.500000000000000222e-01,1.071864190000000000e+10
3.300000000000000000e+01,7.300000000000000000e+01,5.180000000000000000e+02,9.300000000000000000e+01,2.800000000000000000e+01,1.840000000000000000e+02,1.010000000000000000e+02,2.800000000000000000e+01,6.400000000000000133e-01,1.073620150000000000e+10
3.600000000000000000e+01,7.900000000000000000e+01,6.480000000000000000e+02,1.080000000000000000e+02,3.000000000000000000e+01,1.820000000000000000e+02,1.010000000000000000e+02,2.700000000000000000e+01,6.400000000000000133e-01,1.075388920000000000e+10
3.500000000000000000e+01,8.200000000000000000e+01,6.510000000000000000e+02,1.000000000000000000e+02,3.500000000000000000e+01,1.870000000000000000e+02,9.900000000000000000e+01,3.000000000000000000e+01,6.400000000000000133e-01,1.077212690000000000e+10
3.500000000000000000e+01,8.500000000000000000e+01,6.440000000000000000e+02,1.080000000000000000e+02,3.700000000000000000e+01,1.510000000000000000e+02,1.070000000000000000e+02,2.600000000000000000e+01,6.400000000000000133e-01,1.079171010000000000e+10
3.400000000000000000e+01,8.700000000000000000e+01,6.110000000000000000e+02,1.060000000000000000e+02,3.700000000000000000e+01,1.450000000000000000e+02,1.060000000000000000e+02,2.300000000000000000e+01,6.300000000000000044e-01,1.080877920000000000e+10
3.400000000000000000e+01,8.400000000000000000e+01,5.940000000000000000e+02,1.030000000000000000e+02,3.800000000000000000e+01,1.530000000000000000e+02,1.010000000000000000e+02,2.900000000000000000e+01,6.300000000000000044e-01,1.082562860000000000e+10
3.100000000000000000e+01,7.200000000000000000e+01,4.830000000000000000e+02,9.100000000000000000e+01,3.500000000000000000e+01,1.690000000000000000e+02,1.470000000000000000e+02,3.400000000000000000e+01,6.300000000000000044e-01,1.084215340000000000e+10
3.400000000000000000e+01,8.700000000000000000e+01,5.350000000000000000e+02,1.020000000000000000e+02,3.300000000000000000e+01,1.540000000000000000e+02,1.400000000000000000e+02,3.300000000000000000e+01,6.199999999999999956e-01,1.085856070000000000e+10
3.400000000000000000e+01,9.300000000000000000e+01,5.820000000000000000e+02,1.070000000000000000e+02,3.400000000000000000e+01,1.490000000000000000e+02,1.240000000000000000e+02,3.500000000000000000e+01,6.199999999999999956e-01,1.087612660000000000e+10
3.400000000000000000e+01,9.600000000000000000e+01,5.980000000000000000e+02,1.260000000000000000e+02,3.900000000000000000e+01,2.190000000000000000e+02,1.250000000000000000e+02,3.800000000000000000e+01,6.199999999999999956e-01,1.089310270000000000e+10
3.600000000000000000e+01,9.300000000000000000e+01,5.950000000000000000e+02,1.260000000000000000e+02,4.000000000000000000e+01,2.260000000000000000e+02,1.300000000000000000e+02,3.700000000000000000e+01,6.199999999999999956e-01,1.091043460000000000e+10
3.200000000000000000e+01,8.800000000000000000e+01,5.380000000000000000e+02,1.210000000000000000e+02,3.800000000000000000e+01,2.120000000000000000e+02,8.000000000000000000e+01,3.300000000000000000e+01,6.199999999999999956e-01,1.092735780000000000e+10
3.000000000000000000e+01,7.000000000000000000e+01,5.000000000000000000e+02,1.300000000000000000e+02,3.900000000000000000e+01,2.160000000000000000e+02,8.200000000000000000e+01,4.000000000000000000e+01,6.199999999999999956e-01,1.094423130000000000e+10
2.700000000000000000e+01,6.100000000000000000e+01,4.500000000000000000e+02,1.170000000000000000e+02,3.700000000000000000e+01,2.330000000000000000e+02,8.600000000000000000e+01,5.700000000000000000e+01,6.199999999999999956e-01,1.096313760000000000e+10
2.500000000000000000e+01,5.000000000000000000e+01,4.890000000000000000e+02,9.900000000000000000e+01,3.100000000000000000e+01,1.840000000000000000e+02,1.290000000000000000e+02,6.400000000000000000e+01,6.199999999999999956e-01,1.098204450000000000e+10
2.600000000000000000e+01,5.500000000000000000e+01,4.970000000000000000e+02,1.000000000000000000e+02,3.300000000000000000e+01,2.360000000000000000e+02,1.480000000000000000e+02,6.600000000000000000e+01,6.199999999999999956e-01,1.099894750000000000e+10
3.300000000000000000e+01,6.800000000000000000e+01,5.660000000000000000e+02,1.110000000000000000e+02,3.700000000000000000e+01,2.380000000000000000e+02,1.480000000000000000e+02,6.800000000000000000e+01,6.199999999999999956e-01,1.101602050000000000e+10
3.100000000000000000e+01,6.800000000000000000e+01,5.610000000000000000e+02,9.400000000000000000e+01,3.300000000000000000e+01,2.430000000000000000e+02,1.510000000000000000e+02,6.400000000000000000e+01,6.199999999999999956e-01,1.103308830000000000e+10
3.500000000000000000e+01,7.200000000000000000e+01,5.960000000000000000e+02,1.030000000000000000e+02,3.400000000000000000e+01,2.270000000000000000e+02,1.490000000000000000e+02,4.700000000000000000e+01,6.199999999999999956e-01,1.104983730000000000e+10
3.900000000000000000e+01,1.060000000000000000e+02,5.790000000000000000e+02,1.080000000000000000e+02,3.600000000000000000e+01,2.520000000000000000e+02,1.160000000000000000e+02,5.600000000000000000e+01,6.300000000000000044e-01,1.106642580000000000e+10
3.800000000000000000e+01,1.140000000000000000e+02,6.170000000000000000e+02,1.120000000000000000e+02,3.400000000000000000e+01,2.100000000000000000e+02,8.800000000000000000e+01,5.500000000000000000e+01,6.300000000000000044e-01,1.108346760000000000e+10
3.700000000000000000e+01,1.130000000000000000e+02,5.860000000000000000e+02,1.220000000000000000e+02,3.300000000000000000e+01,2.110000000000000000e+02,9.800000000000000000e+01,5.400000000000000000e+01,6.300000000000000044e-01,1.110063430000000000e+10
3.900000000000000000e+01,1.160000000000000000e+02,6.350000000000000000e+02,1.370000000000000000e+02,3.800000000000000000e+01,2.320000000000000000e+02,1.010000000000000000e+02,5.700000000000000000e+01,6.199999999999999956e-01,1.111757130000000000e+10
3.900000000000000000e+01,1.170000000000000000e+02,6.280000000000000000e+02,1.390000000000000000e+02,3.900000000000000000e+01,2.430000000000000000e+02,1.080000000000000000e+02,6.100000000000000000e+01,6.199999999999999956e-01,1.113434550000000000e+10
4.300000000000000000e+01,1.110000000000000000e+02,6.320000000000000000e+02,1.370000000000000000e+02,3.600000000000000000e+01,2.180000000000000000e+02,1.240000000000000000e+02,6.700000000000000000e+01,6.199999999999999956e-01,1.115171480000000000e+10
4.500000000000000000e+01,1.340000000000000000e+02,6.430000000000000000e+02,1.460000000000000000e+02,3.600000000000000000e+01,2.060000000000000000e+02,1.590000000000000000e+02,1.070000000000000000e+02,6.199999999999999956e-01,1.116861810000000000e+10
4.400000000000000000e+01,1.350000000000000000e+02,6.550000000000000000e+02,1.300000000000000000e+02,3.400000000000000000e+01,2.000000000000000000e+02,1.870000000000000000e+02,1.150000000000000000e+02,6.199999999999999956e-01,1.118543180000000000e+10
4.700000000000000000e+01,1.370000000000000000e+02,6.600000000000000000e+02,1.120000000000000000e+02,3.600000000000000000e+01,1.710000000000000000e+02,1.990000000000000000e+02,1.230000000000000000e+02,6.099999999999999867e-01,1.120278880000000000e+10
4.400000000000000000e+01,1.370000000000000000e+02,7.000000000000000000e+02,1.160000000000000000e+02,3.900000000000000000e+01,1.660000000000000000e+02,2.090000000000000000e+02,1.250000000000000000e+02,5.999999999999999778e-01,1.122190080000000000e+10
3.900000000000000000e+01,1.200000000000000000e+02,6.490000000000000000e+02,1.100000000000000000e+02,3.900000000000000000e+01,1.450000000000000000e+02,2.010000000000000000e+02,1.160000000000000000e+02,5.999999999999999778e-01,1.123847660000000000e+10
4.300000000000000000e+01,1.110000000000000000e+02,6.640000000000000000e+02,1.280000000000000000e+02,4.500000000000000000e+01,1.780000000000000000e+02,1.840000000000000000e+02,9.700000000000000000e+01,5.899999999999999689e-01,1.125535560000000000e+10
4.400000000000000000e+01,1.230000000000000000e+02,6.270000000000000000e+02,1.310000000000000000e+02,4.900000000000000000e+01,2.160000000000000000e+02,1.590000000000000000e+02,1.330000000000000000e+02,5.899999999999999689e-01,1.127247850000000000e+10
3.900000000000000000e+01,1.240000000000000000e+02,5.860000000000000000e+02,1.320000000000000000e+02,4.300000000000000000e+01,2.490000000000000000e+02,1.930000000000000000e+02,1.400000000000000000e+02,5.899999999999999689e-01,1.128898910000000000e+10
4.900000000000000000e+01,1.250000000000000000e+02,5.650000000000000000e+02,1.220000000000000000e+02,4.500000000000000000e+01,3.010000000000000000e+02,2.000000000000000000e+02,1.490000000000000000e+02,5.899999999999999689e-01,1.130571010000000000e+10
5.800000000000000000e+01,1.310000000000000000e+02,6.030000000000000000e+02,1.330000000000000000e+02,4.700000000000000000e+01,3.050000000000000000e+02,2.150000000000000000e+02,1.510000000000000000e+02,5.799999999999999600e-01,1.132498390000000000e+10
6.000000000000000000e+01,1.100000000000000000e+02,5.360000000000000000e+02,1.060000000000000000e+02,4.100000000000000000e+01,2.880000000000000000e+02,2.340000000000000000e+02,1.560000000000000000e+02,5.799999999999999600e-01,1.136054860000000000e+10
6.400000000000000000e+01,9.800000000000000000e+01,5.810000000000000000e+02,1.040000000000000000e+02,4.200000000000000000e+01,3.000000000000000000e+02,2.390000000000000000e+02,1.660000000000000000e+02,5.799999999999999600e-01,1.137820040000000000e+10
6.500000000000000000e+01,9.100000000000000000e+01,5.540000000000000000e+02,1.040000000000000000e+02,4.200000000000000000e+01,2.840000000000000000e+02,2.100000000000000000e+02,1.570000000000000000e+02,5.799999999999999600e-01,1.139573380000000000e+10
5.700000000000000000e+01,8.200000000000000000e+01,5.390000000000000000e+02,1.120000000000000000e+02,3.700000000000000000e+01,2.230000000000000000e+02,2.060000000000000000e+02,1.460000000000000000e+02,5.799999999999999600e-01,1.141284220000000000e+10
4.900000000000000000e+01,7.100000000000000000e+01,5.130000000000000000e+02,9.800000000000000000e+01,3.400000000000000000e+01,2.280000000000000000e+02,1.870000000000000000e+02,1.460000000000000000e+02,5.799999999999999600e-01,1.143076530000000000e+10
4.200000000000000000e+01,8.300000000000000000e+01,5.520000000000000000e+02,1.010000000000000000e+02,3.800000000000000000e+01,2.170000000000000000e+02,1.550000000000000000e+02,1.290000000000000000e+02,5.799999999999999600e-01,1.144869820000000000e+10
3.900000000000000000e+01,1.040000000000000000e+02,5.560000000000000000e+02,1.050000000000000000e+02,4.100000000000000000e+01,2.660000000000000000e+02,1.850000000000000000e+02,7.100000000000000000e+01,5.899999999999999689e-01,1.146641280000000000e+10
4.600000000000000000e+01,1.330000000000000000e+02,5.510000000000000000e+02,1.110000000000000000e+02,4.100000000000000000e+01,2.610000000000000000e+02,2.110000000000000000e+02,1.510000000000000000e+02,5.899999999999999689e-01,1.148357610000000000e+10
4.500000000000000000e+01,1.340000000000000000e+02,5.140000000000000000e+02,1.020000000000000000e+02,4.800000000000000000e+01,3.550000000000000000e+02,2.240000000000000000e+02,1.560000000000000000e+02,5.899999999999999689e-01,1.150057740000000000e+10
4.300000000000000000e+01,1.340000000000000000e+02,4.930000000000000000e+02,1.030000000000000000e+02,4.900000000000000000e+01,3.490000000000000000e+02,2.320000000000000000e+02,1.620000000000000000e+02,5.899999999999999689e-01,1.151737920000000000e+10
4.400000000000000000e+01,1.290000000000000000e+02,4.540000000000000000e+02,1.060000000000000000e+02,4.900000000000000000e+01,3.460000000000000000e+02,2.280000000000000000e+02,1.640000000000000000e+02,5.999999999999999778e-01,1.153401590000000000e+10
3.900000000000000000e+01,1.060000000000000000e+02,3.860000000000000000e+02,9.700000000000000000e+01,4.200000000000000000e+01,2.790000000000000000e+02,1.970000000000000000e+02,1.590000000000000000e+02,5.999999999999999778e-01,1.155088640000000000e+10
3.300000000000000000e+01,6.200000000000000000e+01,3.950000000000000000e+02,8.300000000000000000e+01,4.100000000000000000e+01,3.130000000000000000e+02,1.690000000000000000e+02,9.000000000000000000e+01,5.999999999999999778e-01,1.156822020000000000e+10
3.500000000000000000e+01,6.800000000000000000e+01,3.750000000000000000e+02,8.200000000000000000e+01,3.600000000000000000e+01,2.070000000000000000e+02,1.340000000000000000e+02,7.900000000000000000e+01,5.999999999999999778e-01,1.158517330000000000e+10
3.900000000000000000e+01,6.500000000000000000e+01,4.290000000000000000e+02,1.180000000000000000e+02,3.800000000000000000e+01,2.140000000000000000e+02,1.270000000000000000e+02,6.600000000000000000e+01,5.999999999999999778e-01,1.160177280000000000e+10
3.500000000000000000e+01,8.100000000000000000e+01,4.170000000000000000e+02,1.140000000000000000e+02,3.300000000000000000e+01,2.170000000000000000e+02,1.290000000000000000e+02,6.100000000000000000e+01,5.999999999999999778e-01,1.161991390000000000e+10
3.600000000000000000e+01,1.500000000000000000e+02,4.260000000000000000e+02,1.230000000000000000e+02,3.700000000000000000e+01,2.110000000000000000e+02,1.280000000000000000e+02,6.100000000000000000e+01,6.099999999999999867e-01,1.163850600000000000e+10
3.400000000000000000e+01,1.590000000000000000e+02,5.470000000000000000e+02,1.290000000000000000e+02,4.500000000000000000e+01,1.950000000000000000e+02,1.070000000000000000e+02,4.500000000000000000e+01,6.099999999999999867e-01,1.165532070000000000e+10
3.200000000000000000e+01,1.610000000000000000e+02,5.690000000000000000e+02,1.350000000000000000e+02,4.300000000000000000e+01,1.840000000000000000e+02,1.070000000000000000e+02,4.300000000000000000e+01,6.099999999999999867e-01,1.167226910000000000e+10
2.800000000000000000e+01,2.030000000000000000e+02,5.860000000000000000e+02,1.420000000000000000e+02,4.900000000000000000e+01,1.750000000000000000e+02,1.000000000000000000e+02,3.800000000000000000e+01,6.099999999999999867e-01,1.168867810000000000e+10
3.700000000000000000e+01,2.040000000000000000e+02,6.050000000000000000e+02,1.440000000000000000e+02,5.200000000000000000e+01,1.780000000000000000e+02,9.800000000000000000e+01,3.600000000000000000e+01,6.099999999999999867e-01,1.170482680000000000e+10
3.800000000000000000e+01,1.630000000000000000e+02,6.820000000000000000e+02,1.480000000000000000e+02,5.300000000000000000e+01,1.860000000000000000e+02,1.110000000000000000e+02,3.600000000000000000e+01,6.099999999999999867e-01,1.172140200000000000e+10
4.000000000000000000e+01,1.650000000000000000e+02,6.120000000000000000e+02,1.410000000000000000e+02,4.600000000000000000e+01,1.320000000000000000e+02,1.070000000000000000e+02,3.500000000000000000e+01,6.099999999999999867e-01,1.173788990000000000e+10
4.300000000000000000e+01,1.730000000000000000e+02,5.970000000000000000e+02,1.370000000000000000e+02,4.600000000000000000e+01,1.520000000000000000e+02,1.040000000000000000e+02,5.300000000000000000e+01,6.099999999999999867e-01,1.175585680000000000e+10
4.300000000000000000e+01,1.290000000000000000e+02,5.900000000000000000e+02,9.300000000000000000e+01,3.600000000000000000e+01,1.660000000000000000e+02,1.330000000000000000e+02,5.500000000000000000e+01,6.099999999999999867e-01,1.177419520000000000e+10
3.600000000000000000e+01,1.390000000000000000e+02,5.850000000000000000e+02,1.190000000000000000e+02,3.300000000000000000e+01,1.690000000000000000e+02,1.370000000000000000e+02,5.400000000000000000e+01,6.099999999999999867e-01,1.179675490000000000e+10
4.000000000000000000e+01,1.430000000000000000e+02,4.840000000000000000e+02,1.110000000000000000e+02,3.500000000000000000e+01,1.500000000000000000e+02,1.140000000000000000e+02,5.900000000000000000e+01,6.099999999999999867e-01,1.181515720000000000e+10
4.500000000000000000e+01,1.950000000000000000e+02,4.690000000000000000e+02,1.140000000000000000e+02,3.600000000000000000e+01,1.480000000000000000e+02,1.150000000000000000e+02,5.800000000000000000e+01,6.099999999999999867e-01,1.183255230000000000e+10
4.400000000000000000e+01,1.860000000000000000e+02,5.000000000000000000e+02,1.130000000000000000e+02,4.400000000000000000e+01,3.190000000000000000e+02,1.170000000000000000e+02,4.500000000000000000e+01,6.099999999999999867e-01,1.184938750000000000e+10
4.300000000000000000e+01,1.820000000000000000e+02,4.310000000000000000e+02,1.160000000000000000e+02,4.400000000000000000e+01,3.330000000000000000e+02,8.000000000000000000e+01,4.100000000000000000e+01,6.199999999999999956e-01,1.186666890000000000e+10
4.300000000000000000e+01,1.630000000000000000e+02,3.760000000000000000e+02,9.500000000000000000e+01,4.400000000000000000e+01,3.320000000000000000e+02,7.400000000000000000e+01,3.900000000000000000e+01,6.199999999999999956e-01,1.188324420000000000e+10
5.100000000000000000e+01,1.560000000000000000e+02,3.520000000000000000e+02,1.010000000000000000e+02,4.200000000000000000e+01,3.320000000000000000e+02,7.200000000000000000e+01,3.000000000000000000e+01,6.199999999999999956e-01,1.190011200000000000e+10
6.200000000000000000e+01,8.500000000000000000e+01,3.810000000000000000e+02,1.070000000000000000e+02,4.400000000000000000e+01,3.360000000000000000e+02,7.100000000000000000e+01,3.200000000000000000e+01,6.199999999999999956e-01,1.191728820000000000e+10
6.700000000000000000e+01,1.060000000000000000e+02,4.190000000000000000e+02,1.270000000000000000e+02,4.100000000000000000e+01,2.160000000000000000e+02,9.500000000000000000e+01,8.500000000000000000e+01,6.300000000000000044e-01,1.193524660000000000e+10
6.800000000000000000e+01,1.050000000000000000e+02,4.380000000000000000e+02,1.340000000000000000e+02,4.100000000000000000e+01,2.280000000000000000e+02,1.110000000000000000e+02,1.390000000000000000e+02,6.300000000000000044e-01,1.195433370000000000e+10
6.900000000000000000e+01,1.050000000000000000e+02,4.570000000000000000e+02,1.300000000000000000e+02,4.100000000000000000e+01,2.730000000000000000e+02,1.250000000000000000e+02,1.480000000000000000e+02,6.300000000000000044e-01,1.197127460000000000e+10
6.100000000000000000e+01,1.300000000000000000e+02,4.700000000000000000e+02,1.280000000000000000e+02,4.000000000000000000e+01,2.790000000000000000e+02,1.320000000000000000e+02,1.510000000000000000e+02,6.400000000000000133e-01,1.198884950000000000e+10
5.400000000000000000e+01,1.900000000000000000e+02,4.630000000000000000e+02,1.400000000000000000e+02,4.200000000000000000e+01,2.730000000000000000e+02,1.320000000000000000e+02,1.520000000000000000e+02,6.400000000000000133e-01,1.200624870000000000e+10
5.200000000000000000e+01,2.800000000000000000e+02,4.990000000000000000e+02,2.060000000000000000e+02,5.000000000000000000e+01,2.350000000000000000e+02,1.090000000000000000e+02,1.300000000000000000e+02,6.400000000000000133e-01,1.202359250000000000e+10
5.700000000000000000e+01,3.200000000000000000e+02,5.350000000000000000e+02,2.050000000000000000e+02,4.900000000000000000e+01,1.880000000000000000e+02,9.000000000000000000e+01,7.400000000000000000e+01,6.400000000000000133e-01,1.204040290000000000e+10
6.000000000000000000e+01,3.930000000000000000e+02,5.650000000000000000e+02,2.070000000000000000e+02,5.200000000000000000e+01,1.640000000000000000e+02,9.000000000000000000e+01,7.300000000000000000e+01,6.400000000000000133e-01,1.205760720000000000e+10
6.000000000000000000e+01,4.020000000000000000e+02,6.200000000000000000e+02,2.070000000000000000e+02,5.200000000000000000e+01,1.660000000000000000e+02,8.200000000000000000e+01,6.700000000000000000e+01,6.400000000000000133e-01,1.207526110000000000e+10
5.400000000000000000e+01,4.150000000000000000e+02,6.190000000000000000e+02,2.070000000000000000e+02,4.900000000000000000e+01,1.660000000000000000e+02,8.700000000000000000e+01,6.500000000000000000e+01,6.400000000000000133e-01,1.209348800000000000e+10
5.500000000000000000e+01,3.860000000000000000e+02,5.630000000000000000e+02,1.830000000000000000e+02,4.200000000000000000e+01,1.680000000000000000e+02,9.800000000000000000e+01,6.500000000000000000e+01,6.400000000000000133e-01,1.211066910000000000e+10
5.300000000000000000e+01,3.620000000000000000e+02,5.240000000000000000e+02,1.810000000000000000e+02,4.300000000000000000e+01,1.760000000000000000e+02,9.800000000000000000e+01,6.400000000000000000e+01,6.400000000000000133e-01,1.212762390000000000e+10
5.200000000000000000e+01,2.930000000000000000e+02,4.930000000000000000e+02,1.770000000000000000e+02,4.800000000000000000e+01,2.240000000000000000e+02,7.800000000000000000e+01,4.200000000000000000e+01,6.400000000000000133e-01,1.214441720000000000e+10
5.000000000000000000e+01,2.840000000000000000e+02,4.150000000000000000e+02,1.720000000000000000e+02,4.600000000000000000e+01,2.210000000000000000e+02,8.200000000000000000e+01,4.200000000000000000e+01,6.500000000000000222e-01,1.216190840000000000e+10
4.900000000000000000e+01,2.250000000000000000e+02,4.690000000000000000e+02,1.570000000000000000e+02,4.600000000000000000e+01,2.180000000000000000e+02,7.500000000000000000e+01,3.700000000000000000e+01,6.500000000000000222e-01,1.218005790000000000e+10
4.200000000000000000e+01,2.130000000000000000e+02,4.570000000000000000e+02,8.400000000000000000e+01,4.100000000000000000e+01,2.170000000000000000e+02,6.000000000000000000e+01,3.100000000000000000e+01,6.500000000000000222e-01,1.219731710000000000e+10
3.800000000000000000e+01,2.030000000000000000e+02,4.820000000000000000e+02,8.600000000000000000e+01,4.800000000000000000e+01,2.870000000000000000e+02,6.300000000000000000e+01,3.200000000000000000e+01,6.600000000000000311e-01,1.221362320000000000e+10
3.900000000000000000e+01,2.520000000000000000e+02,4.690000000000000000e+02,1.060000000000000000e+02,4.000000000000000000e+01,2.370000000000000000e+02,6.800000000000000000e+01,3.200000000000000000e+01,6.600000000000000311e-01,1.223012480000000000e+10
4.800000000000000000e+01,3.010000000000000000e+02,5.670000000000000000e+02,1.110000000000000000e+02,4.200000000000000000e+01,2.290000000000000000e+02,6.100000000000000000e+01,3.500000000000000000e+01,6.500000000000000222e-01,1.224691500000000000e+10
4.900000000000000000e+01,3.380000000000000000e+02,5.420000000000000000e+02,1.170000000000000000e+02,4.000000000000000000e+01,2.300000000000000000e+02,6.000000000000000000e+01,3.500000000000000000e+01,6.600000000000000311e-01,1.226500010000000000e+10
5.000000000000000000e+01,3.160000000000000000e+02,5.740000000000000000e+02,1.130000000000000000e+02,4.100000000000000000e+01,2.480000000000000000e+02,7.100000000000000000e+01,3.800000000000000000e+01,6.600000000000000311e-01,1.228222180000000000e+10
5.400000000000000000e+01,3.180000000000000000e+02,5.680000000000000000e+02,1.130000000000000000e+02,3.700000000000000000e+01,2.120000000000000000e+02,9.700000000000000000e+01,6.000000000000000000e+01,6.600000000000000311e-01,1.229964620000000000e+10
5.300000000000000000e+01,2.830000000000000000e+02,6.280000000000000000e+02,9.800000000000000000e+01,3.500000000000000000e+01,1.980000000000000000e+02,9.900000000000000000e+01,6.100000000000000000e+01,6.600000000000000311e-01,1.231616710000000000e+10
4.400000000000000000e+01,2.330000000000000000e+02,5.920000000000000000e+02,9.700000000000000000e+01,3.300000000000000000e+01,1.980000000000000000e+02,1.020000000000000000e+02,6.200000000000000000e+01,6.600000000000000311e-01,1.233338930000000000e+10
4.700000000000000000e+01,1.710000000000000000e+02,5.400000000000000000e+02,9.600000000000000000e+01,3.500000000000000000e+01,2.240000000000000000e+02,1.360000000000000000e+02,6.400000000000000000e+01,6.500000000000000222e-01,1.235189170000000000e+10
4.500000000000000000e+01,1.600000000000000000e+02,4.960000000000000000e+02,9.900000000000000000e+01,3.400000000000000000e+01,2.300000000000000000e+02,1.390000000000000000e+02,6.500000000000000000e+01,6.500000000000000222e-01,1.236928220000000000e+10
4.100000000000000000e+01,1.600000000000000000e+02,5.280000000000000000e+02,9.400000000000000000e+01,3.200000000000000000e+01,1.890000000000000000e+02,1.200000000000000000e+02,6.700000000000000000e+01,6.400000000000000133e-01,1.238688280000000000e+10
3.800000000000000000e+01,1.360000000000000000e+02,4.650000000000000000e+02,8.300000000000000000e+01,3.300000000000000000e+01,1.810000000000000000e+02,1.260000000000000000e+02,6.500000000000000000e+01,6.400000000000000133e-01,1.240454730000000000e+10
4.400000000000000000e+01,1.050000000000000000e+02,4.570000000000000000e+02,1.150000000000000000e+02,3.800000000000000000e+01,1.950000000000000000e+02,1.350000000000000000e+02,6.900000000000000000e+01,6.400000000000000133e-01,1.242190500000000000e+10
4.000000000000000000e+01,1.040000000000000000e+02,4.710000000000000000e+02,1.140000000000000000e+02,3.400000000000000000e+01,1.860000000000000000e+02,1.160000000000000000e+02,6.900000000000000000e+01,6.400000000000000133e-01,1.244181490000000000e+10
4.600000000000000000e+01,1.060000000000000000e+02,4.760000000000000000e+02,1.150000000000000000e+02,3.600000000000000000e+01,1.840000000000000000e+02,1.940000000000000000e+02,8.500000000000000000e+01,6.300000000000000044e-01,1.246508210000000000e+10
4.600000000000000000e+01,1.110000000000000000e+02,4.650000000000000000e+02,1.170000000000000000e+02,3.300000000000000000e+01,1.760000000000000000e+02,2.010000000000000000e+02,7.200000000000000000e+01,6.300000000000000044e-01,1.248334190000000000e+10
4.800000000000000000e+01,1.460000000000000000e+02,4.880000000000000000e+02,1.650000000000000000e+02,4.300000000000000000e+01,1.770000000000000000e+02,1.950000000000000000e+02,7.300000000000000000e+01,6.300000000000000044e-01,1.250098790000000000e+10
4.400000000000000000e+01,1.630000000000000000e+02,5.170000000000000000e+02,1.670000000000000000e+02,4.000000000000000000e+01,1.600000000000000000e+02,1.890000000000000000e+02,6.700000000000000000e+01,6.300000000000000044e-01,1.251843820000000000e+10
4.300000000000000000e+01,1.640000000000000000e+02,5.040000000000000000e+02,1.760000000000000000e+02,4.300000000000000000e+01,1.370000000000000000e+02,1.820000000000000000e+02,6.500000000000000000e+01,6.300000000000000044e-01,1.253596940000000000e+10
3.800000000000000000e+01,1.650000000000000000e+02,4.970000000000000000e+02,1.770000000000000000e+02,4.600000000000000000e+01,1.700000000000000000e+02,1.290000000000000000e+02,4.500000000000000000e+01,6.400000000000000133e-01,1.255246630000000000e+10
3.700000000000000000e+01,1.860000000000000000e+02,4.740000000000000000e+02,1.830000000000000000e+02,4.600000000000000000e+01,1.870000000000000000e+02,1.180000000000000000e+02,5.700000000000000000e+01,6.400000000000000133e-01,1.257044170000000000e+10
3.700000000000000000e+01,1.890000000000000000e+02,4.880000000000000000e+02,1.500000000000000000e+02,3.700000000000000000e+01,1.830000000000000000e+02,1.160000000000000000e+02,5.800000000000000000e+01,6.400000000000000133e-01,1.258813270000000000e+10
3.300000000000000000e+01,1.780000000000000000e+02,4.290000000000000000e+02,1.290000000000000000e+02,3.600000000000000000e+01,1.810000000000000000e+02,1.140000000000000000e+02,5.900000000000000000e+01,6.400000000000000133e-01,1.260482640000000000e+10
3.700000000000000000e+01,1.920000000000000000e+02,4.590000000000000000e+02,1.320000000000000000e+02,3.700000000000000000e+01,1.790000000000000000e+02,1.100000000000000000e+02,5.900000000000000000e+01,6.500000000000000222e-01,1.262313420000000000e+10
3.800000000000000000e+01,1.930000000000000000e+02,4.930000000000000000e+02,1.400000000000000000e+02,3.300000000000000000e+01,1.430000000000000000e+02,6.200000000000000000e+01,5.700000000000000000e+01,6.500000000000000222e-01,1.264104150000000000e+10
3.700000000000000000e+01,1.710000000000000000e+02,5.470000000000000000e+02,1.490000000000000000e+02,3.500000000000000000e+01,1.300000000000000000e+02,6.700000000000000000e+01,3.900000000000000000e+01,6.500000000000000222e-01,1.265850550000000000e+10
4.300000000000000000e+01,1.690000000000000000e+02,5.810000000000000000e+02,1.670000000000000000e+02,3.900000000000000000e+01,1.280000000000000000e+02,6.700000000000000000e+01,3.700000000000000000e+01,6.500000000000000222e-01,1.267615890000000000e+10
4.800000000000000000e+01,1.640000000000000000e+02,5.720000000000000000e+02,1.710000000000000000e+02,3.900000000000000000e+01,1.290000000000000000e+02,6.700000000000000000e+01,3.500000000000000000e+01,6.600000000000000311e-01,1.269363330000000000e+10
4.700000000000000000e+01,2.210000000000000000e+02,6.200000000000000000e+02,1.730000000000000000e+02,4.000000000000000000e+01,1.300000000000000000e+02,6.400000000000000000e+01,5.400000000000000000e+01,6.600000000000000311e-01,1.271155230000000000e+10
5.200000000000000000e+01,3.190000000000000000e+02,6.170000000000000000e+02,1.660000000000000000e+02,3.700000000000000000e+01,1.220000000000000000e+02,6.900000000000000000e+01,5.500000000000000000e+01,6.500000000000000222e-01,1.272933930000000000e+10
6.300000000000000000e+01,3.240000000000000000e+02,6.130000000000000000e+02,1.540000000000000000e+02,4.300000000000000000e+01,2.160000000000000000e+02,9.000000000000000000e+01,1.100000000000000000e+02,6.500000000000000222e-01,1.274803280000000000e+10
6.100000000000000000e+01,3.180000000000000000e+02,5.830000000000000000e+02,1.340000000000000000e+02,4.700000000000000000e+01,2.430000000000000000e+02,9.600000000000000000e+01,1.250000000000000000e+02,6.500000000000000222e-01,1.276681570000000000e+10
5.800000000000000000e+01,3.390000000000000000e+02,5.890000000000000000e+02,1.260000000000000000e+02,4.600000000000000000e+01,2.450000000000000000e+02,1.220000000000000000e+02,1.280000000000000000e+02,6.400000000000000133e-01,1.278553160000000000e+10
6.100000000000000000e+01,3.170000000000000000e+02,5.780000000000000000e+02,1.040000000000000000e+02,4.500000000000000000e+01,2.500000000000000000e+02,1.280000000000000000e+02,1.240000000000000000e+02,6.400000000000000133e-01,1.280248480000000000e+10
5.600000000000000000e+01,2.360000000000000000e+02,5.430000000000000000e+02,1.150000000000000000e+02,4.600000000000000000e+01,2.460000000000000000e+02,1.480000000000000000e+02,1.260000000000000000e+02,6.400000000000000133e-01,1.282135550000000000e+10
4.700000000000000000e+01,2.250000000000000000e+02,4.990000000000000000e+02,1.090000000000000000e+02,4.300000000000000000e+01,2.040000000000000000e+02,1.380000000000000000e+02,9.600000000000000000e+01,6.400000000000000133e-01,1.283866200000000000e+10
4.800000000000000000e+01,2.110000000000000000e+02,4.900000000000000000e+02,1.150000000000000000e+02,4.000000000000000000e+01,1.980000000000000000e+02,1.350000000000000000e+02,7.700000000000000000e+01,6.300000000000000044e-01,1.285696150000000000e+10
4.800000000000000000e+01,1.780000000000000000e+02,5.690000000000000000e+02,1.280000000000000000e+02,4.100000000000000000e+01,1.950000000000000000e+02,1.170000000000000000e+02,7.400000000000000000e+01,6.300000000000000044e-01,1.287488800000000000e+10
4.000000000000000000e+01,1.510000000000000000e+02,5.410000000000000000e+02,1.270000000000000000e+02,4.000000000000000000e+01,2.040000000000000000e+02,1.300000000000000000e+02,7.200000000000000000e+01,6.300000000000000044e-01,1.289301120000000000e+10
4.400000000000000000e+01,1.290000000000000000e+02,5.500000000000000000e+02,1.140000000000000000e+02,4.000000000000000000e+01,1.900000000000000000e+02,1.050000000000000000e+02,8.200000000000000000e+01,6.199999999999999956e-01,1.291182580000000000e+10
5.300000000000000000e+01,1.660000000000000000e+02,5.720000000000000000e+02,1.220000000000000000e+02,3.600000000000000000e+01,1.450000000000000000e+02,9.900000000000000000e+01,7.500000000000000000e+01,6.199999999999999956e-01,1.293058560000000000e+10
5.000000000000000000e+01,1.630000000000000000e+02,5.760000000000000000e+02,1.130000000000000000e+02,3.300000000000000000e+01,1.080000000000000000e+02,9.700000000000000000e+01,7.200000000000000000e+01,6.199999999999999956e-01,1.294810550000000000e+10
5.200000000000000000e+01,1.590000000000000000e+02,4.840000000000000000e+02,9.800000000000000000e+01,3.200000000000000000e+01,1.290000000000000000e+02,1.030000000000000000e+02,7.200000000000000000e+01,6.199999999999999956e-01,1.296596950000000000e+10
5.400000000000000000e+01,1.390000000000000000e+02,4.260000000000000000e+02,9.700000000000000000e+01,3.700000000000000000e+01,1.950000000000000000e+02,1.060000000000000000e+02,9.100000000000000000e+01,6.199999999999999956e-01,1.298510840000000000e+10
5.100000000000000000e+01,1.450000000000000000e+02,4.300000000000000000e+02,9.600000000000000000e+01,3.500000000000000000e+01,2.060000000000000000e+02,1.010000000000000000e+02,7.800000000000000000e+01,6.099999999999999867e-01,1.300258290000000000e+10
4.000000000000000000e+01,1.700000000000000000e+02,4.390000000000000000e+02,1.250000000000000000e+02,4.100000000000000000e+01,2.040000000000000000e+02,9.900000000000000000e+01,6.900000000000000000e+01,6.099999999999999867e-01,1.302142250000000000e+10
4.200000000000000000e+01,1.790000000000000000e+02,3.980000000000000000e+02,1.430000000000000000e+02,4.400000000000000000e+01,2.180000000000000000e+02,1.180000000000000000e+02,7.000000000000000000e+01,6.199999999999999956e-01,1.303959310000000000e+10
4.800000000000000000e+01,1.770000000000000000e+02,3.960000000000000000e+02,1.390000000000000000e+02,4.300000000000000000e+01,2.350000000000000000e+02,1.370000000000000000e+02,1.610000000000000000e+02,6.199999999999999956e-01,1.305732110000000000e+10
4.800000000000000000e+01,1.790000000000000000e+02,4.760000000000000000e+02,1.410000000000000000e+02,4.200000000000000000e+01,1.950000000000000000e+02,1.300000000000000000e+02,1.660000000000000000e+02,6.199999999999999956e-01,1.307741050000000000e+10
5.400000000000000000e+01,1.830000000000000000e+02,4.740000000000000000e+02,1.480000000000000000e+02,4.500000000000000000e+01,1.880000000000000000e+02,1.290000000000000000e+02,1.780000000000000000e+02,6.199999999999999956e-01,1.309672700000000000e+10
5.200000000000000000e+01,1.230000000000000000e+02,4.520000000000000000e+02,1.340000000000000000e+02,4.500000000000000000e+01,2.300000000000000000e+02,1.350000000000000000e+02,1.830000000000000000e+02,6.099999999999999867e-01,1.311617970000000000e+10
6.400000000000000000e+01,1.210000000000000000e+02,4.920000000000000000e+02,1.460000000000000000e+02,5.300000000000000000e+01,2.980000000000000000e+02,1.320000000000000000e+02,2.020000000000000000e+02,6.099999999999999867e-01,1.313500340000000000e+10
6.800000000000000000e+01,1.340000000000000000e+02,5.230000000000000000e+02,1.640000000000000000e+02,6.200000000000000000e+01,3.020000000000000000e+02,1.550000000000000000e+02,2.980000000000000000e+02,5.999999999999999778e-01,1.315371530000000000e+10
7.000000000000000000e+01,1.310000000000000000e+02,5.310000000000000000e+02,1.690000000000000000e+02,6.400000000000000000e+01,3.490000000000000000e+02,2.370000000000000000e+02,3.280000000000000000e+02,5.899999999999999689e-01,1.317504870000000000e+10
6.900000000000000000e+01,1.040000000000000000e+02,5.290000000000000000e+02,1.670000000000000000e+02,6.500000000000000000e+01,3.640000000000000000e+02,2.540000000000000000e+02,3.270000000000000000e+02,5.799999999999999600e-01,1.319531950000000000e+10
7.500000000000000000e+01,1.350000000000000000e+02,5.990000000000000000e+02,1.520000000000000000e+02,6.200000000000000000e+01,3.490000000000000000e+02,2.600000000000000000e+02,3.610000000000000000e+02,5.699999999999999512e-01,1.321391400000000000e+10
6.700000000000000000e+01,1.490000000000000000e+02,5.930000000000000000e+02,1.220000000000000000e+02,5.000000000000000000e+01,3.040000000000000000e+02,2.730000000000000000e+02,3.750000000000000000e+02,5.600000000000000533e-01,1.323373330000000000e+10
7.500000000000000000e+01,1.870000000000000000e+02,6.030000000000000000e+02,9.800000000000000000e+01,4.400000000000000000e+01,3.270000000000000000e+02,2.690000000000000000e+02,3.490000000000000000e+02,5.400000000000000355e-01,1.325199580000000000e+10
7.400000000000000000e+01,2.040000000000000000e+02,5.550000000000000000e+02,8.700000000000000000e+01,4.200000000000000000e+01,3.030000000000000000e+02,2.060000000000000000e+02,3.180000000000000000e+02,5.300000000000000266e-01,1.327304060000000000e+10
7.200000000000000000e+01,2.110000000000000000e+02,5.550000000000000000e+02,8.500000000000000000e+01,4.400000000000000000e+01,3.320000000000000000e+02,1.910000000000000000e+02,3.240000000000000000e+02,5.100000000000000089e-01,1.329123390000000000e+10
6.800000000000000000e+01,2.010000000000000000e+02,4.630000000000000000e+02,9.400000000000000000e+01,4.700000000000000000e+01,3.270000000000000000e+02,1.820000000000000000e+02,2.870000000000000000e+02,5.000000000000000000e-01,1.331016930000000000e+10
6.800000000000000000e+01,2.000000000000000000e+02,5.070000000000000000e+02,1.030000000000000000e+02,5.000000000000000000e+01,3.190000000000000000e+02,1.540000000000000000e+02,2.590000000000000000e+02,4.799999999999999822e-01,1.332894200000000000e+10
5.700000000000000000e+01,1.880000000000000000e+02,5.860000000000000000e+02,1.000000000000000000e+02,4.600000000000000000e+01,2.720000000000000000e+02,1.210000000000000000e+02,1.590000000000000000e+02,4.799999999999999822e-01,1.335081210000000000e+10
5.800000000000000000e+01,1.740000000000000000e+02,6.190000000000000000e+02,1.040000000000000000e+02,4.900000000000000000e+01,2.930000000000000000e+02,1.290000000000000000e+02,2.040000000000000000e+02,4.699999999999999734e-01,1.337294560000000000e+10
5.900000000000000000e+01,1.940000000000000000e+02,6.300000000000000000e+02,1.060000000000000000e+02,4.200000000000000000e+01,2.430000000000000000e+02,1.190000000000000000e+02,1.900000000000000000e+02,4.699999999999999734e-01,1.339514480000000000e+10
5.600000000000000000e+01,1.860000000000000000e+02,6.370000000000000000e+02,9.700000000000000000e+01,4.200000000000000000e+01,2.390000000000000000e+02,1.160000000000000000e+02,1.990000000000000000e+02,4.699999999999999734e-01,1.341378970000000000e+10
5.400000000000000000e+01,2.140000000000000000e+02,6.240000000000000000e+02,1.000000000000000000e+02,4.000000000000000000e+01,2.260000000000000000e+02,1.140000000000000000e+02,1.940000000000000000e+02,4.699999999999999734e-01,1.343281490000000000e+10
5.400000000000000000e+01,2.150000000000000000e+02,5.610000000000000000e+02,1.050000000000000000e+02,4.100000000000000000e+01,2.280000000000000000e+02,1.110000000000000000e+02,1.740000000000000000e+02,4.699999999999999734e-01,1.345185510000000000e+10
5.700000000000000000e+01,2.460000000000000000e+02,5.500000000000000000e+02,1.210000000000000000e+02,3.400000000000000000e+01,1.310000000000000000e+02,6.500000000000000000e+01,1.140000000000000000e+02,4.799999999999999822e-01,1.347331380000000000e+10
6.700000000000000000e+01,2.650000000000000000e+02,5.630000000000000000e+02,1.550000000000000000e+02,4.600000000000000000e+01,2.030000000000000000e+02,9.300000000000000000e+01,1.490000000000000000e+02,4.899999999999999911e-01,1.349537120000000000e+10
6.500000000000000000e+01,2.660000000000000000e+02,5.560000000000000000e+02,1.550000000000000000e+02,4.100000000000000000e+01,2.120000000000000000e+02,1.190000000000000000e+02,1.470000000000000000e+02,5.000000000000000000e-01,1.351493660000000000e+10
6.400000000000000000e+01,2.330000000000000000e+02,5.520000000000000000e+02,1.540000000000000000e+02,4.300000000000000000e+01,2.880000000000000000e+02,1.830000000000000000e+02,1.480000000000000000e+02,5.100000000000000089e-01,1.353400140000000000e+10
6.200000000000000000e+01,2.060000000000000000e+02,5.250000000000000000e+02,1.520000000000000000e+02,4.400000000000000000e+01,3.140000000000000000e+02,2.120000000000000000e+02,1.510000000000000000e+02,5.200000000000000178e-01,1.355274930000000000e+10
5.700000000000000000e+01,1.670000000000000000e+02,5.200000000000000000e+02,1.350000000000000000e+02,4.600000000000000000e+01,3.250000000000000000e+02,2.190000000000000000e+02,1.460000000000000000e+02,5.300000000000000266e-01,1.357571130000000000e+10
4.500000000000000000e+01,1.180000000000000000e+02,5.440000000000000000e+02,1.160000000000000000e+02,3.800000000000000000e+01,2.830000000000000000e+02,2.190000000000000000e+02,1.060000000000000000e+02,5.400000000000000355e-01,1.359541710000000000e+10
4.500000000000000000e+01,1.210000000000000000e+02,5.490000000000000000e+02,1.160000000000000000e+02,3.800000000000000000e+01,2.730000000000000000e+02,2.100000000000000000e+02,8.000000000000000000e+01,5.500000000000000444e-01,1.361534610000000000e+10
5.200000000000000000e+01,2.120000000000000000e+02,5.370000000000000000e+02,1.070000000000000000e+02,3.600000000000000000e+01,1.960000000000000000e+02,1.620000000000000000e+02,9.000000000000000000e+01,5.500000000000000444e-01,1.363493590000000000e+10
5.800000000000000000e+01,2.250000000000000000e+02,6.030000000000000000e+02,1.240000000000000000e+02,3.600000000000000000e+01,1.870000000000000000e+02,1.490000000000000000e+02,1.020000000000000000e+02,5.600000000000000533e-01,1.365547590000000000e+10
5.600000000000000000e+01,2.280000000000000000e+02,5.670000000000000000e+02,1.250000000000000000e+02,3.300000000000000000e+01,1.720000000000000000e+02,1.430000000000000000e+02,1.180000000000000000e+02,5.699999999999999512e-01,1.367381510000000000e+10
5.400000000000000000e+01,2.270000000000000000e+02,5.230000000000000000e+02,9.900000000000000000e+01,3.100000000000000000e+01,1.700000000000000000e+02,1.240000000000000000e+02,1.170000000000000000e+02,5.799999999999999600e-01,1.369317390000000000e+10
7.400000000000000000e+01,3.130000000000000000e+02,5.360000000000000000e+02,1.460000000000000000e+02,3.500000000000000000e+01,1.680000000000000000e+02,1.170000000000000000e+02,1.200000000000000000e+02,5.799999999999999600e-01,1.371140570000000000e+10
6.900000000000000000e+01,2.720000000000000000e+02,6.000000000000000000e+02,1.510000000000000000e+02,3.600000000000000000e+01,1.660000000000000000e+02,1.080000000000000000e+02,1.070000000000000000e+02,5.899999999999999689e-01,1.373345130000000000e+10
6.100000000000000000e+01,2.760000000000000000e+02,5.080000000000000000e+02,1.370000000000000000e+02,3.700000000000000000e+01,1.860000000000000000e+02,8.000000000000000000e+01,8.800000000000000000e+01,5.899999999999999689e-01,1.375261630000000000e+10
6.400000000000000000e+01,2.740000000000000000e+02,5.270000000000000000e+02,1.420000000000000000e+02,3.900000000000000000e+01,2.290000000000000000e+02,7.700000000000000000e+01,5.600000000000000000e+01,5.999999999999999778e-01,1.377439310000000000e+10
6.400000000000000000e+01,2.680000000000000000e+02,5.510000000000000000e+02,1.520000000000000000e+02,3.900000000000000000e+01,2.310000000000000000e+02,7.900000000000000000e+01,6.100000000000000000e+01,5.999999999999999778e-01,1.379376760000000000e+10
4.500000000000000000e+01,1.690000000000000000e+02,5.180000000000000000e+02,1.190000000000000000e+02,3.700000000000000000e+01,2.370000000000000000e+02,1.010000000000000000e+02,5.300000000000000000e+01,5.999999999999999778e-01,1.381257890000000000e+10
4.600000000000000000e+01,1.610000000000000000e+02,4.570000000000000000e+02,1.160000000000000000e+02,3.800000000000000000e+01,2.410000000000000000e+02,1.020000000000000000e+02,4.900000000000000000e+01,6.099999999999999867e-01,1.383331870000000000e+10
5.600000000000000000e+01,2.710000000000000000e+02,5.030000000000000000e+02,1.490000000000000000e+02,4.000000000000000000e+01,1.940000000000000000e+02,8.600000000000000000e+01,5.300000000000000000e+01,6.099999999999999867e-01,1.385189700000000000e+10
5.500000000000000000e+01,2.890000000000000000e+02,5.280000000000000000e+02,1.560000000000000000e+02,3.900000000000000000e+01,1.800000000000000000e+02,9.800000000000000000e+01,1.010000000000000000e+02,6.199999999999999956e-01,1.387196520000000000e+10
5.400000000000000000e+01,2.850000000000000000e+02,5.060000000000000000e+02,1.440000000000000000e+02,4.000000000000000000e+01,1.860000000000000000e+02,1.160000000000000000e+02,9.500000000000000000e+01,6.199999999999999956e-01,1.389102060000000000e+10
5.200000000000000000e+01,2.780000000000000000e+02,5.130000000000000000e+02,1.440000000000000000e+02,4.100000000000000000e+01,2.430000000000000000e+02,1.420000000000000000e+02,9.700000000000000000e+01,6.300000000000000044e-01,1.391115520000000000e+10
5.300000000000000000e+01,2.750000000000000000e+02,4.950000000000000000e+02,1.390000000000000000e+02,4.000000000000000000e+01,2.470000000000000000e+02,1.670000000000000000e+02,1.010000000000000000e+02,6.300000000000000044e-01,1.393359380000000000e+10
4.200000000000000000e+01,1.560000000000000000e+02,4.700000000000000000e+02,1.010000000000000000e+02,3.400000000000000000e+01,2.590000000000000000e+02,1.720000000000000000e+02,1.000000000000000000e+02,6.300000000000000044e-01,1.395308800000000000e+10
4.500000000000000000e+01,1.420000000000000000e+02,4.440000000000000000e+02,8.900000000000000000e+01,3.500000000000000000e+01,2.370000000000000000e+02,1.720000000000000000e+02,7.800000000000000000e+01,6.400000000000000133e-01,1.397328460000000000e+10
4.700000000000000000e+01,1.450000000000000000e+02,4.460000000000000000e+02,9.400000000000000000e+01,3.600000000000000000e+01,2.760000000000000000e+02,1.750000000000000000e+02,7.700000000000000000e+01,6.400000000000000133e-01,1.399283040000000000e+10
5.100000000000000000e+01,1.500000000000000000e+02,4.590000000000000000e+02,8.600000000000000000e+01,3.900000000000000000e+01,3.190000000000000000e+02,1.630000000000000000e+02,8.000000000000000000e+01,6.400000000000000133e-01,1.401159450000000000e+10
4.700000000000000000e+01,1.430000000000000000e+02,4.490000000000000000e+02,8.600000000000000000e+01,4.000000000000000000e+01,3.450000000000000000e+02,1.480000000000000000e+02,7.500000000000000000e+01,6.400000000000000133e-01,1.403321580000000000e+10
4.400000000000000000e+01,1.270000000000000000e+02,4.090000000000000000e+02,9.500000000000000000e+01,4.100000000000000000e+01,3.390000000000000000e+02,1.420000000000000000e+02,7.300000000000000000e+01,6.400000000000000133e-01,1.405341250000000000e+10
4.700000000000000000e+01,1.520000000000000000e+02,4.600000000000000000e+02,1.070000000000000000e+02,4.400000000000000000e+01,3.330000000000000000e+02,1.320000000000000000e+02,4.600000000000000000e+01,6.400000000000000133e-01,1.407218960000000000e+10
4.300000000000000000e+01,1.490000000000000000e+02,4.410000000000000000e+02,1.040000000000000000e+02,4.200000000000000000e+01,2.990000000000000000e+02,1.620000000000000000e+02,4.500000000000000000e+01,6.500000000000000222e-01,1.409141710000000000e+10
3.900000000000000000e+01,1.440000000000000000e+02,4.140000000000000000e+02,9.900000000000000000e+01,4.500000000000000000e+01,3.610000000000000000e+02,1.450000000000000000e+02,5.900000000000000000e+01,6.500000000000000222e-01,1.411105350000000000e+10
4.000000000000000000e+01,1.450000000000000000e+02,4.330000000000000000e+02,9.900000000000000000e+01,4.300000000000000000e+01,3.340000000000000000e+02,1.390000000000000000e+02,6.000000000000000000e+01,6.500000000000000222e-01,1.413335450000000000e+10
3.900000000000000000e+01,1.540000000000000000e+02,4.860000000000000000e+02,9.800000000000000000e+01,4.100000000000000000e+01,3.320000000000000000e+02,1.470000000000000000e+02,6.000000000000000000e+01,6.500000000000000222e-01,1.415241740000000000e+10
3.800000000000000000e+01,1.760000000000000000e+02,4.620000000000000000e+02,8.600000000000000000e+01,3.900000000000000000e+01,3.380000000000000000e+02,1.490000000000000000e+02,6.200000000000000000e+01,6.500000000000000222e-01,1.417074570000000000e+10
4.100000000000000000e+01,1.780000000000000000e+02,4.750000000000000000e+02,8.500000000000000000e+01,3.900000000000000000e+01,3.350000000000000000e+02,1.180000000000000000e+02,6.400000000000000000e+01,6.600000000000000311e-01,1.418942530000000000e+10
3.700000000000000000e+01,1.740000000000000000e+02,4.700000000000000000e+02,9.100000000000000000e+01,2.900000000000000000e+01,1.710000000000000000e+02,1.400000000000000000e+02,6.100000000000000000e+01,6.600000000000000311e-01,1.421091370000000000e+10
3.500000000000000000e+01,1.710000000000000000e+02,4.170000000000000000e+02,8.600000000000000000e+01,2.900000000000000000e+01,1.710000000000000000e+02,1.440000000000000000e+02,6.000000000000000000e+01,6.600000000000000311e-01,1.423315090000000000e+10
3.900000000000000000e+01,1.650000000000000000e+02,4.110000000000000000e+02,9.000000000000000000e+01,3.100000000000000000e+01,1.770000000000000000e+02,1.390000000000000000e+02,6.100000000000000000e+01,6.600000000000000311e-01,1.425147960000000000e+10
4.400000000000000000e+01,1.350000000000000000e+02,4.570000000000000000e+02,8.500000000000000000e+01,2.900000000000000000e+01,1.650000000000000000e+02,1.450000000000000000e+02,6.000000000000000000e+01,6.600000000000000311e-01,1.427291180000000000e+10
4.600000000000000000e+01,1.310000000000000000e+02,4.650000000000000000e+02,8.600000000000000000e+01,3.000000000000000000e+01,1.720000000000000000e+02,1.280000000000000000e+02,5.600000000000000000e+01,6.600000000000000311e-01,1.429186970000000000e+10
4.700000000000000000e+01,1.350000000000000000e+02,5.140000000000000000e+02,9.400000000000000000e+01,3.500000000000000000e+01,1.620000000000000000e+02,1.170000000000000000e+02,3.500000000000000000e+01,6.500000000000000222e-01,1.431129370000000000e+10
5.200000000000000000e+01,1.370000000000000000e+02,5.150000000000000000e+02,1.080000000000000000e+02,4.400000000000000000e+01,1.860000000000000000e+02,1.200000000000000000e+02,5.400000000000000000e+01,6.500000000000000222e-01,1.433334470000000000e+10
5.100000000000000000e+01,1.330000000000000000e+02,4.880000000000000000e+02,9.400000000000000000e+01,4.400000000000000000e+01,1.900000000000000000e+02,1.200000000000000000e+02,5.400000000000000000e+01,6.500000000000000222e-01,1.435233830000000000e+10
4.000000000000000000e+01,9.600000000000000000e+01,4.810000000000000000e+02,1.010000000000000000e+02,4.400000000000000000e+01,1.890000000000000000e+02,1.270000000000000000e+02,5.400000000000000000e+01,6.400000000000000133e-01,1.437165580000000000e+10
4.200000000000000000e+01,1.120000000000000000e+02,4.540000000000000000e+02,1.030000000000000000e+02,4.700000000000000000e+01,2.030000000000000000e+02,1.280000000000000000e+02,5.600000000000000000e+01,6.400000000000000133e-01,1.439062210000000000e+10
4.200000000000000000e+01,1.100000000000000000e+02,3.970000000000000000e+02,8.800000000000000000e+01,4.300000000000000000e+01,1.880000000000000000e+02,1.140000000000000000e+02,7.300000000000000000e+01,6.400000000000000133e-01,1.441091470000000000e+10
3.800000000000000000e+01,1.140000000000000000e+02,4.210000000000000000e+02,9.300000000000000000e+01,3.600000000000000000e+01,1.450000000000000000e+02,1.030000000000000000e+02,5.900000000000000000e+01,6.300000000000000044e-01,1.443306270000000000e+10
3.700000000000000000e+01,1.570000000000000000e+02,4.010000000000000000e+02,9.300000000000000000e+01,3.500000000000000000e+01,1.260000000000000000e+02,1.020000000000000000e+02,6.000000000000000000e+01,6.300000000000000044e-01,1.445100370000000000e+10
3.900000000000000000e+01,1.580000000000000000e+02,3.230000000000000000e+02,8.200000000000000000e+01,3.600000000000000000e+01,1.490000000000000000e+02,8.900000000000000000e+01,5.900000000000000000e+01,6.300000000000000044e-01,1.446944690000000000e+10
3.400000000000000000e+01,1.540000000000000000e+02,3.690000000000000000e+02,8.200000000000000000e+01,3.400000000000000000e+01,1.380000000000000000e+02,1.020000000000000000e+02,5.600000000000000000e+01,6.300000000000000044e-01,1.448935940000000000e+10
