4.200000000000000000e+01,1.040000000000000000e+02,4.160000000000000000e+02,8.000000000000000000e+01,3.500000000000000000e+01,3.200000000000000000e+01,2.700000000000000000e+01,3.200000000000000000e+01,6.099999999999999867e-01,4.183016000000000000e+08
4.300000000000000000e+01,9.600000000000000000e+01,3.650000000000000000e+02,8.100000000000000000e+01,3.400000000000000000e+01,3.100000000000000000e+01,5.500000000000000000e+01,3.200000000000000000e+01,6.099999999999999867e-01,4.495783000000000000e+08
4.000000000000000000e+01,1.100000000000000000e+02,3.900000000000000000e+02,7.300000000000000000e+01,2.800000000000000000e+01,3.000000000000000000e+01,5.700000000000000000e+01,2.800000000000000000e+01,6.099999999999999867e-01,9.554392000000000000e+08
4.100000000000000000e+01,1.170000000000000000e+02,3.790000000000000000e+02,7.100000000000000000e+01,2.900000000000000000e+01,2.900000000000000000e+01,5.900000000000000000e+01,2.600000000000000000e+01,6.099999999999999867e-01,9.726603000000000000e+08
4.000000000000000000e+01,1.130000000000000000e+02,3.570000000000000000e+02,7.000000000000000000e+01,2.900000000000000000e+01,3.400000000000000000e+01,6.100000000000000000e+01,2.600000000000000000e+01,5.999999999999999778e-01,9.894005000000000000e+08
3.800000000000000000e+01,1.100000000000000000e+02,4.650000000000000000e+02,6.500000000000000000e+01,2.500000000000000000e+01,3.100000000000000000e+01,6.200000000000000000e+01,2.500000000000000000e+01,5.999999999999999778e-01,1.005449900000000000e+09
3.700000000000000000e+01,1.030000000000000000e+02,4.710000000000000000e+02,6.400000000000000000e+01,2.600000000000000000e+01,3.100000000000000000e+01,3.900000000000000000e+01,2.600000000000000000e+01,5.999999999999999778e-01,1.021470300000000000e+09
3.800000000000000000e+01,9.300000000000000000e+01,4.420000000000000000e+02,6.100000000000000000e+01,2.500000000000000000e+01,3.000000000000000000e+01,3.700000000000000000e+01,2.400000000000000000e+01,5.999999999999999778e-01,1.038086300000000000e+09
4.100000000000000000e+01,9.900000000000000000e+01,5.100000000000000000e+02,7.700000000000000000e+01,2.500000000000000000e+01,2.900000000000000000e+01,3.400000000000000000e+01,2.800000000000000000e+01,5.999999999999999778e-01,1.054070200000000000e+09
4.200000000000000000e+01,1.030000000000000000e+02,5.220000000000000000e+02,8.300000000000000000e+01,2.600000000000000000e+01,2.600000000000000000e+01,3.100000000000000000e+01,2.700000000000000000e+01,5.999999999999999778e-01,1.069904500000000000e+09
4.100000000000000000e+01,1.110000000000000000e+02,4.230000000000000000e+02,8.300000000000000000e+01,2.800000000000000000e+01,2.400000000000000000e+01,5.000000000000000000e+01,2.800000000000000000e+01,5.999999999999999778e-01,1.086179800000000000e+09
4.000000000000000000e+01,1.140000000000000000e+02,4.260000000000000000e+02,8.700000000000000000e+01,2.800000000000000000e+01,2.800000000000000000e+01,6.600000000000000000e+01,2.700000000000000000e+01,5.999999999999999778e-01,1.102675600000000000e+09
4.500000000000000000e+01,1.070000000000000000e+02,4.630000000000000000e+02,8.500000000000000000e+01,2.800000000000000000e+01,2.700000000000000000e+01,6.800000000000000000e+01,2.700000000000000000e+01,5.999999999999999778e-01,1.119385000000000000e+09
5.600000000000000000e+01,1.080000000000000000e+02,3.580000000000000000e+02,7.400000000000000000e+01,2.900000000000000000e+01,2.700000000000000000e+01,7.000000000000000000e+01,2.800000000000000000e+01,5.999999999999999778e-01,1.142185100000000000e+09
5.600000000000000000e+01,1.120000000000000000e+02,3.630000000000000000e+02,7.600000000000000000e+01,3.000000000000000000e+01,2.900000000000000000e+01,7.200000000000000000e+01,3.000000000000000000e+01,5.999999999999999778e-01,1.163915500000000000e+09
5.800000000000000000e+01,1.080000000000000000e+02,3.760000000000000000e+02,7.800000000000000000e+01,3.000000000000000000e+01,3.300000000000000000e+01,7.600000000000000000e+01,3.100000000000000000e+01,5.999999999999999778e-01,1.180791000000000000e+09
5.800000000000000000e+01,1.080000000000000000e+02,3.300000000000000000e+02,6.600000000000000000e+01,2.900000000000000000e+01,2.800000000000000000e+01,6.400000000000000000e+01,3.100000000000000000e+01,5.999999999999999778e-01,1.197817900000000000e+09
5.800000000000000000e+01,1.160000000000000000e+02,3.470000000000000000e+02,6.800000000000000000e+01,3.200000000000000000e+01,3.300000000000000000e+01,6.400000000000000000e+01,3.600000000000000000e+01,5.999999999999999778e-01,1.214057500000000000e+09
3.900000000000000000e+01,9.900000000000000000e+01,4.070000000000000000e+02,8.700000000000000000e+01,3.100000000000000000e+01,3.500000000000000000e+01,6.500000000000000000e+01,3.300000000000000000e+01,6.099999999999999867e-01,1.252074500000000000e+09
4.000000000000000000e+01,1.410000000000000000e+02,4.010000000000000000e+02,8.000000000000000000e+01,2.800000000000000000e+01,3.300000000000000000e+01,6.100000000000000000e+01,3.300000000000000000e+01,6.099999999999999867e-01,1.269269200000000000e+09
3.900000000000000000e+01,1.400000000000000000e+02,4.240000000000000000e+02,8.000000000000000000e+01,3.000000000000000000e+01,3.100000000000000000e+01,5.600000000000000000e+01,3.100000000000000000e+01,6.099999999999999867e-01,1.285501500000000000e+09
3.800000000000000000e+01,1.400000000000000000e+02,4.340000000000000000e+02,8.100000000000000000e+01,3.100000000000000000e+01,3.200000000000000000e+01,5.800000000000000000e+01,3.000000000000000000e+01,6.099999999999999867e-01,1.301436700000000000e+09
3.200000000000000000e+01,1.310000000000000000e+02,4.210000000000000000e+02,7.700000000000000000e+01,2.700000000000000000e+01,3.000000000000000000e+01,7.000000000000000000e+01,2.900000000000000000e+01,6.099999999999999867e-01,1.317474200000000000e+09
3.400000000000000000e+01,1.320000000000000000e+02,4.170000000000000000e+02,6.200000000000000000e+01,2.800000000000000000e+01,2.800000000000000000e+01,8.900000000000000000e+01,2.900000000000000000e+01,5.999999999999999778e-01,1.333425000000000000e+09
3.900000000000000000e+01,1.000000000000000000e+02,4.400000000000000000e+02,6.200000000000000000e+01,3.000000000000000000e+01,2.900000000000000000e+01,9.000000000000000000e+01,2.800000000000000000e+01,5.999999999999999778e-01,1.349370700000000000e+09
3.800000000000000000e+01,1.010000000000000000e+02,4.490000000000000000e+02,6.300000000000000000e+01,2.800000000000000000e+01,2.700000000000000000e+01,8.200000000000000000e+01,2.800000000000000000e+01,5.999999999999999778e-01,1.365049700000000000e+09
4.000000000000000000e+01,1.170000000000000000e+02,5.200000000000000000e+02,7.700000000000000000e+01,2.900000000000000000e+01,5.600000000000000000e+01,1.070000000000000000e+02,2.800000000000000000e+01,5.999999999999999778e-01,1.381100000000000000e+09
4.100000000000000000e+01,1.280000000000000000e+02,5.170000000000000000e+02,8.900000000000000000e+01,3.200000000000000000e+01,1.140000000000000000e+02,1.620000000000000000e+02,2.900000000000000000e+01,5.999999999999999778e-01,1.397121400000000000e+09
5.200000000000000000e+01,1.490000000000000000e+02,5.830000000000000000e+02,9.300000000000000000e+01,4.000000000000000000e+01,1.620000000000000000e+02,1.840000000000000000e+02,4.100000000000000000e+01,6.099999999999999867e-01,1.413207100000000000e+09
6.700000000000000000e+01,1.880000000000000000e+02,6.920000000000000000e+02,1.540000000000000000e+02,5.200000000000000000e+01,1.740000000000000000e+02,1.990000000000000000e+02,5.400000000000000000e+01,5.999999999999999778e-01,1.429263700000000000e+09
7.000000000000000000e+01,2.100000000000000000e+02,8.080000000000000000e+02,1.630000000000000000e+02,5.400000000000000000e+01,1.790000000000000000e+02,2.170000000000000000e+02,5.800000000000000000e+01,5.899999999999999689e-01,1.447715500000000000e+09
7.200000000000000000e+01,2.150000000000000000e+02,8.090000000000000000e+02,1.630000000000000000e+02,5.300000000000000000e+01,1.830000000000000000e+02,2.120000000000000000e+02,5.800000000000000000e+01,5.799999999999999600e-01,1.468434100000000000e+09
8.400000000000000000e+01,2.600000000000000000e+02,8.120000000000000000e+02,1.730000000000000000e+02,5.900000000000000000e+01,2.010000000000000000e+02,1.920000000000000000e+02,1.670000000000000000e+02,5.699999999999999512e-01,1.495953600000000000e+09
8.100000000000000000e+01,2.940000000000000000e+02,7.650000000000000000e+02,1.740000000000000000e+02,5.600000000000000000e+01,1.900000000000000000e+02,2.110000000000000000e+02,1.790000000000000000e+02,5.600000000000000533e-01,1.520129200000000000e+09
7.400000000000000000e+01,2.990000000000000000e+02,7.140000000000000000e+02,1.450000000000000000e+02,5.600000000000000000e+01,2.370000000000000000e+02,2.120000000000000000e+02,1.810000000000000000e+02,5.500000000000000444e-01,1.541214300000000000e+09
8.700000000000000000e+01,3.700000000000000000e+02,5.870000000000000000e+02,1.690000000000000000e+02,6.500000000000000000e+01,2.650000000000000000e+02,2.080000000000000000e+02,1.860000000000000000e+02,5.500000000000000444e-01,1.560572800000000000e+09
8.800000000000000000e+01,4.100000000000000000e+02,5.340000000000000000e+02,1.770000000000000000e+02,7.200000000000000000e+01,2.670000000000000000e+02,2.040000000000000000e+02,1.880000000000000000e+02,5.500000000000000444e-01,1.579230800000000000e+09
8.400000000000000000e+01,4.090000000000000000e+02,5.910000000000000000e+02,2.130000000000000000e+02,2.420000000000000000e+02,2.780000000000000000e+02,1.840000000000000000e+02,1.100000000000000000e+02,5.300000000000000266e-01,1.597113700000000000e+09
8.100000000000000000e+01,4.010000000000000000e+02,6.850000000000000000e+02,3.220000000000000000e+02,4.180000000000000000e+02,2.900000000000000000e+02,1.260000000000000000e+02,8.500000000000000000e+01,4.899999999999999911e-01,1.614593100000000000e+09
8.500000000000000000e+01,3.920000000000000000e+02,6.600000000000000000e+02,4.120000000000000000e+02,4.580000000000000000e+02,2.790000000000000000e+02,1.030000000000000000e+02,7.700000000000000000e+01,4.600000000000000200e-01,1.632357800000000000e+09
7.200000000000000000e+01,3.220000000000000000e+02,7.290000000000000000e+02,4.110000000000000000e+02,4.790000000000000000e+02,2.590000000000000000e+02,7.100000000000000000e+01,5.900000000000000000e+01,4.199999999999999845e-01,1.651517300000000000e+09
7.200000000000000000e+01,2.700000000000000000e+02,7.480000000000000000e+02,4.240000000000000000e+02,4.970000000000000000e+02,2.630000000000000000e+02,1.410000000000000000e+02,6.100000000000000000e+01,3.900000000000000133e-01,1.668673000000000000e+09
6.500000000000000000e+01,2.370000000000000000e+02,6.940000000000000000e+02,4.400000000000000000e+02,4.510000000000000000e+02,2.790000000000000000e+02,1.720000000000000000e+02,6.000000000000000000e+01,3.599999999999999867e-01,1.688068200000000000e+09
7.300000000000000000e+01,2.210000000000000000e+02,7.120000000000000000e+02,3.770000000000000000e+02,3.060000000000000000e+02,5.940000000000000000e+02,2.190000000000000000e+02,1.260000000000000000e+02,3.499999999999999778e-01,1.706316000000000000e+09
6.500000000000000000e+01,1.990000000000000000e+02,7.520000000000000000e+02,2.700000000000000000e+02,2.430000000000000000e+02,8.940000000000000000e+02,2.420000000000000000e+02,1.300000000000000000e+02,3.400000000000000244e-01,1.723753200000000000e+09
6.800000000000000000e+01,2.100000000000000000e+02,6.730000000000000000e+02,2.700000000000000000e+02,2.030000000000000000e+02,9.910000000000000000e+02,2.730000000000000000e+02,1.860000000000000000e+02,3.300000000000000155e-01,1.741427700000000000e+09
7.400000000000000000e+01,2.040000000000000000e+02,7.140000000000000000e+02,2.510000000000000000e+02,1.580000000000000000e+02,1.031000000000000000e+03,2.920000000000000000e+02,3.390000000000000000e+02,3.200000000000000067e-01,1.763330200000000000e+09
9.000000000000000000e+01,1.870000000000000000e+02,7.000000000000000000e+02,1.810000000000000000e+02,1.320000000000000000e+02,1.140000000000000000e+03,5.050000000000000000e+02,4.400000000000000000e+02,3.200000000000000067e-01,1.781832500000000000e+09
9.300000000000000000e+01,1.830000000000000000e+02,5.910000000000000000e+02,1.630000000000000000e+02,1.060000000000000000e+02,1.024000000000000000e+03,5.200000000000000000e+02,4.730000000000000000e+02,3.300000000000000155e-01,1.801033800000000000e+09
9.400000000000000000e+01,1.760000000000000000e+02,5.700000000000000000e+02,1.740000000000000000e+02,1.070000000000000000e+02,9.550000000000000000e+02,5.190000000000000000e+02,4.920000000000000000e+02,3.499999999999999778e-01,1.818682900000000000e+09
8.900000000000000000e+01,1.420000000000000000e+02,5.630000000000000000e+02,1.560000000000000000e+02,1.050000000000000000e+02,1.213000000000000000e+03,5.120000000000000000e+02,4.820000000000000000e+02,3.800000000000000044e-01,1.838228700000000000e+09
9.200000000000000000e+01,1.480000000000000000e+02,5.170000000000000000e+02,1.690000000000000000e+02,1.060000000000000000e+02,1.412000000000000000e+03,5.030000000000000000e+02,4.130000000000000000e+02,4.099999999999999756e-01,1.855753400000000000e+09
8.600000000000000000e+01,1.590000000000000000e+02,5.540000000000000000e+02,1.720000000000000000e+02,1.050000000000000000e+02,1.333000000000000000e+03,3.280000000000000000e+02,3.810000000000000000e+02,4.500000000000000111e-01,1.873751600000000000e+09
1.050000000000000000e+02,1.440000000000000000e+02,5.780000000000000000e+02,1.690000000000000000e+02,1.140000000000000000e+02,1.354000000000000000e+03,4.670000000000000000e+02,4.610000000000000000e+02,4.799999999999999822e-01,1.891601400000000000e+09
1.230000000000000000e+02,1.440000000000000000e+02,5.020000000000000000e+02,1.520000000000000000e+02,1.170000000000000000e+02,1.245000000000000000e+03,5.700000000000000000e+02,5.290000000000000000e+02,5.000000000000000000e-01,1.909421400000000000e+09
1.250000000000000000e+02,1.870000000000000000e+02,4.890000000000000000e+02,1.460000000000000000e+02,1.050000000000000000e+02,9.080000000000000000e+02,6.040000000000000000e+02,5.660000000000000000e+02,5.000000000000000000e-01,1.927109800000000000e+09
1.300000000000000000e+02,2.030000000000000000e+02,4.900000000000000000e+02,1.290000000000000000e+02,9.900000000000000000e+01,4.950000000000000000e+02,6.570000000000000000e+02,6.490000000000000000e+02,5.000000000000000000e-01,1.944327400000000000e+09
1.300000000000000000e+02,2.130000000000000000e+02,4.500000000000000000e+02,1.240000000000000000e+02,9.000000000000000000e+01,4.570000000000000000e+02,7.120000000000000000e+02,6.420000000000000000e+02,4.899999999999999911e-01,1.962313000000000000e+09
1.150000000000000000e+02,2.240000000000000000e+02,4.280000000000000000e+02,1.440000000000000000e+02,1.510000000000000000e+02,3.490000000000000000e+02,6.270000000000000000e+02,5.740000000000000000e+02,4.699999999999999734e-01,1.980570400000000000e+09
1.170000000000000000e+02,2.420000000000000000e+02,5.400000000000000000e+02,1.550000000000000000e+02,1.670000000000000000e+02,3.290000000000000000e+02,5.700000000000000000e+02,5.440000000000000000e+02,4.600000000000000200e-01,1.998648500000000000e+09
1.480000000000000000e+02,3.070000000000000000e+02,6.530000000000000000e+02,2.250000000000000000e+02,1.770000000000000000e+02,3.160000000000000000e+02,5.530000000000000000e+02,5.340000000000000000e+02,4.400000000000000022e-01,2.016603200000000000e+09
1.450000000000000000e+02,3.010000000000000000e+02,6.630000000000000000e+02,2.340000000000000000e+02,1.760000000000000000e+02,2.680000000000000000e+02,5.010000000000000000e+02,4.290000000000000000e+02,4.299999999999999933e-01,2.033898200000000000e+09
1.500000000000000000e+02,2.950000000000000000e+02,6.690000000000000000e+02,2.350000000000000000e+02,1.770000000000000000e+02,2.860000000000000000e+02,5.190000000000000000e+02,4.340000000000000000e+02,4.099999999999999756e-01,2.052751800000000000e+09
1.600000000000000000e+02,2.990000000000000000e+02,6.700000000000000000e+02,2.230000000000000000e+02,1.250000000000000000e+02,3.150000000000000000e+02,5.370000000000000000e+02,4.530000000000000000e+02,3.900000000000000133e-01,2.070481300000000000e+09
1.500000000000000000e+02,3.520000000000000000e+02,7.900000000000000000e+02,2.450000000000000000e+02,9.400000000000000000e+01,2.980000000000000000e+02,5.000000000000000000e+02,4.020000000000000000e+02,3.699999999999999956e-01,2.090169500000000000e+09
1.240000000000000000e+02,3.280000000000000000e+02,7.870000000000000000e+02,1.870000000000000000e+02,1.080000000000000000e+02,6.330000000000000000e+02,4.870000000000000000e+02,3.630000000000000000e+02,3.599999999999999867e-01,2.107835400000000000e+09
1.190000000000000000e+02,3.290000000000000000e+02,8.170000000000000000e+02,1.700000000000000000e+02,1.440000000000000000e+02,9.560000000000000000e+02,5.290000000000000000e+02,3.540000000000000000e+02,3.699999999999999956e-01,2.127895300000000000e+09
1.150000000000000000e+02,3.280000000000000000e+02,8.130000000000000000e+02,1.680000000000000000e+02,1.590000000000000000e+02,1.022000000000000000e+03,5.010000000000000000e+02,3.270000000000000000e+02,3.900000000000000133e-01,2.145402400000000000e+09
9.900000000000000000e+01,3.100000000000000000e+02,7.860000000000000000e+02,1.640000000000000000e+02,1.560000000000000000e+02,1.142000000000000000e+03,5.380000000000000000e+02,2.740000000000000000e+02,4.199999999999999845e-01,2.162930700000000000e+09
8.800000000000000000e+01,2.370000000000000000e+02,6.340000000000000000e+02,1.180000000000000000e+02,1.550000000000000000e+02,1.141000000000000000e+03,5.390000000000000000e+02,2.650000000000000000e+02,4.400000000000000022e-01,2.181531100000000000e+09
8.400000000000000000e+01,1.690000000000000000e+02,5.700000000000000000e+02,1.270000000000000000e+02,1.380000000000000000e+02,9.960000000000000000e+02,5.310000000000000000e+02,2.530000000000000000e+02,4.699999999999999734e-01,2.199901000000000000e+09
8.600000000000000000e+01,1.600000000000000000e+02,5.150000000000000000e+02,1.350000000000000000e+02,1.050000000000000000e+02,7.230000000000000000e+02,4.960000000000000000e+02,2.490000000000000000e+02,4.899999999999999911e-01,2.217170000000000000e+09
7.100000000000000000e+01,1.510000000000000000e+02,5.160000000000000000e+02,1.390000000000000000e+02,7.700000000000000000e+01,6.300000000000000000e+02,4.360000000000000000e+02,1.910000000000000000e+02,5.200000000000000178e-01,2.234563000000000000e+09
6.600000000000000000e+01,1.720000000000000000e+02,5.390000000000000000e+02,1.540000000000000000e+02,7.500000000000000000e+01,3.430000000000000000e+02,3.490000000000000000e+02,1.820000000000000000e+02,5.400000000000000355e-01,2.251945300000000000e+09
6.400000000000000000e+01,1.600000000000000000e+02,4.920000000000000000e+02,1.530000000000000000e+02,7.200000000000000000e+01,3.310000000000000000e+02,3.460000000000000000e+02,1.990000000000000000e+02,5.600000000000000533e-01,2.269723300000000000e+09
6.500000000000000000e+01,1.520000000000000000e+02,4.620000000000000000e+02,1.340000000000000000e+02,6.300000000000000000e+01,3.320000000000000000e+02,4.580000000000000000e+02,2.580000000000000000e+02,5.699999999999999512e-01,2.288702200000000000e+09
5.500000000000000000e+01,1.710000000000000000e+02,4.270000000000000000e+02,1.160000000000000000e+02,5.100000000000000000e+01,2.880000000000000000e+02,4.530000000000000000e+02,2.460000000000000000e+02,5.699999999999999512e-01,2.308241800000000000e+09
5.300000000000000000e+01,1.790000000000000000e+02,4.940000000000000000e+02,1.070000000000000000e+02,4.200000000000000000e+01,2.440000000000000000e+02,4.140000000000000000e+02,2.390000000000000000e+02,5.600000000000000533e-01,2.326938200000000000e+09
5.800000000000000000e+01,1.660000000000000000e+02,4.640000000000000000e+02,9.000000000000000000e+01,4.500000000000000000e+01,2.490000000000000000e+02,5.000000000000000000e+02,2.550000000000000000e+02,5.500000000000000444e-01,2.347766200000000000e+09
7.200000000000000000e+01,1.770000000000000000e+02,4.500000000000000000e+02,7.300000000000000000e+01,4.600000000000000000e+01,2.680000000000000000e+02,5.990000000000000000e+02,3.230000000000000000e+02,5.300000000000000266e-01,2.366564300000000000e+09
7.100000000000000000e+01,1.730000000000000000e+02,4.880000000000000000e+02,7.400000000000000000e+01,4.900000000000000000e+01,2.750000000000000000e+02,5.260000000000000000e+02,3.020000000000000000e+02,5.200000000000000178e-01,2.385091400000000000e+09
7.300000000000000000e+01,1.370000000000000000e+02,5.100000000000000000e+02,8.200000000000000000e+01,5.000000000000000000e+01,2.630000000000000000e+02,5.070000000000000000e+02,3.000000000000000000e+02,5.000000000000000000e-01,2.403950600000000000e+09
7.400000000000000000e+01,1.260000000000000000e+02,5.230000000000000000e+02,9.000000000000000000e+01,4.800000000000000000e+01,2.840000000000000000e+02,5.970000000000000000e+02,3.320000000000000000e+02,4.799999999999999822e-01,2.421068300000000000e+09
7.500000000000000000e+01,1.230000000000000000e+02,5.420000000000000000e+02,8.300000000000000000e+01,4.300000000000000000e+01,2.660000000000000000e+02,5.300000000000000000e+02,3.560000000000000000e+02,4.600000000000000200e-01,2.438565400000000000e+09
6.700000000000000000e+01,1.200000000000000000e+02,5.660000000000000000e+02,9.400000000000000000e+01,4.700000000000000000e+01,2.580000000000000000e+02,4.250000000000000000e+02,2.920000000000000000e+02,4.500000000000000111e-01,2.456566200000000000e+09
6.400000000000000000e+01,1.270000000000000000e+02,5.550000000000000000e+02,1.020000000000000000e+02,4.200000000000000000e+01,2.150000000000000000e+02,4.090000000000000000e+02,2.810000000000000000e+02,4.400000000000000022e-01,2.476038200000000000e+09
6.700000000000000000e+01,1.510000000000000000e+02,5.730000000000000000e+02,1.030000000000000000e+02,4.100000000000000000e+01,1.980000000000000000e+02,4.120000000000000000e+02,3.180000000000000000e+02,4.400000000000000022e-01,2.493238400000000000e+09
6.800000000000000000e+01,1.900000000000000000e+02,5.880000000000000000e+02,1.060000000000000000e+02,4.300000000000000000e+01,1.690000000000000000e+02,3.000000000000000000e+02,2.930000000000000000e+02,4.299999999999999933e-01,2.510291500000000000e+09
7.000000000000000000e+01,1.880000000000000000e+02,6.090000000000000000e+02,1.160000000000000000e+02,4.300000000000000000e+01,1.770000000000000000e+02,3.290000000000000000e+02,3.150000000000000000e+02,4.199999999999999845e-01,2.528028300000000000e+09
6.400000000000000000e+01,1.830000000000000000e+02,6.040000000000000000e+02,1.100000000000000000e+02,3.600000000000000000e+01,1.370000000000000000e+02,3.240000000000000000e+02,3.090000000000000000e+02,4.199999999999999845e-01,2.549474500000000000e+09
6.300000000000000000e+01,1.800000000000000000e+02,5.730000000000000000e+02,1.050000000000000000e+02,3.800000000000000000e+01,1.360000000000000000e+02,3.290000000000000000e+02,3.250000000000000000e+02,4.099999999999999756e-01,2.566860500000000000e+09
5.800000000000000000e+01,1.620000000000000000e+02,5.680000000000000000e+02,9.600000000000000000e+01,3.200000000000000000e+01,1.250000000000000000e+02,3.170000000000000000e+02,2.990000000000000000e+02,4.099999999999999756e-01,2.584462300000000000e+09
5.600000000000000000e+01,1.140000000000000000e+02,5.210000000000000000e+02,9.300000000000000000e+01,3.100000000000000000e+01,1.120000000000000000e+02,2.930000000000000000e+02,2.980000000000000000e+02,4.099999999999999756e-01,2.603893800000000000e+09
5.400000000000000000e+01,1.180000000000000000e+02,4.900000000000000000e+02,8.300000000000000000e+01,3.200000000000000000e+01,1.540000000000000000e+02,2.780000000000000000e+02,2.720000000000000000e+02,4.099999999999999756e-01,2.623268000000000000e+09
6.000000000000000000e+01,1.120000000000000000e+02,5.130000000000000000e+02,8.400000000000000000e+01,3.300000000000000000e+01,1.630000000000000000e+02,3.340000000000000000e+02,2.730000000000000000e+02,4.099999999999999756e-01,2.641393400000000000e+09
6.200000000000000000e+01,1.280000000000000000e+02,5.400000000000000000e+02,1.030000000000000000e+02,3.700000000000000000e+01,1.630000000000000000e+02,3.410000000000000000e+02,2.470000000000000000e+02,4.099999999999999756e-01,2.658743000000000000e+09
6.200000000000000000e+01,1.280000000000000000e+02,5.240000000000000000e+02,1.020000000000000000e+02,3.900000000000000000e+01,1.690000000000000000e+02,3.520000000000000000e+02,2.360000000000000000e+02,4.099999999999999756e-01,2.675135100000000000e+09
6.100000000000000000e+01,1.390000000000000000e+02,4.850000000000000000e+02,9.600000000000000000e+01,3.900000000000000000e+01,1.720000000000000000e+02,3.380000000000000000e+02,2.370000000000000000e+02,4.099999999999999756e-01,2.691267300000000000e+09
5.600000000000000000e+01,1.380000000000000000e+02,5.090000000000000000e+02,1.020000000000000000e+02,3.800000000000000000e+01,1.320000000000000000e+02,3.300000000000000000e+02,1.810000000000000000e+02,4.199999999999999845e-01,2.709229700000000000e+09
5.900000000000000000e+01,1.520000000000000000e+02,4.480000000000000000e+02,9.800000000000000000e+01,4.500000000000000000e+01,1.620000000000000000e+02,2.900000000000000000e+02,1.850000000000000000e+02,4.299999999999999933e-01,2.727319200000000000e+09
6.300000000000000000e+01,1.300000000000000000e+02,4.570000000000000000e+02,7.400000000000000000e+01,3.800000000000000000e+01,1.620000000000000000e+02,2.800000000000000000e+02,1.920000000000000000e+02,4.299999999999999933e-01,2.744111100000000000e+09
6.400000000000000000e+01,1.380000000000000000e+02,5.140000000000000000e+02,7.800000000000000000e+01,4.300000000000000000e+01,1.690000000000000000e+02,2.640000000000000000e+02,1.940000000000000000e+02,4.400000000000000022e-01,2.760689800000000000e+09
6.300000000000000000e+01,1.250000000000000000e+02,5.180000000000000000e+02,8.700000000000000000e+01,4.500000000000000000e+01,1.640000000000000000e+02,2.650000000000000000e+02,1.790000000000000000e+02,4.500000000000000111e-01,2.776402700000000000e+09
6.900000000000000000e+01,1.250000000000000000e+02,5.140000000000000000e+02,7.600000000000000000e+01,5.300000000000000000e+01,2.250000000000000000e+02,4.090000000000000000e+02,2.720000000000000000e+02,4.500000000000000111e-01,2.792263500000000000e+09
7.100000000000000000e+01,1.420000000000000000e+02,5.540000000000000000e+02,9.100000000000000000e+01,4.900000000000000000e+01,2.020000000000000000e+02,3.930000000000000000e+02,2.680000000000000000e+02,4.500000000000000111e-01,2.808088200000000000e+09
6.500000000000000000e+01,1.650000000000000000e+02,6.040000000000000000e+02,1.030000000000000000e+02,5.000000000000000000e+01,2.040000000000000000e+02,4.020000000000000000e+02,2.600000000000000000e+02,4.500000000000000111e-01,2.823734700000000000e+09
6.600000000000000000e+01,1.650000000000000000e+02,6.380000000000000000e+02,1.050000000000000000e+02,4.600000000000000000e+01,1.950000000000000000e+02,4.100000000000000000e+02,2.770000000000000000e+02,4.500000000000000111e-01,2.840174800000000000e+09
6.700000000000000000e+01,1.650000000000000000e+02,6.450000000000000000e+02,1.000000000000000000e+02,4.300000000000000000e+01,1.930000000000000000e+02,4.140000000000000000e+02,2.790000000000000000e+02,4.400000000000000022e-01,2.856843100000000000e+09
6.300000000000000000e+01,1.710000000000000000e+02,6.390000000000000000e+02,1.010000000000000000e+02,3.300000000000000000e+01,1.160000000000000000e+02,2.330000000000000000e+02,1.900000000000000000e+02,4.500000000000000111e-01,2.873081400000000000e+09
5.700000000000000000e+01,1.550000000000000000e+02,6.430000000000000000e+02,1.020000000000000000e+02,3.400000000000000000e+01,1.190000000000000000e+02,2.100000000000000000e+02,2.140000000000000000e+02,4.500000000000000111e-01,2.889025100000000000e+09
7.400000000000000000e+01,1.590000000000000000e+02,6.420000000000000000e+02,9.500000000000000000e+01,3.700000000000000000e+01,1.210000000000000000e+02,1.980000000000000000e+02,2.170000000000000000e+02,4.400000000000000022e-01,2.905200600000000000e+09
7.900000000000000000e+01,1.770000000000000000e+02,5.790000000000000000e+02,1.140000000000000000e+02,4.100000000000000000e+01,1.140000000000000000e+02,1.770000000000000000e+02,2.030000000000000000e+02,4.400000000000000022e-01,2.921328400000000000e+09
8.200000000000000000e+01,1.800000000000000000e+02,5.780000000000000000e+02,1.150000000000000000e+02,4.500000000000000000e+01,1.260000000000000000e+02,1.770000000000000000e+02,2.080000000000000000e+02,4.400000000000000022e-01,2.939992100000000000e+09
8.200000000000000000e+01,1.770000000000000000e+02,6.890000000000000000e+02,1.280000000000000000e+02,4.700000000000000000e+01,1.300000000000000000e+02,2.480000000000000000e+02,1.950000000000000000e+02,4.400000000000000022e-01,2.956515300000000000e+09
9.200000000000000000e+01,1.910000000000000000e+02,6.850000000000000000e+02,1.280000000000000000e+02,4.900000000000000000e+01,1.250000000000000000e+02,2.540000000000000000e+02,1.530000000000000000e+02,4.400000000000000022e-01,2.972468600000000000e+09
7.900000000000000000e+01,1.970000000000000000e+02,7.020000000000000000e+02,1.390000000000000000e+02,5.200000000000000000e+01,1.210000000000000000e+02,2.500000000000000000e+02,1.380000000000000000e+02,4.500000000000000111e-01,2.988652400000000000e+09
7.300000000000000000e+01,1.840000000000000000e+02,7.550000000000000000e+02,1.300000000000000000e+02,4.900000000000000000e+01,1.220000000000000000e+02,2.610000000000000000e+02,1.100000000000000000e+02,4.500000000000000111e-01,3.004549600000000000e+09
7.200000000000000000e+01,1.860000000000000000e+02,7.410000000000000000e+02,1.330000000000000000e+02,5.200000000000000000e+01,1.400000000000000000e+02,2.730000000000000000e+02,1.220000000000000000e+02,4.600000000000000200e-01,3.023474300000000000e+09
7.400000000000000000e+01,1.840000000000000000e+02,6.810000000000000000e+02,1.310000000000000000e+02,5.200000000000000000e+01,1.390000000000000000e+02,1.970000000000000000e+02,1.280000000000000000e+02,4.600000000000000200e-01,3.040483300000000000e+09
6.100000000000000000e+01,1.700000000000000000e+02,7.650000000000000000e+02,1.440000000000000000e+02,5.200000000000000000e+01,1.280000000000000000e+02,2.200000000000000000e+02,1.380000000000000000e+02,4.600000000000000200e-01,3.057075500000000000e+09
6.200000000000000000e+01,1.470000000000000000e+02,7.140000000000000000e+02,1.310000000000000000e+02,4.700000000000000000e+01,1.320000000000000000e+02,2.130000000000000000e+02,1.450000000000000000e+02,4.600000000000000200e-01,3.073518100000000000e+09
6.200000000000000000e+01,1.350000000000000000e+02,6.440000000000000000e+02,1.220000000000000000e+02,4.600000000000000000e+01,1.350000000000000000e+02,1.980000000000000000e+02,1.550000000000000000e+02,4.600000000000000200e-01,3.090931200000000000e+09
7.900000000000000000e+01,1.330000000000000000e+02,6.600000000000000000e+02,1.180000000000000000e+02,4.800000000000000000e+01,1.840000000000000000e+02,1.850000000000000000e+02,2.100000000000000000e+02,4.600000000000000200e-01,3.107525300000000000e+09
7.600000000000000000e+01,1.450000000000000000e+02,6.490000000000000000e+02,1.150000000000000000e+02,4.700000000000000000e+01,1.970000000000000000e+02,1.900000000000000000e+02,2.100000000000000000e+02,4.600000000000000200e-01,3.123710000000000000e+09
7.600000000000000000e+01,1.390000000000000000e+02,5.390000000000000000e+02,8.900000000000000000e+01,4.400000000000000000e+01,2.020000000000000000e+02,1.500000000000000000e+02,2.030000000000000000e+02,4.600000000000000200e-01,3.140770000000000000e+09
7.500000000000000000e+01,1.340000000000000000e+02,5.030000000000000000e+02,8.800000000000000000e+01,4.600000000000000000e+01,2.020000000000000000e+02,1.470000000000000000e+02,2.030000000000000000e+02,4.600000000000000200e-01,3.157238900000000000e+09
7.400000000000000000e+01,1.340000000000000000e+02,5.350000000000000000e+02,9.200000000000000000e+01,4.500000000000000000e+01,2.000000000000000000e+02,1.840000000000000000e+02,2.030000000000000000e+02,4.600000000000000200e-01,3.173657300000000000e+09
5.500000000000000000e+01,1.300000000000000000e+02,5.620000000000000000e+02,9.500000000000000000e+01,4.100000000000000000e+01,1.370000000000000000e+02,1.920000000000000000e+02,1.620000000000000000e+02,4.699999999999999734e-01,3.190976600000000000e+09
5.400000000000000000e+01,1.100000000000000000e+02,5.070000000000000000e+02,8.100000000000000000e+01,4.000000000000000000e+01,1.420000000000000000e+02,2.120000000000000000e+02,1.740000000000000000e+02,4.699999999999999734e-01,3.206939900000000000e+09
5.500000000000000000e+01,1.210000000000000000e+02,5.110000000000000000e+02,8.300000000000000000e+01,3.900000000000000000e+01,1.410000000000000000e+02,2.170000000000000000e+02,1.780000000000000000e+02,4.699999999999999734e-01,3.223906400000000000e+09
5.500000000000000000e+01,1.220000000000000000e+02,6.000000000000000000e+02,8.700000000000000000e+01,3.800000000000000000e+01,1.330000000000000000e+02,2.150000000000000000e+02,1.740000000000000000e+02,4.799999999999999822e-01,3.240592100000000000e+09
5.300000000000000000e+01,1.240000000000000000e+02,5.680000000000000000e+02,8.500000000000000000e+01,3.900000000000000000e+01,1.330000000000000000e+02,1.790000000000000000e+02,1.850000000000000000e+02,4.799999999999999822e-01,3.257689700000000000e+09
5.100000000000000000e+01,1.220000000000000000e+02,5.420000000000000000e+02,7.700000000000000000e+01,3.600000000000000000e+01,1.320000000000000000e+02,1.660000000000000000e+02,1.590000000000000000e+02,4.899999999999999911e-01,3.274156600000000000e+09
5.100000000000000000e+01,1.300000000000000000e+02,6.270000000000000000e+02,8.300000000000000000e+01,3.500000000000000000e+01,8.900000000000000000e+01,1.380000000000000000e+02,1.320000000000000000e+02,4.899999999999999911e-01,3.293463500000000000e+09
4.900000000000000000e+01,1.200000000000000000e+02,6.170000000000000000e+02,7.600000000000000000e+01,3.300000000000000000e+01,8.000000000000000000e+01,1.310000000000000000e+02,1.240000000000000000e+02,5.000000000000000000e-01,3.310134700000000000e+09
5.400000000000000000e+01,1.110000000000000000e+02,6.390000000000000000e+02,8.100000000000000000e+01,3.500000000000000000e+01,8.400000000000000000e+01,1.470000000000000000e+02,1.790000000000000000e+02,5.000000000000000000e-01,3.327472300000000000e+09
5.700000000000000000e+01,1.250000000000000000e+02,6.340000000000000000e+02,8.900000000000000000e+01,3.800000000000000000e+01,8.600000000000000000e+01,1.600000000000000000e+02,1.710000000000000000e+02,5.100000000000000089e-01,3.344925000000000000e+09
6.000000000000000000e+01,1.270000000000000000e+02,6.280000000000000000e+02,8.800000000000000000e+01,3.500000000000000000e+01,8.000000000000000000e+01,1.380000000000000000e+02,1.720000000000000000e+02,5.200000000000000178e-01,3.362596200000000000e+09
6.000000000000000000e+01,1.220000000000000000e+02,5.470000000000000000e+02,8.400000000000000000e+01,3.500000000000000000e+01,8.500000000000000000e+01,1.460000000000000000e+02,1.720000000000000000e+02,5.200000000000000178e-01,3.379490900000000000e+09
6.200000000000000000e+01,1.240000000000000000e+02,5.880000000000000000e+02,1.000000000000000000e+02,3.900000000000000000e+01,9.500000000000000000e+01,1.400000000000000000e+02,1.740000000000000000e+02,5.200000000000000178e-01,3.396687100000000000e+09
5.600000000000000000e+01,1.230000000000000000e+02,5.680000000000000000e+02,9.100000000000000000e+01,3.900000000000000000e+01,9.200000000000000000e+01,1.280000000000000000e+02,1.160000000000000000e+02,5.300000000000000266e-01,3.413544100000000000e+09
5.500000000000000000e+01,1.090000000000000000e+02,6.620000000000000000e+02,7.900000000000000000e+01,3.500000000000000000e+01,8.600000000000000000e+01,1.100000000000000000e+02,9.200000000000000000e+01,5.300000000000000266e-01,3.430829800000000000e+09
5.800000000000000000e+01,1.080000000000000000e+02,6.680000000000000000e+02,8.100000000000000000e+01,3.500000000000000000e+01,8.000000000000000000e+01,1.060000000000000000e+02,1.010000000000000000e+02,5.300000000000000266e-01,3.451120200000000000e+09
5.900000000000000000e+01,1.160000000000000000e+02,7.250000000000000000e+02,7.900000000000000000e+01,3.500000000000000000e+01,7.200000000000000000e+01,7.300000000000000000e+01,1.490000000000000000e+02,5.300000000000000266e-01,3.468147600000000000e+09
5.300000000000000000e+01,1.040000000000000000e+02,7.070000000000000000e+02,7.300000000000000000e+01,3.400000000000000000e+01,7.200000000000000000e+01,7.200000000000000000e+01,1.470000000000000000e+02,5.200000000000000178e-01,3.486421400000000000e+09
8.000000000000000000e+01,1.750000000000000000e+02,6.540000000000000000e+02,1.300000000000000000e+02,1.320000000000000000e+02,8.800000000000000000e+01,6.500000000000000000e+01,1.520000000000000000e+02,5.100000000000000089e-01,3.507790700000000000e+09
7.900000000000000000e+01,1.740000000000000000e+02,5.660000000000000000e+02,1.410000000000000000e+02,1.410000000000000000e+02,8.500000000000000000e+01,6.300000000000000000e+01,1.530000000000000000e+02,5.100000000000000089e-01,3.530735000000000000e+09
7.700000000000000000e+01,1.740000000000000000e+02,5.300000000000000000e+02,1.410000000000000000e+02,1.450000000000000000e+02,1.160000000000000000e+02,9.900000000000000000e+01,1.470000000000000000e+02,5.000000000000000000e-01,3.547800400000000000e+09
7.600000000000000000e+01,1.660000000000000000e+02,4.220000000000000000e+02,1.430000000000000000e+02,1.460000000000000000e+02,1.500000000000000000e+02,1.740000000000000000e+02,1.580000000000000000e+02,4.899999999999999911e-01,3.569922100000000000e+09
7.600000000000000000e+01,1.610000000000000000e+02,3.520000000000000000e+02,1.360000000000000000e+02,1.470000000000000000e+02,1.640000000000000000e+02,1.960000000000000000e+02,1.600000000000000000e+02,4.799999999999999822e-01,3.588732900000000000e+09
4.700000000000000000e+01,8.100000000000000000e+01,2.670000000000000000e+02,8.400000000000000000e+01,7.700000000000000000e+01,1.580000000000000000e+02,1.990000000000000000e+02,1.620000000000000000e+02,4.799999999999999822e-01,3.607614700000000000e+09
5.400000000000000000e+01,8.700000000000000000e+01,3.400000000000000000e+02,7.600000000000000000e+01,6.000000000000000000e+01,1.630000000000000000e+02,2.280000000000000000e+02,1.730000000000000000e+02,4.699999999999999734e-01,3.626889500000000000e+09
5.300000000000000000e+01,1.020000000000000000e+02,3.730000000000000000e+02,8.600000000000000000e+01,5.200000000000000000e+01,1.440000000000000000e+02,2.210000000000000000e+02,1.640000000000000000e+02,4.699999999999999734e-01,3.645381300000000000e+09
5.300000000000000000e+01,1.010000000000000000e+02,3.790000000000000000e+02,8.100000000000000000e+01,4.800000000000000000e+01,1.100000000000000000e+02,1.700000000000000000e+02,1.380000000000000000e+02,4.699999999999999734e-01,3.664752300000000000e+09
5.800000000000000000e+01,1.050000000000000000e+02,4.500000000000000000e+02,8.200000000000000000e+01,4.200000000000000000e+01,8.800000000000000000e+01,1.650000000000000000e+02,1.420000000000000000e+02,4.699999999999999734e-01,3.684037600000000000e+09
6.300000000000000000e+01,1.140000000000000000e+02,5.860000000000000000e+02,1.080000000000000000e+02,3.900000000000000000e+01,8.400000000000000000e+01,1.610000000000000000e+02,1.620000000000000000e+02,4.699999999999999734e-01,3.703148800000000000e+09
5.900000000000000000e+01,1.300000000000000000e+02,5.200000000000000000e+02,1.000000000000000000e+02,3.400000000000000000e+01,7.900000000000000000e+01,1.400000000000000000e+02,1.530000000000000000e+02,4.799999999999999822e-01,3.722665700000000000e+09
6.000000000000000000e+01,1.250000000000000000e+02,5.040000000000000000e+02,9.000000000000000000e+01,3.400000000000000000e+01,7.100000000000000000e+01,1.330000000000000000e+02,1.570000000000000000e+02,4.899999999999999911e-01,3.745761100000000000e+09
6.000000000000000000e+01,1.270000000000000000e+02,5.140000000000000000e+02,9.100000000000000000e+01,3.400000000000000000e+01,7.000000000000000000e+01,1.420000000000000000e+02,1.580000000000000000e+02,5.000000000000000000e-01,3.765072400000000000e+09
5.500000000000000000e+01,1.320000000000000000e+02,4.520000000000000000e+02,8.900000000000000000e+01,3.400000000000000000e+01,5.200000000000000000e+01,1.250000000000000000e+02,1.610000000000000000e+02,5.100000000000000089e-01,3.783042300000000000e+09
4.900000000000000000e+01,1.220000000000000000e+02,3.800000000000000000e+02,9.100000000000000000e+01,2.700000000000000000e+01,5.000000000000000000e+01,1.230000000000000000e+02,1.360000000000000000e+02,5.200000000000000178e-01,3.805119500000000000e+09
4.600000000000000000e+01,1.130000000000000000e+02,3.780000000000000000e+02,1.180000000000000000e+02,3.400000000000000000e+01,5.400000000000000000e+01,9.800000000000000000e+01,1.350000000000000000e+02,5.200000000000000178e-01,3.826245600000000000e+09
4.900000000000000000e+01,1.080000000000000000e+02,3.840000000000000000e+02,1.190000000000000000e+02,3.200000000000000000e+01,6.300000000000000000e+01,9.200000000000000000e+01,1.460000000000000000e+02,5.300000000000000266e-01,3.845855900000000000e+09
4.800000000000000000e+01,1.140000000000000000e+02,3.660000000000000000e+02,1.200000000000000000e+02,3.300000000000000000e+01,8.400000000000000000e+01,7.600000000000000000e+01,1.130000000000000000e+02,5.400000000000000355e-01,3.872184000000000000e+09
4.700000000000000000e+01,1.070000000000000000e+02,3.690000000000000000e+02,1.190000000000000000e+02,3.300000000000000000e+01,8.400000000000000000e+01,6.200000000000000000e+01,1.350000000000000000e+02,5.500000000000000444e-01,3.890982100000000000e+09
5.000000000000000000e+01,1.060000000000000000e+02,2.370000000000000000e+02,9.400000000000000000e+01,3.500000000000000000e+01,8.600000000000000000e+01,8.500000000000000000e+01,1.360000000000000000e+02,5.500000000000000444e-01,3.908947700000000000e+09
5.100000000000000000e+01,1.000000000000000000e+02,2.820000000000000000e+02,8.300000000000000000e+01,3.200000000000000000e+01,1.060000000000000000e+02,8.900000000000000000e+01,1.380000000000000000e+02,5.500000000000000444e-01,3.927185500000000000e+09
6.200000000000000000e+01,1.660000000000000000e+02,5.710000000000000000e+02,1.160000000000000000e+02,4.000000000000000000e+01,1.070000000000000000e+02,9.000000000000000000e+01,1.240000000000000000e+02,5.600000000000000533e-01,3.947402200000000000e+09
6.700000000000000000e+01,1.650000000000000000e+02,6.230000000000000000e+02,1.250000000000000000e+02,4.200000000000000000e+01,9.800000000000000000e+01,8.400000000000000000e+01,1.300000000000000000e+02,5.600000000000000533e-01,3.966950600000000000e+09
6.800000000000000000e+01,1.650000000000000000e+02,6.380000000000000000e+02,1.320000000000000000e+02,4.300000000000000000e+01,1.050000000000000000e+02,8.400000000000000000e+01,9.600000000000000000e+01,5.600000000000000533e-01,3.986019400000000000e+09
7.000000000000000000e+01,1.660000000000000000e+02,7.900000000000000000e+02,1.460000000000000000e+02,4.300000000000000000e+01,1.080000000000000000e+02,6.100000000000000000e+01,1.380000000000000000e+02,5.600000000000000533e-01,4.005224300000000000e+09
7.100000000000000000e+01,1.610000000000000000e+02,8.090000000000000000e+02,1.320000000000000000e+02,4.200000000000000000e+01,9.200000000000000000e+01,5.400000000000000000e+01,1.400000000000000000e+02,5.600000000000000533e-01,4.022892700000000000e+09
6.000000000000000000e+01,9.500000000000000000e+01,7.340000000000000000e+02,1.180000000000000000e+02,4.200000000000000000e+01,9.600000000000000000e+01,5.500000000000000000e+01,1.380000000000000000e+02,5.500000000000000444e-01,4.046260800000000000e+09
5.400000000000000000e+01,9.600000000000000000e+01,7.270000000000000000e+02,1.090000000000000000e+02,4.000000000000000000e+01,8.900000000000000000e+01,5.400000000000000000e+01,1.340000000000000000e+02,5.500000000000000444e-01,4.065911300000000000e+09
5.500000000000000000e+01,9.300000000000000000e+01,7.510000000000000000e+02,1.050000000000000000e+02,3.900000000000000000e+01,7.900000000000000000e+01,5.000000000000000000e+01,1.340000000000000000e+02,5.500000000000000444e-01,4.084954100000000000e+09
5.000000000000000000e+01,9.500000000000000000e+01,6.160000000000000000e+02,8.500000000000000000e+01,3.600000000000000000e+01,7.500000000000000000e+01,4.300000000000000000e+01,9.000000000000000000e+01,5.400000000000000355e-01,4.103132000000000000e+09
4.500000000000000000e+01,1.020000000000000000e+02,6.150000000000000000e+02,8.800000000000000000e+01,3.500000000000000000e+01,6.700000000000000000e+01,4.200000000000000000e+01,7.600000000000000000e+01,5.500000000000000444e-01,4.125120800000000000e+09
4.400000000000000000e+01,1.020000000000000000e+02,5.780000000000000000e+02,8.100000000000000000e+01,3.100000000000000000e+01,5.700000000000000000e+01,3.600000000000000000e+01,7.100000000000000000e+01,5.500000000000000444e-01,4.144353600000000000e+09
5.100000000000000000e+01,9.800000000000000000e+01,5.580000000000000000e+02,8.200000000000000000e+01,3.300000000000000000e+01,5.500000000000000000e+01,3.800000000000000000e+01,7.500000000000000000e+01,5.500000000000000444e-01,4.164821700000000000e+09
4.900000000000000000e+01,1.010000000000000000e+02,5.170000000000000000e+02,7.800000000000000000e+01,3.200000000000000000e+01,5.600000000000000000e+01,3.700000000000000000e+01,7.500000000000000000e+01,5.500000000000000444e-01,4.182539800000000000e+09
4.900000000000000000e+01,9.300000000000000000e+01,5.010000000000000000e+02,7.700000000000000000e+01,3.200000000000000000e+01,5.300000000000000000e+01,3.600000000000000000e+01,6.900000000000000000e+01,5.500000000000000444e-01,4.204633700000000000e+09
5.300000000000000000e+01,9.200000000000000000e+01,4.910000000000000000e+02,7.400000000000000000e+01,3.400000000000000000e+01,5.100000000000000000e+01,3.300000000000000000e+01,7.100000000000000000e+01,5.600000000000000533e-01,4.223754500000000000e+09
5.000000000000000000e+01,1.050000000000000000e+02,4.310000000000000000e+02,6.900000000000000000e+01,3.500000000000000000e+01,5.700000000000000000e+01,3.200000000000000000e+01,7.400000000000000000e+01,5.600000000000000533e-01,4.245512000000000000e+09
4.900000000000000000e+01,1.060000000000000000e+02,4.310000000000000000e+02,6.700000000000000000e+01,3.000000000000000000e+01,6.000000000000000000e+01,3.000000000000000000e+01,9.900000000000000000e+01,5.600000000000000533e-01,4.263699900000000000e+09
5.100000000000000000e+01,1.060000000000000000e+02,4.630000000000000000e+02,7.100000000000000000e+01,3.200000000000000000e+01,5.900000000000000000e+01,3.200000000000000000e+01,9.700000000000000000e+01,5.600000000000000533e-01,4.285654100000000000e+09
4.600000000000000000e+01,1.060000000000000000e+02,4.670000000000000000e+02,7.200000000000000000e+01,3.400000000000000000e+01,5.800000000000000000e+01,4.200000000000000000e+01,1.260000000000000000e+02,5.600000000000000533e-01,4.305772800000000000e+09
4.500000000000000000e+01,1.040000000000000000e+02,4.610000000000000000e+02,8.200000000000000000e+01,3.400000000000000000e+01,6.100000000000000000e+01,4.000000000000000000e+01,1.250000000000000000e+02,5.600000000000000533e-01,4.328451000000000000e+09
4.300000000000000000e+01,9.300000000000000000e+01,4.720000000000000000e+02,8.100000000000000000e+01,3.500000000000000000e+01,5.100000000000000000e+01,3.800000000000000000e+01,1.250000000000000000e+02,5.600000000000000533e-01,4.346316700000000000e+09
4.100000000000000000e+01,9.600000000000000000e+01,4.590000000000000000e+02,8.100000000000000000e+01,3.700000000000000000e+01,4.800000000000000000e+01,4.100000000000000000e+01,1.150000000000000000e+02,5.600000000000000533e-01,4.365549500000000000e+09
4.200000000000000000e+01,9.300000000000000000e+01,4.250000000000000000e+02,8.400000000000000000e+01,3.600000000000000000e+01,4.500000000000000000e+01,4.000000000000000000e+01,1.170000000000000000e+02,5.600000000000000533e-01,4.385234200000000000e+09
4.900000000000000000e+01,1.030000000000000000e+02,4.950000000000000000e+02,1.000000000000000000e+02,4.500000000000000000e+01,5.300000000000000000e+01,3.700000000000000000e+01,8.600000000000000000e+01,5.600000000000000533e-01,4.403355400000000000e+09
4.700000000000000000e+01,9.700000000000000000e+01,4.700000000000000000e+02,9.100000000000000000e+01,4.200000000000000000e+01,4.900000000000000000e+01,3.600000000000000000e+01,8.500000000000000000e+01,5.600000000000000533e-01,4.425636100000000000e+09
4.800000000000000000e+01,1.150000000000000000e+02,5.090000000000000000e+02,8.800000000000000000e+01,4.100000000000000000e+01,4.700000000000000000e+01,4.200000000000000000e+01,8.900000000000000000e+01,5.699999999999999512e-01,4.444603700000000000e+09
4.400000000000000000e+01,1.100000000000000000e+02,5.090000000000000000e+02,8.600000000000000000e+01,4.200000000000000000e+01,5.400000000000000000e+01,3.900000000000000000e+01,7.900000000000000000e+01,5.699999999999999512e-01,4.465718600000000000e+09
4.000000000000000000e+01,1.100000000000000000e+02,5.220000000000000000e+02,8.100000000000000000e+01,4.400000000000000000e+01,5.700000000000000000e+01,4.100000000000000000e+01,7.000000000000000000e+01,5.699999999999999512e-01,4.490353100000000000e+09
3.900000000000000000e+01,1.150000000000000000e+02,4.650000000000000000e+02,7.200000000000000000e+01,3.500000000000000000e+01,5.200000000000000000e+01,3.400000000000000000e+01,6.200000000000000000e+01,5.699999999999999512e-01,4.507993500000000000e+09
4.300000000000000000e+01,1.220000000000000000e+02,5.280000000000000000e+02,8.300000000000000000e+01,3.600000000000000000e+01,5.600000000000000000e+01,3.400000000000000000e+01,7.300000000000000000e+01,5.799999999999999600e-01,4.526642900000000000e+09
5.300000000000000000e+01,1.100000000000000000e+02,5.040000000000000000e+02,1.050000000000000000e+02,3.800000000000000000e+01,6.200000000000000000e+01,2.500000000000000000e+01,8.900000000000000000e+01,5.799999999999999600e-01,4.545886900000000000e+09
5.400000000000000000e+01,1.120000000000000000e+02,5.120000000000000000e+02,1.150000000000000000e+02,4.000000000000000000e+01,6.300000000000000000e+01,2.800000000000000000e+01,8.800000000000000000e+01,5.799999999999999600e-01,4.564630700000000000e+09
5.500000000000000000e+01,1.110000000000000000e+02,4.900000000000000000e+02,1.150000000000000000e+02,3.600000000000000000e+01,6.200000000000000000e+01,2.800000000000000000e+01,8.800000000000000000e+01,5.799999999999999600e-01,4.585697600000000000e+09
6.200000000000000000e+01,1.180000000000000000e+02,6.340000000000000000e+02,1.400000000000000000e+02,4.500000000000000000e+01,6.300000000000000000e+01,3.100000000000000000e+01,9.300000000000000000e+01,5.899999999999999689e-01,4.603518400000000000e+09
6.300000000000000000e+01,1.130000000000000000e+02,6.370000000000000000e+02,1.610000000000000000e+02,4.800000000000000000e+01,6.300000000000000000e+01,3.300000000000000000e+01,8.500000000000000000e+01,5.899999999999999689e-01,4.631650700000000000e+09
6.100000000000000000e+01,1.210000000000000000e+02,6.460000000000000000e+02,1.490000000000000000e+02,4.900000000000000000e+01,5.700000000000000000e+01,3.600000000000000000e+01,7.600000000000000000e+01,5.899999999999999689e-01,4.650040200000000000e+09
6.100000000000000000e+01,1.230000000000000000e+02,6.560000000000000000e+02,1.440000000000000000e+02,5.400000000000000000e+01,4.800000000000000000e+01,3.500000000000000000e+01,7.200000000000000000e+01,5.899999999999999689e-01,4.668927100000000000e+09
7.000000000000000000e+01,1.420000000000000000e+02,6.980000000000000000e+02,1.730000000000000000e+02,1.160000000000000000e+02,5.600000000000000000e+01,3.800000000000000000e+01,7.300000000000000000e+01,5.799999999999999600e-01,4.689079000000000000e+09
6.300000000000000000e+01,1.350000000000000000e+02,7.340000000000000000e+02,1.820000000000000000e+02,1.320000000000000000e+02,6.200000000000000000e+01,3.600000000000000000e+01,6.800000000000000000e+01,5.699999999999999512e-01,4.710004500000000000e+09
5.900000000000000000e+01,1.300000000000000000e+02,7.220000000000000000e+02,1.620000000000000000e+02,1.430000000000000000e+02,6.100000000000000000e+01,3.400000000000000000e+01,6.600000000000000000e+01,5.500000000000000444e-01,4.728070500000000000e+09
5.700000000000000000e+01,1.230000000000000000e+02,7.440000000000000000e+02,1.940000000000000000e+02,1.490000000000000000e+02,6.600000000000000000e+01,3.400000000000000000e+01,5.200000000000000000e+01,5.400000000000000355e-01,4.747031000000000000e+09
6.800000000000000000e+01,1.580000000000000000e+02,9.290000000000000000e+02,2.280000000000000000e+02,1.540000000000000000e+02,7.400000000000000000e+01,3.300000000000000000e+01,4.800000000000000000e+01,5.200000000000000178e-01,4.766381500000000000e+09
6.300000000000000000e+01,1.450000000000000000e+02,9.240000000000000000e+02,2.290000000000000000e+02,1.530000000000000000e+02,7.700000000000000000e+01,3.200000000000000000e+01,4.700000000000000000e+01,5.000000000000000000e-01,4.784835600000000000e+09
6.600000000000000000e+01,1.450000000000000000e+02,8.650000000000000000e+02,2.290000000000000000e+02,2.150000000000000000e+02,7.700000000000000000e+01,3.100000000000000000e+01,4.900000000000000000e+01,4.699999999999999734e-01,4.803080500000000000e+09
7.100000000000000000e+01,1.490000000000000000e+02,8.660000000000000000e+02,2.420000000000000000e+02,2.190000000000000000e+02,8.000000000000000000e+01,3.200000000000000000e+01,5.300000000000000000e+01,4.400000000000000022e-01,4.825422700000000000e+09
7.000000000000000000e+01,1.450000000000000000e+02,8.500000000000000000e+02,2.280000000000000000e+02,2.190000000000000000e+02,7.900000000000000000e+01,3.100000000000000000e+01,5.600000000000000000e+01,4.099999999999999756e-01,4.845590900000000000e+09
6.400000000000000000e+01,1.130000000000000000e+02,6.950000000000000000e+02,2.130000000000000000e+02,2.180000000000000000e+02,7.500000000000000000e+01,3.100000000000000000e+01,5.500000000000000000e+01,3.800000000000000044e-01,4.864490700000000000e+09
6.300000000000000000e+01,1.340000000000000000e+02,7.810000000000000000e+02,1.940000000000000000e+02,1.970000000000000000e+02,7.800000000000000000e+01,4.400000000000000000e+01,5.100000000000000000e+01,3.599999999999999867e-01,4.885964700000000000e+09
7.400000000000000000e+01,1.790000000000000000e+02,8.040000000000000000e+02,1.950000000000000000e+02,2.050000000000000000e+02,8.300000000000000000e+01,6.600000000000000000e+01,5.400000000000000000e+01,3.400000000000000244e-01,4.905960300000000000e+09
7.700000000000000000e+01,1.960000000000000000e+02,8.750000000000000000e+02,1.960000000000000000e+02,2.260000000000000000e+02,8.200000000000000000e+01,6.700000000000000000e+01,5.200000000000000000e+01,3.200000000000000067e-01,4.924746100000000000e+09
9.700000000000000000e+01,2.470000000000000000e+02,9.170000000000000000e+02,2.360000000000000000e+02,2.540000000000000000e+02,9.800000000000000000e+01,6.900000000000000000e+01,5.400000000000000000e+01,2.899999999999999800e-01,4.942297700000000000e+09
1.180000000000000000e+02,2.810000000000000000e+02,1.030000000000000000e+03,3.130000000000000000e+02,2.670000000000000000e+02,1.140000000000000000e+02,7.500000000000000000e+01,6.800000000000000000e+01,2.700000000000000178e-01,4.964774900000000000e+09
1.250000000000000000e+02,2.910000000000000000e+02,1.089000000000000000e+03,3.430000000000000000e+02,2.750000000000000000e+02,1.160000000000000000e+02,7.000000000000000000e+01,7.400000000000000000e+01,2.399999999999999911e-01,4.984099000000000000e+09
1.180000000000000000e+02,2.670000000000000000e+02,1.074000000000000000e+03,3.310000000000000000e+02,2.280000000000000000e+02,1.130000000000000000e+02,7.700000000000000000e+01,7.200000000000000000e+01,2.200000000000000011e-01,5.003260900000000000e+09
1.280000000000000000e+02,2.910000000000000000e+02,1.061000000000000000e+03,3.710000000000000000e+02,2.130000000000000000e+02,1.190000000000000000e+02,8.200000000000000000e+01,7.900000000000000000e+01,2.000000000000000111e-01,5.025608700000000000e+09
1.300000000000000000e+02,2.910000000000000000e+02,1.080000000000000000e+03,4.040000000000000000e+02,1.930000000000000000e+02,1.250000000000000000e+02,8.300000000000000000e+01,8.100000000000000000e+01,1.900000000000000022e-01,5.044115500000000000e+09
1.100000000000000000e+02,2.710000000000000000e+02,1.050000000000000000e+03,3.780000000000000000e+02,1.750000000000000000e+02,1.090000000000000000e+02,8.100000000000000000e+01,6.900000000000000000e+01,1.799999999999999933e-01,5.063298500000000000e+09
1.170000000000000000e+02,2.730000000000000000e+02,1.006000000000000000e+03,3.960000000000000000e+02,2.070000000000000000e+02,1.190000000000000000e+02,8.400000000000000000e+01,7.000000000000000000e+01,1.700000000000000122e-01,5.089747500000000000e+09
1.290000000000000000e+02,3.040000000000000000e+02,1.161000000000000000e+03,4.210000000000000000e+02,1.960000000000000000e+02,1.250000000000000000e+02,6.600000000000000000e+01,7.200000000000000000e+01,1.600000000000000033e-01,5.108613900000000000e+09
1.470000000000000000e+02,3.140000000000000000e+02,1.172000000000000000e+03,4.990000000000000000e+02,1.900000000000000000e+02,1.270000000000000000e+02,6.100000000000000000e+01,8.400000000000000000e+01,1.499999999999999944e-01,5.128058800000000000e+09
1.590000000000000000e+02,3.490000000000000000e+02,1.196000000000000000e+03,5.080000000000000000e+02,1.930000000000000000e+02,1.410000000000000000e+02,6.100000000000000000e+01,8.600000000000000000e+01,1.400000000000000133e-01,5.147127400000000000e+09
1.690000000000000000e+02,3.730000000000000000e+02,1.210000000000000000e+03,5.100000000000000000e+02,2.570000000000000000e+02,1.540000000000000000e+02,7.000000000000000000e+01,9.000000000000000000e+01,1.300000000000000044e-01,5.165005100000000000e+09
1.810000000000000000e+02,3.900000000000000000e+02,1.168000000000000000e+03,4.990000000000000000e+02,2.560000000000000000e+02,1.590000000000000000e+02,7.500000000000000000e+01,9.600000000000000000e+01,1.300000000000000044e-01,5.184210400000000000e+09
1.800000000000000000e+02,3.690000000000000000e+02,1.122000000000000000e+03,5.200000000000000000e+02,2.620000000000000000e+02,1.660000000000000000e+02,7.400000000000000000e+01,1.000000000000000000e+02,1.300000000000000044e-01,5.204753000000000000e+09
1.670000000000000000e+02,3.560000000000000000e+02,1.114000000000000000e+03,4.250000000000000000e+02,2.630000000000000000e+02,1.680000000000000000e+02,7.700000000000000000e+01,9.300000000000000000e+01,1.199999999999999956e-01,5.225771500000000000e+09
1.470000000000000000e+02,3.100000000000000000e+02,1.058000000000000000e+03,4.040000000000000000e+02,2.480000000000000000e+02,1.540000000000000000e+02,7.300000000000000000e+01,8.500000000000000000e+01,1.199999999999999956e-01,5.247356100000000000e+09
1.450000000000000000e+02,3.040000000000000000e+02,1.057000000000000000e+03,4.140000000000000000e+02,1.990000000000000000e+02,1.490000000000000000e+02,6.100000000000000000e+01,8.900000000000000000e+01,1.100000000000000006e-01,5.265418200000000000e+09
1.460000000000000000e+02,3.900000000000000000e+02,1.141000000000000000e+03,4.800000000000000000e+02,2.200000000000000000e+02,1.390000000000000000e+02,5.100000000000000000e+01,9.000000000000000000e+01,1.100000000000000006e-01,5.283846800000000000e+09
1.480000000000000000e+02,4.220000000000000000e+02,1.072000000000000000e+03,4.680000000000000000e+02,2.190000000000000000e+02,1.280000000000000000e+02,5.400000000000000000e+01,9.100000000000000000e+01,1.000000000000000056e-01,5.305676400000000000e+09
1.500000000000000000e+02,4.250000000000000000e+02,1.042000000000000000e+03,5.150000000000000000e+02,2.190000000000000000e+02,1.260000000000000000e+02,5.300000000000000000e+01,9.200000000000000000e+01,8.999999999999999667e-02,5.324569100000000000e+09
1.520000000000000000e+02,4.100000000000000000e+02,1.083000000000000000e+03,5.030000000000000000e+02,2.380000000000000000e+02,1.340000000000000000e+02,6.300000000000000000e+01,9.600000000000000000e+01,8.000000000000000167e-02,5.345518800000000000e+09
1.480000000000000000e+02,3.950000000000000000e+02,9.950000000000000000e+02,4.810000000000000000e+02,2.380000000000000000e+02,1.560000000000000000e+02,6.900000000000000000e+01,9.100000000000000000e+01,7.000000000000000666e-02,5.363650800000000000e+09
1.340000000000000000e+02,3.460000000000000000e+02,9.700000000000000000e+02,4.490000000000000000e+02,1.830000000000000000e+02,1.670000000000000000e+02,6.500000000000000000e+01,8.100000000000000000e+01,7.000000000000000666e-02,5.393395200000000000e+09
1.280000000000000000e+02,3.220000000000000000e+02,9.260000000000000000e+02,4.510000000000000000e+02,1.840000000000000000e+02,1.830000000000000000e+02,6.700000000000000000e+01,7.500000000000000000e+01,7.000000000000000666e-02,5.411307800000000000e+09
1.430000000000000000e+02,3.240000000000000000e+02,9.810000000000000000e+02,4.730000000000000000e+02,2.070000000000000000e+02,1.940000000000000000e+02,7.100000000000000000e+01,8.400000000000000000e+01,7.000000000000000666e-02,5.428933800000000000e+09
1.440000000000000000e+02,3.510000000000000000e+02,1.038000000000000000e+03,4.550000000000000000e+02,1.900000000000000000e+02,1.820000000000000000e+02,6.300000000000000000e+01,7.900000000000000000e+01,7.000000000000000666e-02,5.446602200000000000e+09
1.560000000000000000e+02,3.780000000000000000e+02,1.033000000000000000e+03,4.850000000000000000e+02,1.850000000000000000e+02,2.340000000000000000e+02,6.000000000000000000e+01,8.200000000000000000e+01,7.000000000000000666e-02,5.465001500000000000e+09
1.540000000000000000e+02,3.480000000000000000e+02,1.008000000000000000e+03,4.510000000000000000e+02,2.100000000000000000e+02,2.730000000000000000e+02,6.400000000000000000e+01,8.600000000000000000e+01,7.000000000000000666e-02,5.485330600000000000e+09
1.560000000000000000e+02,3.420000000000000000e+02,1.074000000000000000e+03,4.420000000000000000e+02,2.260000000000000000e+02,2.700000000000000000e+02,6.000000000000000000e+01,8.700000000000000000e+01,5.999999999999999778e-02,5.505207700000000000e+09
1.510000000000000000e+02,3.460000000000000000e+02,1.040000000000000000e+03,4.060000000000000000e+02,2.580000000000000000e+02,2.770000000000000000e+02,6.300000000000000000e+01,8.200000000000000000e+01,5.999999999999999778e-02,5.523182600000000000e+09
1.460000000000000000e+02,3.160000000000000000e+02,9.170000000000000000e+02,4.030000000000000000e+02,2.590000000000000000e+02,2.770000000000000000e+02,6.300000000000000000e+01,8.200000000000000000e+01,5.999999999999999778e-02,5.543800800000000000e+09
1.270000000000000000e+02,2.690000000000000000e+02,9.550000000000000000e+02,3.760000000000000000e+02,2.520000000000000000e+02,2.180000000000000000e+02,6.100000000000000000e+01,7.600000000000000000e+01,5.999999999999999778e-02,5.565064000000000000e+09
1.140000000000000000e+02,2.190000000000000000e+02,9.320000000000000000e+02,3.710000000000000000e+02,2.360000000000000000e+02,1.460000000000000000e+02,5.800000000000000000e+01,6.800000000000000000e+01,5.999999999999999778e-02,5.584277100000000000e+09
1.060000000000000000e+02,2.100000000000000000e+02,8.400000000000000000e+02,3.800000000000000000e+02,2.170000000000000000e+02,1.260000000000000000e+02,5.200000000000000000e+01,6.600000000000000000e+01,7.000000000000000666e-02,5.605221300000000000e+09
7.800000000000000000e+01,1.860000000000000000e+02,8.910000000000000000e+02,3.640000000000000000e+02,1.500000000000000000e+02,7.700000000000000000e+01,4.200000000000000000e+01,5.000000000000000000e+01,8.000000000000000167e-02,5.623607500000000000e+09
7.900000000000000000e+01,2.040000000000000000e+02,9.160000000000000000e+02,3.880000000000000000e+02,1.390000000000000000e+02,7.300000000000000000e+01,4.300000000000000000e+01,4.900000000000000000e+01,8.999999999999999667e-02,5.645616700000000000e+09
9.500000000000000000e+01,2.310000000000000000e+02,9.150000000000000000e+02,3.680000000000000000e+02,1.350000000000000000e+02,6.600000000000000000e+01,4.300000000000000000e+01,5.300000000000000000e+01,1.000000000000000056e-01,5.664573800000000000e+09
1.070000000000000000e+02,2.950000000000000000e+02,1.011000000000000000e+03,3.900000000000000000e+02,1.470000000000000000e+02,7.400000000000000000e+01,4.700000000000000000e+01,6.100000000000000000e+01,1.100000000000000006e-01,5.684522100000000000e+09
1.140000000000000000e+02,3.150000000000000000e+02,1.083000000000000000e+03,3.780000000000000000e+02,1.380000000000000000e+02,7.200000000000000000e+01,5.400000000000000000e+01,6.000000000000000000e+01,1.100000000000000006e-01,5.702243100000000000e+09
1.340000000000000000e+02,3.370000000000000000e+02,1.014000000000000000e+03,4.100000000000000000e+02,1.590000000000000000e+02,8.700000000000000000e+01,6.000000000000000000e+01,7.100000000000000000e+01,1.199999999999999956e-01,5.723647100000000000e+09
1.470000000000000000e+02,3.670000000000000000e+02,1.060000000000000000e+03,4.250000000000000000e+02,1.730000000000000000e+02,9.700000000000000000e+01,6.500000000000000000e+01,7.800000000000000000e+01,1.199999999999999956e-01,5.744937500000000000e+09
1.550000000000000000e+02,3.800000000000000000e+02,1.090000000000000000e+03,4.610000000000000000e+02,1.810000000000000000e+02,1.260000000000000000e+02,6.700000000000000000e+01,8.800000000000000000e+01,1.300000000000000044e-01,5.765154300000000000e+09
1.470000000000000000e+02,3.570000000000000000e+02,1.015000000000000000e+03,4.380000000000000000e+02,1.610000000000000000e+02,1.220000000000000000e+02,6.400000000000000000e+01,8.200000000000000000e+01,1.400000000000000133e-01,5.785838900000000000e+09
1.420000000000000000e+02,3.390000000000000000e+02,1.041000000000000000e+03,4.290000000000000000e+02,1.610000000000000000e+02,1.240000000000000000e+02,6.400000000000000000e+01,8.200000000000000000e+01,1.400000000000000133e-01,5.804233700000000000e+09
1.230000000000000000e+02,3.340000000000000000e+02,1.069000000000000000e+03,3.630000000000000000e+02,1.330000000000000000e+02,1.200000000000000000e+02,5.800000000000000000e+01,7.200000000000000000e+01,1.400000000000000133e-01,5.825699200000000000e+09
1.290000000000000000e+02,3.690000000000000000e+02,1.006000000000000000e+03,3.270000000000000000e+02,1.370000000000000000e+02,1.260000000000000000e+02,6.000000000000000000e+01,7.100000000000000000e+01,1.400000000000000133e-01,5.848587700000000000e+09
1.090000000000000000e+02,3.650000000000000000e+02,1.018000000000000000e+03,2.810000000000000000e+02,1.280000000000000000e+02,1.010000000000000000e+02,5.800000000000000000e+01,5.400000000000000000e+01,1.300000000000000044e-01,5.868591500000000000e+09
1.180000000000000000e+02,3.540000000000000000e+02,9.540000000000000000e+02,2.930000000000000000e+02,1.340000000000000000e+02,1.060000000000000000e+02,6.000000000000000000e+01,6.000000000000000000e+01,1.300000000000000044e-01,5.887585200000000000e+09
1.190000000000000000e+02,3.540000000000000000e+02,8.360000000000000000e+02,2.990000000000000000e+02,1.420000000000000000e+02,1.100000000000000000e+02,5.600000000000000000e+01,6.100000000000000000e+01,1.300000000000000044e-01,5.905434200000000000e+09
1.190000000000000000e+02,3.480000000000000000e+02,8.560000000000000000e+02,3.310000000000000000e+02,1.520000000000000000e+02,1.090000000000000000e+02,5.500000000000000000e+01,6.400000000000000000e+01,1.300000000000000044e-01,5.925278600000000000e+09
1.270000000000000000e+02,3.340000000000000000e+02,9.420000000000000000e+02,3.470000000000000000e+02,1.390000000000000000e+02,9.200000000000000000e+01,5.300000000000000000e+01,6.800000000000000000e+01,1.300000000000000044e-01,5.944336700000000000e+09
1.310000000000000000e+02,3.120000000000000000e+02,8.560000000000000000e+02,3.610000000000000000e+02,1.430000000000000000e+02,8.700000000000000000e+01,5.400000000000000000e+01,7.300000000000000000e+01,1.400000000000000133e-01,5.964873400000000000e+09
1.330000000000000000e+02,3.040000000000000000e+02,9.350000000000000000e+02,3.590000000000000000e+02,1.380000000000000000e+02,7.600000000000000000e+01,5.500000000000000000e+01,7.600000000000000000e+01,1.400000000000000133e-01,5.985525100000000000e+09
1.350000000000000000e+02,3.300000000000000000e+02,1.051000000000000000e+03,3.640000000000000000e+02,1.280000000000000000e+02,7.200000000000000000e+01,5.200000000000000000e+01,7.600000000000000000e+01,1.499999999999999944e-01,6.004020300000000000e+09
1.270000000000000000e+02,3.150000000000000000e+02,1.045000000000000000e+03,3.230000000000000000e+02,1.120000000000000000e+02,1.810000000000000000e+02,5.300000000000000000e+01,7.100000000000000000e+01,1.499999999999999944e-01,6.024916900000000000e+09
9.600000000000000000e+01,2.460000000000000000e+02,9.460000000000000000e+02,2.940000000000000000e+02,1.040000000000000000e+02,2.160000000000000000e+02,4.600000000000000000e+01,6.400000000000000000e+01,1.600000000000000033e-01,6.045609500000000000e+09
9.100000000000000000e+01,2.480000000000000000e+02,9.980000000000000000e+02,3.120000000000000000e+02,1.070000000000000000e+02,2.200000000000000000e+02,4.300000000000000000e+01,6.200000000000000000e+01,1.700000000000000122e-01,6.064447000000000000e+09
9.000000000000000000e+01,2.830000000000000000e+02,9.930000000000000000e+02,3.490000000000000000e+02,1.160000000000000000e+02,2.230000000000000000e+02,4.400000000000000000e+01,6.000000000000000000e+01,1.799999999999999933e-01,6.083562300000000000e+09
9.800000000000000000e+01,2.850000000000000000e+02,8.900000000000000000e+02,3.500000000000000000e+02,1.290000000000000000e+02,2.240000000000000000e+02,6.000000000000000000e+01,6.600000000000000000e+01,1.799999999999999933e-01,6.106135200000000000e+09
1.320000000000000000e+02,3.140000000000000000e+02,9.080000000000000000e+02,4.070000000000000000e+02,1.610000000000000000e+02,1.530000000000000000e+02,6.000000000000000000e+01,8.200000000000000000e+01,1.900000000000000022e-01,6.125259200000000000e+09
1.440000000000000000e+02,3.310000000000000000e+02,1.020000000000000000e+03,4.060000000000000000e+02,1.620000000000000000e+02,9.800000000000000000e+01,6.400000000000000000e+01,8.600000000000000000e+01,1.900000000000000022e-01,6.145625400000000000e+09
1.520000000000000000e+02,3.280000000000000000e+02,9.900000000000000000e+02,3.910000000000000000e+02,1.680000000000000000e+02,1.020000000000000000e+02,6.600000000000000000e+01,9.000000000000000000e+01,1.900000000000000022e-01,6.166413600000000000e+09
1.640000000000000000e+02,3.240000000000000000e+02,1.079000000000000000e+03,3.840000000000000000e+02,1.960000000000000000e+02,1.060000000000000000e+02,6.600000000000000000e+01,9.600000000000000000e+01,1.900000000000000022e-01,6.185345100000000000e+09
1.790000000000000000e+02,3.150000000000000000e+02,1.129000000000000000e+03,4.670000000000000000e+02,2.280000000000000000e+02,1.200000000000000000e+02,6.800000000000000000e+01,1.060000000000000000e+02,1.900000000000000022e-01,6.205825600000000000e+09
1.970000000000000000e+02,3.710000000000000000e+02,1.155000000000000000e+03,4.850000000000000000e+02,2.270000000000000000e+02,1.270000000000000000e+02,7.100000000000000000e+01,1.160000000000000000e+02,1.799999999999999933e-01,6.224097700000000000e+09
1.940000000000000000e+02,3.730000000000000000e+02,1.081000000000000000e+03,5.110000000000000000e+02,2.400000000000000000e+02,1.350000000000000000e+02,7.000000000000000000e+01,1.160000000000000000e+02,1.799999999999999933e-01,6.245323300000000000e+09
2.090000000000000000e+02,4.390000000000000000e+02,1.091000000000000000e+03,5.220000000000000000e+02,2.400000000000000000e+02,1.390000000000000000e+02,7.400000000000000000e+01,1.190000000000000000e+02,1.700000000000000122e-01,6.266802500000000000e+09
2.300000000000000000e+02,4.620000000000000000e+02,1.041000000000000000e+03,5.860000000000000000e+02,2.400000000000000000e+02,1.470000000000000000e+02,8.200000000000000000e+01,1.340000000000000000e+02,1.600000000000000033e-01,6.287509100000000000e+09
2.270000000000000000e+02,4.540000000000000000e+02,1.103000000000000000e+03,6.500000000000000000e+02,2.250000000000000000e+02,1.420000000000000000e+02,7.400000000000000000e+01,1.330000000000000000e+02,1.499999999999999944e-01,6.308659400000000000e+09
2.170000000000000000e+02,4.230000000000000000e+02,1.105000000000000000e+03,6.230000000000000000e+02,2.170000000000000000e+02,1.390000000000000000e+02,7.800000000000000000e+01,1.270000000000000000e+02,1.400000000000000133e-01,6.327188100000000000e+09
2.240000000000000000e+02,4.200000000000000000e+02,1.159000000000000000e+03,6.500000000000000000e+02,2.230000000000000000e+02,1.360000000000000000e+02,7.900000000000000000e+01,1.340000000000000000e+02,1.400000000000000133e-01,6.346000200000000000e+09
2.180000000000000000e+02,3.690000000000000000e+02,1.175000000000000000e+03,6.480000000000000000e+02,2.240000000000000000e+02,1.310000000000000000e+02,7.600000000000000000e+01,1.370000000000000000e+02,1.400000000000000133e-01,6.363789700000000000e+09
2.160000000000000000e+02,4.200000000000000000e+02,1.104000000000000000e+03,6.460000000000000000e+02,2.310000000000000000e+02,1.320000000000000000e+02,7.200000000000000000e+01,1.330000000000000000e+02,1.400000000000000133e-01,6.384570000000000000e+09
2.210000000000000000e+02,4.750000000000000000e+02,1.030000000000000000e+03,5.590000000000000000e+02,2.270000000000000000e+02,1.350000000000000000e+02,7.900000000000000000e+01,1.360000000000000000e+02,1.400000000000000133e-01,6.405650500000000000e+09
2.180000000000000000e+02,5.040000000000000000e+02,9.810000000000000000e+02,6.960000000000000000e+02,2.330000000000000000e+02,1.390000000000000000e+02,7.700000000000000000e+01,1.400000000000000000e+02,1.300000000000000044e-01,6.424752800000000000e+09
2.340000000000000000e+02,5.660000000000000000e+02,9.240000000000000000e+02,7.290000000000000000e+02,2.480000000000000000e+02,1.490000000000000000e+02,8.900000000000000000e+01,1.470000000000000000e+02,1.300000000000000044e-01,6.445051800000000000e+09
2.280000000000000000e+02,5.680000000000000000e+02,9.390000000000000000e+02,7.660000000000000000e+02,2.750000000000000000e+02,1.500000000000000000e+02,9.800000000000000000e+01,1.440000000000000000e+02,1.199999999999999956e-01,6.464394700000000000e+09
2.200000000000000000e+02,5.600000000000000000e+02,9.880000000000000000e+02,7.420000000000000000e+02,2.580000000000000000e+02,1.430000000000000000e+02,1.000000000000000000e+02,1.400000000000000000e+02,1.199999999999999956e-01,6.483354800000000000e+09
2.060000000000000000e+02,5.170000000000000000e+02,9.610000000000000000e+02,7.280000000000000000e+02,2.530000000000000000e+02,1.350000000000000000e+02,9.700000000000000000e+01,1.300000000000000000e+02,1.199999999999999956e-01,6.504379900000000000e+09
1.990000000000000000e+02,4.740000000000000000e+02,1.010000000000000000e+03,6.010000000000000000e+02,2.360000000000000000e+02,1.270000000000000000e+02,9.400000000000000000e+01,1.180000000000000000e+02,1.100000000000000006e-01,6.525255600000000000e+09
1.960000000000000000e+02,4.500000000000000000e+02,1.014000000000000000e+03,5.440000000000000000e+02,2.190000000000000000e+02,1.200000000000000000e+02,8.600000000000000000e+01,1.100000000000000000e+02,1.100000000000000006e-01,6.543256200000000000e+09
1.990000000000000000e+02,4.670000000000000000e+02,9.730000000000000000e+02,4.990000000000000000e+02,1.780000000000000000e+02,1.220000000000000000e+02,7.800000000000000000e+01,1.110000000000000000e+02,1.000000000000000056e-01,6.565168400000000000e+09
1.810000000000000000e+02,4.010000000000000000e+02,9.560000000000000000e+02,4.440000000000000000e+02,1.730000000000000000e+02,1.210000000000000000e+02,7.100000000000000000e+01,1.040000000000000000e+02,1.000000000000000056e-01,6.584011400000000000e+09
1.820000000000000000e+02,3.890000000000000000e+02,1.049000000000000000e+03,4.430000000000000000e+02,1.740000000000000000e+02,1.190000000000000000e+02,6.500000000000000000e+01,1.110000000000000000e+02,1.000000000000000056e-01,6.602959000000000000e+09
1.820000000000000000e+02,3.870000000000000000e+02,9.720000000000000000e+02,4.530000000000000000e+02,1.890000000000000000e+02,1.150000000000000000e+02,6.700000000000000000e+01,1.120000000000000000e+02,1.000000000000000056e-01,6.625281600000000000e+09
1.650000000000000000e+02,3.290000000000000000e+02,1.033000000000000000e+03,4.570000000000000000e+02,1.780000000000000000e+02,1.110000000000000000e+02,6.800000000000000000e+01,1.070000000000000000e+02,1.000000000000000056e-01,6.645877000000000000e+09
1.710000000000000000e+02,3.180000000000000000e+02,1.056000000000000000e+03,4.460000000000000000e+02,1.960000000000000000e+02,1.100000000000000000e+02,7.500000000000000000e+01,1.130000000000000000e+02,1.000000000000000056e-01,6.665212600000000000e+09
2.110000000000000000e+02,3.900000000000000000e+02,1.106000000000000000e+03,5.700000000000000000e+02,2.260000000000000000e+02,1.280000000000000000e+02,8.500000000000000000e+01,1.340000000000000000e+02,1.000000000000000056e-01,6.683921000000000000e+09
2.100000000000000000e+02,4.170000000000000000e+02,9.900000000000000000e+02,5.380000000000000000e+02,2.200000000000000000e+02,1.390000000000000000e+02,9.000000000000000000e+01,1.270000000000000000e+02,1.000000000000000056e-01,6.703240000000000000e+09
2.120000000000000000e+02,4.260000000000000000e+02,1.000000000000000000e+03,5.600000000000000000e+02,2.160000000000000000e+02,1.430000000000000000e+02,8.900000000000000000e+01,1.290000000000000000e+02,1.000000000000000056e-01,6.723737400000000000e+09
2.350000000000000000e+02,4.730000000000000000e+02,9.410000000000000000e+02,5.840000000000000000e+02,2.280000000000000000e+02,1.450000000000000000e+02,9.800000000000000000e+01,1.390000000000000000e+02,1.000000000000000056e-01,6.745356200000000000e+09
2.320000000000000000e+02,4.660000000000000000e+02,8.670000000000000000e+02,6.200000000000000000e+02,2.230000000000000000e+02,1.440000000000000000e+02,9.300000000000000000e+01,1.350000000000000000e+02,1.000000000000000056e-01,6.768164900000000000e+09
1.990000000000000000e+02,4.230000000000000000e+02,8.630000000000000000e+02,5.440000000000000000e+02,1.950000000000000000e+02,1.270000000000000000e+02,8.400000000000000000e+01,1.140000000000000000e+02,1.100000000000000006e-01,6.787224400000000000e+09
1.980000000000000000e+02,4.050000000000000000e+02,9.160000000000000000e+02,5.760000000000000000e+02,1.960000000000000000e+02,1.080000000000000000e+02,8.000000000000000000e+01,1.140000000000000000e+02,1.100000000000000006e-01,6.805679500000000000e+09
1.850000000000000000e+02,3.750000000000000000e+02,8.730000000000000000e+02,5.280000000000000000e+02,1.970000000000000000e+02,1.010000000000000000e+02,8.000000000000000000e+01,1.070000000000000000e+02,1.100000000000000006e-01,6.825535000000000000e+09
1.420000000000000000e+02,3.280000000000000000e+02,8.580000000000000000e+02,4.810000000000000000e+02,1.750000000000000000e+02,9.400000000000000000e+01,6.400000000000000000e+01,8.300000000000000000e+01,1.100000000000000006e-01,6.848276400000000000e+09
1.330000000000000000e+02,3.300000000000000000e+02,8.890000000000000000e+02,4.180000000000000000e+02,1.640000000000000000e+02,8.700000000000000000e+01,5.800000000000000000e+01,7.800000000000000000e+01,1.100000000000000006e-01,6.866904100000000000e+09
1.200000000000000000e+02,2.850000000000000000e+02,7.860000000000000000e+02,3.860000000000000000e+02,1.470000000000000000e+02,8.400000000000000000e+01,5.700000000000000000e+01,7.000000000000000000e+01,1.199999999999999956e-01,6.886160200000000000e+09
1.910000000000000000e+02,3.800000000000000000e+02,7.660000000000000000e+02,4.800000000000000000e+02,2.030000000000000000e+02,1.270000000000000000e+02,7.700000000000000000e+01,1.080000000000000000e+02,1.199999999999999956e-01,6.905884100000000000e+09
1.940000000000000000e+02,3.740000000000000000e+02,8.040000000000000000e+02,4.950000000000000000e+02,2.130000000000000000e+02,1.350000000000000000e+02,7.600000000000000000e+01,1.080000000000000000e+02,1.199999999999999956e-01,6.925071100000000000e+09
2.130000000000000000e+02,4.050000000000000000e+02,9.020000000000000000e+02,5.490000000000000000e+02,2.250000000000000000e+02,1.460000000000000000e+02,7.700000000000000000e+01,1.170000000000000000e+02,1.199999999999999956e-01,6.944146100000000000e+09
2.070000000000000000e+02,3.840000000000000000e+02,8.730000000000000000e+02,5.440000000000000000e+02,2.200000000000000000e+02,1.380000000000000000e+02,7.700000000000000000e+01,1.120000000000000000e+02,1.199999999999999956e-01,6.965727700000000000e+09
2.340000000000000000e+02,4.530000000000000000e+02,8.960000000000000000e+02,6.020000000000000000e+02,2.490000000000000000e+02,1.590000000000000000e+02,8.700000000000000000e+01,1.260000000000000000e+02,1.199999999999999956e-01,6.984253200000000000e+09
2.110000000000000000e+02,4.560000000000000000e+02,8.580000000000000000e+02,6.100000000000000000e+02,2.320000000000000000e+02,1.410000000000000000e+02,7.500000000000000000e+01,1.090000000000000000e+02,1.199999999999999956e-01,7.006870000000000000e+09
2.330000000000000000e+02,4.990000000000000000e+02,9.630000000000000000e+02,6.080000000000000000e+02,2.260000000000000000e+02,1.380000000000000000e+02,8.100000000000000000e+01,1.200000000000000000e+02,1.199999999999999956e-01,7.025221300000000000e+09
2.150000000000000000e+02,4.500000000000000000e+02,8.700000000000000000e+02,5.420000000000000000e+02,2.100000000000000000e+02,1.260000000000000000e+02,7.600000000000000000e+01,1.140000000000000000e+02,1.199999999999999956e-01,7.044464000000000000e+09
2.200000000000000000e+02,4.880000000000000000e+02,9.780000000000000000e+02,5.530000000000000000e+02,2.110000000000000000e+02,1.390000000000000000e+02,7.600000000000000000e+01,1.160000000000000000e+02,1.199999999999999956e-01,7.070741700000000000e+09
1.900000000000000000e+02,4.420000000000000000e+02,9.780000000000000000e+02,4.650000000000000000e+02,1.750000000000000000e+02,1.120000000000000000e+02,6.200000000000000000e+01,9.900000000000000000e+01,1.199999999999999956e-01,7.089816600000000000e+09
1.540000000000000000e+02,4.030000000000000000e+02,1.032000000000000000e+03,3.150000000000000000e+02,1.310000000000000000e+02,9.900000000000000000e+01,5.200000000000000000e+01,8.500000000000000000e+01,1.100000000000000006e-01,7.108446100000000000e+09
1.370000000000000000e+02,3.690000000000000000e+02,1.053000000000000000e+03,4.230000000000000000e+02,1.410000000000000000e+02,1.030000000000000000e+02,4.600000000000000000e+01,8.700000000000000000e+01,1.100000000000000006e-01,7.126255500000000000e+09
1.340000000000000000e+02,3.840000000000000000e+02,1.069000000000000000e+03,4.480000000000000000e+02,1.460000000000000000e+02,1.120000000000000000e+02,4.900000000000000000e+01,8.500000000000000000e+01,1.100000000000000006e-01,7.145223000000000000e+09
1.340000000000000000e+02,3.650000000000000000e+02,1.019000000000000000e+03,4.810000000000000000e+02,1.570000000000000000e+02,1.830000000000000000e+02,4.900000000000000000e+01,8.700000000000000000e+01,1.100000000000000006e-01,7.163529500000000000e+09
1.420000000000000000e+02,3.710000000000000000e+02,1.038000000000000000e+03,5.080000000000000000e+02,1.710000000000000000e+02,7.020000000000000000e+02,5.100000000000000000e+01,9.800000000000000000e+01,1.100000000000000006e-01,7.184166400000000000e+09
1.550000000000000000e+02,3.480000000000000000e+02,1.098000000000000000e+03,5.170000000000000000e+02,1.960000000000000000e+02,1.176000000000000000e+03,6.000000000000000000e+01,1.020000000000000000e+02,1.199999999999999956e-01,7.205272000000000000e+09
1.330000000000000000e+02,3.340000000000000000e+02,1.054000000000000000e+03,4.110000000000000000e+02,1.710000000000000000e+02,1.336000000000000000e+03,5.700000000000000000e+01,8.600000000000000000e+01,1.199999999999999956e-01,7.223046700000000000e+09
1.320000000000000000e+02,3.110000000000000000e+02,1.071000000000000000e+03,3.810000000000000000e+02,1.710000000000000000e+02,1.347000000000000000e+03,5.400000000000000000e+01,8.500000000000000000e+01,1.199999999999999956e-01,7.244707500000000000e+09
1.390000000000000000e+02,2.850000000000000000e+02,1.107000000000000000e+03,4.030000000000000000e+02,1.650000000000000000e+02,1.347000000000000000e+03,5.900000000000000000e+01,8.600000000000000000e+01,1.300000000000000044e-01,7.264787400000000000e+09
1.350000000000000000e+02,3.010000000000000000e+02,1.062000000000000000e+03,4.070000000000000000e+02,1.710000000000000000e+02,1.167000000000000000e+03,6.000000000000000000e+01,7.600000000000000000e+01,1.400000000000000133e-01,7.283874800000000000e+09
1.240000000000000000e+02,2.900000000000000000e+02,9.070000000000000000e+02,4.060000000000000000e+02,1.450000000000000000e+02,6.910000000000000000e+02,5.800000000000000000e+01,7.300000000000000000e+01,1.499999999999999944e-01,7.305501200000000000e+09
1.270000000000000000e+02,3.030000000000000000e+02,8.610000000000000000e+02,4.470000000000000000e+02,1.480000000000000000e+02,2.740000000000000000e+02,6.000000000000000000e+01,7.400000000000000000e+01,1.600000000000000033e-01,7.324857600000000000e+09
1.290000000000000000e+02,3.360000000000000000e+02,8.600000000000000000e+02,4.600000000000000000e+02,1.580000000000000000e+02,2.170000000000000000e+02,6.400000000000000000e+01,7.300000000000000000e+01,1.600000000000000033e-01,7.343655400000000000e+09
1.330000000000000000e+02,3.800000000000000000e+02,7.910000000000000000e+02,4.250000000000000000e+02,1.540000000000000000e+02,1.620000000000000000e+02,6.100000000000000000e+01,8.100000000000000000e+01,1.600000000000000033e-01,7.373078000000000000e+09
1.300000000000000000e+02,3.760000000000000000e+02,8.410000000000000000e+02,3.960000000000000000e+02,1.400000000000000000e+02,1.310000000000000000e+02,6.100000000000000000e+01,7.800000000000000000e+01,1.700000000000000122e-01,7.391987400000000000e+09
1.260000000000000000e+02,3.810000000000000000e+02,9.500000000000000000e+02,3.710000000000000000e+02,1.300000000000000000e+02,1.120000000000000000e+02,5.700000000000000000e+01,7.400000000000000000e+01,1.700000000000000122e-01,7.411653000000000000e+09
1.300000000000000000e+02,3.680000000000000000e+02,1.072000000000000000e+03,3.650000000000000000e+02,1.340000000000000000e+02,1.060000000000000000e+02,5.300000000000000000e+01,7.700000000000000000e+01,1.700000000000000122e-01,7.428950900000000000e+09
1.420000000000000000e+02,3.630000000000000000e+02,1.067000000000000000e+03,3.500000000000000000e+02,1.260000000000000000e+02,1.170000000000000000e+02,5.100000000000000000e+01,9.000000000000000000e+01,1.700000000000000122e-01,7.447122400000000000e+09
1.510000000000000000e+02,3.410000000000000000e+02,1.059000000000000000e+03,3.660000000000000000e+02,1.360000000000000000e+02,1.120000000000000000e+02,6.200000000000000000e+01,9.700000000000000000e+01,1.700000000000000122e-01,7.464792400000000000e+09
1.580000000000000000e+02,3.400000000000000000e+02,1.024000000000000000e+03,3.680000000000000000e+02,1.340000000000000000e+02,1.150000000000000000e+02,6.300000000000000000e+01,1.000000000000000000e+02,1.799999999999999933e-01,7.483479000000000000e+09
1.540000000000000000e+02,3.250000000000000000e+02,1.006000000000000000e+03,3.610000000000000000e+02,1.320000000000000000e+02,1.100000000000000000e+02,6.100000000000000000e+01,9.900000000000000000e+01,1.799999999999999933e-01,7.505404900000000000e+09
1.580000000000000000e+02,3.460000000000000000e+02,9.180000000000000000e+02,3.140000000000000000e+02,1.320000000000000000e+02,1.200000000000000000e+02,6.300000000000000000e+01,1.010000000000000000e+02,1.700000000000000122e-01,7.527508900000000000e+09
1.520000000000000000e+02,3.390000000000000000e+02,8.810000000000000000e+02,3.340000000000000000e+02,1.420000000000000000e+02,1.080000000000000000e+02,6.300000000000000000e+01,9.400000000000000000e+01,1.700000000000000122e-01,7.547004500000000000e+09
1.400000000000000000e+02,3.470000000000000000e+02,8.780000000000000000e+02,3.070000000000000000e+02,1.350000000000000000e+02,9.400000000000000000e+01,5.800000000000000000e+01,8.000000000000000000e+01,1.700000000000000122e-01,7.564418800000000000e+09
1.320000000000000000e+02,3.090000000000000000e+02,9.070000000000000000e+02,3.100000000000000000e+02,1.330000000000000000e+02,9.400000000000000000e+01,5.500000000000000000e+01,7.700000000000000000e+01,1.700000000000000122e-01,7.583525500000000000e+09
1.330000000000000000e+02,3.100000000000000000e+02,8.660000000000000000e+02,3.420000000000000000e+02,1.420000000000000000e+02,1.040000000000000000e+02,5.600000000000000000e+01,7.700000000000000000e+01,1.700000000000000122e-01,7.603558100000000000e+09
1.430000000000000000e+02,3.180000000000000000e+02,8.110000000000000000e+02,3.720000000000000000e+02,1.520000000000000000e+02,1.050000000000000000e+02,6.200000000000000000e+01,9.000000000000000000e+01,1.799999999999999933e-01,7.625020700000000000e+09
1.510000000000000000e+02,3.300000000000000000e+02,8.600000000000000000e+02,4.030000000000000000e+02,1.550000000000000000e+02,1.060000000000000000e+02,6.400000000000000000e+01,8.900000000000000000e+01,1.799999999999999933e-01,7.643865600000000000e+09
1.440000000000000000e+02,3.010000000000000000e+02,9.060000000000000000e+02,4.040000000000000000e+02,1.530000000000000000e+02,1.120000000000000000e+02,6.400000000000000000e+01,8.800000000000000000e+01,1.799999999999999933e-01,7.666010000000000000e+09
1.450000000000000000e+02,3.230000000000000000e+02,9.160000000000000000e+02,4.110000000000000000e+02,1.500000000000000000e+02,1.130000000000000000e+02,6.400000000000000000e+01,8.700000000000000000e+01,1.799999999999999933e-01,7.685817300000000000e+09
1.400000000000000000e+02,3.100000000000000000e+02,8.790000000000000000e+02,3.970000000000000000e+02,1.410000000000000000e+02,1.070000000000000000e+02,6.300000000000000000e+01,8.500000000000000000e+01,1.799999999999999933e-01,7.706212400000000000e+09
1.300000000000000000e+02,3.040000000000000000e+02,8.830000000000000000e+02,4.170000000000000000e+02,1.310000000000000000e+02,1.060000000000000000e+02,5.500000000000000000e+01,7.200000000000000000e+01,1.900000000000000022e-01,7.725544700000000000e+09
1.230000000000000000e+02,2.980000000000000000e+02,8.600000000000000000e+02,4.070000000000000000e+02,1.160000000000000000e+02,1.050000000000000000e+02,5.600000000000000000e+01,7.200000000000000000e+01,1.900000000000000022e-01,7.744489500000000000e+09
1.200000000000000000e+02,2.950000000000000000e+02,8.750000000000000000e+02,3.950000000000000000e+02,1.230000000000000000e+02,1.020000000000000000e+02,4.800000000000000000e+01,6.800000000000000000e+01,1.900000000000000022e-01,7.762606500000000000e+09
1.340000000000000000e+02,2.910000000000000000e+02,9.380000000000000000e+02,4.620000000000000000e+02,1.480000000000000000e+02,1.090000000000000000e+02,6.000000000000000000e+01,8.100000000000000000e+01,2.000000000000000111e-01,7.784007100000000000e+09
1.690000000000000000e+02,3.210000000000000000e+02,9.630000000000000000e+02,5.090000000000000000e+02,1.870000000000000000e+02,1.200000000000000000e+02,7.000000000000000000e+01,1.030000000000000000e+02,2.000000000000000111e-01,7.804827100000000000e+09
1.700000000000000000e+02,3.630000000000000000e+02,9.950000000000000000e+02,4.830000000000000000e+02,1.890000000000000000e+02,1.130000000000000000e+02,7.500000000000000000e+01,1.020000000000000000e+02,1.900000000000000022e-01,7.831127400000000000e+09
1.650000000000000000e+02,3.600000000000000000e+02,1.022000000000000000e+03,4.550000000000000000e+02,1.850000000000000000e+02,1.140000000000000000e+02,7.100000000000000000e+01,1.000000000000000000e+02,1.900000000000000022e-01,7.851022500000000000e+09
1.820000000000000000e+02,4.190000000000000000e+02,9.800000000000000000e+02,4.810000000000000000e+02,1.910000000000000000e+02,1.260000000000000000e+02,7.700000000000000000e+01,1.130000000000000000e+02,1.799999999999999933e-01,7.869396900000000000e+09
1.710000000000000000e+02,4.050000000000000000e+02,8.710000000000000000e+02,4.050000000000000000e+02,1.760000000000000000e+02,1.180000000000000000e+02,6.900000000000000000e+01,1.050000000000000000e+02,1.799999999999999933e-01,7.889205500000000000e+09
1.610000000000000000e+02,4.190000000000000000e+02,8.980000000000000000e+02,3.750000000000000000e+02,1.490000000000000000e+02,1.150000000000000000e+02,6.200000000000000000e+01,9.900000000000000000e+01,1.799999999999999933e-01,7.908374900000000000e+09
1.550000000000000000e+02,3.750000000000000000e+02,8.650000000000000000e+02,3.820000000000000000e+02,1.400000000000000000e+02,1.190000000000000000e+02,5.700000000000000000e+01,9.600000000000000000e+01,1.700000000000000122e-01,7.926526000000000000e+09
1.530000000000000000e+02,3.690000000000000000e+02,7.900000000000000000e+02,3.830000000000000000e+02,1.450000000000000000e+02,1.140000000000000000e+02,5.600000000000000000e+01,9.500000000000000000e+01,1.700000000000000122e-01,7.947775000000000000e+09
1.300000000000000000e+02,3.200000000000000000e+02,7.380000000000000000e+02,3.310000000000000000e+02,1.390000000000000000e+02,1.020000000000000000e+02,5.000000000000000000e+01,7.800000000000000000e+01,1.700000000000000122e-01,7.968888900000000000e+09
1.290000000000000000e+02,3.270000000000000000e+02,8.020000000000000000e+02,3.580000000000000000e+02,1.580000000000000000e+02,9.900000000000000000e+01,4.800000000000000000e+01,7.800000000000000000e+01,1.600000000000000033e-01,7.987603700000000000e+09
9.700000000000000000e+01,2.870000000000000000e+02,7.770000000000000000e+02,3.140000000000000000e+02,1.440000000000000000e+02,9.700000000000000000e+01,4.000000000000000000e+01,5.900000000000000000e+01,1.600000000000000033e-01,8.012475000000000000e+09
8.700000000000000000e+01,2.650000000000000000e+02,7.420000000000000000e+02,2.890000000000000000e+02,1.490000000000000000e+02,9.400000000000000000e+01,4.100000000000000000e+01,5.600000000000000000e+01,1.700000000000000122e-01,8.029905300000000000e+09
1.080000000000000000e+02,2.550000000000000000e+02,8.430000000000000000e+02,3.350000000000000000e+02,1.470000000000000000e+02,1.040000000000000000e+02,4.600000000000000000e+01,7.100000000000000000e+01,1.700000000000000122e-01,8.048179000000000000e+09
1.000000000000000000e+02,2.140000000000000000e+02,8.910000000000000000e+02,3.280000000000000000e+02,1.590000000000000000e+02,1.030000000000000000e+02,4.600000000000000000e+01,6.800000000000000000e+01,1.799999999999999933e-01,8.066986300000000000e+09
1.160000000000000000e+02,2.260000000000000000e+02,8.830000000000000000e+02,3.070000000000000000e+02,1.310000000000000000e+02,1.460000000000000000e+02,4.800000000000000000e+01,7.400000000000000000e+01,1.900000000000000022e-01,8.086754700000000000e+09
1.440000000000000000e+02,2.740000000000000000e+02,9.030000000000000000e+02,3.220000000000000000e+02,1.630000000000000000e+02,1.910000000000000000e+02,6.100000000000000000e+01,8.600000000000000000e+01,2.000000000000000111e-01,8.105575400000000000e+09
1.740000000000000000e+02,3.220000000000000000e+02,9.000000000000000000e+02,3.960000000000000000e+02,1.740000000000000000e+02,2.010000000000000000e+02,6.700000000000000000e+01,1.070000000000000000e+02,2.000000000000000111e-01,8.125356100000000000e+09
1.730000000000000000e+02,3.340000000000000000e+02,7.890000000000000000e+02,3.580000000000000000e+02,1.690000000000000000e+02,2.060000000000000000e+02,6.500000000000000000e+01,1.010000000000000000e+02,2.000000000000000111e-01,8.150574900000000000e+09
1.800000000000000000e+02,3.400000000000000000e+02,7.710000000000000000e+02,3.850000000000000000e+02,1.610000000000000000e+02,2.120000000000000000e+02,6.400000000000000000e+01,1.060000000000000000e+02,2.000000000000000111e-01,8.170439600000000000e+09
1.860000000000000000e+02,3.610000000000000000e+02,7.300000000000000000e+02,4.200000000000000000e+02,2.050000000000000000e+02,1.920000000000000000e+02,7.500000000000000000e+01,1.100000000000000000e+02,2.000000000000000111e-01,8.189141300000000000e+09
1.700000000000000000e+02,3.270000000000000000e+02,7.400000000000000000e+02,4.270000000000000000e+02,1.880000000000000000e+02,1.430000000000000000e+02,6.800000000000000000e+01,1.030000000000000000e+02,2.000000000000000111e-01,8.206553800000000000e+09
1.540000000000000000e+02,2.890000000000000000e+02,8.270000000000000000e+02,3.920000000000000000e+02,1.820000000000000000e+02,1.260000000000000000e+02,6.000000000000000000e+01,9.000000000000000000e+01,2.000000000000000111e-01,8.225515700000000000e+09
1.570000000000000000e+02,3.170000000000000000e+02,8.780000000000000000e+02,4.430000000000000000e+02,1.950000000000000000e+02,1.050000000000000000e+02,6.000000000000000000e+01,8.900000000000000000e+01,1.900000000000000022e-01,8.245213900000000000e+09
1.560000000000000000e+02,3.240000000000000000e+02,8.700000000000000000e+02,4.330000000000000000e+02,2.060000000000000000e+02,1.090000000000000000e+02,6.400000000000000000e+01,9.000000000000000000e+01,1.799999999999999933e-01,8.264447100000000000e+09
1.360000000000000000e+02,2.910000000000000000e+02,9.510000000000000000e+02,3.870000000000000000e+02,1.680000000000000000e+02,9.800000000000000000e+01,5.400000000000000000e+01,7.900000000000000000e+01,1.799999999999999933e-01,8.286016400000000000e+09
1.310000000000000000e+02,2.880000000000000000e+02,1.003000000000000000e+03,3.680000000000000000e+02,1.630000000000000000e+02,9.900000000000000000e+01,5.200000000000000000e+01,7.700000000000000000e+01,1.700000000000000122e-01,8.304853000000000000e+09
1.200000000000000000e+02,3.090000000000000000e+02,9.740000000000000000e+02,3.420000000000000000e+02,1.750000000000000000e+02,9.500000000000000000e+01,5.400000000000000000e+01,6.500000000000000000e+01,1.600000000000000033e-01,8.323191900000000000e+09
1.100000000000000000e+02,2.800000000000000000e+02,1.003000000000000000e+03,3.060000000000000000e+02,1.570000000000000000e+02,9.300000000000000000e+01,5.300000000000000000e+01,6.200000000000000000e+01,1.600000000000000033e-01,8.344039400000000000e+09
1.420000000000000000e+02,3.350000000000000000e+02,1.044000000000000000e+03,3.590000000000000000e+02,1.490000000000000000e+02,9.000000000000000000e+01,5.600000000000000000e+01,8.400000000000000000e+01,1.600000000000000033e-01,8.365511700000000000e+09
1.600000000000000000e+02,3.560000000000000000e+02,9.770000000000000000e+02,4.080000000000000000e+02,1.600000000000000000e+02,1.000000000000000000e+02,6.200000000000000000e+01,9.400000000000000000e+01,1.600000000000000033e-01,8.383615900000000000e+09
1.650000000000000000e+02,3.590000000000000000e+02,9.010000000000000000e+02,4.020000000000000000e+02,1.560000000000000000e+02,9.500000000000000000e+01,6.300000000000000000e+01,1.050000000000000000e+02,1.600000000000000033e-01,8.405428900000000000e+09
1.670000000000000000e+02,3.330000000000000000e+02,8.690000000000000000e+02,4.030000000000000000e+02,1.620000000000000000e+02,2.240000000000000000e+02,1.600000000000000000e+02,1.400000000000000000e+02,1.499999999999999944e-01,8.423693900000000000e+09
1.800000000000000000e+02,3.370000000000000000e+02,7.770000000000000000e+02,3.930000000000000000e+02,1.920000000000000000e+02,3.230000000000000000e+02,2.110000000000000000e+02,2.200000000000000000e+02,1.499999999999999944e-01,8.445167900000000000e+09
1.790000000000000000e+02,2.620000000000000000e+02,6.740000000000000000e+02,3.310000000000000000e+02,1.850000000000000000e+02,4.080000000000000000e+02,3.130000000000000000e+02,3.610000000000000000e+02,1.600000000000000033e-01,8.464260000000000000e+09
2.090000000000000000e+02,2.280000000000000000e+02,6.070000000000000000e+02,2.590000000000000000e+02,1.810000000000000000e+02,4.930000000000000000e+02,4.970000000000000000e+02,5.950000000000000000e+02,1.600000000000000033e-01,8.482337700000000000e+09
2.200000000000000000e+02,2.040000000000000000e+02,4.920000000000000000e+02,2.460000000000000000e+02,1.930000000000000000e+02,6.710000000000000000e+02,7.440000000000000000e+02,7.930000000000000000e+02,1.600000000000000033e-01,8.503765100000000000e+09
2.570000000000000000e+02,2.070000000000000000e+02,3.390000000000000000e+02,2.220000000000000000e+02,1.920000000000000000e+02,7.940000000000000000e+02,8.770000000000000000e+02,9.260000000000000000e+02,1.799999999999999933e-01,8.525408700000000000e+09
2.590000000000000000e+02,2.320000000000000000e+02,3.260000000000000000e+02,1.750000000000000000e+02,1.910000000000000000e+02,8.290000000000000000e+02,1.012000000000000000e+03,1.030000000000000000e+03,2.000000000000000111e-01,8.547539900000000000e+09
3.190000000000000000e+02,2.510000000000000000e+02,3.740000000000000000e+02,1.460000000000000000e+02,2.030000000000000000e+02,9.230000000000000000e+02,1.168000000000000000e+03,1.185000000000000000e+03,2.200000000000000011e-01,8.566212000000000000e+09
3.250000000000000000e+02,2.790000000000000000e+02,4.340000000000000000e+02,1.530000000000000000e+02,1.960000000000000000e+02,9.310000000000000000e+02,1.235000000000000000e+03,1.121000000000000000e+03,2.399999999999999911e-01,8.585527900000000000e+09
3.390000000000000000e+02,2.960000000000000000e+02,5.650000000000000000e+02,1.820000000000000000e+02,2.070000000000000000e+02,9.420000000000000000e+02,1.248000000000000000e+03,1.104000000000000000e+03,2.700000000000000178e-01,8.604187500000000000e+09
3.330000000000000000e+02,3.100000000000000000e+02,6.090000000000000000e+02,1.930000000000000000e+02,1.960000000000000000e+02,8.940000000000000000e+02,1.249000000000000000e+03,1.056000000000000000e+03,2.999999999999999889e-01,8.624116100000000000e+09
3.250000000000000000e+02,3.140000000000000000e+02,6.040000000000000000e+02,1.780000000000000000e+02,1.760000000000000000e+02,8.960000000000000000e+02,1.218000000000000000e+03,9.790000000000000000e+02,3.200000000000000067e-01,8.644948400000000000e+09
2.670000000000000000e+02,3.020000000000000000e+02,5.530000000000000000e+02,1.790000000000000000e+02,1.570000000000000000e+02,8.190000000000000000e+02,1.134000000000000000e+03,7.850000000000000000e+02,3.400000000000000244e-01,8.663831700000000000e+09
2.470000000000000000e+02,2.770000000000000000e+02,5.250000000000000000e+02,1.700000000000000000e+02,1.570000000000000000e+02,7.840000000000000000e+02,1.080000000000000000e+03,8.580000000000000000e+02,3.499999999999999778e-01,8.685412600000000000e+09
2.370000000000000000e+02,3.120000000000000000e+02,5.090000000000000000e+02,2.200000000000000000e+02,1.470000000000000000e+02,7.320000000000000000e+02,9.620000000000000000e+02,7.480000000000000000e+02,3.699999999999999956e-01,8.706275500000000000e+09
2.160000000000000000e+02,2.990000000000000000e+02,5.750000000000000000e+02,2.100000000000000000e+02,1.400000000000000000e+02,8.980000000000000000e+02,8.530000000000000000e+02,7.010000000000000000e+02,3.800000000000000044e-01,8.727151400000000000e+09
2.100000000000000000e+02,2.580000000000000000e+02,6.570000000000000000e+02,2.130000000000000000e+02,1.280000000000000000e+02,1.200000000000000000e+03,7.760000000000000000e+02,6.580000000000000000e+02,3.900000000000000133e-01,8.745766100000000000e+09
1.910000000000000000e+02,2.510000000000000000e+02,6.830000000000000000e+02,2.080000000000000000e+02,1.180000000000000000e+02,1.354000000000000000e+03,7.610000000000000000e+02,7.060000000000000000e+02,3.800000000000000044e-01,8.765768400000000000e+09
1.850000000000000000e+02,2.460000000000000000e+02,6.620000000000000000e+02,2.050000000000000000e+02,1.110000000000000000e+02,1.539000000000000000e+03,6.870000000000000000e+02,5.840000000000000000e+02,3.800000000000000044e-01,8.786026500000000000e+09
1.560000000000000000e+02,1.730000000000000000e+02,5.890000000000000000e+02,1.190000000000000000e+02,8.100000000000000000e+01,1.547000000000000000e+03,6.600000000000000000e+02,5.580000000000000000e+02,3.800000000000000044e-01,8.804447900000000000e+09
1.350000000000000000e+02,1.570000000000000000e+02,4.910000000000000000e+02,1.080000000000000000e+02,6.500000000000000000e+01,1.415000000000000000e+03,6.660000000000000000e+02,5.140000000000000000e+02,3.800000000000000044e-01,8.825661300000000000e+09
1.480000000000000000e+02,1.390000000000000000e+02,3.670000000000000000e+02,1.030000000000000000e+02,6.100000000000000000e+01,1.168000000000000000e+03,7.130000000000000000e+02,6.270000000000000000e+02,3.800000000000000044e-01,8.846177300000000000e+09
1.520000000000000000e+02,1.460000000000000000e+02,3.940000000000000000e+02,1.180000000000000000e+02,7.600000000000000000e+01,9.580000000000000000e+02,6.460000000000000000e+02,5.270000000000000000e+02,3.800000000000000044e-01,8.864967400000000000e+09
1.230000000000000000e+02,1.460000000000000000e+02,4.600000000000000000e+02,1.200000000000000000e+02,7.200000000000000000e+01,5.940000000000000000e+02,6.000000000000000000e+02,5.020000000000000000e+02,3.800000000000000044e-01,8.883767900000000000e+09
1.630000000000000000e+02,1.710000000000000000e+02,5.540000000000000000e+02,1.540000000000000000e+02,8.100000000000000000e+01,4.470000000000000000e+02,5.900000000000000000e+02,5.030000000000000000e+02,3.800000000000000044e-01,8.905539000000000000e+09
1.680000000000000000e+02,1.730000000000000000e+02,5.450000000000000000e+02,1.520000000000000000e+02,8.200000000000000000e+01,4.380000000000000000e+02,5.880000000000000000e+02,5.100000000000000000e+02,3.800000000000000044e-01,8.923428100000000000e+09
1.520000000000000000e+02,1.730000000000000000e+02,5.370000000000000000e+02,1.470000000000000000e+02,8.500000000000000000e+01,3.410000000000000000e+02,5.330000000000000000e+02,3.690000000000000000e+02,3.800000000000000044e-01,8.945823300000000000e+09
1.560000000000000000e+02,1.810000000000000000e+02,5.540000000000000000e+02,1.420000000000000000e+02,8.000000000000000000e+01,3.840000000000000000e+02,6.780000000000000000e+02,4.260000000000000000e+02,3.800000000000000044e-01,8.964619000000000000e+09
1.560000000000000000e+02,1.830000000000000000e+02,5.440000000000000000e+02,1.350000000000000000e+02,7.900000000000000000e+01,3.900000000000000000e+02,6.730000000000000000e+02,4.280000000000000000e+02,3.900000000000000133e-01,8.984132000000000000e+09
1.160000000000000000e+02,1.610000000000000000e+02,4.200000000000000000e+02,7.800000000000000000e+01,6.700000000000000000e+01,3.790000000000000000e+02,6.490000000000000000e+02,4.150000000000000000e+02,3.900000000000000133e-01,9.006059800000000000e+09
1.140000000000000000e+02,1.680000000000000000e+02,4.290000000000000000e+02,7.200000000000000000e+01,6.400000000000000000e+01,3.930000000000000000e+02,6.700000000000000000e+02,4.000000000000000000e+02,3.800000000000000044e-01,9.024754000000000000e+09
1.220000000000000000e+02,1.740000000000000000e+02,4.870000000000000000e+02,8.000000000000000000e+01,6.500000000000000000e+01,3.820000000000000000e+02,6.410000000000000000e+02,4.370000000000000000e+02,3.800000000000000044e-01,9.046938300000000000e+09
1.120000000000000000e+02,1.680000000000000000e+02,5.030000000000000000e+02,9.300000000000000000e+01,5.700000000000000000e+01,3.200000000000000000e+02,5.510000000000000000e+02,3.960000000000000000e+02,3.699999999999999956e-01,9.065125800000000000e+09
1.140000000000000000e+02,1.640000000000000000e+02,5.090000000000000000e+02,1.150000000000000000e+02,5.700000000000000000e+01,3.160000000000000000e+02,5.530000000000000000e+02,3.920000000000000000e+02,3.699999999999999956e-01,9.086123100000000000e+09
1.130000000000000000e+02,1.630000000000000000e+02,5.520000000000000000e+02,1.170000000000000000e+02,6.100000000000000000e+01,3.430000000000000000e+02,5.690000000000000000e+02,4.340000000000000000e+02,3.699999999999999956e-01,9.106091900000000000e+09
1.170000000000000000e+02,1.630000000000000000e+02,5.740000000000000000e+02,1.200000000000000000e+02,6.700000000000000000e+01,3.590000000000000000e+02,6.000000000000000000e+02,4.770000000000000000e+02,3.699999999999999956e-01,9.124799600000000000e+09
1.140000000000000000e+02,1.780000000000000000e+02,6.380000000000000000e+02,1.250000000000000000e+02,6.100000000000000000e+01,3.290000000000000000e+02,5.880000000000000000e+02,4.260000000000000000e+02,3.699999999999999956e-01,9.142870100000000000e+09
1.140000000000000000e+02,1.780000000000000000e+02,5.960000000000000000e+02,1.100000000000000000e+02,5.800000000000000000e+01,3.190000000000000000e+02,4.490000000000000000e+02,4.110000000000000000e+02,3.699999999999999956e-01,9.163948400000000000e+09
1.180000000000000000e+02,1.770000000000000000e+02,5.950000000000000000e+02,9.000000000000000000e+01,5.900000000000000000e+01,3.400000000000000000e+02,4.520000000000000000e+02,4.090000000000000000e+02,3.599999999999999867e-01,9.185942200000000000e+09
1.140000000000000000e+02,2.020000000000000000e+02,6.210000000000000000e+02,1.060000000000000000e+02,5.700000000000000000e+01,3.120000000000000000e+02,4.300000000000000000e+02,3.380000000000000000e+02,3.599999999999999867e-01,9.205652100000000000e+09
1.120000000000000000e+02,2.210000000000000000e+02,6.650000000000000000e+02,1.360000000000000000e+02,5.900000000000000000e+01,2.640000000000000000e+02,2.780000000000000000e+02,2.580000000000000000e+02,3.699999999999999956e-01,9.224510800000000000e+09
1.080000000000000000e+02,2.030000000000000000e+02,6.130000000000000000e+02,1.350000000000000000e+02,6.400000000000000000e+01,2.550000000000000000e+02,2.540000000000000000e+02,2.540000000000000000e+02,3.699999999999999956e-01,9.245730400000000000e+09
9.700000000000000000e+01,1.970000000000000000e+02,6.500000000000000000e+02,1.380000000000000000e+02,5.700000000000000000e+01,2.760000000000000000e+02,3.280000000000000000e+02,2.330000000000000000e+02,3.699999999999999956e-01,9.264664500000000000e+09
8.400000000000000000e+01,1.970000000000000000e+02,6.920000000000000000e+02,1.420000000000000000e+02,5.600000000000000000e+01,3.110000000000000000e+02,4.170000000000000000e+02,2.210000000000000000e+02,3.699999999999999956e-01,9.283345900000000000e+09
8.200000000000000000e+01,1.700000000000000000e+02,6.510000000000000000e+02,1.350000000000000000e+02,5.700000000000000000e+01,3.080000000000000000e+02,4.340000000000000000e+02,2.230000000000000000e+02,3.599999999999999867e-01,9.305159400000000000e+09
7.100000000000000000e+01,1.510000000000000000e+02,6.320000000000000000e+02,1.190000000000000000e+02,5.100000000000000000e+01,3.110000000000000000e+02,4.380000000000000000e+02,2.130000000000000000e+02,3.699999999999999956e-01,9.322991600000000000e+09
7.000000000000000000e+01,1.570000000000000000e+02,7.180000000000000000e+02,1.530000000000000000e+02,5.700000000000000000e+01,3.170000000000000000e+02,4.460000000000000000e+02,2.120000000000000000e+02,3.699999999999999956e-01,9.342983100000000000e+09
7.200000000000000000e+01,1.620000000000000000e+02,6.700000000000000000e+02,1.550000000000000000e+02,6.500000000000000000e+01,3.090000000000000000e+02,4.990000000000000000e+02,3.010000000000000000e+02,3.699999999999999956e-01,9.365781200000000000e+09
8.300000000000000000e+01,1.590000000000000000e+02,6.030000000000000000e+02,1.490000000000000000e+02,6.500000000000000000e+01,2.630000000000000000e+02,4.880000000000000000e+02,3.090000000000000000e+02,3.699999999999999956e-01,9.383870000000000000e+09
8.800000000000000000e+01,1.710000000000000000e+02,5.970000000000000000e+02,1.440000000000000000e+02,6.200000000000000000e+01,2.540000000000000000e+02,4.900000000000000000e+02,3.040000000000000000e+02,3.699999999999999956e-01,9.404930000000000000e+09
8.700000000000000000e+01,1.580000000000000000e+02,6.650000000000000000e+02,1.410000000000000000e+02,6.100000000000000000e+01,2.510000000000000000e+02,4.850000000000000000e+02,3.050000000000000000e+02,3.699999999999999956e-01,9.423959000000000000e+09
8.300000000000000000e+01,1.440000000000000000e+02,5.450000000000000000e+02,1.040000000000000000e+02,5.200000000000000000e+01,2.470000000000000000e+02,4.760000000000000000e+02,3.080000000000000000e+02,3.699999999999999956e-01,9.445477500000000000e+09
8.300000000000000000e+01,1.440000000000000000e+02,5.330000000000000000e+02,8.800000000000000000e+01,4.300000000000000000e+01,1.920000000000000000e+02,5.010000000000000000e+02,2.280000000000000000e+02,3.699999999999999956e-01,9.464022300000000000e+09
7.700000000000000000e+01,1.690000000000000000e+02,5.210000000000000000e+02,8.900000000000000000e+01,4.200000000000000000e+01,1.510000000000000000e+02,4.260000000000000000e+02,2.100000000000000000e+02,3.699999999999999956e-01,9.484979600000000000e+09
6.900000000000000000e+01,1.550000000000000000e+02,5.140000000000000000e+02,8.800000000000000000e+01,4.100000000000000000e+01,1.480000000000000000e+02,4.090000000000000000e+02,2.180000000000000000e+02,3.800000000000000044e-01,9.504703600000000000e+09
7.100000000000000000e+01,1.530000000000000000e+02,4.560000000000000000e+02,9.000000000000000000e+01,4.000000000000000000e+01,1.660000000000000000e+02,5.030000000000000000e+02,2.290000000000000000e+02,3.800000000000000044e-01,9.523183700000000000e+09
7.200000000000000000e+01,1.490000000000000000e+02,4.310000000000000000e+02,8.000000000000000000e+01,4.000000000000000000e+01,1.670000000000000000e+02,5.130000000000000000e+02,2.460000000000000000e+02,3.800000000000000044e-01,9.545843000000000000e+09
7.700000000000000000e+01,1.410000000000000000e+02,4.400000000000000000e+02,8.100000000000000000e+01,4.200000000000000000e+01,2.080000000000000000e+02,4.320000000000000000e+02,2.970000000000000000e+02,3.800000000000000044e-01,9.563870100000000000e+09
7.700000000000000000e+01,1.320000000000000000e+02,5.060000000000000000e+02,9.100000000000000000e+01,4.300000000000000000e+01,2.020000000000000000e+02,4.370000000000000000e+02,2.980000000000000000e+02,3.900000000000000133e-01,9.582975100000000000e+09
7.600000000000000000e+01,1.240000000000000000e+02,5.510000000000000000e+02,1.030000000000000000e+02,4.300000000000000000e+01,2.010000000000000000e+02,4.280000000000000000e+02,2.980000000000000000e+02,3.900000000000000133e-01,9.605175000000000000e+09
7.700000000000000000e+01,1.290000000000000000e+02,5.630000000000000000e+02,1.200000000000000000e+02,4.600000000000000000e+01,1.850000000000000000e+02,3.070000000000000000e+02,2.920000000000000000e+02,3.900000000000000133e-01,9.624089600000000000e+09
7.400000000000000000e+01,1.270000000000000000e+02,5.590000000000000000e+02,1.200000000000000000e+02,4.300000000000000000e+01,1.770000000000000000e+02,2.860000000000000000e+02,2.730000000000000000e+02,4.000000000000000222e-01,9.642947100000000000e+09
5.900000000000000000e+01,1.230000000000000000e+02,5.510000000000000000e+02,1.190000000000000000e+02,3.800000000000000000e+01,9.300000000000000000e+01,1.800000000000000000e+02,1.500000000000000000e+02,4.099999999999999756e-01,9.664086800000000000e+09
4.900000000000000000e+01,9.000000000000000000e+01,4.770000000000000000e+02,1.080000000000000000e+02,3.900000000000000000e+01,8.300000000000000000e+01,1.190000000000000000e+02,1.390000000000000000e+02,4.199999999999999845e-01,9.684696100000000000e+09
5.200000000000000000e+01,1.010000000000000000e+02,6.150000000000000000e+02,1.530000000000000000e+02,4.900000000000000000e+01,8.700000000000000000e+01,9.300000000000000000e+01,1.090000000000000000e+02,4.299999999999999933e-01,9.704698900000000000e+09
4.900000000000000000e+01,1.160000000000000000e+02,5.860000000000000000e+02,1.570000000000000000e+02,4.900000000000000000e+01,7.100000000000000000e+01,8.100000000000000000e+01,9.000000000000000000e+01,4.400000000000000022e-01,9.724350700000000000e+09
5.000000000000000000e+01,1.220000000000000000e+02,5.840000000000000000e+02,1.580000000000000000e+02,5.100000000000000000e+01,7.000000000000000000e+01,7.200000000000000000e+01,8.900000000000000000e+01,4.500000000000000111e-01,9.744817900000000000e+09
6.000000000000000000e+01,1.380000000000000000e+02,6.830000000000000000e+02,1.810000000000000000e+02,6.100000000000000000e+01,7.100000000000000000e+01,5.900000000000000000e+01,6.500000000000000000e+01,4.600000000000000200e-01,9.764500500000000000e+09
6.400000000000000000e+01,1.520000000000000000e+02,7.410000000000000000e+02,2.140000000000000000e+02,6.600000000000000000e+01,7.200000000000000000e+01,5.600000000000000000e+01,6.700000000000000000e+01,4.600000000000000200e-01,9.785223000000000000e+09
7.600000000000000000e+01,1.960000000000000000e+02,7.090000000000000000e+02,3.040000000000000000e+02,8.800000000000000000e+01,6.900000000000000000e+01,5.300000000000000000e+01,6.700000000000000000e+01,4.699999999999999734e-01,9.804299700000000000e+09
7.600000000000000000e+01,2.020000000000000000e+02,6.950000000000000000e+02,3.130000000000000000e+02,8.800000000000000000e+01,7.000000000000000000e+01,5.100000000000000000e+01,6.500000000000000000e+01,4.899999999999999911e-01,9.825270800000000000e+09
7.500000000000000000e+01,2.000000000000000000e+02,7.010000000000000000e+02,3.110000000000000000e+02,8.700000000000000000e+01,6.800000000000000000e+01,4.300000000000000000e+01,6.000000000000000000e+01,5.000000000000000000e-01,9.846733200000000000e+09
7.100000000000000000e+01,1.990000000000000000e+02,6.830000000000000000e+02,3.040000000000000000e+02,8.200000000000000000e+01,7.300000000000000000e+01,3.600000000000000000e+01,5.800000000000000000e+01,5.100000000000000089e-01,9.864408500000000000e+09
7.700000000000000000e+01,2.000000000000000000e+02,7.580000000000000000e+02,3.020000000000000000e+02,8.600000000000000000e+01,7.800000000000000000e+01,3.600000000000000000e+01,5.700000000000000000e+01,5.100000000000000089e-01,9.884390100000000000e+09
6.800000000000000000e+01,2.050000000000000000e+02,8.430000000000000000e+02,2.020000000000000000e+02,6.100000000000000000e+01,6.900000000000000000e+01,3.600000000000000000e+01,5.000000000000000000e+01,5.100000000000000089e-01,9.904921000000000000e+09
6.600000000000000000e+01,1.850000000000000000e+02,8.630000000000000000e+02,1.720000000000000000e+02,5.900000000000000000e+01,9.600000000000000000e+01,5.100000000000000000e+01,6.000000000000000000e+01,5.000000000000000000e-01,9.923935100000000000e+09
7.100000000000000000e+01,1.880000000000000000e+02,8.690000000000000000e+02,1.720000000000000000e+02,6.200000000000000000e+01,1.500000000000000000e+02,9.400000000000000000e+01,1.270000000000000000e+02,4.899999999999999911e-01,9.944710500000000000e+09
7.900000000000000000e+01,2.010000000000000000e+02,8.830000000000000000e+02,1.940000000000000000e+02,6.700000000000000000e+01,1.480000000000000000e+02,1.160000000000000000e+02,1.370000000000000000e+02,4.799999999999999822e-01,9.965650100000000000e+09
7.800000000000000000e+01,1.990000000000000000e+02,9.010000000000000000e+02,1.920000000000000000e+02,7.500000000000000000e+01,1.560000000000000000e+02,1.180000000000000000e+02,1.400000000000000000e+02,4.699999999999999734e-01,9.985800400000000000e+09
8.200000000000000000e+01,1.920000000000000000e+02,7.830000000000000000e+02,1.980000000000000000e+02,7.800000000000000000e+01,1.610000000000000000e+02,1.270000000000000000e+02,1.580000000000000000e+02,4.699999999999999734e-01,1.000475170000000000e+10
9.800000000000000000e+01,2.000000000000000000e+02,7.700000000000000000e+02,2.110000000000000000e+02,8.600000000000000000e+01,2.600000000000000000e+02,4.000000000000000000e+02,3.410000000000000000e+02,4.600000000000000200e-01,1.002555690000000000e+10
1.090000000000000000e+02,1.990000000000000000e+02,7.520000000000000000e+02,2.120000000000000000e+02,9.700000000000000000e+01,3.450000000000000000e+02,5.150000000000000000e+02,4.550000000000000000e+02,4.500000000000000111e-01,1.004511390000000000e+10
1.410000000000000000e+02,1.790000000000000000e+02,6.670000000000000000e+02,1.830000000000000000e+02,9.800000000000000000e+01,3.940000000000000000e+02,7.290000000000000000e+02,5.560000000000000000e+02,4.400000000000000022e-01,1.006392900000000000e+10
1.630000000000000000e+02,1.930000000000000000e+02,5.840000000000000000e+02,1.680000000000000000e+02,8.700000000000000000e+01,4.120000000000000000e+02,7.600000000000000000e+02,6.070000000000000000e+02,4.199999999999999845e-01,1.008531370000000000e+10
1.670000000000000000e+02,1.510000000000000000e+02,5.980000000000000000e+02,1.900000000000000000e+02,9.200000000000000000e+01,4.160000000000000000e+02,7.950000000000000000e+02,6.730000000000000000e+02,4.099999999999999756e-01,1.010459550000000000e+10
1.770000000000000000e+02,1.510000000000000000e+02,5.580000000000000000e+02,1.850000000000000000e+02,9.300000000000000000e+01,3.900000000000000000e+02,7.930000000000000000e+02,6.510000000000000000e+02,4.000000000000000222e-01,1.012709760000000000e+10
1.760000000000000000e+02,1.680000000000000000e+02,5.670000000000000000e+02,1.860000000000000000e+02,8.700000000000000000e+01,3.480000000000000000e+02,8.380000000000000000e+02,6.660000000000000000e+02,3.900000000000000133e-01,1.015197300000000000e+10
1.610000000000000000e+02,1.780000000000000000e+02,5.550000000000000000e+02,1.860000000000000000e+02,8.200000000000000000e+01,3.200000000000000000e+02,7.160000000000000000e+02,6.330000000000000000e+02,3.800000000000000044e-01,1.017297990000000000e+10
1.370000000000000000e+02,1.690000000000000000e+02,5.140000000000000000e+02,1.810000000000000000e+02,7.900000000000000000e+01,3.120000000000000000e+02,7.230000000000000000e+02,5.910000000000000000e+02,3.699999999999999956e-01,1.019090540000000000e+10
