6.700000000000000000e+01,3.050000000000000000e+02,6.070000000000000000e+02,3.570000000000000000e+02,1.180000000000000000e+02,9.900000000000000000e+01,5.100000000000000000e+01,4.700000000000000000e+01,6.400000000000000133e-01,4.624616000000000000e+08
6.600000000000000000e+01,3.090000000000000000e+02,6.250000000000000000e+02,3.600000000000000000e+02,1.410000000000000000e+02,1.070000000000000000e+02,6.100000000000000000e+01,4.800000000000000000e+01,6.300000000000000044e-01,4.925649000000000000e+08
6.700000000000000000e+01,3.210000000000000000e+02,6.210000000000000000e+02,3.660000000000000000e+02,1.450000000000000000e+02,1.080000000000000000e+02,6.000000000000000000e+01,4.800000000000000000e+01,6.099999999999999867e-01,7.944517000000000000e+08
6.100000000000000000e+01,2.790000000000000000e+02,5.640000000000000000e+02,2.570000000000000000e+02,1.450000000000000000e+02,1.090000000000000000e+02,5.700000000000000000e+01,4.400000000000000000e+01,5.899999999999999689e-01,8.117398000000000000e+08
4.200000000000000000e+01,2.050000000000000000e+02,5.580000000000000000e+02,1.990000000000000000e+02,1.410000000000000000e+02,1.000000000000000000e+02,5.500000000000000000e+01,4.400000000000000000e+01,5.799999999999999600e-01,8.286443000000000000e+08
5.500000000000000000e+01,1.740000000000000000e+02,5.050000000000000000e+02,1.800000000000000000e+02,1.060000000000000000e+02,7.000000000000000000e+01,5.300000000000000000e+01,1.100000000000000000e+02,5.699999999999999512e-01,8.459526000000000000e+08
6.100000000000000000e+01,1.640000000000000000e+02,4.640000000000000000e+02,1.820000000000000000e+02,7.200000000000000000e+01,5.800000000000000000e+01,4.600000000000000000e+01,1.230000000000000000e+02,5.699999999999999512e-01,8.625168000000000000e+08
6.700000000000000000e+01,1.370000000000000000e+02,4.290000000000000000e+02,1.580000000000000000e+02,6.200000000000000000e+01,5.000000000000000000e+01,4.600000000000000000e+01,2.340000000000000000e+02,5.600000000000000533e-01,8.793716000000000000e+08
9.100000000000000000e+01,1.280000000000000000e+02,4.040000000000000000e+02,1.520000000000000000e+02,5.800000000000000000e+01,4.700000000000000000e+01,5.500000000000000000e+01,2.880000000000000000e+02,5.400000000000000355e-01,8.957229000000000000e+08
1.070000000000000000e+02,1.110000000000000000e+02,4.010000000000000000e+02,1.430000000000000000e+02,3.900000000000000000e+01,5.500000000000000000e+01,1.050000000000000000e+02,3.790000000000000000e+02,5.300000000000000266e-01,9.121243000000000000e+08
1.100000000000000000e+02,1.270000000000000000e+02,4.160000000000000000e+02,1.450000000000000000e+02,4.100000000000000000e+01,6.300000000000000000e+01,1.080000000000000000e+02,4.190000000000000000e+02,5.100000000000000089e-01,9.310063000000000000e+08
1.170000000000000000e+02,1.270000000000000000e+02,4.810000000000000000e+02,1.310000000000000000e+02,4.900000000000000000e+01,6.800000000000000000e+01,1.110000000000000000e+02,4.300000000000000000e+02,5.000000000000000000e-01,9.484719000000000000e+08
1.120000000000000000e+02,1.200000000000000000e+02,5.220000000000000000e+02,1.820000000000000000e+02,5.200000000000000000e+01,6.800000000000000000e+01,1.110000000000000000e+02,3.970000000000000000e+02,5.000000000000000000e-01,9.656491000000000000e+08
1.000000000000000000e+02,1.240000000000000000e+02,5.530000000000000000e+02,2.290000000000000000e+02,5.800000000000000000e+01,6.700000000000000000e+01,1.080000000000000000e+02,3.670000000000000000e+02,5.000000000000000000e-01,9.828274000000000000e+08
8.500000000000000000e+01,1.230000000000000000e+02,5.430000000000000000e+02,2.240000000000000000e+02,6.000000000000000000e+01,5.800000000000000000e+01,7.900000000000000000e+01,2.840000000000000000e+02,5.000000000000000000e-01,9.997187000000000000e+08
7.800000000000000000e+01,1.290000000000000000e+02,5.680000000000000000e+02,2.470000000000000000e+02,6.500000000000000000e+01,5.500000000000000000e+01,8.000000000000000000e+01,1.990000000000000000e+02,5.100000000000000089e-01,1.017698000000000000e+09
6.300000000000000000e+01,1.220000000000000000e+02,5.780000000000000000e+02,3.170000000000000000e+02,7.000000000000000000e+01,5.300000000000000000e+01,7.900000000000000000e+01,1.670000000000000000e+02,5.100000000000000089e-01,1.034551300000000000e+09
6.500000000000000000e+01,1.160000000000000000e+02,5.700000000000000000e+02,3.200000000000000000e+02,6.900000000000000000e+01,5.400000000000000000e+01,7.900000000000000000e+01,1.300000000000000000e+02,5.200000000000000178e-01,1.054583100000000000e+09
5.400000000000000000e+01,1.090000000000000000e+02,5.480000000000000000e+02,3.090000000000000000e+02,6.400000000000000000e+01,5.400000000000000000e+01,7.900000000000000000e+01,1.090000000000000000e+02,5.200000000000000178e-01,1.071789000000000000e+09
5.800000000000000000e+01,1.380000000000000000e+02,6.610000000000000000e+02,3.180000000000000000e+02,6.800000000000000000e+01,6.000000000000000000e+01,6.000000000000000000e+01,7.300000000000000000e+01,5.200000000000000178e-01,1.088330300000000000e+09
5.700000000000000000e+01,1.990000000000000000e+02,6.480000000000000000e+02,3.410000000000000000e+02,6.100000000000000000e+01,5.000000000000000000e+01,5.200000000000000000e+01,6.200000000000000000e+01,5.300000000000000266e-01,1.105298400000000000e+09
6.100000000000000000e+01,2.270000000000000000e+02,6.500000000000000000e+02,3.010000000000000000e+02,5.400000000000000000e+01,5.000000000000000000e+01,5.200000000000000000e+01,5.400000000000000000e+01,5.400000000000000355e-01,1.121869700000000000e+09
6.500000000000000000e+01,2.350000000000000000e+02,6.590000000000000000e+02,3.450000000000000000e+02,1.170000000000000000e+02,6.400000000000000000e+01,5.400000000000000000e+01,4.600000000000000000e+01,5.400000000000000355e-01,1.138323300000000000e+09
8.000000000000000000e+01,2.710000000000000000e+02,7.110000000000000000e+02,4.080000000000000000e+02,1.380000000000000000e+02,7.200000000000000000e+01,5.200000000000000000e+01,5.200000000000000000e+01,5.300000000000000266e-01,1.155114200000000000e+09
8.300000000000000000e+01,2.690000000000000000e+02,6.500000000000000000e+02,4.450000000000000000e+02,1.440000000000000000e+02,7.300000000000000000e+01,5.300000000000000000e+01,5.300000000000000000e+01,5.300000000000000266e-01,1.172109200000000000e+09
7.700000000000000000e+01,2.210000000000000000e+02,6.320000000000000000e+02,4.560000000000000000e+02,1.460000000000000000e+02,8.100000000000000000e+01,5.200000000000000000e+01,5.100000000000000000e+01,5.300000000000000266e-01,1.189653400000000000e+09
7.800000000000000000e+01,1.970000000000000000e+02,6.700000000000000000e+02,4.780000000000000000e+02,1.500000000000000000e+02,8.700000000000000000e+01,4.500000000000000000e+01,5.500000000000000000e+01,5.300000000000000266e-01,1.206206500000000000e+09
7.600000000000000000e+01,1.970000000000000000e+02,6.500000000000000000e+02,4.780000000000000000e+02,1.160000000000000000e+02,8.100000000000000000e+01,4.000000000000000000e+01,6.000000000000000000e+01,5.200000000000000178e-01,1.222617100000000000e+09
6.700000000000000000e+01,1.680000000000000000e+02,7.570000000000000000e+02,4.110000000000000000e+02,1.060000000000000000e+02,8.500000000000000000e+01,4.400000000000000000e+01,5.600000000000000000e+01,5.200000000000000178e-01,1.239375000000000000e+09
6.300000000000000000e+01,1.630000000000000000e+02,8.370000000000000000e+02,3.720000000000000000e+02,1.000000000000000000e+02,8.700000000000000000e+01,4.100000000000000000e+01,5.300000000000000000e+01,5.100000000000000089e-01,1.255929400000000000e+09
6.800000000000000000e+01,1.920000000000000000e+02,8.840000000000000000e+02,3.280000000000000000e+02,9.800000000000000000e+01,8.100000000000000000e+01,4.000000000000000000e+01,1.200000000000000000e+02,5.000000000000000000e-01,1.274374100000000000e+09
8.600000000000000000e+01,2.730000000000000000e+02,8.320000000000000000e+02,3.120000000000000000e+02,1.240000000000000000e+02,8.600000000000000000e+01,4.000000000000000000e+01,1.280000000000000000e+02,4.899999999999999911e-01,1.293182900000000000e+09
8.900000000000000000e+01,2.850000000000000000e+02,9.040000000000000000e+02,3.180000000000000000e+02,1.520000000000000000e+02,9.500000000000000000e+01,5.000000000000000000e+01,1.280000000000000000e+02,4.699999999999999734e-01,1.310862700000000000e+09
9.300000000000000000e+01,2.850000000000000000e+02,8.690000000000000000e+02,3.630000000000000000e+02,1.550000000000000000e+02,9.200000000000000000e+01,4.900000000000000000e+01,1.310000000000000000e+02,4.500000000000000111e-01,1.327803900000000000e+09
9.700000000000000000e+01,2.850000000000000000e+02,8.820000000000000000e+02,4.220000000000000000e+02,1.820000000000000000e+02,1.010000000000000000e+02,5.800000000000000000e+01,1.330000000000000000e+02,4.400000000000000022e-01,1.344448700000000000e+09
1.050000000000000000e+02,2.810000000000000000e+02,9.380000000000000000e+02,4.640000000000000000e+02,2.000000000000000000e+02,1.080000000000000000e+02,6.400000000000000000e+01,8.700000000000000000e+01,4.199999999999999845e-01,1.361998400000000000e+09
8.900000000000000000e+01,2.240000000000000000e+02,1.024000000000000000e+03,4.870000000000000000e+02,1.820000000000000000e+02,1.010000000000000000e+02,7.000000000000000000e+01,7.300000000000000000e+01,4.099999999999999756e-01,1.389211100000000000e+09
8.500000000000000000e+01,2.240000000000000000e+02,1.030000000000000000e+03,5.500000000000000000e+02,1.590000000000000000e+02,9.500000000000000000e+01,6.400000000000000000e+01,6.600000000000000000e+01,4.000000000000000222e-01,1.421365600000000000e+09
8.900000000000000000e+01,2.550000000000000000e+02,1.034000000000000000e+03,6.200000000000000000e+02,1.570000000000000000e+02,9.600000000000000000e+01,6.500000000000000000e+01,6.200000000000000000e+01,3.900000000000000133e-01,1.441269700000000000e+09
8.600000000000000000e+01,2.570000000000000000e+02,1.011000000000000000e+03,6.210000000000000000e+02,1.300000000000000000e+02,8.000000000000000000e+01,5.700000000000000000e+01,5.900000000000000000e+01,3.800000000000000044e-01,1.460141200000000000e+09
8.800000000000000000e+01,2.710000000000000000e+02,1.040000000000000000e+03,6.690000000000000000e+02,1.240000000000000000e+02,7.500000000000000000e+01,5.400000000000000000e+01,5.100000000000000000e+01,3.699999999999999956e-01,1.481348300000000000e+09
8.900000000000000000e+01,2.570000000000000000e+02,9.820000000000000000e+02,7.290000000000000000e+02,1.310000000000000000e+02,7.400000000000000000e+01,4.600000000000000000e+01,5.000000000000000000e+01,3.599999999999999867e-01,1.501764900000000000e+09
8.700000000000000000e+01,2.440000000000000000e+02,9.570000000000000000e+02,6.550000000000000000e+02,1.320000000000000000e+02,6.700000000000000000e+01,4.400000000000000000e+01,4.800000000000000000e+01,3.599999999999999867e-01,1.520033700000000000e+09
7.800000000000000000e+01,2.110000000000000000e+02,9.350000000000000000e+02,5.880000000000000000e+02,1.290000000000000000e+02,6.700000000000000000e+01,4.100000000000000000e+01,4.500000000000000000e+01,3.499999999999999778e-01,1.538702300000000000e+09
7.900000000000000000e+01,2.360000000000000000e+02,8.530000000000000000e+02,5.570000000000000000e+02,1.300000000000000000e+02,7.600000000000000000e+01,4.200000000000000000e+01,4.700000000000000000e+01,3.599999999999999867e-01,1.557237100000000000e+09
6.800000000000000000e+01,2.210000000000000000e+02,7.150000000000000000e+02,4.660000000000000000e+02,1.190000000000000000e+02,7.900000000000000000e+01,3.800000000000000000e+01,4.400000000000000000e+01,3.599999999999999867e-01,1.575226500000000000e+09
7.600000000000000000e+01,2.310000000000000000e+02,7.720000000000000000e+02,3.350000000000000000e+02,1.160000000000000000e+02,8.200000000000000000e+01,3.700000000000000000e+01,4.700000000000000000e+01,3.699999999999999956e-01,1.593497700000000000e+09
8.000000000000000000e+01,2.360000000000000000e+02,7.830000000000000000e+02,3.940000000000000000e+02,1.210000000000000000e+02,8.400000000000000000e+01,3.900000000000000000e+01,5.000000000000000000e+01,3.800000000000000044e-01,1.611567000000000000e+09
9.600000000000000000e+01,2.730000000000000000e+02,9.330000000000000000e+02,4.570000000000000000e+02,1.310000000000000000e+02,8.500000000000000000e+01,4.600000000000000000e+01,5.600000000000000000e+01,3.800000000000000044e-01,1.630396800000000000e+09
9.200000000000000000e+01,2.490000000000000000e+02,9.670000000000000000e+02,4.770000000000000000e+02,1.290000000000000000e+02,8.500000000000000000e+01,4.900000000000000000e+01,5.400000000000000000e+01,3.800000000000000044e-01,1.648373700000000000e+09
8.400000000000000000e+01,2.330000000000000000e+02,9.940000000000000000e+02,4.950000000000000000e+02,1.180000000000000000e+02,8.000000000000000000e+01,6.400000000000000000e+01,5.000000000000000000e+01,3.800000000000000044e-01,1.667525800000000000e+09
8.100000000000000000e+01,2.210000000000000000e+02,9.370000000000000000e+02,4.900000000000000000e+02,1.160000000000000000e+02,7.600000000000000000e+01,7.700000000000000000e+01,4.700000000000000000e+01,3.800000000000000044e-01,1.688086300000000000e+09
7.500000000000000000e+01,2.120000000000000000e+02,9.200000000000000000e+02,4.520000000000000000e+02,1.040000000000000000e+02,7.300000000000000000e+01,8.700000000000000000e+01,4.300000000000000000e+01,3.800000000000000044e-01,1.706577900000000000e+09
6.500000000000000000e+01,1.680000000000000000e+02,7.440000000000000000e+02,4.870000000000000000e+02,9.200000000000000000e+01,6.800000000000000000e+01,8.600000000000000000e+01,4.000000000000000000e+01,3.900000000000000133e-01,1.726720600000000000e+09
6.900000000000000000e+01,1.850000000000000000e+02,7.740000000000000000e+02,5.210000000000000000e+02,9.500000000000000000e+01,6.400000000000000000e+01,8.900000000000000000e+01,4.100000000000000000e+01,4.000000000000000222e-01,1.745009900000000000e+09
7.200000000000000000e+01,1.790000000000000000e+02,8.110000000000000000e+02,5.710000000000000000e+02,9.900000000000000000e+01,6.200000000000000000e+01,8.100000000000000000e+01,4.200000000000000000e+01,4.099999999999999756e-01,1.762185400000000000e+09
7.500000000000000000e+01,1.760000000000000000e+02,8.650000000000000000e+02,5.750000000000000000e+02,1.080000000000000000e+02,6.400000000000000000e+01,7.200000000000000000e+01,5.000000000000000000e+01,4.099999999999999756e-01,1.779773700000000000e+09
7.700000000000000000e+01,1.900000000000000000e+02,8.950000000000000000e+02,6.120000000000000000e+02,1.070000000000000000e+02,6.300000000000000000e+01,5.800000000000000000e+01,5.000000000000000000e+01,4.099999999999999756e-01,1.799242400000000000e+09
6.700000000000000000e+01,1.740000000000000000e+02,8.920000000000000000e+02,5.600000000000000000e+02,1.030000000000000000e+02,6.700000000000000000e+01,5.400000000000000000e+01,4.700000000000000000e+01,4.199999999999999845e-01,1.819816100000000000e+09
6.100000000000000000e+01,1.430000000000000000e+02,9.570000000000000000e+02,5.040000000000000000e+02,9.500000000000000000e+01,6.400000000000000000e+01,4.500000000000000000e+01,4.500000000000000000e+01,4.299999999999999933e-01,1.838508400000000000e+09
6.600000000000000000e+01,1.440000000000000000e+02,1.030000000000000000e+03,4.840000000000000000e+02,1.060000000000000000e+02,6.900000000000000000e+01,4.500000000000000000e+01,4.700000000000000000e+01,4.299999999999999933e-01,1.857379100000000000e+09
6.700000000000000000e+01,1.740000000000000000e+02,1.043000000000000000e+03,5.450000000000000000e+02,1.030000000000000000e+02,7.400000000000000000e+01,3.800000000000000000e+01,4.200000000000000000e+01,4.400000000000000022e-01,1.877563700000000000e+09
7.100000000000000000e+01,1.970000000000000000e+02,1.074000000000000000e+03,4.980000000000000000e+02,1.090000000000000000e+02,7.900000000000000000e+01,4.200000000000000000e+01,4.600000000000000000e+01,4.500000000000000111e-01,1.895204400000000000e+09
7.200000000000000000e+01,1.920000000000000000e+02,1.138000000000000000e+03,4.980000000000000000e+02,1.060000000000000000e+02,7.200000000000000000e+01,4.600000000000000000e+01,4.500000000000000000e+01,4.500000000000000111e-01,1.912600100000000000e+09
7.400000000000000000e+01,1.960000000000000000e+02,1.113000000000000000e+03,5.340000000000000000e+02,1.080000000000000000e+02,7.500000000000000000e+01,4.500000000000000000e+01,4.600000000000000000e+01,4.500000000000000111e-01,1.931075900000000000e+09
6.900000000000000000e+01,1.970000000000000000e+02,1.019000000000000000e+03,4.950000000000000000e+02,9.100000000000000000e+01,6.900000000000000000e+01,4.200000000000000000e+01,4.200000000000000000e+01,4.500000000000000111e-01,1.949088000000000000e+09
6.800000000000000000e+01,1.810000000000000000e+02,9.750000000000000000e+02,4.730000000000000000e+02,9.500000000000000000e+01,6.400000000000000000e+01,5.100000000000000000e+01,4.000000000000000000e+01,4.400000000000000022e-01,1.967738200000000000e+09
6.100000000000000000e+01,1.600000000000000000e+02,9.270000000000000000e+02,4.860000000000000000e+02,9.000000000000000000e+01,6.200000000000000000e+01,5.000000000000000000e+01,3.500000000000000000e+01,4.400000000000000022e-01,1.985549700000000000e+09
6.700000000000000000e+01,1.870000000000000000e+02,8.580000000000000000e+02,4.400000000000000000e+02,8.900000000000000000e+01,7.000000000000000000e+01,5.200000000000000000e+01,3.900000000000000000e+01,4.400000000000000022e-01,2.003935600000000000e+09
7.000000000000000000e+01,1.890000000000000000e+02,8.620000000000000000e+02,4.430000000000000000e+02,9.100000000000000000e+01,7.100000000000000000e+01,5.500000000000000000e+01,3.900000000000000000e+01,4.400000000000000022e-01,2.022842200000000000e+09
7.900000000000000000e+01,2.270000000000000000e+02,9.210000000000000000e+02,5.080000000000000000e+02,9.800000000000000000e+01,7.900000000000000000e+01,5.500000000000000000e+01,4.500000000000000000e+01,4.400000000000000022e-01,2.041296900000000000e+09
7.300000000000000000e+01,2.150000000000000000e+02,9.520000000000000000e+02,4.450000000000000000e+02,8.400000000000000000e+01,7.400000000000000000e+01,4.800000000000000000e+01,4.300000000000000000e+01,4.400000000000000022e-01,2.059273100000000000e+09
8.100000000000000000e+01,2.050000000000000000e+02,9.420000000000000000e+02,4.420000000000000000e+02,1.020000000000000000e+02,8.500000000000000000e+01,5.100000000000000000e+01,5.200000000000000000e+01,4.400000000000000022e-01,2.076915600000000000e+09
7.200000000000000000e+01,1.800000000000000000e+02,9.300000000000000000e+02,4.410000000000000000e+02,9.800000000000000000e+01,8.100000000000000000e+01,4.800000000000000000e+01,4.800000000000000000e+01,4.400000000000000022e-01,2.094834700000000000e+09
7.000000000000000000e+01,1.710000000000000000e+02,8.960000000000000000e+02,4.210000000000000000e+02,9.300000000000000000e+01,7.800000000000000000e+01,4.500000000000000000e+01,4.700000000000000000e+01,4.400000000000000022e-01,2.112012100000000000e+09
6.400000000000000000e+01,1.190000000000000000e+02,7.740000000000000000e+02,3.510000000000000000e+02,1.030000000000000000e+02,7.500000000000000000e+01,4.300000000000000000e+01,4.600000000000000000e+01,4.400000000000000022e-01,2.130450100000000000e+09
6.700000000000000000e+01,1.280000000000000000e+02,7.100000000000000000e+02,3.590000000000000000e+02,1.050000000000000000e+02,7.700000000000000000e+01,4.400000000000000000e+01,4.600000000000000000e+01,4.500000000000000111e-01,2.149783900000000000e+09
5.700000000000000000e+01,1.400000000000000000e+02,7.220000000000000000e+02,3.390000000000000000e+02,8.900000000000000000e+01,6.000000000000000000e+01,3.700000000000000000e+01,3.700000000000000000e+01,4.600000000000000200e-01,2.171366900000000000e+09
5.800000000000000000e+01,1.530000000000000000e+02,6.920000000000000000e+02,3.400000000000000000e+02,9.300000000000000000e+01,6.500000000000000000e+01,3.000000000000000000e+01,3.900000000000000000e+01,4.600000000000000200e-01,2.189698300000000000e+09
6.700000000000000000e+01,1.840000000000000000e+02,6.500000000000000000e+02,3.010000000000000000e+02,1.110000000000000000e+02,7.700000000000000000e+01,3.400000000000000000e+01,4.400000000000000000e+01,4.600000000000000200e-01,2.207494300000000000e+09
6.400000000000000000e+01,1.870000000000000000e+02,6.530000000000000000e+02,2.600000000000000000e+02,1.010000000000000000e+02,7.400000000000000000e+01,3.600000000000000000e+01,3.900000000000000000e+01,4.600000000000000200e-01,2.225496200000000000e+09
6.500000000000000000e+01,1.890000000000000000e+02,6.540000000000000000e+02,2.410000000000000000e+02,9.500000000000000000e+01,7.200000000000000000e+01,7.900000000000000000e+01,1.110000000000000000e+02,4.699999999999999734e-01,2.243328900000000000e+09
9.900000000000000000e+01,1.810000000000000000e+02,6.080000000000000000e+02,2.340000000000000000e+02,9.300000000000000000e+01,1.210000000000000000e+02,2.250000000000000000e+02,3.130000000000000000e+02,4.699999999999999734e-01,2.260370800000000000e+09
1.560000000000000000e+02,1.680000000000000000e+02,5.580000000000000000e+02,2.030000000000000000e+02,8.400000000000000000e+01,1.960000000000000000e+02,3.510000000000000000e+02,4.630000000000000000e+02,4.699999999999999734e-01,2.279497200000000000e+09
2.010000000000000000e+02,1.350000000000000000e+02,4.640000000000000000e+02,1.880000000000000000e+02,6.400000000000000000e+01,2.560000000000000000e+02,5.910000000000000000e+02,6.570000000000000000e+02,4.600000000000000200e-01,2.299503600000000000e+09
2.720000000000000000e+02,1.680000000000000000e+02,4.270000000000000000e+02,1.560000000000000000e+02,6.300000000000000000e+01,3.490000000000000000e+02,8.300000000000000000e+02,7.750000000000000000e+02,4.600000000000000200e-01,2.318602900000000000e+09
2.960000000000000000e+02,1.690000000000000000e+02,3.540000000000000000e+02,1.360000000000000000e+02,7.600000000000000000e+01,4.430000000000000000e+02,9.890000000000000000e+02,8.300000000000000000e+02,4.600000000000000200e-01,2.337093500000000000e+09
3.160000000000000000e+02,1.720000000000000000e+02,2.620000000000000000e+02,1.100000000000000000e+02,7.600000000000000000e+01,4.590000000000000000e+02,1.056000000000000000e+03,9.410000000000000000e+02,4.600000000000000200e-01,2.356085000000000000e+09
3.300000000000000000e+02,1.790000000000000000e+02,2.540000000000000000e+02,9.700000000000000000e+01,8.200000000000000000e+01,4.580000000000000000e+02,1.065000000000000000e+03,9.170000000000000000e+02,4.600000000000000200e-01,2.374328600000000000e+09
3.250000000000000000e+02,2.910000000000000000e+02,4.870000000000000000e+02,2.820000000000000000e+02,1.160000000000000000e+02,4.640000000000000000e+02,1.075000000000000000e+03,8.440000000000000000e+02,4.500000000000000111e-01,2.392162900000000000e+09
2.830000000000000000e+02,2.790000000000000000e+02,4.980000000000000000e+02,3.030000000000000000e+02,1.130000000000000000e+02,4.450000000000000000e+02,1.064000000000000000e+03,8.530000000000000000e+02,4.500000000000000111e-01,2.408840900000000000e+09
2.910000000000000000e+02,2.730000000000000000e+02,4.820000000000000000e+02,3.000000000000000000e+02,1.050000000000000000e+02,4.310000000000000000e+02,9.310000000000000000e+02,8.320000000000000000e+02,4.400000000000000022e-01,2.426351100000000000e+09
2.620000000000000000e+02,2.810000000000000000e+02,5.910000000000000000e+02,3.320000000000000000e+02,1.090000000000000000e+02,4.230000000000000000e+02,8.740000000000000000e+02,6.800000000000000000e+02,4.400000000000000022e-01,2.444495100000000000e+09
2.340000000000000000e+02,2.820000000000000000e+02,6.220000000000000000e+02,3.530000000000000000e+02,1.130000000000000000e+02,4.320000000000000000e+02,9.150000000000000000e+02,7.010000000000000000e+02,4.299999999999999933e-01,2.461255100000000000e+09
2.120000000000000000e+02,1.730000000000000000e+02,5.160000000000000000e+02,2.450000000000000000e+02,7.300000000000000000e+01,4.040000000000000000e+02,8.000000000000000000e+02,6.730000000000000000e+02,4.299999999999999933e-01,2.477958700000000000e+09
1.930000000000000000e+02,1.510000000000000000e+02,5.350000000000000000e+02,2.230000000000000000e+02,7.100000000000000000e+01,3.600000000000000000e+02,5.800000000000000000e+02,5.470000000000000000e+02,4.299999999999999933e-01,2.494663300000000000e+09
1.460000000000000000e+02,1.500000000000000000e+02,5.700000000000000000e+02,2.550000000000000000e+02,7.200000000000000000e+01,2.840000000000000000e+02,5.910000000000000000e+02,4.890000000000000000e+02,4.299999999999999933e-01,2.511064800000000000e+09
1.420000000000000000e+02,1.260000000000000000e+02,5.110000000000000000e+02,2.610000000000000000e+02,6.800000000000000000e+01,2.620000000000000000e+02,6.180000000000000000e+02,4.510000000000000000e+02,4.299999999999999933e-01,2.528219900000000000e+09
1.100000000000000000e+02,1.360000000000000000e+02,5.880000000000000000e+02,2.570000000000000000e+02,6.000000000000000000e+01,2.260000000000000000e+02,5.250000000000000000e+02,3.930000000000000000e+02,4.400000000000000022e-01,2.545936800000000000e+09
9.600000000000000000e+01,1.230000000000000000e+02,5.510000000000000000e+02,2.410000000000000000e+02,5.400000000000000000e+01,2.160000000000000000e+02,5.630000000000000000e+02,4.020000000000000000e+02,4.400000000000000022e-01,2.562417600000000000e+09
1.330000000000000000e+02,1.350000000000000000e+02,5.260000000000000000e+02,2.380000000000000000e+02,5.400000000000000000e+01,2.550000000000000000e+02,6.310000000000000000e+02,4.810000000000000000e+02,4.299999999999999933e-01,2.580322100000000000e+09
1.420000000000000000e+02,1.380000000000000000e+02,5.030000000000000000e+02,2.300000000000000000e+02,5.900000000000000000e+01,2.560000000000000000e+02,6.570000000000000000e+02,5.190000000000000000e+02,4.299999999999999933e-01,2.597642700000000000e+09
1.440000000000000000e+02,1.330000000000000000e+02,5.250000000000000000e+02,1.770000000000000000e+02,5.400000000000000000e+01,2.650000000000000000e+02,6.320000000000000000e+02,5.540000000000000000e+02,4.299999999999999933e-01,2.614823700000000000e+09
1.490000000000000000e+02,1.080000000000000000e+02,4.200000000000000000e+02,1.460000000000000000e+02,5.000000000000000000e+01,2.440000000000000000e+02,5.980000000000000000e+02,5.130000000000000000e+02,4.299999999999999933e-01,2.632013300000000000e+09
1.630000000000000000e+02,1.180000000000000000e+02,5.120000000000000000e+02,1.640000000000000000e+02,5.200000000000000000e+01,2.410000000000000000e+02,6.120000000000000000e+02,5.630000000000000000e+02,4.299999999999999933e-01,2.649026600000000000e+09
1.610000000000000000e+02,1.090000000000000000e+02,5.120000000000000000e+02,1.680000000000000000e+02,5.300000000000000000e+01,2.070000000000000000e+02,6.740000000000000000e+02,5.930000000000000000e+02,4.299999999999999933e-01,2.665818300000000000e+09
1.680000000000000000e+02,1.230000000000000000e+02,5.310000000000000000e+02,1.450000000000000000e+02,4.600000000000000000e+01,1.830000000000000000e+02,6.890000000000000000e+02,6.470000000000000000e+02,4.299999999999999933e-01,2.682534900000000000e+09
1.710000000000000000e+02,1.300000000000000000e+02,5.030000000000000000e+02,1.430000000000000000e+02,4.700000000000000000e+01,1.610000000000000000e+02,6.870000000000000000e+02,6.320000000000000000e+02,4.299999999999999933e-01,2.698869800000000000e+09
1.740000000000000000e+02,1.320000000000000000e+02,5.680000000000000000e+02,1.500000000000000000e+02,4.900000000000000000e+01,1.920000000000000000e+02,7.160000000000000000e+02,6.640000000000000000e+02,4.299999999999999933e-01,2.716513500000000000e+09
1.760000000000000000e+02,1.440000000000000000e+02,6.180000000000000000e+02,1.650000000000000000e+02,6.000000000000000000e+01,1.990000000000000000e+02,6.730000000000000000e+02,6.540000000000000000e+02,4.199999999999999845e-01,2.733993000000000000e+09
1.740000000000000000e+02,1.440000000000000000e+02,6.370000000000000000e+02,1.740000000000000000e+02,6.300000000000000000e+01,2.110000000000000000e+02,5.780000000000000000e+02,6.140000000000000000e+02,4.199999999999999845e-01,2.750701900000000000e+09
1.810000000000000000e+02,1.270000000000000000e+02,6.110000000000000000e+02,1.610000000000000000e+02,6.400000000000000000e+01,2.330000000000000000e+02,5.570000000000000000e+02,5.520000000000000000e+02,4.099999999999999756e-01,2.767379500000000000e+09
1.790000000000000000e+02,1.370000000000000000e+02,6.680000000000000000e+02,1.770000000000000000e+02,6.900000000000000000e+01,2.360000000000000000e+02,6.260000000000000000e+02,5.680000000000000000e+02,4.099999999999999756e-01,2.783787800000000000e+09
1.860000000000000000e+02,1.470000000000000000e+02,6.160000000000000000e+02,1.770000000000000000e+02,7.100000000000000000e+01,2.310000000000000000e+02,6.440000000000000000e+02,5.440000000000000000e+02,4.000000000000000222e-01,2.801569400000000000e+09
1.840000000000000000e+02,1.290000000000000000e+02,5.000000000000000000e+02,1.490000000000000000e+02,6.000000000000000000e+01,2.140000000000000000e+02,6.220000000000000000e+02,5.400000000000000000e+02,4.000000000000000222e-01,2.818424100000000000e+09
1.880000000000000000e+02,1.300000000000000000e+02,5.190000000000000000e+02,1.400000000000000000e+02,6.200000000000000000e+01,2.050000000000000000e+02,6.940000000000000000e+02,5.710000000000000000e+02,4.000000000000000222e-01,2.835846200000000000e+09
1.980000000000000000e+02,1.310000000000000000e+02,5.530000000000000000e+02,1.450000000000000000e+02,6.400000000000000000e+01,2.260000000000000000e+02,7.410000000000000000e+02,5.710000000000000000e+02,4.000000000000000222e-01,2.853245700000000000e+09
2.020000000000000000e+02,1.370000000000000000e+02,4.790000000000000000e+02,1.150000000000000000e+02,5.900000000000000000e+01,2.330000000000000000e+02,6.890000000000000000e+02,5.780000000000000000e+02,4.000000000000000222e-01,2.869865100000000000e+09
1.950000000000000000e+02,1.500000000000000000e+02,5.080000000000000000e+02,9.900000000000000000e+01,5.200000000000000000e+01,2.110000000000000000e+02,6.510000000000000000e+02,5.810000000000000000e+02,4.000000000000000222e-01,2.888046200000000000e+09
1.820000000000000000e+02,1.530000000000000000e+02,5.670000000000000000e+02,1.480000000000000000e+02,5.700000000000000000e+01,2.190000000000000000e+02,6.860000000000000000e+02,5.240000000000000000e+02,4.000000000000000222e-01,2.905468400000000000e+09
1.690000000000000000e+02,1.550000000000000000e+02,6.180000000000000000e+02,1.630000000000000000e+02,5.700000000000000000e+01,2.270000000000000000e+02,6.910000000000000000e+02,4.990000000000000000e+02,4.000000000000000222e-01,2.922478100000000000e+09
1.420000000000000000e+02,1.530000000000000000e+02,5.860000000000000000e+02,1.590000000000000000e+02,5.000000000000000000e+01,1.890000000000000000e+02,6.510000000000000000e+02,4.870000000000000000e+02,4.000000000000000222e-01,2.939612300000000000e+09
1.340000000000000000e+02,1.370000000000000000e+02,5.710000000000000000e+02,1.710000000000000000e+02,4.900000000000000000e+01,1.740000000000000000e+02,6.480000000000000000e+02,4.950000000000000000e+02,4.099999999999999756e-01,2.957238900000000000e+09
1.380000000000000000e+02,1.350000000000000000e+02,5.810000000000000000e+02,1.940000000000000000e+02,5.400000000000000000e+01,1.760000000000000000e+02,6.360000000000000000e+02,4.810000000000000000e+02,4.099999999999999756e-01,2.974090200000000000e+09
1.450000000000000000e+02,1.350000000000000000e+02,5.500000000000000000e+02,1.620000000000000000e+02,5.000000000000000000e+01,1.760000000000000000e+02,6.510000000000000000e+02,4.770000000000000000e+02,4.099999999999999756e-01,2.990983500000000000e+09
1.280000000000000000e+02,1.290000000000000000e+02,5.730000000000000000e+02,1.530000000000000000e+02,4.200000000000000000e+01,1.360000000000000000e+02,5.300000000000000000e+02,3.980000000000000000e+02,4.099999999999999756e-01,3.008140400000000000e+09
1.090000000000000000e+02,1.290000000000000000e+02,6.010000000000000000e+02,1.630000000000000000e+02,4.700000000000000000e+01,1.190000000000000000e+02,4.860000000000000000e+02,3.760000000000000000e+02,4.199999999999999845e-01,3.025618100000000000e+09
1.100000000000000000e+02,1.250000000000000000e+02,6.070000000000000000e+02,1.720000000000000000e+02,4.900000000000000000e+01,1.070000000000000000e+02,4.160000000000000000e+02,2.950000000000000000e+02,4.199999999999999845e-01,3.042856000000000000e+09
9.300000000000000000e+01,1.060000000000000000e+02,6.010000000000000000e+02,1.700000000000000000e+02,5.500000000000000000e+01,1.060000000000000000e+02,4.600000000000000000e+02,2.700000000000000000e+02,4.199999999999999845e-01,3.061082200000000000e+09
9.500000000000000000e+01,1.040000000000000000e+02,6.130000000000000000e+02,1.750000000000000000e+02,5.300000000000000000e+01,1.010000000000000000e+02,3.850000000000000000e+02,3.270000000000000000e+02,4.299999999999999933e-01,3.078962600000000000e+09
9.700000000000000000e+01,1.170000000000000000e+02,5.410000000000000000e+02,1.830000000000000000e+02,5.500000000000000000e+01,9.400000000000000000e+01,3.840000000000000000e+02,2.980000000000000000e+02,4.299999999999999933e-01,3.096958400000000000e+09
9.900000000000000000e+01,1.140000000000000000e+02,5.130000000000000000e+02,1.970000000000000000e+02,5.700000000000000000e+01,8.700000000000000000e+01,3.640000000000000000e+02,3.050000000000000000e+02,4.299999999999999933e-01,3.114353500000000000e+09
9.100000000000000000e+01,1.060000000000000000e+02,4.990000000000000000e+02,1.840000000000000000e+02,5.800000000000000000e+01,9.400000000000000000e+01,4.060000000000000000e+02,2.870000000000000000e+02,4.299999999999999933e-01,3.131805000000000000e+09
1.000000000000000000e+02,1.090000000000000000e+02,4.490000000000000000e+02,1.600000000000000000e+02,4.900000000000000000e+01,1.120000000000000000e+02,3.850000000000000000e+02,2.920000000000000000e+02,4.400000000000000022e-01,3.149499800000000000e+09
8.800000000000000000e+01,1.080000000000000000e+02,3.710000000000000000e+02,1.640000000000000000e+02,5.300000000000000000e+01,1.060000000000000000e+02,4.250000000000000000e+02,1.700000000000000000e+02,4.500000000000000111e-01,3.167769600000000000e+09
8.900000000000000000e+01,9.800000000000000000e+01,4.380000000000000000e+02,1.690000000000000000e+02,5.500000000000000000e+01,1.050000000000000000e+02,4.210000000000000000e+02,1.560000000000000000e+02,4.500000000000000111e-01,3.185783200000000000e+09
7.900000000000000000e+01,1.010000000000000000e+02,4.530000000000000000e+02,1.510000000000000000e+02,5.000000000000000000e+01,1.080000000000000000e+02,4.020000000000000000e+02,1.210000000000000000e+02,4.600000000000000200e-01,3.204945000000000000e+09
7.800000000000000000e+01,1.040000000000000000e+02,4.680000000000000000e+02,1.560000000000000000e+02,4.600000000000000000e+01,1.000000000000000000e+02,3.690000000000000000e+02,1.230000000000000000e+02,4.699999999999999734e-01,3.222932100000000000e+09
6.100000000000000000e+01,8.800000000000000000e+01,4.790000000000000000e+02,1.570000000000000000e+02,4.300000000000000000e+01,7.300000000000000000e+01,3.280000000000000000e+02,1.120000000000000000e+02,4.799999999999999822e-01,3.241082600000000000e+09
6.500000000000000000e+01,9.900000000000000000e+01,5.610000000000000000e+02,1.540000000000000000e+02,3.900000000000000000e+01,6.000000000000000000e+01,3.370000000000000000e+02,1.760000000000000000e+02,4.899999999999999911e-01,3.258972000000000000e+09
6.000000000000000000e+01,9.800000000000000000e+01,4.670000000000000000e+02,1.250000000000000000e+02,3.200000000000000000e+01,7.300000000000000000e+01,3.830000000000000000e+02,1.870000000000000000e+02,5.000000000000000000e-01,3.281262000000000000e+09
6.400000000000000000e+01,1.080000000000000000e+02,4.610000000000000000e+02,1.240000000000000000e+02,3.400000000000000000e+01,7.200000000000000000e+01,4.020000000000000000e+02,1.950000000000000000e+02,5.100000000000000089e-01,3.303180300000000000e+09
6.500000000000000000e+01,1.120000000000000000e+02,4.940000000000000000e+02,1.070000000000000000e+02,3.100000000000000000e+01,7.000000000000000000e+01,3.940000000000000000e+02,1.850000000000000000e+02,5.100000000000000089e-01,3.321375800000000000e+09
6.700000000000000000e+01,1.160000000000000000e+02,5.700000000000000000e+02,1.450000000000000000e+02,3.400000000000000000e+01,6.600000000000000000e+01,3.840000000000000000e+02,1.780000000000000000e+02,5.200000000000000178e-01,3.340892800000000000e+09
6.400000000000000000e+01,1.060000000000000000e+02,5.240000000000000000e+02,1.410000000000000000e+02,3.200000000000000000e+01,6.100000000000000000e+01,3.100000000000000000e+02,1.240000000000000000e+02,5.300000000000000266e-01,3.360621200000000000e+09
6.900000000000000000e+01,1.180000000000000000e+02,5.880000000000000000e+02,1.610000000000000000e+02,4.000000000000000000e+01,4.300000000000000000e+01,2.410000000000000000e+02,1.040000000000000000e+02,5.400000000000000355e-01,3.381083800000000000e+09
6.800000000000000000e+01,1.250000000000000000e+02,6.030000000000000000e+02,1.560000000000000000e+02,4.000000000000000000e+01,3.700000000000000000e+01,2.420000000000000000e+02,1.880000000000000000e+02,5.500000000000000444e-01,3.403225800000000000e+09
6.600000000000000000e+01,1.230000000000000000e+02,5.580000000000000000e+02,1.610000000000000000e+02,4.000000000000000000e+01,3.700000000000000000e+01,2.060000000000000000e+02,1.910000000000000000e+02,5.500000000000000444e-01,3.420946200000000000e+09
6.200000000000000000e+01,1.180000000000000000e+02,4.540000000000000000e+02,1.280000000000000000e+02,3.900000000000000000e+01,3.700000000000000000e+01,2.070000000000000000e+02,1.960000000000000000e+02,5.500000000000000444e-01,3.439131500000000000e+09
6.900000000000000000e+01,1.200000000000000000e+02,5.090000000000000000e+02,1.280000000000000000e+02,4.200000000000000000e+01,4.000000000000000000e+01,1.910000000000000000e+02,2.060000000000000000e+02,5.500000000000000444e-01,3.458709800000000000e+09
6.500000000000000000e+01,1.040000000000000000e+02,4.570000000000000000e+02,1.020000000000000000e+02,3.600000000000000000e+01,3.900000000000000000e+01,2.030000000000000000e+02,2.080000000000000000e+02,5.500000000000000444e-01,3.481077900000000000e+09
6.900000000000000000e+01,1.030000000000000000e+02,4.490000000000000000e+02,1.090000000000000000e+02,3.400000000000000000e+01,3.900000000000000000e+01,1.340000000000000000e+02,1.380000000000000000e+02,5.500000000000000444e-01,3.503103500000000000e+09
6.800000000000000000e+01,1.140000000000000000e+02,5.060000000000000000e+02,1.020000000000000000e+02,3.500000000000000000e+01,3.600000000000000000e+01,1.310000000000000000e+02,1.340000000000000000e+02,5.500000000000000444e-01,3.521187800000000000e+09
7.300000000000000000e+01,1.310000000000000000e+02,5.310000000000000000e+02,1.010000000000000000e+02,3.500000000000000000e+01,3.600000000000000000e+01,1.240000000000000000e+02,1.280000000000000000e+02,5.600000000000000533e-01,3.540184100000000000e+09
5.800000000000000000e+01,1.250000000000000000e+02,4.620000000000000000e+02,9.500000000000000000e+01,3.200000000000000000e+01,3.400000000000000000e+01,1.180000000000000000e+02,9.200000000000000000e+01,5.600000000000000533e-01,3.558686200000000000e+09
5.500000000000000000e+01,1.490000000000000000e+02,5.030000000000000000e+02,1.080000000000000000e+02,3.800000000000000000e+01,3.300000000000000000e+01,8.100000000000000000e+01,8.300000000000000000e+01,5.600000000000000533e-01,3.581101400000000000e+09
4.900000000000000000e+01,1.460000000000000000e+02,5.480000000000000000e+02,1.320000000000000000e+02,4.300000000000000000e+01,3.000000000000000000e+01,7.700000000000000000e+01,5.400000000000000000e+01,5.699999999999999512e-01,3.604161300000000000e+09
5.700000000000000000e+01,1.470000000000000000e+02,5.220000000000000000e+02,1.450000000000000000e+02,4.400000000000000000e+01,3.100000000000000000e+01,9.700000000000000000e+01,6.800000000000000000e+01,5.699999999999999512e-01,3.622824300000000000e+09
5.700000000000000000e+01,1.390000000000000000e+02,5.670000000000000000e+02,1.570000000000000000e+02,4.500000000000000000e+01,3.900000000000000000e+01,9.300000000000000000e+01,6.100000000000000000e+01,5.699999999999999512e-01,3.642802900000000000e+09
5.500000000000000000e+01,1.420000000000000000e+02,5.590000000000000000e+02,1.570000000000000000e+02,4.400000000000000000e+01,4.500000000000000000e+01,9.700000000000000000e+01,6.100000000000000000e+01,5.699999999999999512e-01,3.661118800000000000e+09
5.800000000000000000e+01,1.530000000000000000e+02,5.630000000000000000e+02,1.570000000000000000e+02,4.200000000000000000e+01,4.500000000000000000e+01,9.700000000000000000e+01,6.000000000000000000e+01,5.799999999999999600e-01,3.683804900000000000e+09
5.900000000000000000e+01,1.520000000000000000e+02,5.140000000000000000e+02,1.480000000000000000e+02,4.400000000000000000e+01,5.000000000000000000e+01,9.900000000000000000e+01,5.800000000000000000e+01,5.799999999999999600e-01,3.702031100000000000e+09
5.200000000000000000e+01,1.480000000000000000e+02,5.670000000000000000e+02,2.260000000000000000e+02,5.000000000000000000e+01,5.200000000000000000e+01,7.500000000000000000e+01,4.200000000000000000e+01,5.899999999999999689e-01,3.720501100000000000e+09
4.600000000000000000e+01,1.610000000000000000e+02,5.420000000000000000e+02,2.790000000000000000e+02,5.100000000000000000e+01,4.700000000000000000e+01,8.100000000000000000e+01,3.700000000000000000e+01,5.999999999999999778e-01,3.740915400000000000e+09
5.900000000000000000e+01,2.010000000000000000e+02,5.830000000000000000e+02,2.870000000000000000e+02,5.600000000000000000e+01,4.300000000000000000e+01,9.100000000000000000e+01,3.300000000000000000e+01,6.099999999999999867e-01,3.763433700000000000e+09
6.200000000000000000e+01,2.000000000000000000e+02,6.480000000000000000e+02,3.280000000000000000e+02,7.200000000000000000e+01,4.700000000000000000e+01,9.200000000000000000e+01,3.700000000000000000e+01,6.099999999999999867e-01,3.781744200000000000e+09
6.000000000000000000e+01,2.020000000000000000e+02,6.820000000000000000e+02,3.930000000000000000e+02,7.800000000000000000e+01,4.400000000000000000e+01,9.100000000000000000e+01,3.700000000000000000e+01,6.099999999999999867e-01,3.801211600000000000e+09
6.600000000000000000e+01,2.160000000000000000e+02,6.620000000000000000e+02,3.740000000000000000e+02,7.700000000000000000e+01,5.100000000000000000e+01,9.000000000000000000e+01,3.800000000000000000e+01,6.099999999999999867e-01,3.819435100000000000e+09
6.600000000000000000e+01,2.120000000000000000e+02,6.950000000000000000e+02,3.550000000000000000e+02,7.600000000000000000e+01,5.500000000000000000e+01,8.300000000000000000e+01,4.000000000000000000e+01,6.099999999999999867e-01,3.841439800000000000e+09
6.000000000000000000e+01,1.730000000000000000e+02,7.820000000000000000e+02,3.840000000000000000e+02,8.200000000000000000e+01,6.300000000000000000e+01,6.400000000000000000e+01,4.500000000000000000e+01,6.099999999999999867e-01,3.859252800000000000e+09
5.900000000000000000e+01,1.850000000000000000e+02,7.170000000000000000e+02,3.660000000000000000e+02,7.300000000000000000e+01,6.400000000000000000e+01,1.130000000000000000e+02,4.200000000000000000e+01,6.099999999999999867e-01,3.878183800000000000e+09
6.200000000000000000e+01,1.840000000000000000e+02,8.130000000000000000e+02,3.510000000000000000e+02,7.100000000000000000e+01,6.500000000000000000e+01,1.390000000000000000e+02,4.400000000000000000e+01,6.099999999999999867e-01,3.897019500000000000e+09
6.000000000000000000e+01,1.730000000000000000e+02,8.420000000000000000e+02,3.790000000000000000e+02,7.500000000000000000e+01,6.300000000000000000e+01,1.470000000000000000e+02,4.500000000000000000e+01,6.099999999999999867e-01,3.919217000000000000e+09
6.100000000000000000e+01,1.740000000000000000e+02,8.280000000000000000e+02,3.860000000000000000e+02,7.900000000000000000e+01,6.100000000000000000e+01,1.470000000000000000e+02,4.500000000000000000e+01,6.099999999999999867e-01,3.941482100000000000e+09
8.900000000000000000e+01,2.200000000000000000e+02,7.910000000000000000e+02,4.530000000000000000e+02,1.270000000000000000e+02,1.030000000000000000e+02,1.470000000000000000e+02,5.100000000000000000e+01,5.999999999999999778e-01,3.963610900000000000e+09
9.000000000000000000e+01,1.910000000000000000e+02,9.070000000000000000e+02,4.470000000000000000e+02,1.280000000000000000e+02,1.110000000000000000e+02,1.090000000000000000e+02,4.900000000000000000e+01,5.799999999999999600e-01,3.981477600000000000e+09
8.700000000000000000e+01,1.900000000000000000e+02,8.240000000000000000e+02,4.120000000000000000e+02,1.270000000000000000e+02,1.120000000000000000e+02,6.600000000000000000e+01,4.800000000000000000e+01,5.699999999999999512e-01,4.000381700000000000e+09
9.400000000000000000e+01,2.090000000000000000e+02,8.780000000000000000e+02,4.860000000000000000e+02,1.380000000000000000e+02,1.240000000000000000e+02,4.700000000000000000e+01,5.200000000000000000e+01,5.600000000000000533e-01,4.019137300000000000e+09
9.800000000000000000e+01,2.290000000000000000e+02,1.047000000000000000e+03,5.290000000000000000e+02,1.490000000000000000e+02,1.350000000000000000e+02,4.700000000000000000e+01,5.400000000000000000e+01,5.500000000000000444e-01,4.041382300000000000e+09
1.000000000000000000e+02,2.410000000000000000e+02,1.080000000000000000e+03,6.360000000000000000e+02,1.140000000000000000e+02,1.010000000000000000e+02,4.800000000000000000e+01,5.700000000000000000e+01,5.400000000000000355e-01,4.063571000000000000e+09
1.050000000000000000e+02,2.520000000000000000e+02,1.025000000000000000e+03,6.430000000000000000e+02,1.210000000000000000e+02,1.000000000000000000e+02,4.900000000000000000e+01,6.200000000000000000e+01,5.300000000000000266e-01,4.081331400000000000e+09
1.060000000000000000e+02,2.620000000000000000e+02,1.016000000000000000e+03,6.410000000000000000e+02,1.230000000000000000e+02,9.900000000000000000e+01,4.900000000000000000e+01,6.100000000000000000e+01,5.200000000000000178e-01,4.099564000000000000e+09
1.050000000000000000e+02,2.620000000000000000e+02,9.830000000000000000e+02,5.940000000000000000e+02,1.210000000000000000e+02,8.300000000000000000e+01,4.600000000000000000e+01,5.800000000000000000e+01,5.100000000000000089e-01,4.119163800000000000e+09
1.480000000000000000e+02,3.340000000000000000e+02,9.660000000000000000e+02,6.970000000000000000e+02,2.060000000000000000e+02,1.260000000000000000e+02,5.500000000000000000e+01,7.300000000000000000e+01,4.799999999999999822e-01,4.141423100000000000e+09
1.460000000000000000e+02,3.270000000000000000e+02,9.820000000000000000e+02,6.640000000000000000e+02,3.360000000000000000e+02,1.920000000000000000e+02,5.900000000000000000e+01,7.900000000000000000e+01,4.600000000000000200e-01,4.159998600000000000e+09
1.520000000000000000e+02,3.310000000000000000e+02,1.017000000000000000e+03,7.740000000000000000e+02,4.490000000000000000e+02,2.990000000000000000e+02,8.400000000000000000e+01,8.100000000000000000e+01,4.299999999999999933e-01,4.178999000000000000e+09
1.630000000000000000e+02,3.510000000000000000e+02,1.065000000000000000e+03,8.740000000000000000e+02,5.620000000000000000e+02,3.370000000000000000e+02,1.140000000000000000e+02,9.500000000000000000e+01,4.099999999999999756e-01,4.197789800000000000e+09
2.030000000000000000e+02,4.300000000000000000e+02,1.077000000000000000e+03,1.106000000000000000e+03,6.390000000000000000e+02,3.670000000000000000e+02,1.300000000000000000e+02,1.120000000000000000e+02,3.900000000000000133e-01,4.221325900000000000e+09
1.750000000000000000e+02,3.750000000000000000e+02,1.029000000000000000e+03,1.126000000000000000e+03,6.380000000000000000e+02,3.670000000000000000e+02,1.320000000000000000e+02,1.020000000000000000e+02,3.800000000000000044e-01,4.241687700000000000e+09
1.900000000000000000e+02,4.060000000000000000e+02,1.040000000000000000e+03,1.149000000000000000e+03,6.120000000000000000e+02,3.550000000000000000e+02,1.420000000000000000e+02,1.090000000000000000e+02,3.599999999999999867e-01,4.263520900000000000e+09
2.220000000000000000e+02,4.920000000000000000e+02,1.021000000000000000e+03,1.162000000000000000e+03,5.470000000000000000e+02,2.750000000000000000e+02,1.410000000000000000e+02,1.270000000000000000e+02,3.400000000000000244e-01,4.281641800000000000e+09
2.250000000000000000e+02,5.150000000000000000e+02,1.162000000000000000e+03,1.154000000000000000e+03,4.760000000000000000e+02,2.370000000000000000e+02,1.290000000000000000e+02,1.240000000000000000e+02,3.200000000000000067e-01,4.299936000000000000e+09
2.070000000000000000e+02,5.070000000000000000e+02,1.168000000000000000e+03,9.520000000000000000e+02,3.790000000000000000e+02,2.120000000000000000e+02,1.230000000000000000e+02,1.180000000000000000e+02,2.999999999999999889e-01,4.320018600000000000e+09
2.240000000000000000e+02,5.420000000000000000e+02,1.133000000000000000e+03,9.810000000000000000e+02,3.780000000000000000e+02,2.320000000000000000e+02,1.290000000000000000e+02,1.310000000000000000e+02,2.800000000000000266e-01,4.341413000000000000e+09
2.330000000000000000e+02,5.620000000000000000e+02,1.085000000000000000e+03,9.110000000000000000e+02,4.120000000000000000e+02,2.660000000000000000e+02,1.430000000000000000e+02,1.330000000000000000e+02,2.600000000000000089e-01,4.363520300000000000e+09
2.200000000000000000e+02,5.520000000000000000e+02,1.169000000000000000e+03,8.590000000000000000e+02,4.290000000000000000e+02,2.850000000000000000e+02,1.430000000000000000e+02,1.230000000000000000e+02,2.500000000000000000e-01,4.381137600000000000e+09
2.170000000000000000e+02,5.340000000000000000e+02,1.044000000000000000e+03,9.150000000000000000e+02,3.970000000000000000e+02,2.860000000000000000e+02,1.380000000000000000e+02,1.190000000000000000e+02,2.399999999999999911e-01,4.399886200000000000e+09
2.060000000000000000e+02,4.920000000000000000e+02,1.017000000000000000e+03,9.570000000000000000e+02,3.870000000000000000e+02,2.730000000000000000e+02,1.310000000000000000e+02,1.150000000000000000e+02,2.300000000000000100e-01,4.418964300000000000e+09
2.200000000000000000e+02,5.110000000000000000e+02,1.012000000000000000e+03,9.110000000000000000e+02,3.760000000000000000e+02,2.500000000000000000e+02,1.340000000000000000e+02,1.200000000000000000e+02,2.300000000000000100e-01,4.441091700000000000e+09
2.030000000000000000e+02,4.950000000000000000e+02,9.840000000000000000e+02,9.430000000000000000e+02,2.920000000000000000e+02,2.070000000000000000e+02,1.160000000000000000e+02,1.100000000000000000e+02,2.200000000000000011e-01,4.463681500000000000e+09
1.910000000000000000e+02,4.650000000000000000e+02,1.059000000000000000e+03,1.010000000000000000e+03,2.680000000000000000e+02,1.980000000000000000e+02,1.090000000000000000e+02,1.050000000000000000e+02,2.200000000000000011e-01,4.481688600000000000e+09
1.870000000000000000e+02,4.570000000000000000e+02,1.042000000000000000e+03,9.070000000000000000e+02,2.540000000000000000e+02,1.910000000000000000e+02,1.070000000000000000e+02,1.040000000000000000e+02,2.099999999999999922e-01,4.499989400000000000e+09
1.960000000000000000e+02,4.830000000000000000e+02,1.087000000000000000e+03,9.170000000000000000e+02,2.620000000000000000e+02,1.890000000000000000e+02,1.090000000000000000e+02,1.070000000000000000e+02,2.000000000000000111e-01,4.519213400000000000e+09
1.840000000000000000e+02,5.060000000000000000e+02,1.124000000000000000e+03,8.540000000000000000e+02,2.520000000000000000e+02,1.750000000000000000e+02,9.500000000000000000e+01,1.010000000000000000e+02,2.000000000000000111e-01,4.541248400000000000e+09
1.770000000000000000e+02,4.810000000000000000e+02,1.246000000000000000e+03,8.370000000000000000e+02,2.520000000000000000e+02,1.630000000000000000e+02,8.500000000000000000e+01,1.000000000000000000e+02,1.900000000000000022e-01,4.563268000000000000e+09
1.710000000000000000e+02,4.620000000000000000e+02,1.107000000000000000e+03,8.000000000000000000e+02,2.420000000000000000e+02,1.580000000000000000e+02,7.700000000000000000e+01,9.500000000000000000e+01,1.900000000000000022e-01,4.581320000000000000e+09
1.910000000000000000e+02,4.850000000000000000e+02,1.157000000000000000e+03,9.240000000000000000e+02,2.750000000000000000e+02,1.800000000000000000e+02,8.600000000000000000e+01,1.060000000000000000e+02,1.900000000000000022e-01,4.601826500000000000e+09
2.000000000000000000e+02,5.080000000000000000e+02,1.194000000000000000e+03,9.110000000000000000e+02,3.030000000000000000e+02,1.910000000000000000e+02,9.100000000000000000e+01,1.120000000000000000e+02,1.900000000000000022e-01,4.620639600000000000e+09
1.770000000000000000e+02,4.200000000000000000e+02,1.155000000000000000e+03,8.700000000000000000e+02,2.770000000000000000e+02,1.850000000000000000e+02,8.600000000000000000e+01,9.700000000000000000e+01,1.900000000000000022e-01,4.641108800000000000e+09
1.760000000000000000e+02,4.320000000000000000e+02,1.100000000000000000e+03,9.230000000000000000e+02,2.680000000000000000e+02,1.860000000000000000e+02,8.600000000000000000e+01,9.400000000000000000e+01,1.900000000000000022e-01,4.663343100000000000e+09
1.880000000000000000e+02,4.870000000000000000e+02,1.068000000000000000e+03,8.860000000000000000e+02,2.680000000000000000e+02,1.710000000000000000e+02,9.500000000000000000e+01,1.050000000000000000e+02,1.799999999999999933e-01,4.681507400000000000e+09
1.620000000000000000e+02,4.530000000000000000e+02,1.069000000000000000e+03,8.230000000000000000e+02,2.300000000000000000e+02,1.400000000000000000e+02,9.000000000000000000e+01,9.300000000000000000e+01,1.799999999999999933e-01,4.699887900000000000e+09
1.430000000000000000e+02,4.180000000000000000e+02,9.890000000000000000e+02,7.390000000000000000e+02,2.090000000000000000e+02,1.330000000000000000e+02,8.500000000000000000e+01,8.600000000000000000e+01,1.799999999999999933e-01,4.723946400000000000e+09
1.590000000000000000e+02,4.300000000000000000e+02,1.043000000000000000e+03,7.860000000000000000e+02,2.170000000000000000e+02,1.370000000000000000e+02,8.700000000000000000e+01,9.200000000000000000e+01,1.700000000000000122e-01,4.741828900000000000e+09
1.700000000000000000e+02,4.270000000000000000e+02,9.800000000000000000e+02,8.210000000000000000e+02,2.650000000000000000e+02,1.760000000000000000e+02,8.800000000000000000e+01,9.900000000000000000e+01,1.700000000000000122e-01,4.763260000000000000e+09
1.500000000000000000e+02,3.410000000000000000e+02,1.000000000000000000e+03,7.790000000000000000e+02,2.540000000000000000e+02,1.710000000000000000e+02,7.700000000000000000e+01,8.700000000000000000e+01,1.700000000000000122e-01,4.781833800000000000e+09
1.540000000000000000e+02,3.480000000000000000e+02,9.200000000000000000e+02,7.090000000000000000e+02,2.730000000000000000e+02,1.770000000000000000e+02,7.500000000000000000e+01,9.000000000000000000e+01,1.700000000000000122e-01,4.800290400000000000e+09
1.390000000000000000e+02,3.110000000000000000e+02,8.550000000000000000e+02,7.440000000000000000e+02,2.520000000000000000e+02,1.660000000000000000e+02,6.800000000000000000e+01,8.100000000000000000e+01,1.700000000000000122e-01,4.818881800000000000e+09
1.170000000000000000e+02,2.900000000000000000e+02,7.500000000000000000e+02,7.340000000000000000e+02,2.450000000000000000e+02,1.580000000000000000e+02,6.300000000000000000e+01,7.500000000000000000e+01,1.700000000000000122e-01,4.841023300000000000e+09
8.100000000000000000e+01,2.440000000000000000e+02,7.390000000000000000e+02,6.030000000000000000e+02,1.850000000000000000e+02,1.100000000000000000e+02,5.500000000000000000e+01,5.700000000000000000e+01,1.799999999999999933e-01,4.863201300000000000e+09
8.500000000000000000e+01,2.440000000000000000e+02,7.390000000000000000e+02,6.360000000000000000e+02,1.810000000000000000e+02,1.040000000000000000e+02,5.100000000000000000e+01,5.400000000000000000e+01,1.900000000000000022e-01,4.881797700000000000e+09
7.700000000000000000e+01,2.330000000000000000e+02,7.450000000000000000e+02,5.960000000000000000e+02,1.350000000000000000e+02,9.100000000000000000e+01,4.400000000000000000e+01,4.700000000000000000e+01,2.000000000000000111e-01,4.901315200000000000e+09
7.500000000000000000e+01,2.310000000000000000e+02,8.220000000000000000e+02,5.540000000000000000e+02,1.290000000000000000e+02,9.300000000000000000e+01,4.100000000000000000e+01,4.500000000000000000e+01,2.099999999999999922e-01,4.919463400000000000e+09
8.100000000000000000e+01,2.290000000000000000e+02,8.350000000000000000e+02,4.860000000000000000e+02,1.240000000000000000e+02,9.400000000000000000e+01,4.200000000000000000e+01,4.600000000000000000e+01,2.300000000000000100e-01,4.941002100000000000e+09
8.200000000000000000e+01,2.240000000000000000e+02,8.990000000000000000e+02,4.210000000000000000e+02,1.210000000000000000e+02,7.500000000000000000e+01,4.300000000000000000e+01,4.700000000000000000e+01,2.399999999999999911e-01,4.963181100000000000e+09
6.800000000000000000e+01,2.060000000000000000e+02,8.400000000000000000e+02,3.090000000000000000e+02,1.010000000000000000e+02,6.800000000000000000e+01,3.800000000000000000e+01,4.000000000000000000e+01,2.600000000000000089e-01,4.981642200000000000e+09
7.100000000000000000e+01,2.130000000000000000e+02,8.380000000000000000e+02,3.720000000000000000e+02,1.060000000000000000e+02,7.200000000000000000e+01,3.600000000000000000e+01,4.600000000000000000e+01,2.700000000000000178e-01,5.000628100000000000e+09
6.600000000000000000e+01,1.900000000000000000e+02,7.490000000000000000e+02,3.460000000000000000e+02,1.070000000000000000e+02,7.400000000000000000e+01,3.900000000000000000e+01,4.300000000000000000e+01,2.899999999999999800e-01,5.019309700000000000e+09
6.000000000000000000e+01,1.770000000000000000e+02,6.660000000000000000e+02,3.270000000000000000e+02,1.050000000000000000e+02,6.900000000000000000e+01,4.000000000000000000e+01,4.100000000000000000e+01,3.099999999999999978e-01,5.040943800000000000e+09
5.100000000000000000e+01,1.600000000000000000e+02,4.980000000000000000e+02,2.800000000000000000e+02,9.400000000000000000e+01,6.800000000000000000e+01,3.700000000000000000e+01,3.600000000000000000e+01,3.300000000000000155e-01,5.063134200000000000e+09
6.500000000000000000e+01,1.480000000000000000e+02,5.240000000000000000e+02,2.730000000000000000e+02,9.500000000000000000e+01,7.200000000000000000e+01,3.800000000000000000e+01,8.100000000000000000e+01,3.499999999999999778e-01,5.083677100000000000e+09
5.800000000000000000e+01,1.340000000000000000e+02,4.240000000000000000e+02,1.660000000000000000e+02,7.100000000000000000e+01,6.100000000000000000e+01,3.700000000000000000e+01,1.810000000000000000e+02,3.699999999999999956e-01,5.101849900000000000e+09
6.700000000000000000e+01,1.270000000000000000e+02,4.250000000000000000e+02,1.470000000000000000e+02,5.800000000000000000e+01,5.300000000000000000e+01,4.000000000000000000e+01,2.630000000000000000e+02,3.900000000000000133e-01,5.120592800000000000e+09
7.500000000000000000e+01,1.330000000000000000e+02,4.290000000000000000e+02,1.310000000000000000e+02,8.400000000000000000e+01,5.900000000000000000e+01,4.400000000000000000e+01,2.840000000000000000e+02,3.900000000000000133e-01,5.140888700000000000e+09
7.900000000000000000e+01,1.350000000000000000e+02,4.340000000000000000e+02,1.210000000000000000e+02,9.200000000000000000e+01,5.800000000000000000e+01,4.600000000000000000e+01,3.040000000000000000e+02,4.000000000000000222e-01,5.163332000000000000e+09
8.300000000000000000e+01,1.500000000000000000e+02,4.660000000000000000e+02,1.320000000000000000e+02,9.200000000000000000e+01,5.500000000000000000e+01,4.500000000000000000e+01,4.110000000000000000e+02,4.000000000000000222e-01,5.182507700000000000e+09
8.800000000000000000e+01,1.440000000000000000e+02,5.140000000000000000e+02,1.640000000000000000e+02,1.050000000000000000e+02,6.000000000000000000e+01,5.500000000000000000e+01,3.910000000000000000e+02,4.099999999999999756e-01,5.201907300000000000e+09
1.000000000000000000e+02,1.470000000000000000e+02,4.990000000000000000e+02,1.870000000000000000e+02,1.050000000000000000e+02,6.200000000000000000e+01,1.050000000000000000e+02,3.720000000000000000e+02,4.099999999999999756e-01,5.220525400000000000e+09
9.500000000000000000e+01,1.360000000000000000e+02,4.890000000000000000e+02,1.880000000000000000e+02,8.300000000000000000e+01,7.500000000000000000e+01,1.100000000000000000e+02,3.670000000000000000e+02,4.199999999999999845e-01,5.240889900000000000e+09
9.300000000000000000e+01,1.440000000000000000e+02,4.580000000000000000e+02,1.850000000000000000e+02,7.700000000000000000e+01,7.800000000000000000e+01,1.170000000000000000e+02,3.770000000000000000e+02,4.199999999999999845e-01,5.263141700000000000e+09
7.800000000000000000e+01,1.400000000000000000e+02,3.400000000000000000e+02,1.670000000000000000e+02,7.900000000000000000e+01,8.000000000000000000e+01,1.220000000000000000e+02,2.510000000000000000e+02,4.199999999999999845e-01,5.281583600000000000e+09
7.800000000000000000e+01,1.550000000000000000e+02,4.010000000000000000e+02,1.350000000000000000e+02,8.600000000000000000e+01,8.500000000000000000e+01,1.200000000000000000e+02,2.340000000000000000e+02,4.199999999999999845e-01,5.300098400000000000e+09
5.300000000000000000e+01,1.530000000000000000e+02,4.340000000000000000e+02,1.040000000000000000e+02,8.900000000000000000e+01,8.800000000000000000e+01,7.900000000000000000e+01,1.960000000000000000e+02,4.099999999999999756e-01,5.318796000000000000e+09
5.600000000000000000e+01,1.540000000000000000e+02,4.500000000000000000e+02,1.050000000000000000e+02,8.900000000000000000e+01,7.300000000000000000e+01,7.400000000000000000e+01,1.820000000000000000e+02,4.099999999999999756e-01,5.340774200000000000e+09
5.700000000000000000e+01,1.490000000000000000e+02,4.550000000000000000e+02,1.050000000000000000e+02,8.600000000000000000e+01,7.100000000000000000e+01,6.500000000000000000e+01,1.250000000000000000e+02,4.099999999999999756e-01,5.368606300000000000e+09
5.600000000000000000e+01,1.860000000000000000e+02,4.320000000000000000e+02,9.000000000000000000e+01,7.900000000000000000e+01,6.800000000000000000e+01,5.900000000000000000e+01,1.200000000000000000e+02,4.199999999999999845e-01,5.386745700000000000e+09
5.000000000000000000e+01,1.640000000000000000e+02,2.780000000000000000e+02,9.900000000000000000e+01,5.200000000000000000e+01,5.800000000000000000e+01,5.200000000000000000e+01,1.110000000000000000e+02,4.199999999999999845e-01,5.405988300000000000e+09
4.700000000000000000e+01,1.670000000000000000e+02,2.560000000000000000e+02,9.000000000000000000e+01,4.200000000000000000e+01,4.900000000000000000e+01,4.900000000000000000e+01,8.500000000000000000e+01,4.299999999999999933e-01,5.424481100000000000e+09
4.200000000000000000e+01,1.780000000000000000e+02,2.470000000000000000e+02,1.160000000000000000e+02,4.000000000000000000e+01,4.800000000000000000e+01,4.100000000000000000e+01,7.100000000000000000e+01,4.400000000000000022e-01,5.442997400000000000e+09
3.300000000000000000e+01,1.810000000000000000e+02,2.360000000000000000e+02,1.230000000000000000e+02,3.800000000000000000e+01,3.700000000000000000e+01,3.800000000000000000e+01,5.700000000000000000e+01,4.600000000000000200e-01,5.461987600000000000e+09
3.000000000000000000e+01,1.460000000000000000e+02,2.330000000000000000e+02,1.310000000000000000e+02,3.700000000000000000e+01,3.400000000000000000e+01,3.200000000000000000e+01,4.900000000000000000e+01,4.699999999999999734e-01,5.482367000000000000e+09
3.500000000000000000e+01,1.490000000000000000e+02,2.800000000000000000e+02,1.170000000000000000e+02,3.000000000000000000e+01,3.100000000000000000e+01,3.100000000000000000e+01,4.900000000000000000e+01,4.799999999999999822e-01,5.501393200000000000e+09
4.700000000000000000e+01,1.620000000000000000e+02,2.890000000000000000e+02,1.490000000000000000e+02,3.500000000000000000e+01,5.000000000000000000e+01,3.600000000000000000e+01,5.800000000000000000e+01,4.899999999999999911e-01,5.519628700000000000e+09
5.300000000000000000e+01,1.670000000000000000e+02,3.440000000000000000e+02,1.730000000000000000e+02,4.200000000000000000e+01,6.200000000000000000e+01,6.000000000000000000e+01,6.700000000000000000e+01,5.000000000000000000e-01,5.542091700000000000e+09
5.900000000000000000e+01,1.600000000000000000e+02,3.680000000000000000e+02,1.850000000000000000e+02,4.400000000000000000e+01,6.600000000000000000e+01,1.170000000000000000e+02,1.880000000000000000e+02,5.200000000000000178e-01,5.560448300000000000e+09
6.400000000000000000e+01,1.380000000000000000e+02,4.240000000000000000e+02,1.840000000000000000e+02,4.500000000000000000e+01,7.100000000000000000e+01,1.240000000000000000e+02,2.170000000000000000e+02,5.300000000000000266e-01,5.582236000000000000e+09
6.400000000000000000e+01,1.270000000000000000e+02,4.130000000000000000e+02,1.980000000000000000e+02,4.700000000000000000e+01,7.100000000000000000e+01,1.260000000000000000e+02,2.250000000000000000e+02,5.300000000000000266e-01,5.600872000000000000e+09
5.700000000000000000e+01,1.130000000000000000e+02,4.260000000000000000e+02,1.790000000000000000e+02,4.300000000000000000e+01,6.000000000000000000e+01,1.270000000000000000e+02,2.300000000000000000e+02,5.400000000000000355e-01,5.624233600000000000e+09
5.100000000000000000e+01,1.010000000000000000e+02,4.260000000000000000e+02,1.360000000000000000e+02,3.600000000000000000e+01,5.200000000000000000e+01,1.170000000000000000e+02,2.280000000000000000e+02,5.500000000000000444e-01,5.643106000000000000e+09
4.400000000000000000e+01,1.030000000000000000e+02,4.130000000000000000e+02,1.130000000000000000e+02,3.600000000000000000e+01,4.900000000000000000e+01,6.200000000000000000e+01,1.490000000000000000e+02,5.500000000000000444e-01,5.661451200000000000e+09
3.800000000000000000e+01,1.040000000000000000e+02,4.350000000000000000e+02,1.360000000000000000e+02,3.300000000000000000e+01,4.100000000000000000e+01,4.900000000000000000e+01,9.900000000000000000e+01,5.600000000000000533e-01,5.682251600000000000e+09
3.600000000000000000e+01,1.060000000000000000e+02,4.220000000000000000e+02,1.390000000000000000e+02,4.200000000000000000e+01,4.600000000000000000e+01,4.400000000000000000e+01,8.000000000000000000e+01,5.600000000000000533e-01,5.700487400000000000e+09
6.000000000000000000e+01,9.900000000000000000e+01,4.210000000000000000e+02,1.460000000000000000e+02,4.600000000000000000e+01,4.700000000000000000e+01,4.300000000000000000e+01,8.600000000000000000e+01,5.699999999999999512e-01,5.719265300000000000e+09
6.100000000000000000e+01,8.100000000000000000e+01,3.860000000000000000e+02,1.450000000000000000e+02,4.400000000000000000e+01,4.100000000000000000e+01,4.400000000000000000e+01,8.300000000000000000e+01,5.699999999999999512e-01,5.737753800000000000e+09
6.300000000000000000e+01,7.900000000000000000e+01,4.170000000000000000e+02,1.480000000000000000e+02,4.400000000000000000e+01,4.200000000000000000e+01,3.400000000000000000e+01,7.700000000000000000e+01,5.699999999999999512e-01,5.760433300000000000e+09
6.700000000000000000e+01,8.700000000000000000e+01,3.900000000000000000e+02,1.670000000000000000e+02,4.700000000000000000e+01,4.300000000000000000e+01,3.600000000000000000e+01,7.700000000000000000e+01,5.799999999999999600e-01,5.782868400000000000e+09
6.600000000000000000e+01,1.000000000000000000e+02,4.580000000000000000e+02,2.190000000000000000e+02,4.900000000000000000e+01,4.100000000000000000e+01,3.500000000000000000e+01,7.600000000000000000e+01,5.799999999999999600e-01,5.801849900000000000e+09
4.300000000000000000e+01,1.010000000000000000e+02,4.460000000000000000e+02,2.170000000000000000e+02,4.800000000000000000e+01,3.500000000000000000e+01,3.100000000000000000e+01,3.500000000000000000e+01,5.899999999999999689e-01,5.819985300000000000e+09
4.200000000000000000e+01,1.040000000000000000e+02,4.240000000000000000e+02,2.190000000000000000e+02,4.900000000000000000e+01,3.900000000000000000e+01,3.100000000000000000e+01,3.500000000000000000e+01,5.999999999999999778e-01,5.839387700000000000e+09
4.100000000000000000e+01,1.010000000000000000e+02,4.020000000000000000e+02,2.210000000000000000e+02,4.900000000000000000e+01,3.500000000000000000e+01,3.500000000000000000e+01,3.400000000000000000e+01,5.999999999999999778e-01,5.861864900000000000e+09
3.800000000000000000e+01,9.400000000000000000e+01,3.760000000000000000e+02,2.110000000000000000e+02,5.000000000000000000e+01,3.700000000000000000e+01,3.500000000000000000e+01,3.300000000000000000e+01,6.199999999999999956e-01,5.879782600000000000e+09
3.500000000000000000e+01,7.500000000000000000e+01,3.160000000000000000e+02,1.470000000000000000e+02,4.000000000000000000e+01,3.200000000000000000e+01,3.400000000000000000e+01,2.900000000000000000e+01,6.199999999999999956e-01,5.902582300000000000e+09
3.400000000000000000e+01,7.300000000000000000e+01,3.080000000000000000e+02,1.390000000000000000e+02,3.600000000000000000e+01,3.000000000000000000e+01,3.000000000000000000e+01,2.700000000000000000e+01,6.199999999999999956e-01,5.920404200000000000e+09
3.400000000000000000e+01,7.200000000000000000e+01,3.280000000000000000e+02,1.390000000000000000e+02,3.500000000000000000e+01,2.700000000000000000e+01,2.900000000000000000e+01,2.600000000000000000e+01,6.199999999999999956e-01,5.940611400000000000e+09
3.700000000000000000e+01,8.200000000000000000e+01,4.160000000000000000e+02,1.520000000000000000e+02,4.300000000000000000e+01,4.200000000000000000e+01,2.900000000000000000e+01,2.800000000000000000e+01,6.300000000000000044e-01,5.963466200000000000e+09
3.600000000000000000e+01,7.900000000000000000e+01,4.090000000000000000e+02,1.570000000000000000e+02,4.500000000000000000e+01,4.200000000000000000e+01,2.700000000000000000e+01,2.700000000000000000e+01,6.300000000000000044e-01,5.983432800000000000e+09
3.700000000000000000e+01,8.300000000000000000e+01,3.860000000000000000e+02,1.550000000000000000e+02,4.800000000000000000e+01,4.500000000000000000e+01,2.700000000000000000e+01,2.800000000000000000e+01,6.400000000000000133e-01,6.012267800000000000e+09
3.700000000000000000e+01,7.600000000000000000e+01,3.700000000000000000e+02,1.530000000000000000e+02,4.800000000000000000e+01,4.500000000000000000e+01,2.900000000000000000e+01,2.700000000000000000e+01,6.400000000000000133e-01,6.031697300000000000e+09
4.000000000000000000e+01,7.500000000000000000e+01,4.210000000000000000e+02,1.650000000000000000e+02,4.900000000000000000e+01,4.700000000000000000e+01,3.200000000000000000e+01,2.800000000000000000e+01,6.400000000000000133e-01,6.052068700000000000e+09
3.500000000000000000e+01,6.600000000000000000e+01,3.440000000000000000e+02,1.470000000000000000e+02,4.000000000000000000e+01,3.600000000000000000e+01,2.900000000000000000e+01,2.500000000000000000e+01,6.400000000000000133e-01,6.070501500000000000e+09
3.600000000000000000e+01,6.700000000000000000e+01,3.650000000000000000e+02,1.110000000000000000e+02,3.300000000000000000e+01,3.200000000000000000e+01,2.900000000000000000e+01,2.600000000000000000e+01,6.400000000000000133e-01,6.088929100000000000e+09
3.400000000000000000e+01,6.100000000000000000e+01,4.090000000000000000e+02,1.040000000000000000e+02,2.900000000000000000e+01,2.700000000000000000e+01,3.100000000000000000e+01,2.600000000000000000e+01,6.400000000000000133e-01,6.106485800000000000e+09
3.400000000000000000e+01,6.100000000000000000e+01,4.610000000000000000e+02,1.150000000000000000e+02,2.800000000000000000e+01,2.900000000000000000e+01,3.100000000000000000e+01,2.600000000000000000e+01,6.400000000000000133e-01,6.125209800000000000e+09
3.100000000000000000e+01,6.100000000000000000e+01,4.900000000000000000e+02,1.070000000000000000e+02,2.600000000000000000e+01,2.500000000000000000e+01,2.900000000000000000e+01,2.500000000000000000e+01,6.400000000000000133e-01,6.143507600000000000e+09
2.900000000000000000e+01,5.600000000000000000e+01,5.030000000000000000e+02,1.270000000000000000e+02,3.000000000000000000e+01,2.800000000000000000e+01,3.100000000000000000e+01,2.600000000000000000e+01,6.400000000000000133e-01,6.164598200000000000e+09
3.200000000000000000e+01,5.400000000000000000e+01,5.220000000000000000e+02,1.420000000000000000e+02,3.300000000000000000e+01,4.000000000000000000e+01,3.200000000000000000e+01,2.600000000000000000e+01,6.400000000000000133e-01,6.183597900000000000e+09
3.000000000000000000e+01,5.200000000000000000e+01,5.020000000000000000e+02,1.420000000000000000e+02,3.300000000000000000e+01,4.200000000000000000e+01,2.900000000000000000e+01,2.500000000000000000e+01,6.400000000000000133e-01,6.202228600000000000e+09
3.100000000000000000e+01,5.000000000000000000e+01,4.820000000000000000e+02,1.330000000000000000e+02,3.300000000000000000e+01,4.100000000000000000e+01,3.000000000000000000e+01,2.700000000000000000e+01,6.400000000000000133e-01,6.220400400000000000e+09
3.500000000000000000e+01,5.200000000000000000e+01,4.270000000000000000e+02,1.290000000000000000e+02,3.600000000000000000e+01,4.500000000000000000e+01,3.000000000000000000e+01,2.800000000000000000e+01,6.400000000000000133e-01,6.238905900000000000e+09
3.500000000000000000e+01,4.900000000000000000e+01,4.340000000000000000e+02,1.200000000000000000e+02,3.300000000000000000e+01,4.300000000000000000e+01,2.900000000000000000e+01,2.700000000000000000e+01,6.400000000000000133e-01,6.257631700000000000e+09
3.100000000000000000e+01,5.000000000000000000e+01,4.710000000000000000e+02,1.020000000000000000e+02,2.900000000000000000e+01,3.300000000000000000e+01,2.700000000000000000e+01,2.500000000000000000e+01,6.400000000000000133e-01,6.279703500000000000e+09
3.500000000000000000e+01,5.500000000000000000e+01,5.060000000000000000e+02,1.200000000000000000e+02,3.300000000000000000e+01,3.200000000000000000e+01,2.700000000000000000e+01,2.700000000000000000e+01,6.400000000000000133e-01,6.301976400000000000e+09
3.300000000000000000e+01,5.600000000000000000e+01,4.800000000000000000e+02,1.230000000000000000e+02,3.200000000000000000e+01,3.100000000000000000e+01,2.700000000000000000e+01,2.600000000000000000e+01,6.400000000000000133e-01,6.321319400000000000e+09
3.400000000000000000e+01,7.200000000000000000e+01,5.050000000000000000e+02,1.380000000000000000e+02,3.700000000000000000e+01,3.000000000000000000e+01,2.600000000000000000e+01,2.800000000000000000e+01,6.400000000000000133e-01,6.339589100000000000e+09
3.400000000000000000e+01,7.200000000000000000e+01,4.680000000000000000e+02,1.310000000000000000e+02,3.400000000000000000e+01,2.900000000000000000e+01,2.400000000000000000e+01,2.600000000000000000e+01,6.400000000000000133e-01,6.358173800000000000e+09
4.100000000000000000e+01,8.000000000000000000e+01,4.810000000000000000e+02,1.640000000000000000e+02,4.000000000000000000e+01,3.300000000000000000e+01,2.600000000000000000e+01,3.100000000000000000e+01,6.400000000000000133e-01,6.379689900000000000e+09
4.000000000000000000e+01,8.900000000000000000e+01,4.500000000000000000e+02,1.590000000000000000e+02,4.300000000000000000e+01,3.600000000000000000e+01,3.000000000000000000e+01,3.100000000000000000e+01,6.400000000000000133e-01,6.402008400000000000e+09
4.000000000000000000e+01,8.800000000000000000e+01,4.500000000000000000e+02,1.550000000000000000e+02,4.200000000000000000e+01,3.600000000000000000e+01,2.800000000000000000e+01,3.100000000000000000e+01,6.400000000000000133e-01,6.420806200000000000e+09
3.500000000000000000e+01,7.500000000000000000e+01,3.900000000000000000e+02,1.350000000000000000e+02,3.600000000000000000e+01,3.300000000000000000e+01,2.900000000000000000e+01,2.900000000000000000e+01,6.400000000000000133e-01,6.439038300000000000e+09
4.000000000000000000e+01,7.900000000000000000e+01,4.420000000000000000e+02,1.540000000000000000e+02,4.300000000000000000e+01,4.000000000000000000e+01,3.000000000000000000e+01,3.100000000000000000e+01,6.400000000000000133e-01,6.472617800000000000e+09
3.200000000000000000e+01,6.900000000000000000e+01,3.310000000000000000e+02,1.350000000000000000e+02,4.000000000000000000e+01,3.700000000000000000e+01,2.700000000000000000e+01,2.600000000000000000e+01,6.400000000000000133e-01,6.491006000000000000e+09
3.700000000000000000e+01,6.300000000000000000e+01,3.300000000000000000e+02,1.520000000000000000e+02,4.200000000000000000e+01,3.600000000000000000e+01,2.500000000000000000e+01,2.700000000000000000e+01,6.400000000000000133e-01,6.508989300000000000e+09
4.600000000000000000e+01,8.500000000000000000e+01,3.660000000000000000e+02,1.760000000000000000e+02,5.200000000000000000e+01,4.300000000000000000e+01,3.000000000000000000e+01,2.900000000000000000e+01,6.400000000000000133e-01,6.528048400000000000e+09
4.800000000000000000e+01,8.700000000000000000e+01,4.180000000000000000e+02,1.810000000000000000e+02,5.200000000000000000e+01,4.300000000000000000e+01,3.100000000000000000e+01,2.800000000000000000e+01,6.400000000000000133e-01,6.547091900000000000e+09
4.300000000000000000e+01,8.200000000000000000e+01,3.710000000000000000e+02,1.620000000000000000e+02,4.600000000000000000e+01,3.600000000000000000e+01,3.000000000000000000e+01,2.800000000000000000e+01,6.500000000000000222e-01,6.566210200000000000e+09
4.500000000000000000e+01,7.900000000000000000e+01,3.650000000000000000e+02,1.500000000000000000e+02,4.700000000000000000e+01,3.500000000000000000e+01,3.100000000000000000e+01,3.000000000000000000e+01,6.500000000000000222e-01,6.584993400000000000e+09
4.000000000000000000e+01,7.900000000000000000e+01,3.890000000000000000e+02,1.700000000000000000e+02,4.300000000000000000e+01,3.300000000000000000e+01,3.100000000000000000e+01,2.700000000000000000e+01,6.500000000000000222e-01,6.605205200000000000e+09
3.000000000000000000e+01,5.600000000000000000e+01,4.420000000000000000e+02,1.500000000000000000e+02,3.100000000000000000e+01,2.500000000000000000e+01,2.700000000000000000e+01,2.400000000000000000e+01,6.500000000000000222e-01,6.623856300000000000e+09
2.800000000000000000e+01,5.500000000000000000e+01,3.930000000000000000e+02,1.440000000000000000e+02,3.100000000000000000e+01,2.900000000000000000e+01,2.500000000000000000e+01,2.400000000000000000e+01,6.500000000000000222e-01,6.643209100000000000e+09
2.900000000000000000e+01,5.800000000000000000e+01,3.980000000000000000e+02,1.470000000000000000e+02,3.100000000000000000e+01,2.900000000000000000e+01,2.500000000000000000e+01,2.100000000000000000e+01,6.500000000000000222e-01,6.662216400000000000e+09
2.700000000000000000e+01,5.800000000000000000e+01,4.100000000000000000e+02,1.420000000000000000e+02,2.900000000000000000e+01,3.200000000000000000e+01,2.600000000000000000e+01,1.900000000000000000e+01,6.500000000000000222e-01,6.682963500000000000e+09
2.300000000000000000e+01,4.300000000000000000e+01,3.620000000000000000e+02,7.200000000000000000e+01,2.500000000000000000e+01,3.200000000000000000e+01,2.300000000000000000e+01,1.800000000000000000e+01,6.500000000000000222e-01,6.701889100000000000e+09
2.400000000000000000e+01,4.500000000000000000e+01,2.440000000000000000e+02,6.500000000000000000e+01,2.500000000000000000e+01,3.300000000000000000e+01,2.300000000000000000e+01,1.800000000000000000e+01,6.400000000000000133e-01,6.720428600000000000e+09
2.300000000000000000e+01,4.500000000000000000e+01,2.600000000000000000e+02,7.400000000000000000e+01,2.500000000000000000e+01,3.300000000000000000e+01,2.800000000000000000e+01,2.000000000000000000e+01,6.400000000000000133e-01,6.741402300000000000e+09
2.600000000000000000e+01,5.200000000000000000e+01,3.440000000000000000e+02,8.700000000000000000e+01,2.800000000000000000e+01,3.600000000000000000e+01,2.900000000000000000e+01,2.000000000000000000e+01,6.400000000000000133e-01,6.760605200000000000e+09
2.900000000000000000e+01,5.500000000000000000e+01,3.620000000000000000e+02,8.700000000000000000e+01,2.600000000000000000e+01,3.300000000000000000e+01,2.800000000000000000e+01,2.000000000000000000e+01,6.300000000000000044e-01,6.779572800000000000e+09
3.100000000000000000e+01,5.900000000000000000e+01,3.710000000000000000e+02,9.300000000000000000e+01,2.800000000000000000e+01,3.700000000000000000e+01,3.000000000000000000e+01,2.400000000000000000e+01,6.300000000000000044e-01,6.801889300000000000e+09
3.200000000000000000e+01,5.600000000000000000e+01,3.770000000000000000e+02,1.080000000000000000e+02,2.600000000000000000e+01,3.900000000000000000e+01,3.000000000000000000e+01,2.500000000000000000e+01,6.300000000000000044e-01,6.823945000000000000e+09
3.500000000000000000e+01,6.100000000000000000e+01,4.050000000000000000e+02,1.130000000000000000e+02,2.900000000000000000e+01,3.800000000000000000e+01,3.000000000000000000e+01,2.500000000000000000e+01,6.300000000000000044e-01,6.842286300000000000e+09
3.200000000000000000e+01,5.200000000000000000e+01,3.440000000000000000e+02,1.040000000000000000e+02,2.600000000000000000e+01,3.300000000000000000e+01,2.800000000000000000e+01,2.500000000000000000e+01,6.199999999999999956e-01,6.860768700000000000e+09
3.100000000000000000e+01,5.400000000000000000e+01,3.560000000000000000e+02,1.050000000000000000e+02,2.900000000000000000e+01,3.500000000000000000e+01,3.000000000000000000e+01,2.600000000000000000e+01,6.199999999999999956e-01,6.879433500000000000e+09
2.900000000000000000e+01,5.000000000000000000e+01,3.610000000000000000e+02,1.080000000000000000e+02,2.900000000000000000e+01,3.100000000000000000e+01,3.000000000000000000e+01,2.400000000000000000e+01,6.199999999999999956e-01,6.901683800000000000e+09
2.800000000000000000e+01,5.000000000000000000e+01,3.670000000000000000e+02,9.700000000000000000e+01,3.200000000000000000e+01,3.100000000000000000e+01,2.900000000000000000e+01,2.300000000000000000e+01,6.099999999999999867e-01,6.921514400000000000e+09
2.800000000000000000e+01,4.800000000000000000e+01,3.350000000000000000e+02,9.500000000000000000e+01,2.900000000000000000e+01,3.100000000000000000e+01,2.900000000000000000e+01,2.400000000000000000e+01,6.099999999999999867e-01,6.939773900000000000e+09
3.400000000000000000e+01,6.700000000000000000e+01,3.490000000000000000e+02,1.020000000000000000e+02,3.700000000000000000e+01,3.600000000000000000e+01,3.200000000000000000e+01,2.700000000000000000e+01,6.199999999999999956e-01,6.958896200000000000e+09
3.600000000000000000e+01,7.900000000000000000e+01,3.700000000000000000e+02,1.190000000000000000e+02,4.300000000000000000e+01,3.800000000000000000e+01,3.500000000000000000e+01,2.900000000000000000e+01,6.199999999999999956e-01,6.980340000000000000e+09
4.200000000000000000e+01,8.500000000000000000e+01,3.900000000000000000e+02,1.360000000000000000e+02,4.700000000000000000e+01,4.400000000000000000e+01,3.400000000000000000e+01,2.800000000000000000e+01,6.199999999999999956e-01,7.003017900000000000e+09
5.800000000000000000e+01,1.230000000000000000e+02,4.260000000000000000e+02,2.040000000000000000e+02,6.700000000000000000e+01,5.200000000000000000e+01,3.900000000000000000e+01,3.800000000000000000e+01,6.199999999999999956e-01,7.033336800000000000e+09
5.600000000000000000e+01,1.250000000000000000e+02,5.410000000000000000e+02,2.340000000000000000e+02,7.200000000000000000e+01,5.600000000000000000e+01,3.800000000000000000e+01,3.600000000000000000e+01,6.199999999999999956e-01,7.051445800000000000e+09
5.700000000000000000e+01,1.230000000000000000e+02,6.950000000000000000e+02,2.520000000000000000e+02,7.500000000000000000e+01,5.400000000000000000e+01,3.600000000000000000e+01,3.400000000000000000e+01,6.199999999999999956e-01,7.069717900000000000e+09
5.900000000000000000e+01,1.300000000000000000e+02,7.440000000000000000e+02,3.140000000000000000e+02,8.200000000000000000e+01,5.700000000000000000e+01,3.400000000000000000e+01,3.600000000000000000e+01,6.099999999999999867e-01,7.088311500000000000e+09
5.600000000000000000e+01,1.300000000000000000e+02,8.140000000000000000e+02,3.750000000000000000e+02,9.400000000000000000e+01,5.300000000000000000e+01,3.500000000000000000e+01,3.700000000000000000e+01,6.099999999999999867e-01,7.107046600000000000e+09
4.200000000000000000e+01,1.020000000000000000e+02,8.550000000000000000e+02,3.810000000000000000e+02,8.400000000000000000e+01,4.700000000000000000e+01,3.100000000000000000e+01,3.000000000000000000e+01,5.999999999999999778e-01,7.125022400000000000e+09
5.100000000000000000e+01,1.290000000000000000e+02,8.850000000000000000e+02,4.510000000000000000e+02,9.300000000000000000e+01,4.500000000000000000e+01,3.000000000000000000e+01,3.300000000000000000e+01,5.999999999999999778e-01,7.143913900000000000e+09
6.600000000000000000e+01,1.590000000000000000e+02,8.460000000000000000e+02,5.940000000000000000e+02,1.210000000000000000e+02,7.900000000000000000e+01,4.300000000000000000e+01,4.300000000000000000e+01,5.899999999999999689e-01,7.164725200000000000e+09
7.300000000000000000e+01,1.710000000000000000e+02,9.160000000000000000e+02,6.120000000000000000e+02,1.230000000000000000e+02,8.000000000000000000e+01,4.300000000000000000e+01,4.300000000000000000e+01,5.899999999999999689e-01,7.183435000000000000e+09
8.800000000000000000e+01,2.140000000000000000e+02,1.010000000000000000e+03,7.150000000000000000e+02,1.270000000000000000e+02,8.400000000000000000e+01,4.600000000000000000e+01,4.700000000000000000e+01,5.799999999999999600e-01,7.201553000000000000e+09
1.000000000000000000e+02,2.450000000000000000e+02,1.031000000000000000e+03,7.920000000000000000e+02,1.490000000000000000e+02,9.000000000000000000e+01,4.800000000000000000e+01,5.200000000000000000e+01,5.699999999999999512e-01,7.228946000000000000e+09
9.900000000000000000e+01,2.360000000000000000e+02,9.880000000000000000e+02,7.750000000000000000e+02,1.490000000000000000e+02,9.300000000000000000e+01,4.900000000000000000e+01,5.300000000000000000e+01,5.500000000000000444e-01,7.247571800000000000e+09
1.000000000000000000e+02,2.460000000000000000e+02,9.650000000000000000e+02,6.860000000000000000e+02,1.500000000000000000e+02,9.000000000000000000e+01,4.700000000000000000e+01,5.200000000000000000e+01,5.400000000000000355e-01,7.265743600000000000e+09
1.010000000000000000e+02,2.500000000000000000e+02,9.520000000000000000e+02,7.270000000000000000e+02,1.690000000000000000e+02,1.010000000000000000e+02,5.200000000000000000e+01,5.800000000000000000e+01,5.300000000000000266e-01,7.284529200000000000e+09
1.060000000000000000e+02,2.420000000000000000e+02,8.610000000000000000e+02,6.810000000000000000e+02,2.110000000000000000e+02,1.370000000000000000e+02,6.000000000000000000e+01,6.600000000000000000e+01,5.100000000000000089e-01,7.303862200000000000e+09
1.230000000000000000e+02,2.370000000000000000e+02,9.030000000000000000e+02,7.280000000000000000e+02,2.170000000000000000e+02,1.450000000000000000e+02,6.600000000000000000e+01,7.600000000000000000e+01,5.000000000000000000e-01,7.323841700000000000e+09
1.280000000000000000e+02,2.460000000000000000e+02,9.400000000000000000e+02,8.000000000000000000e+02,2.440000000000000000e+02,1.630000000000000000e+02,7.300000000000000000e+01,7.900000000000000000e+01,4.799999999999999822e-01,7.342172600000000000e+09
1.310000000000000000e+02,2.390000000000000000e+02,9.720000000000000000e+02,9.050000000000000000e+02,2.520000000000000000e+02,1.660000000000000000e+02,7.600000000000000000e+01,8.200000000000000000e+01,4.699999999999999734e-01,7.361033800000000000e+09
1.290000000000000000e+02,2.270000000000000000e+02,9.310000000000000000e+02,9.460000000000000000e+02,2.400000000000000000e+02,1.600000000000000000e+02,7.700000000000000000e+01,7.900000000000000000e+01,4.600000000000000200e-01,7.387502900000000000e+09
1.230000000000000000e+02,2.160000000000000000e+02,1.094000000000000000e+03,9.360000000000000000e+02,2.390000000000000000e+02,1.380000000000000000e+02,7.900000000000000000e+01,7.700000000000000000e+01,4.400000000000000022e-01,7.408386800000000000e+09
1.050000000000000000e+02,2.280000000000000000e+02,1.090000000000000000e+03,9.740000000000000000e+02,2.780000000000000000e+02,1.480000000000000000e+02,7.900000000000000000e+01,6.700000000000000000e+01,4.299999999999999933e-01,7.426711000000000000e+09
1.020000000000000000e+02,2.380000000000000000e+02,1.132000000000000000e+03,9.330000000000000000e+02,3.040000000000000000e+02,1.540000000000000000e+02,7.800000000000000000e+01,6.600000000000000000e+01,4.199999999999999845e-01,7.445205300000000000e+09
1.060000000000000000e+02,2.560000000000000000e+02,1.233000000000000000e+03,8.870000000000000000e+02,3.380000000000000000e+02,1.830000000000000000e+02,7.400000000000000000e+01,6.400000000000000000e+01,4.000000000000000222e-01,7.465216700000000000e+09
1.040000000000000000e+02,2.570000000000000000e+02,1.277000000000000000e+03,9.200000000000000000e+02,4.110000000000000000e+02,2.200000000000000000e+02,7.900000000000000000e+01,6.200000000000000000e+01,3.900000000000000133e-01,7.484382500000000000e+09
1.050000000000000000e+02,2.580000000000000000e+02,1.146000000000000000e+03,8.830000000000000000e+02,4.610000000000000000e+02,2.480000000000000000e+02,7.500000000000000000e+01,6.200000000000000000e+01,3.800000000000000044e-01,7.502662700000000000e+09
1.020000000000000000e+02,2.460000000000000000e+02,1.140000000000000000e+03,8.530000000000000000e+02,5.060000000000000000e+02,2.820000000000000000e+02,8.100000000000000000e+01,6.100000000000000000e+01,3.599999999999999867e-01,7.521649000000000000e+09
1.120000000000000000e+02,2.810000000000000000e+02,1.115000000000000000e+03,9.060000000000000000e+02,4.970000000000000000e+02,2.710000000000000000e+02,8.200000000000000000e+01,6.700000000000000000e+01,3.499999999999999778e-01,7.540631000000000000e+09
1.070000000000000000e+02,3.050000000000000000e+02,1.094000000000000000e+03,9.190000000000000000e+02,4.830000000000000000e+02,2.470000000000000000e+02,8.000000000000000000e+01,6.700000000000000000e+01,3.400000000000000244e-01,7.559196500000000000e+09
1.210000000000000000e+02,3.280000000000000000e+02,1.122000000000000000e+03,8.670000000000000000e+02,4.480000000000000000e+02,2.200000000000000000e+02,8.100000000000000000e+01,7.500000000000000000e+01,3.300000000000000155e-01,7.589375300000000000e+09
1.390000000000000000e+02,3.620000000000000000e+02,1.211000000000000000e+03,9.650000000000000000e+02,3.880000000000000000e+02,2.090000000000000000e+02,8.300000000000000000e+01,8.000000000000000000e+01,3.099999999999999978e-01,7.608104600000000000e+09
1.430000000000000000e+02,3.590000000000000000e+02,1.265000000000000000e+03,9.840000000000000000e+02,2.870000000000000000e+02,1.530000000000000000e+02,7.100000000000000000e+01,8.100000000000000000e+01,2.999999999999999889e-01,7.627087600000000000e+09
1.410000000000000000e+02,3.380000000000000000e+02,1.254000000000000000e+03,9.660000000000000000e+02,2.740000000000000000e+02,1.570000000000000000e+02,7.400000000000000000e+01,8.200000000000000000e+01,2.899999999999999800e-01,7.645460300000000000e+09
1.420000000000000000e+02,3.070000000000000000e+02,1.195000000000000000e+03,9.570000000000000000e+02,2.920000000000000000e+02,1.760000000000000000e+02,8.300000000000000000e+01,8.700000000000000000e+01,2.800000000000000266e-01,7.663400700000000000e+09
1.350000000000000000e+02,3.100000000000000000e+02,1.114000000000000000e+03,9.310000000000000000e+02,2.600000000000000000e+02,1.840000000000000000e+02,7.600000000000000000e+01,8.200000000000000000e+01,2.700000000000000178e-01,7.681545800000000000e+09
1.190000000000000000e+02,2.740000000000000000e+02,1.053000000000000000e+03,9.340000000000000000e+02,2.510000000000000000e+02,1.620000000000000000e+02,7.200000000000000000e+01,7.500000000000000000e+01,2.700000000000000178e-01,7.703256200000000000e+09
1.170000000000000000e+02,3.040000000000000000e+02,9.530000000000000000e+02,8.130000000000000000e+02,2.570000000000000000e+02,1.650000000000000000e+02,7.800000000000000000e+01,7.700000000000000000e+01,2.600000000000000089e-01,7.731931900000000000e+09
1.150000000000000000e+02,3.010000000000000000e+02,9.020000000000000000e+02,7.830000000000000000e+02,2.430000000000000000e+02,1.590000000000000000e+02,7.400000000000000000e+01,7.500000000000000000e+01,2.500000000000000000e-01,7.749745900000000000e+09
1.030000000000000000e+02,2.800000000000000000e+02,8.630000000000000000e+02,7.330000000000000000e+02,1.780000000000000000e+02,1.350000000000000000e+02,6.200000000000000000e+01,6.400000000000000000e+01,2.600000000000000089e-01,7.767087400000000000e+09
9.700000000000000000e+01,2.550000000000000000e+02,9.050000000000000000e+02,6.950000000000000000e+02,1.770000000000000000e+02,1.160000000000000000e+02,5.900000000000000000e+01,6.000000000000000000e+01,2.600000000000000089e-01,7.791031800000000000e+09
9.200000000000000000e+01,2.460000000000000000e+02,8.140000000000000000e+02,5.490000000000000000e+02,1.670000000000000000e+02,1.100000000000000000e+02,5.800000000000000000e+01,6.000000000000000000e+01,2.600000000000000089e-01,7.809032600000000000e+09
1.030000000000000000e+02,2.480000000000000000e+02,8.220000000000000000e+02,5.470000000000000000e+02,1.600000000000000000e+02,9.800000000000000000e+01,5.400000000000000000e+01,6.400000000000000000e+01,2.700000000000000178e-01,7.828027000000000000e+09
9.200000000000000000e+01,2.250000000000000000e+02,8.080000000000000000e+02,4.690000000000000000e+02,1.430000000000000000e+02,8.800000000000000000e+01,4.800000000000000000e+01,5.600000000000000000e+01,2.700000000000000178e-01,7.846073300000000000e+09
1.010000000000000000e+02,2.290000000000000000e+02,8.560000000000000000e+02,4.420000000000000000e+02,1.560000000000000000e+02,9.700000000000000000e+01,5.300000000000000000e+01,6.300000000000000000e+01,2.800000000000000266e-01,7.868564500000000000e+09
1.000000000000000000e+02,2.160000000000000000e+02,7.750000000000000000e+02,3.750000000000000000e+02,1.390000000000000000e+02,9.100000000000000000e+01,5.200000000000000000e+01,6.300000000000000000e+01,2.800000000000000266e-01,7.886952800000000000e+09
9.400000000000000000e+01,2.150000000000000000e+02,7.820000000000000000e+02,3.380000000000000000e+02,1.220000000000000000e+02,8.100000000000000000e+01,4.600000000000000000e+01,5.800000000000000000e+01,2.899999999999999800e-01,7.905570000000000000e+09
6.700000000000000000e+01,1.670000000000000000e+02,6.880000000000000000e+02,2.760000000000000000e+02,1.000000000000000000e+02,6.900000000000000000e+01,3.700000000000000000e+01,4.300000000000000000e+01,2.999999999999999889e-01,7.923819800000000000e+09
7.100000000000000000e+01,1.730000000000000000e+02,6.930000000000000000e+02,2.860000000000000000e+02,1.110000000000000000e+02,8.000000000000000000e+01,4.100000000000000000e+01,4.700000000000000000e+01,3.099999999999999978e-01,7.942971100000000000e+09
6.000000000000000000e+01,1.650000000000000000e+02,5.070000000000000000e+02,2.240000000000000000e+02,8.000000000000000000e+01,6.100000000000000000e+01,3.400000000000000000e+01,9.400000000000000000e+01,3.300000000000000155e-01,7.962490100000000000e+09
5.700000000000000000e+01,1.630000000000000000e+02,4.410000000000000000e+02,2.240000000000000000e+02,8.100000000000000000e+01,6.000000000000000000e+01,3.800000000000000000e+01,1.530000000000000000e+02,3.499999999999999778e-01,7.980634400000000000e+09
5.600000000000000000e+01,1.880000000000000000e+02,3.230000000000000000e+02,1.990000000000000000e+02,7.800000000000000000e+01,6.100000000000000000e+01,3.800000000000000000e+01,1.580000000000000000e+02,3.599999999999999867e-01,8.001408600000000000e+09
5.600000000000000000e+01,2.130000000000000000e+02,3.100000000000000000e+02,1.560000000000000000e+02,7.500000000000000000e+01,6.200000000000000000e+01,3.800000000000000000e+01,1.660000000000000000e+02,3.699999999999999956e-01,8.023513600000000000e+09
5.000000000000000000e+01,2.200000000000000000e+02,2.180000000000000000e+02,1.120000000000000000e+02,5.200000000000000000e+01,4.500000000000000000e+01,3.400000000000000000e+01,1.680000000000000000e+02,3.900000000000000133e-01,8.043053500000000000e+09
4.500000000000000000e+01,2.370000000000000000e+02,4.510000000000000000e+02,1.250000000000000000e+02,5.800000000000000000e+01,4.400000000000000000e+01,3.300000000000000000e+01,1.440000000000000000e+02,4.000000000000000222e-01,8.062091700000000000e+09
4.700000000000000000e+01,2.620000000000000000e+02,5.040000000000000000e+02,1.280000000000000000e+02,5.200000000000000000e+01,4.400000000000000000e+01,3.200000000000000000e+01,8.300000000000000000e+01,4.199999999999999845e-01,8.083457400000000000e+09
4.700000000000000000e+01,2.580000000000000000e+02,5.090000000000000000e+02,1.230000000000000000e+02,5.900000000000000000e+01,4.600000000000000000e+01,3.300000000000000000e+01,9.600000000000000000e+01,4.299999999999999933e-01,8.102810000000000000e+09
5.900000000000000000e+01,2.280000000000000000e+02,5.090000000000000000e+02,1.280000000000000000e+02,6.100000000000000000e+01,4.500000000000000000e+01,3.600000000000000000e+01,2.560000000000000000e+02,4.400000000000000022e-01,8.123489500000000000e+09
6.900000000000000000e+01,2.600000000000000000e+02,5.290000000000000000e+02,1.460000000000000000e+02,6.000000000000000000e+01,4.200000000000000000e+01,3.400000000000000000e+01,2.650000000000000000e+02,4.500000000000000111e-01,8.143274400000000000e+09
6.700000000000000000e+01,2.500000000000000000e+02,5.200000000000000000e+02,1.520000000000000000e+02,5.200000000000000000e+01,4.100000000000000000e+01,3.500000000000000000e+01,2.760000000000000000e+02,4.600000000000000200e-01,8.162539900000000000e+09
7.000000000000000000e+01,2.400000000000000000e+02,5.820000000000000000e+02,1.540000000000000000e+02,5.900000000000000000e+01,4.400000000000000000e+01,3.700000000000000000e+01,2.800000000000000000e+02,4.600000000000000200e-01,8.181526000000000000e+09
7.300000000000000000e+01,2.470000000000000000e+02,6.350000000000000000e+02,1.810000000000000000e+02,5.500000000000000000e+01,5.600000000000000000e+01,4.200000000000000000e+01,2.800000000000000000e+02,4.600000000000000200e-01,8.212709500000000000e+09
6.600000000000000000e+01,2.960000000000000000e+02,6.670000000000000000e+02,1.990000000000000000e+02,5.300000000000000000e+01,5.300000000000000000e+01,4.200000000000000000e+01,1.470000000000000000e+02,4.699999999999999734e-01,8.232265300000000000e+09
6.000000000000000000e+01,2.620000000000000000e+02,6.790000000000000000e+02,2.110000000000000000e+02,5.500000000000000000e+01,6.000000000000000000e+01,4.900000000000000000e+01,1.750000000000000000e+02,4.699999999999999734e-01,8.250754400000000000e+09
5.800000000000000000e+01,2.730000000000000000e+02,5.670000000000000000e+02,2.020000000000000000e+02,5.500000000000000000e+01,6.200000000000000000e+01,4.900000000000000000e+01,1.620000000000000000e+02,4.799999999999999822e-01,8.268651600000000000e+09
5.800000000000000000e+01,2.870000000000000000e+02,4.980000000000000000e+02,2.420000000000000000e+02,5.000000000000000000e+01,5.800000000000000000e+01,4.800000000000000000e+01,1.660000000000000000e+02,4.899999999999999911e-01,8.287491100000000000e+09
5.700000000000000000e+01,2.690000000000000000e+02,4.740000000000000000e+02,2.630000000000000000e+02,5.100000000000000000e+01,5.200000000000000000e+01,4.800000000000000000e+01,1.550000000000000000e+02,4.899999999999999911e-01,8.305419400000000000e+09
5.200000000000000000e+01,2.060000000000000000e+02,4.430000000000000000e+02,2.710000000000000000e+02,5.800000000000000000e+01,6.100000000000000000e+01,4.500000000000000000e+01,1.510000000000000000e+02,5.000000000000000000e-01,8.323923300000000000e+09
4.500000000000000000e+01,1.950000000000000000e+02,4.250000000000000000e+02,2.660000000000000000e+02,5.500000000000000000e+01,5.700000000000000000e+01,3.800000000000000000e+01,9.300000000000000000e+01,5.100000000000000089e-01,8.342322900000000000e+09
4.500000000000000000e+01,1.690000000000000000e+02,4.230000000000000000e+02,2.850000000000000000e+02,5.400000000000000000e+01,5.600000000000000000e+01,3.700000000000000000e+01,8.000000000000000000e+01,5.200000000000000178e-01,8.361296400000000000e+09
4.000000000000000000e+01,1.250000000000000000e+02,4.380000000000000000e+02,3.190000000000000000e+02,6.700000000000000000e+01,6.200000000000000000e+01,3.400000000000000000e+01,5.000000000000000000e+01,5.300000000000000266e-01,8.383844700000000000e+09
3.300000000000000000e+01,1.390000000000000000e+02,3.870000000000000000e+02,3.610000000000000000e+02,6.800000000000000000e+01,5.600000000000000000e+01,2.700000000000000000e+01,4.300000000000000000e+01,5.500000000000000444e-01,8.404291600000000000e+09
4.400000000000000000e+01,1.470000000000000000e+02,3.710000000000000000e+02,3.440000000000000000e+02,6.200000000000000000e+01,4.800000000000000000e+01,3.400000000000000000e+01,4.400000000000000000e+01,5.699999999999999512e-01,8.423738200000000000e+09
5.300000000000000000e+01,1.790000000000000000e+02,3.540000000000000000e+02,4.190000000000000000e+02,9.100000000000000000e+01,4.800000000000000000e+01,3.700000000000000000e+01,4.300000000000000000e+01,5.799999999999999600e-01,8.443456300000000000e+09
5.300000000000000000e+01,1.970000000000000000e+02,3.900000000000000000e+02,5.050000000000000000e+02,9.800000000000000000e+01,5.100000000000000000e+01,3.800000000000000000e+01,4.300000000000000000e+01,5.899999999999999689e-01,8.462632900000000000e+09
5.500000000000000000e+01,2.010000000000000000e+02,3.690000000000000000e+02,4.720000000000000000e+02,9.600000000000000000e+01,5.100000000000000000e+01,4.100000000000000000e+01,4.300000000000000000e+01,6.099999999999999867e-01,8.490654600000000000e+09
5.600000000000000000e+01,2.020000000000000000e+02,3.820000000000000000e+02,4.240000000000000000e+02,1.000000000000000000e+02,5.600000000000000000e+01,4.500000000000000000e+01,4.500000000000000000e+01,6.199999999999999956e-01,8.509349600000000000e+09
6.200000000000000000e+01,2.120000000000000000e+02,4.170000000000000000e+02,4.380000000000000000e+02,1.170000000000000000e+02,7.400000000000000000e+01,4.200000000000000000e+01,4.000000000000000000e+01,6.300000000000000044e-01,8.527469700000000000e+09
6.000000000000000000e+01,3.050000000000000000e+02,4.630000000000000000e+02,3.800000000000000000e+02,1.000000000000000000e+02,7.400000000000000000e+01,4.500000000000000000e+01,4.000000000000000000e+01,6.300000000000000044e-01,8.546443000000000000e+09
8.500000000000000000e+01,3.400000000000000000e+02,4.610000000000000000e+02,2.380000000000000000e+02,1.060000000000000000e+02,8.000000000000000000e+01,5.300000000000000000e+01,4.900000000000000000e+01,6.300000000000000044e-01,8.566111300000000000e+09
9.400000000000000000e+01,3.660000000000000000e+02,4.350000000000000000e+02,2.440000000000000000e+02,1.010000000000000000e+02,7.900000000000000000e+01,5.100000000000000000e+01,5.000000000000000000e+01,6.300000000000000044e-01,8.587022500000000000e+09
9.900000000000000000e+01,4.310000000000000000e+02,5.990000000000000000e+02,2.760000000000000000e+02,9.800000000000000000e+01,8.300000000000000000e+01,5.200000000000000000e+01,4.900000000000000000e+01,6.199999999999999956e-01,8.605730300000000000e+09
1.430000000000000000e+02,5.630000000000000000e+02,7.110000000000000000e+02,2.930000000000000000e+02,9.200000000000000000e+01,7.700000000000000000e+01,5.800000000000000000e+01,6.000000000000000000e+01,5.999999999999999778e-01,8.624991400000000000e+09
2.130000000000000000e+02,7.130000000000000000e+02,8.640000000000000000e+02,3.390000000000000000e+02,1.080000000000000000e+02,9.600000000000000000e+01,6.600000000000000000e+01,8.800000000000000000e+01,5.799999999999999600e-01,8.646735600000000000e+09
2.700000000000000000e+02,8.020000000000000000e+02,9.240000000000000000e+02,4.080000000000000000e+02,1.390000000000000000e+02,1.130000000000000000e+02,7.100000000000000000e+01,1.080000000000000000e+02,5.600000000000000533e-01,8.665355000000000000e+09
2.760000000000000000e+02,8.340000000000000000e+02,9.550000000000000000e+02,4.210000000000000000e+02,1.430000000000000000e+02,1.160000000000000000e+02,8.300000000000000000e+01,1.200000000000000000e+02,5.300000000000000266e-01,8.693208300000000000e+09
2.940000000000000000e+02,8.180000000000000000e+02,8.610000000000000000e+02,4.010000000000000000e+02,1.420000000000000000e+02,1.300000000000000000e+02,2.300000000000000000e+02,1.880000000000000000e+02,5.000000000000000000e-01,8.713190100000000000e+09
2.970000000000000000e+02,7.620000000000000000e+02,7.550000000000000000e+02,3.750000000000000000e+02,1.360000000000000000e+02,1.960000000000000000e+02,3.300000000000000000e+02,3.440000000000000000e+02,4.699999999999999734e-01,8.731496100000000000e+09
2.580000000000000000e+02,5.940000000000000000e+02,5.510000000000000000e+02,3.100000000000000000e+02,1.200000000000000000e+02,1.900000000000000000e+02,3.630000000000000000e+02,3.910000000000000000e+02,4.500000000000000111e-01,8.748953800000000000e+09
1.970000000000000000e+02,4.510000000000000000e+02,4.470000000000000000e+02,2.140000000000000000e+02,6.900000000000000000e+01,1.820000000000000000e+02,3.750000000000000000e+02,4.310000000000000000e+02,4.299999999999999933e-01,8.767230900000000000e+09
1.870000000000000000e+02,3.710000000000000000e+02,3.680000000000000000e+02,1.590000000000000000e+02,5.800000000000000000e+01,1.920000000000000000e+02,3.960000000000000000e+02,4.470000000000000000e+02,4.199999999999999845e-01,8.786204300000000000e+09
1.650000000000000000e+02,3.260000000000000000e+02,3.410000000000000000e+02,1.730000000000000000e+02,6.700000000000000000e+01,2.210000000000000000e+02,3.510000000000000000e+02,4.640000000000000000e+02,4.099999999999999756e-01,8.805534200000000000e+09
1.170000000000000000e+02,2.430000000000000000e+02,3.330000000000000000e+02,2.030000000000000000e+02,6.500000000000000000e+01,1.700000000000000000e+02,2.690000000000000000e+02,3.740000000000000000e+02,3.900000000000000133e-01,8.826777900000000000e+09
1.030000000000000000e+02,2.160000000000000000e+02,3.010000000000000000e+02,1.980000000000000000e+02,6.300000000000000000e+01,1.710000000000000000e+02,2.250000000000000000e+02,3.230000000000000000e+02,3.800000000000000044e-01,8.846168700000000000e+09
8.600000000000000000e+01,1.840000000000000000e+02,2.620000000000000000e+02,1.920000000000000000e+02,6.200000000000000000e+01,1.680000000000000000e+02,2.090000000000000000e+02,2.610000000000000000e+02,3.900000000000000133e-01,8.865041000000000000e+09
1.360000000000000000e+02,1.730000000000000000e+02,2.480000000000000000e+02,2.350000000000000000e+02,6.500000000000000000e+01,1.570000000000000000e+02,1.700000000000000000e+02,2.280000000000000000e+02,4.000000000000000222e-01,8.887334700000000000e+09
1.650000000000000000e+02,2.300000000000000000e+02,3.000000000000000000e+02,3.390000000000000000e+02,6.000000000000000000e+01,9.400000000000000000e+01,1.310000000000000000e+02,1.320000000000000000e+02,4.199999999999999845e-01,8.905836300000000000e+09
1.680000000000000000e+02,2.400000000000000000e+02,3.050000000000000000e+02,3.680000000000000000e+02,5.800000000000000000e+01,8.200000000000000000e+01,1.320000000000000000e+02,9.600000000000000000e+01,4.400000000000000022e-01,8.924603600000000000e+09
1.740000000000000000e+02,2.400000000000000000e+02,3.200000000000000000e+02,3.700000000000000000e+02,6.200000000000000000e+01,1.350000000000000000e+02,5.410000000000000000e+02,8.200000000000000000e+01,4.600000000000000200e-01,8.947432600000000000e+09
1.740000000000000000e+02,2.860000000000000000e+02,3.140000000000000000e+02,3.840000000000000000e+02,6.100000000000000000e+01,1.460000000000000000e+02,6.190000000000000000e+02,6.900000000000000000e+01,4.899999999999999911e-01,8.969012900000000000e+09
1.360000000000000000e+02,3.210000000000000000e+02,3.370000000000000000e+02,4.220000000000000000e+02,6.000000000000000000e+01,1.440000000000000000e+02,6.790000000000000000e+02,6.600000000000000000e+01,5.100000000000000089e-01,8.987208200000000000e+09
1.100000000000000000e+02,2.940000000000000000e+02,2.940000000000000000e+02,3.470000000000000000e+02,6.500000000000000000e+01,1.410000000000000000e+02,6.900000000000000000e+02,5.700000000000000000e+01,5.200000000000000178e-01,9.006172300000000000e+09
2.480000000000000000e+02,3.240000000000000000e+02,2.950000000000000000e+02,3.050000000000000000e+02,6.900000000000000000e+01,1.440000000000000000e+02,6.880000000000000000e+02,6.500000000000000000e+01,5.400000000000000355e-01,9.025263200000000000e+09
2.570000000000000000e+02,3.690000000000000000e+02,2.940000000000000000e+02,3.060000000000000000e+02,6.700000000000000000e+01,9.200000000000000000e+01,4.660000000000000000e+02,6.000000000000000000e+01,5.500000000000000444e-01,9.043349600000000000e+09
2.590000000000000000e+02,3.390000000000000000e+02,2.820000000000000000e+02,2.880000000000000000e+02,6.800000000000000000e+01,9.000000000000000000e+01,3.580000000000000000e+02,6.000000000000000000e+01,5.699999999999999512e-01,9.066908000000000000e+09
2.600000000000000000e+02,2.980000000000000000e+02,2.330000000000000000e+02,2.210000000000000000e+02,6.600000000000000000e+01,1.000000000000000000e+02,2.240000000000000000e+02,5.800000000000000000e+01,5.799999999999999600e-01,9.084952700000000000e+09
2.520000000000000000e+02,3.110000000000000000e+02,2.380000000000000000e+02,2.270000000000000000e+02,5.600000000000000000e+01,1.370000000000000000e+02,2.070000000000000000e+02,5.700000000000000000e+01,5.999999999999999778e-01,9.103795100000000000e+09
1.500000000000000000e+02,3.960000000000000000e+02,2.300000000000000000e+02,2.340000000000000000e+02,5.000000000000000000e+01,1.760000000000000000e+02,2.410000000000000000e+02,4.900000000000000000e+01,6.099999999999999867e-01,9.126697300000000000e+09
2.200000000000000000e+02,3.910000000000000000e+02,2.100000000000000000e+02,2.480000000000000000e+02,5.000000000000000000e+01,1.800000000000000000e+02,2.300000000000000000e+02,5.500000000000000000e+01,6.199999999999999956e-01,9.145027500000000000e+09
2.260000000000000000e+02,4.620000000000000000e+02,1.900000000000000000e+02,2.560000000000000000e+02,5.200000000000000000e+01,1.720000000000000000e+02,2.290000000000000000e+02,5.800000000000000000e+01,6.300000000000000044e-01,9.165354200000000000e+09
2.270000000000000000e+02,4.710000000000000000e+02,1.940000000000000000e+02,2.540000000000000000e+02,5.100000000000000000e+01,1.730000000000000000e+02,2.300000000000000000e+02,5.800000000000000000e+01,6.400000000000000133e-01,9.187268100000000000e+09
2.270000000000000000e+02,4.630000000000000000e+02,1.710000000000000000e+02,2.690000000000000000e+02,5.700000000000000000e+01,1.530000000000000000e+02,2.130000000000000000e+02,5.700000000000000000e+01,6.400000000000000133e-01,9.207456800000000000e+09
2.140000000000000000e+02,4.390000000000000000e+02,1.820000000000000000e+02,2.730000000000000000e+02,5.800000000000000000e+01,1.120000000000000000e+02,2.200000000000000000e+02,5.000000000000000000e+01,6.500000000000000222e-01,9.232149000000000000e+09
1.310000000000000000e+02,4.100000000000000000e+02,2.040000000000000000e+02,2.590000000000000000e+02,6.100000000000000000e+01,1.340000000000000000e+02,2.070000000000000000e+02,4.300000000000000000e+01,6.600000000000000311e-01,9.250625300000000000e+09
1.370000000000000000e+02,4.370000000000000000e+02,2.680000000000000000e+02,2.710000000000000000e+02,6.600000000000000000e+01,1.360000000000000000e+02,2.010000000000000000e+02,3.700000000000000000e+01,6.700000000000000400e-01,9.268794400000000000e+09
1.610000000000000000e+02,4.930000000000000000e+02,2.960000000000000000e+02,2.450000000000000000e+02,7.100000000000000000e+01,1.270000000000000000e+02,1.960000000000000000e+02,4.300000000000000000e+01,6.800000000000000488e-01,9.287782800000000000e+09
1.700000000000000000e+02,6.020000000000000000e+02,3.340000000000000000e+02,2.180000000000000000e+02,6.300000000000000000e+01,1.340000000000000000e+02,2.040000000000000000e+02,4.400000000000000000e+01,6.800000000000000488e-01,9.306689900000000000e+09
1.660000000000000000e+02,5.490000000000000000e+02,3.420000000000000000e+02,2.170000000000000000e+02,7.100000000000000000e+01,2.270000000000000000e+02,1.720000000000000000e+02,4.600000000000000000e+01,6.800000000000000488e-01,9.330156100000000000e+09
1.560000000000000000e+02,5.460000000000000000e+02,3.340000000000000000e+02,2.280000000000000000e+02,6.900000000000000000e+01,2.190000000000000000e+02,1.500000000000000000e+02,4.500000000000000000e+01,6.800000000000000488e-01,9.348024300000000000e+09
1.690000000000000000e+02,4.690000000000000000e+02,2.940000000000000000e+02,2.120000000000000000e+02,6.800000000000000000e+01,2.350000000000000000e+02,1.530000000000000000e+02,5.300000000000000000e+01,6.800000000000000488e-01,9.366635900000000000e+09
2.490000000000000000e+02,4.940000000000000000e+02,3.140000000000000000e+02,2.600000000000000000e+02,7.300000000000000000e+01,2.410000000000000000e+02,1.960000000000000000e+02,5.700000000000000000e+01,6.800000000000000488e-01,9.385204200000000000e+09
2.660000000000000000e+02,3.710000000000000000e+02,2.700000000000000000e+02,2.650000000000000000e+02,7.300000000000000000e+01,2.470000000000000000e+02,2.120000000000000000e+02,6.000000000000000000e+01,6.800000000000000488e-01,9.403745200000000000e+09
2.630000000000000000e+02,3.810000000000000000e+02,2.450000000000000000e+02,2.720000000000000000e+02,6.600000000000000000e+01,1.690000000000000000e+02,1.930000000000000000e+02,5.600000000000000000e+01,6.800000000000000488e-01,9.426271800000000000e+09
2.660000000000000000e+02,3.900000000000000000e+02,2.220000000000000000e+02,2.710000000000000000e+02,6.700000000000000000e+01,1.780000000000000000e+02,2.020000000000000000e+02,5.600000000000000000e+01,6.800000000000000488e-01,9.449053400000000000e+09
2.880000000000000000e+02,4.050000000000000000e+02,2.230000000000000000e+02,3.040000000000000000e+02,6.200000000000000000e+01,1.580000000000000000e+02,5.300000000000000000e+02,5.300000000000000000e+01,6.800000000000000488e-01,9.468005300000000000e+09
2.680000000000000000e+02,3.460000000000000000e+02,2.060000000000000000e+02,2.790000000000000000e+02,4.600000000000000000e+01,1.630000000000000000e+02,6.260000000000000000e+02,4.500000000000000000e+01,6.700000000000000400e-01,9.486307800000000000e+09
2.540000000000000000e+02,3.180000000000000000e+02,2.270000000000000000e+02,2.940000000000000000e+02,6.700000000000000000e+01,1.410000000000000000e+02,6.620000000000000000e+02,6.200000000000000000e+01,6.700000000000000400e-01,9.508507400000000000e+09
2.550000000000000000e+02,3.130000000000000000e+02,2.600000000000000000e+02,3.080000000000000000e+02,7.400000000000000000e+01,1.320000000000000000e+02,6.660000000000000000e+02,6.500000000000000000e+01,6.700000000000000400e-01,9.527218500000000000e+09
2.710000000000000000e+02,3.240000000000000000e+02,2.710000000000000000e+02,3.470000000000000000e+02,7.600000000000000000e+01,1.040000000000000000e+02,6.620000000000000000e+02,7.100000000000000000e+01,6.700000000000000400e-01,9.546586000000000000e+09
2.660000000000000000e+02,3.490000000000000000e+02,2.670000000000000000e+02,3.410000000000000000e+02,7.500000000000000000e+01,1.010000000000000000e+02,4.580000000000000000e+02,6.900000000000000000e+01,6.700000000000000400e-01,9.576409200000000000e+09
2.050000000000000000e+02,3.150000000000000000e+02,2.390000000000000000e+02,3.290000000000000000e+02,7.600000000000000000e+01,1.870000000000000000e+02,3.140000000000000000e+02,7.200000000000000000e+01,6.800000000000000488e-01,9.594941300000000000e+09
1.950000000000000000e+02,3.240000000000000000e+02,2.210000000000000000e+02,3.110000000000000000e+02,5.700000000000000000e+01,2.010000000000000000e+02,2.120000000000000000e+02,7.500000000000000000e+01,6.800000000000000488e-01,9.613076900000000000e+09
2.210000000000000000e+02,3.600000000000000000e+02,1.740000000000000000e+02,3.000000000000000000e+02,4.600000000000000000e+01,2.010000000000000000e+02,1.980000000000000000e+02,9.000000000000000000e+01,6.899999999999999467e-01,9.630736200000000000e+09
2.570000000000000000e+02,3.530000000000000000e+02,1.580000000000000000e+02,2.510000000000000000e+02,3.700000000000000000e+01,2.200000000000000000e+02,2.170000000000000000e+02,9.200000000000000000e+01,6.899999999999999467e-01,9.648508100000000000e+09
2.200000000000000000e+02,3.280000000000000000e+02,1.410000000000000000e+02,2.050000000000000000e+02,3.600000000000000000e+01,2.370000000000000000e+02,1.910000000000000000e+02,9.400000000000000000e+01,6.899999999999999467e-01,9.671108000000000000e+09
2.240000000000000000e+02,3.320000000000000000e+02,1.270000000000000000e+02,2.010000000000000000e+02,3.300000000000000000e+01,1.690000000000000000e+02,1.430000000000000000e+02,9.300000000000000000e+01,6.899999999999999467e-01,9.690294000000000000e+09
2.250000000000000000e+02,3.230000000000000000e+02,1.460000000000000000e+02,2.360000000000000000e+02,3.600000000000000000e+01,1.540000000000000000e+02,1.330000000000000000e+02,7.700000000000000000e+01,6.999999999999999556e-01,9.708265900000000000e+09
1.970000000000000000e+02,2.990000000000000000e+02,2.100000000000000000e+02,2.530000000000000000e+02,3.500000000000000000e+01,1.520000000000000000e+02,1.360000000000000000e+02,5.600000000000000000e+01,6.999999999999999556e-01,9.727167800000000000e+09
1.210000000000000000e+02,2.880000000000000000e+02,2.480000000000000000e+02,2.610000000000000000e+02,3.600000000000000000e+01,1.280000000000000000e+02,1.340000000000000000e+02,4.700000000000000000e+01,7.099999999999999645e-01,9.749436000000000000e+09
1.170000000000000000e+02,2.740000000000000000e+02,2.660000000000000000e+02,2.610000000000000000e+02,4.000000000000000000e+01,9.800000000000000000e+01,1.350000000000000000e+02,4.700000000000000000e+01,7.199999999999999734e-01,9.774980600000000000e+09
