5.100000000000000000e+01,1.340000000000000000e+02,5.160000000000000000e+02,1.660000000000000000e+02,4.700000000000000000e+01,3.200000000000000000e+01,2.700000000000000000e+01,4.100000000000000000e+01,6.500000000000000222e-01,4.803426000000000000e+08
5.300000000000000000e+01,1.320000000000000000e+02,5.190000000000000000e+02,1.640000000000000000e+02,4.400000000000000000e+01,3.200000000000000000e+01,2.900000000000000000e+01,4.200000000000000000e+01,6.500000000000000222e-01,5.111920000000000000e+08
5.200000000000000000e+01,1.290000000000000000e+02,4.990000000000000000e+02,1.740000000000000000e+02,3.800000000000000000e+01,3.000000000000000000e+01,2.800000000000000000e+01,4.200000000000000000e+01,6.500000000000000222e-01,8.291607000000000000e+08
5.400000000000000000e+01,1.270000000000000000e+02,5.720000000000000000e+02,1.700000000000000000e+02,3.600000000000000000e+01,3.100000000000000000e+01,2.900000000000000000e+01,4.800000000000000000e+01,6.500000000000000222e-01,8.468188000000000000e+08
5.100000000000000000e+01,1.000000000000000000e+02,6.360000000000000000e+02,1.570000000000000000e+02,3.200000000000000000e+01,3.100000000000000000e+01,2.500000000000000000e+01,4.800000000000000000e+01,6.400000000000000133e-01,8.635636000000000000e+08
4.600000000000000000e+01,8.400000000000000000e+01,5.600000000000000000e+02,1.590000000000000000e+02,3.100000000000000000e+01,3.100000000000000000e+01,2.500000000000000000e+01,4.700000000000000000e+01,6.400000000000000133e-01,8.810200000000000000e+08
4.000000000000000000e+01,8.700000000000000000e+01,5.420000000000000000e+02,1.410000000000000000e+02,3.100000000000000000e+01,3.100000000000000000e+01,2.300000000000000000e+01,4.900000000000000000e+01,6.400000000000000133e-01,8.979706000000000000e+08
3.700000000000000000e+01,8.600000000000000000e+01,5.950000000000000000e+02,1.420000000000000000e+02,3.100000000000000000e+01,2.900000000000000000e+01,2.200000000000000000e+01,4.700000000000000000e+01,6.400000000000000133e-01,9.180376000000000000e+08
3.600000000000000000e+01,1.060000000000000000e+02,5.390000000000000000e+02,1.450000000000000000e+02,3.300000000000000000e+01,2.900000000000000000e+01,2.300000000000000000e+01,3.900000000000000000e+01,6.400000000000000133e-01,9.365720000000000000e+08
3.600000000000000000e+01,1.190000000000000000e+02,5.560000000000000000e+02,1.570000000000000000e+02,3.300000000000000000e+01,3.000000000000000000e+01,2.400000000000000000e+01,4.000000000000000000e+01,6.500000000000000222e-01,9.542368000000000000e+08
4.500000000000000000e+01,1.140000000000000000e+02,5.630000000000000000e+02,1.450000000000000000e+02,3.300000000000000000e+01,3.100000000000000000e+01,2.400000000000000000e+01,4.000000000000000000e+01,6.500000000000000222e-01,9.708134000000000000e+08
4.600000000000000000e+01,1.110000000000000000e+02,5.730000000000000000e+02,1.440000000000000000e+02,3.200000000000000000e+01,3.000000000000000000e+01,2.300000000000000000e+01,3.400000000000000000e+01,6.500000000000000222e-01,9.887011000000000000e+08
4.900000000000000000e+01,1.050000000000000000e+02,5.240000000000000000e+02,1.460000000000000000e+02,3.500000000000000000e+01,3.100000000000000000e+01,2.500000000000000000e+01,3.600000000000000000e+01,6.500000000000000222e-01,1.006588700000000000e+09
5.200000000000000000e+01,8.800000000000000000e+01,5.630000000000000000e+02,1.370000000000000000e+02,3.400000000000000000e+01,2.700000000000000000e+01,2.500000000000000000e+01,3.700000000000000000e+01,6.500000000000000222e-01,1.025646200000000000e+09
5.000000000000000000e+01,7.900000000000000000e+01,4.780000000000000000e+02,1.260000000000000000e+02,3.600000000000000000e+01,2.400000000000000000e+01,2.300000000000000000e+01,3.600000000000000000e+01,6.400000000000000133e-01,1.043192000000000000e+09
5.200000000000000000e+01,1.140000000000000000e+02,4.900000000000000000e+02,1.500000000000000000e+02,3.700000000000000000e+01,2.300000000000000000e+01,2.500000000000000000e+01,3.100000000000000000e+01,6.400000000000000133e-01,1.060402800000000000e+09
5.000000000000000000e+01,1.180000000000000000e+02,4.620000000000000000e+02,1.570000000000000000e+02,3.800000000000000000e+01,2.500000000000000000e+01,2.400000000000000000e+01,3.000000000000000000e+01,6.500000000000000222e-01,1.076516700000000000e+09
4.800000000000000000e+01,1.200000000000000000e+02,4.570000000000000000e+02,1.470000000000000000e+02,3.600000000000000000e+01,2.700000000000000000e+01,2.500000000000000000e+01,3.100000000000000000e+01,6.500000000000000222e-01,1.112042600000000000e+09
4.800000000000000000e+01,1.250000000000000000e+02,4.470000000000000000e+02,1.940000000000000000e+02,3.700000000000000000e+01,2.800000000000000000e+01,2.300000000000000000e+01,2.800000000000000000e+01,6.500000000000000222e-01,1.131537500000000000e+09
4.900000000000000000e+01,1.230000000000000000e+02,4.350000000000000000e+02,1.950000000000000000e+02,3.500000000000000000e+01,2.800000000000000000e+01,2.300000000000000000e+01,2.900000000000000000e+01,6.500000000000000222e-01,1.149405600000000000e+09
4.700000000000000000e+01,1.020000000000000000e+02,4.650000000000000000e+02,1.810000000000000000e+02,3.500000000000000000e+01,3.000000000000000000e+01,2.500000000000000000e+01,3.100000000000000000e+01,6.500000000000000222e-01,1.166419100000000000e+09
4.800000000000000000e+01,1.050000000000000000e+02,4.840000000000000000e+02,1.950000000000000000e+02,3.600000000000000000e+01,3.000000000000000000e+01,2.700000000000000000e+01,3.200000000000000000e+01,6.500000000000000222e-01,1.183201100000000000e+09
5.000000000000000000e+01,1.110000000000000000e+02,5.340000000000000000e+02,1.910000000000000000e+02,3.900000000000000000e+01,3.000000000000000000e+01,2.600000000000000000e+01,3.000000000000000000e+01,6.600000000000000311e-01,1.199951400000000000e+09
4.800000000000000000e+01,1.030000000000000000e+02,4.830000000000000000e+02,1.460000000000000000e+02,3.500000000000000000e+01,3.000000000000000000e+01,2.600000000000000000e+01,3.100000000000000000e+01,6.600000000000000311e-01,1.217690900000000000e+09
4.700000000000000000e+01,1.010000000000000000e+02,5.240000000000000000e+02,1.820000000000000000e+02,3.600000000000000000e+01,3.000000000000000000e+01,2.700000000000000000e+01,3.100000000000000000e+01,6.600000000000000311e-01,1.237076800000000000e+09
4.400000000000000000e+01,1.010000000000000000e+02,4.900000000000000000e+02,1.830000000000000000e+02,3.600000000000000000e+01,2.900000000000000000e+01,2.400000000000000000e+01,3.100000000000000000e+01,6.600000000000000311e-01,1.255409900000000000e+09
4.600000000000000000e+01,1.020000000000000000e+02,5.120000000000000000e+02,1.620000000000000000e+02,3.300000000000000000e+01,2.700000000000000000e+01,2.100000000000000000e+01,3.500000000000000000e+01,6.600000000000000311e-01,1.272243300000000000e+09
4.600000000000000000e+01,1.000000000000000000e+02,5.000000000000000000e+02,1.740000000000000000e+02,2.800000000000000000e+01,2.600000000000000000e+01,2.200000000000000000e+01,3.500000000000000000e+01,6.600000000000000311e-01,1.289921500000000000e+09
4.400000000000000000e+01,1.080000000000000000e+02,5.150000000000000000e+02,1.750000000000000000e+02,3.100000000000000000e+01,2.600000000000000000e+01,2.100000000000000000e+01,3.500000000000000000e+01,6.600000000000000311e-01,1.308472500000000000e+09
4.700000000000000000e+01,1.120000000000000000e+02,4.940000000000000000e+02,1.550000000000000000e+02,3.100000000000000000e+01,2.600000000000000000e+01,2.200000000000000000e+01,3.700000000000000000e+01,6.600000000000000311e-01,1.328861900000000000e+09
4.500000000000000000e+01,1.090000000000000000e+02,5.180000000000000000e+02,1.530000000000000000e+02,2.900000000000000000e+01,2.600000000000000000e+01,2.100000000000000000e+01,3.500000000000000000e+01,6.600000000000000311e-01,1.347296600000000000e+09
5.300000000000000000e+01,9.900000000000000000e+01,5.040000000000000000e+02,1.540000000000000000e+02,3.100000000000000000e+01,2.700000000000000000e+01,2.300000000000000000e+01,4.000000000000000000e+01,6.600000000000000311e-01,1.364107700000000000e+09
5.300000000000000000e+01,1.010000000000000000e+02,4.820000000000000000e+02,1.480000000000000000e+02,2.900000000000000000e+01,2.400000000000000000e+01,2.100000000000000000e+01,4.000000000000000000e+01,6.600000000000000311e-01,1.382168300000000000e+09
5.700000000000000000e+01,1.100000000000000000e+02,5.100000000000000000e+02,1.640000000000000000e+02,3.000000000000000000e+01,3.000000000000000000e+01,2.200000000000000000e+01,4.100000000000000000e+01,6.600000000000000311e-01,1.401264900000000000e+09
5.600000000000000000e+01,1.080000000000000000e+02,5.480000000000000000e+02,1.430000000000000000e+02,2.700000000000000000e+01,2.900000000000000000e+01,2.300000000000000000e+01,4.300000000000000000e+01,6.600000000000000311e-01,1.419295300000000000e+09
5.900000000000000000e+01,1.090000000000000000e+02,5.640000000000000000e+02,1.730000000000000000e+02,3.200000000000000000e+01,3.100000000000000000e+01,2.400000000000000000e+01,4.500000000000000000e+01,6.600000000000000311e-01,1.438268100000000000e+09
5.400000000000000000e+01,1.150000000000000000e+02,5.590000000000000000e+02,1.780000000000000000e+02,3.300000000000000000e+01,3.100000000000000000e+01,2.300000000000000000e+01,3.600000000000000000e+01,6.600000000000000311e-01,1.455125900000000000e+09
5.900000000000000000e+01,1.120000000000000000e+02,5.330000000000000000e+02,1.860000000000000000e+02,3.400000000000000000e+01,3.300000000000000000e+01,2.400000000000000000e+01,4.300000000000000000e+01,6.600000000000000311e-01,1.472986100000000000e+09
5.500000000000000000e+01,9.800000000000000000e+01,4.970000000000000000e+02,1.770000000000000000e+02,3.100000000000000000e+01,2.800000000000000000e+01,2.300000000000000000e+01,4.000000000000000000e+01,6.600000000000000311e-01,1.490187300000000000e+09
5.500000000000000000e+01,9.900000000000000000e+01,5.080000000000000000e+02,1.800000000000000000e+02,3.400000000000000000e+01,3.000000000000000000e+01,2.100000000000000000e+01,4.000000000000000000e+01,6.600000000000000311e-01,1.507925000000000000e+09
5.200000000000000000e+01,1.030000000000000000e+02,5.290000000000000000e+02,1.800000000000000000e+02,3.500000000000000000e+01,2.900000000000000000e+01,2.200000000000000000e+01,3.900000000000000000e+01,6.600000000000000311e-01,1.527518300000000000e+09
5.300000000000000000e+01,9.400000000000000000e+01,5.280000000000000000e+02,1.810000000000000000e+02,3.300000000000000000e+01,2.800000000000000000e+01,2.000000000000000000e+01,4.600000000000000000e+01,6.600000000000000311e-01,1.544585500000000000e+09
4.900000000000000000e+01,1.090000000000000000e+02,5.190000000000000000e+02,1.670000000000000000e+02,3.400000000000000000e+01,3.000000000000000000e+01,2.200000000000000000e+01,4.400000000000000000e+01,6.600000000000000311e-01,1.561165100000000000e+09
4.900000000000000000e+01,1.060000000000000000e+02,5.350000000000000000e+02,1.590000000000000000e+02,3.700000000000000000e+01,3.100000000000000000e+01,2.400000000000000000e+01,4.500000000000000000e+01,6.600000000000000311e-01,1.578150000000000000e+09
5.100000000000000000e+01,1.110000000000000000e+02,5.460000000000000000e+02,1.640000000000000000e+02,3.500000000000000000e+01,2.900000000000000000e+01,2.500000000000000000e+01,5.500000000000000000e+01,6.600000000000000311e-01,1.595044300000000000e+09
5.300000000000000000e+01,1.020000000000000000e+02,4.700000000000000000e+02,1.460000000000000000e+02,3.400000000000000000e+01,2.700000000000000000e+01,2.500000000000000000e+01,6.200000000000000000e+01,6.600000000000000311e-01,1.615023800000000000e+09
5.000000000000000000e+01,1.080000000000000000e+02,4.830000000000000000e+02,1.650000000000000000e+02,3.400000000000000000e+01,2.800000000000000000e+01,2.500000000000000000e+01,5.800000000000000000e+01,6.600000000000000311e-01,1.636339300000000000e+09
4.600000000000000000e+01,8.600000000000000000e+01,5.100000000000000000e+02,1.690000000000000000e+02,3.500000000000000000e+01,2.400000000000000000e+01,2.500000000000000000e+01,5.500000000000000000e+01,6.600000000000000311e-01,1.660618200000000000e+09
4.800000000000000000e+01,8.500000000000000000e+01,5.100000000000000000e+02,1.670000000000000000e+02,3.400000000000000000e+01,2.500000000000000000e+01,2.300000000000000000e+01,5.400000000000000000e+01,6.600000000000000311e-01,1.682218500000000000e+09
4.900000000000000000e+01,7.600000000000000000e+01,4.610000000000000000e+02,1.820000000000000000e+02,3.600000000000000000e+01,2.700000000000000000e+01,2.300000000000000000e+01,4.600000000000000000e+01,6.600000000000000311e-01,1.702368700000000000e+09
4.700000000000000000e+01,7.100000000000000000e+01,4.700000000000000000e+02,1.790000000000000000e+02,3.300000000000000000e+01,2.700000000000000000e+01,2.200000000000000000e+01,3.400000000000000000e+01,6.600000000000000311e-01,1.730520800000000000e+09
5.000000000000000000e+01,6.800000000000000000e+01,4.780000000000000000e+02,1.770000000000000000e+02,3.300000000000000000e+01,2.600000000000000000e+01,2.500000000000000000e+01,3.700000000000000000e+01,6.600000000000000311e-01,1.752387500000000000e+09
5.500000000000000000e+01,7.000000000000000000e+01,4.560000000000000000e+02,1.720000000000000000e+02,3.100000000000000000e+01,2.800000000000000000e+01,2.200000000000000000e+01,4.000000000000000000e+01,6.600000000000000311e-01,1.771659300000000000e+09
5.300000000000000000e+01,7.400000000000000000e+01,4.110000000000000000e+02,1.750000000000000000e+02,3.100000000000000000e+01,2.600000000000000000e+01,2.200000000000000000e+01,4.200000000000000000e+01,6.600000000000000311e-01,1.790331200000000000e+09
5.000000000000000000e+01,8.100000000000000000e+01,4.460000000000000000e+02,1.570000000000000000e+02,2.700000000000000000e+01,2.400000000000000000e+01,2.300000000000000000e+01,4.100000000000000000e+01,6.600000000000000311e-01,1.808935000000000000e+09
5.400000000000000000e+01,1.030000000000000000e+02,4.910000000000000000e+02,1.550000000000000000e+02,3.200000000000000000e+01,2.700000000000000000e+01,2.400000000000000000e+01,4.200000000000000000e+01,6.600000000000000311e-01,1.830502200000000000e+09
5.500000000000000000e+01,1.060000000000000000e+02,4.480000000000000000e+02,1.290000000000000000e+02,3.200000000000000000e+01,2.800000000000000000e+01,2.100000000000000000e+01,4.300000000000000000e+01,6.600000000000000311e-01,1.850353800000000000e+09
6.200000000000000000e+01,1.060000000000000000e+02,4.490000000000000000e+02,1.390000000000000000e+02,3.400000000000000000e+01,2.800000000000000000e+01,2.200000000000000000e+01,5.300000000000000000e+01,6.600000000000000311e-01,1.868475700000000000e+09
6.400000000000000000e+01,1.050000000000000000e+02,4.600000000000000000e+02,1.380000000000000000e+02,3.500000000000000000e+01,2.800000000000000000e+01,2.300000000000000000e+01,5.300000000000000000e+01,6.600000000000000311e-01,1.887287300000000000e+09
6.700000000000000000e+01,1.060000000000000000e+02,4.750000000000000000e+02,1.620000000000000000e+02,4.000000000000000000e+01,3.100000000000000000e+01,2.200000000000000000e+01,5.700000000000000000e+01,6.600000000000000311e-01,1.907252600000000000e+09
6.700000000000000000e+01,1.080000000000000000e+02,4.390000000000000000e+02,1.680000000000000000e+02,4.100000000000000000e+01,2.900000000000000000e+01,2.200000000000000000e+01,6.000000000000000000e+01,6.600000000000000311e-01,1.927487900000000000e+09
7.000000000000000000e+01,1.060000000000000000e+02,4.710000000000000000e+02,1.660000000000000000e+02,4.400000000000000000e+01,3.100000000000000000e+01,2.900000000000000000e+01,1.680000000000000000e+02,6.600000000000000311e-01,1.945469900000000000e+09
6.200000000000000000e+01,1.120000000000000000e+02,5.390000000000000000e+02,2.000000000000000000e+02,4.700000000000000000e+01,3.200000000000000000e+01,2.900000000000000000e+01,1.720000000000000000e+02,6.600000000000000311e-01,1.964334600000000000e+09
6.300000000000000000e+01,1.080000000000000000e+02,5.720000000000000000e+02,2.070000000000000000e+02,4.800000000000000000e+01,3.200000000000000000e+01,5.500000000000000000e+01,1.990000000000000000e+02,6.500000000000000222e-01,1.982686300000000000e+09
6.700000000000000000e+01,1.060000000000000000e+02,5.580000000000000000e+02,1.820000000000000000e+02,4.500000000000000000e+01,3.100000000000000000e+01,6.200000000000000000e+01,2.440000000000000000e+02,6.500000000000000222e-01,2.001008200000000000e+09
6.700000000000000000e+01,1.130000000000000000e+02,6.060000000000000000e+02,1.810000000000000000e+02,4.400000000000000000e+01,3.200000000000000000e+01,6.200000000000000000e+01,2.780000000000000000e+02,6.400000000000000133e-01,2.020471500000000000e+09
7.200000000000000000e+01,1.140000000000000000e+02,6.240000000000000000e+02,1.910000000000000000e+02,4.300000000000000000e+01,3.200000000000000000e+01,6.000000000000000000e+01,2.380000000000000000e+02,6.300000000000000044e-01,2.041056500000000000e+09
7.400000000000000000e+01,1.100000000000000000e+02,6.400000000000000000e+02,1.730000000000000000e+02,3.800000000000000000e+01,3.300000000000000000e+01,6.800000000000000000e+01,2.380000000000000000e+02,6.300000000000000044e-01,2.060269200000000000e+09
7.500000000000000000e+01,1.290000000000000000e+02,6.630000000000000000e+02,1.620000000000000000e+02,3.800000000000000000e+01,3.600000000000000000e+01,8.500000000000000000e+01,2.280000000000000000e+02,6.199999999999999956e-01,2.079202500000000000e+09
7.600000000000000000e+01,1.280000000000000000e+02,6.810000000000000000e+02,1.870000000000000000e+02,3.800000000000000000e+01,3.700000000000000000e+01,9.000000000000000000e+01,2.080000000000000000e+02,6.099999999999999867e-01,2.097360000000000000e+09
8.700000000000000000e+01,1.090000000000000000e+02,6.500000000000000000e+02,1.780000000000000000e+02,3.800000000000000000e+01,5.200000000000000000e+01,2.550000000000000000e+02,2.650000000000000000e+02,5.999999999999999778e-01,2.118245600000000000e+09
8.400000000000000000e+01,1.130000000000000000e+02,6.400000000000000000e+02,1.850000000000000000e+02,4.400000000000000000e+01,5.500000000000000000e+01,3.620000000000000000e+02,2.810000000000000000e+02,5.899999999999999689e-01,2.139100700000000000e+09
8.600000000000000000e+01,1.180000000000000000e+02,5.870000000000000000e+02,1.740000000000000000e+02,5.200000000000000000e+01,6.400000000000000000e+01,4.170000000000000000e+02,2.850000000000000000e+02,5.799999999999999600e-01,2.157347600000000000e+09
8.400000000000000000e+01,9.900000000000000000e+01,5.570000000000000000e+02,1.870000000000000000e+02,5.100000000000000000e+01,7.100000000000000000e+01,4.550000000000000000e+02,3.250000000000000000e+02,5.699999999999999512e-01,2.175506900000000000e+09
8.200000000000000000e+01,9.600000000000000000e+01,5.190000000000000000e+02,1.780000000000000000e+02,5.300000000000000000e+01,7.400000000000000000e+01,5.180000000000000000e+02,3.180000000000000000e+02,5.600000000000000533e-01,2.195601400000000000e+09
6.700000000000000000e+01,1.240000000000000000e+02,5.630000000000000000e+02,2.100000000000000000e+02,5.500000000000000000e+01,6.700000000000000000e+01,4.710000000000000000e+02,2.500000000000000000e+02,5.500000000000000444e-01,2.215160600000000000e+09
6.600000000000000000e+01,1.410000000000000000e+02,5.980000000000000000e+02,2.290000000000000000e+02,6.200000000000000000e+01,6.900000000000000000e+01,4.270000000000000000e+02,2.310000000000000000e+02,5.400000000000000355e-01,2.236161100000000000e+09
8.700000000000000000e+01,1.430000000000000000e+02,5.830000000000000000e+02,2.420000000000000000e+02,6.100000000000000000e+01,6.200000000000000000e+01,4.030000000000000000e+02,3.000000000000000000e+02,5.400000000000000355e-01,2.255388700000000000e+09
1.010000000000000000e+02,1.530000000000000000e+02,5.690000000000000000e+02,2.390000000000000000e+02,6.300000000000000000e+01,5.800000000000000000e+01,4.120000000000000000e+02,2.770000000000000000e+02,5.300000000000000266e-01,2.274626500000000000e+09
1.040000000000000000e+02,1.710000000000000000e+02,5.460000000000000000e+02,2.450000000000000000e+02,6.400000000000000000e+01,5.600000000000000000e+01,3.590000000000000000e+02,2.750000000000000000e+02,5.300000000000000266e-01,2.293573700000000000e+09
1.160000000000000000e+02,1.750000000000000000e+02,6.400000000000000000e+02,2.360000000000000000e+02,6.700000000000000000e+01,5.900000000000000000e+01,3.990000000000000000e+02,2.830000000000000000e+02,5.200000000000000178e-01,2.312518500000000000e+09
1.150000000000000000e+02,1.740000000000000000e+02,6.340000000000000000e+02,2.140000000000000000e+02,5.900000000000000000e+01,5.600000000000000000e+01,3.770000000000000000e+02,3.670000000000000000e+02,5.200000000000000178e-01,2.332856200000000000e+09
1.070000000000000000e+02,1.870000000000000000e+02,6.360000000000000000e+02,2.200000000000000000e+02,6.300000000000000000e+01,5.800000000000000000e+01,3.550000000000000000e+02,3.290000000000000000e+02,5.100000000000000089e-01,2.351006000000000000e+09
1.060000000000000000e+02,1.960000000000000000e+02,6.830000000000000000e+02,2.360000000000000000e+02,6.600000000000000000e+01,6.100000000000000000e+01,3.580000000000000000e+02,3.190000000000000000e+02,5.100000000000000089e-01,2.369555800000000000e+09
1.130000000000000000e+02,1.980000000000000000e+02,7.490000000000000000e+02,2.520000000000000000e+02,7.400000000000000000e+01,6.300000000000000000e+01,4.350000000000000000e+02,3.450000000000000000e+02,5.100000000000000089e-01,2.387243300000000000e+09
1.050000000000000000e+02,1.820000000000000000e+02,6.450000000000000000e+02,2.420000000000000000e+02,7.300000000000000000e+01,5.700000000000000000e+01,4.000000000000000000e+02,3.620000000000000000e+02,5.100000000000000089e-01,2.407131800000000000e+09
1.080000000000000000e+02,1.750000000000000000e+02,6.060000000000000000e+02,2.560000000000000000e+02,7.100000000000000000e+01,5.800000000000000000e+01,4.060000000000000000e+02,3.030000000000000000e+02,5.100000000000000089e-01,2.428771300000000000e+09
1.220000000000000000e+02,1.740000000000000000e+02,6.900000000000000000e+02,2.650000000000000000e+02,6.900000000000000000e+01,6.800000000000000000e+01,5.330000000000000000e+02,3.150000000000000000e+02,5.100000000000000089e-01,2.447655800000000000e+09
1.200000000000000000e+02,1.660000000000000000e+02,6.550000000000000000e+02,2.580000000000000000e+02,6.600000000000000000e+01,6.300000000000000000e+01,5.170000000000000000e+02,3.360000000000000000e+02,5.100000000000000089e-01,2.465435600000000000e+09
1.130000000000000000e+02,1.600000000000000000e+02,7.200000000000000000e+02,2.570000000000000000e+02,5.500000000000000000e+01,7.500000000000000000e+01,5.120000000000000000e+02,3.130000000000000000e+02,5.100000000000000089e-01,2.484102400000000000e+09
1.130000000000000000e+02,1.580000000000000000e+02,7.050000000000000000e+02,2.480000000000000000e+02,5.100000000000000000e+01,8.900000000000000000e+01,5.830000000000000000e+02,3.040000000000000000e+02,5.100000000000000089e-01,2.504011500000000000e+09
1.210000000000000000e+02,2.060000000000000000e+02,7.540000000000000000e+02,2.460000000000000000e+02,5.400000000000000000e+01,9.500000000000000000e+01,6.040000000000000000e+02,2.810000000000000000e+02,5.100000000000000089e-01,2.523295600000000000e+09
9.900000000000000000e+01,2.050000000000000000e+02,7.000000000000000000e+02,2.140000000000000000e+02,5.000000000000000000e+01,8.900000000000000000e+01,5.240000000000000000e+02,2.470000000000000000e+02,5.100000000000000089e-01,2.541417900000000000e+09
1.000000000000000000e+02,2.110000000000000000e+02,7.600000000000000000e+02,1.940000000000000000e+02,4.700000000000000000e+01,9.300000000000000000e+01,5.350000000000000000e+02,2.610000000000000000e+02,5.100000000000000089e-01,2.560066000000000000e+09
1.020000000000000000e+02,2.050000000000000000e+02,7.560000000000000000e+02,2.050000000000000000e+02,5.600000000000000000e+01,8.600000000000000000e+01,4.970000000000000000e+02,2.680000000000000000e+02,5.100000000000000089e-01,2.579164400000000000e+09
1.060000000000000000e+02,2.130000000000000000e+02,7.610000000000000000e+02,2.110000000000000000e+02,5.600000000000000000e+01,7.700000000000000000e+01,4.450000000000000000e+02,2.700000000000000000e+02,5.100000000000000089e-01,2.598111400000000000e+09
1.020000000000000000e+02,1.630000000000000000e+02,7.560000000000000000e+02,2.160000000000000000e+02,5.800000000000000000e+01,7.100000000000000000e+01,4.750000000000000000e+02,3.100000000000000000e+02,5.100000000000000089e-01,2.617774400000000000e+09
9.900000000000000000e+01,1.760000000000000000e+02,7.470000000000000000e+02,2.300000000000000000e+02,5.800000000000000000e+01,6.700000000000000000e+01,4.500000000000000000e+02,3.310000000000000000e+02,5.100000000000000089e-01,2.637676000000000000e+09
9.700000000000000000e+01,1.760000000000000000e+02,7.680000000000000000e+02,2.420000000000000000e+02,6.000000000000000000e+01,6.600000000000000000e+01,4.430000000000000000e+02,2.920000000000000000e+02,5.100000000000000089e-01,2.655970100000000000e+09
1.190000000000000000e+02,2.000000000000000000e+02,6.730000000000000000e+02,1.990000000000000000e+02,5.400000000000000000e+01,8.300000000000000000e+01,4.800000000000000000e+02,3.290000000000000000e+02,5.100000000000000089e-01,2.674978800000000000e+09
1.140000000000000000e+02,2.070000000000000000e+02,6.490000000000000000e+02,1.970000000000000000e+02,5.300000000000000000e+01,8.000000000000000000e+01,4.530000000000000000e+02,3.020000000000000000e+02,5.000000000000000000e-01,2.694886500000000000e+09
1.190000000000000000e+02,2.190000000000000000e+02,6.510000000000000000e+02,1.620000000000000000e+02,4.500000000000000000e+01,7.900000000000000000e+01,3.930000000000000000e+02,2.760000000000000000e+02,5.000000000000000000e-01,2.713836500000000000e+09
1.230000000000000000e+02,1.970000000000000000e+02,6.740000000000000000e+02,1.330000000000000000e+02,4.600000000000000000e+01,8.600000000000000000e+01,4.560000000000000000e+02,3.350000000000000000e+02,5.000000000000000000e-01,2.734381200000000000e+09
1.280000000000000000e+02,2.110000000000000000e+02,6.120000000000000000e+02,1.170000000000000000e+02,4.300000000000000000e+01,8.100000000000000000e+01,4.270000000000000000e+02,3.390000000000000000e+02,4.899999999999999911e-01,2.752672400000000000e+09
1.040000000000000000e+02,1.880000000000000000e+02,5.910000000000000000e+02,1.180000000000000000e+02,3.600000000000000000e+01,5.600000000000000000e+01,3.340000000000000000e+02,2.900000000000000000e+02,4.899999999999999911e-01,2.770925100000000000e+09
1.060000000000000000e+02,1.980000000000000000e+02,6.120000000000000000e+02,1.410000000000000000e+02,4.100000000000000000e+01,5.600000000000000000e+01,3.320000000000000000e+02,2.910000000000000000e+02,4.899999999999999911e-01,2.789990800000000000e+09
9.400000000000000000e+01,1.890000000000000000e+02,6.010000000000000000e+02,1.500000000000000000e+02,4.100000000000000000e+01,5.300000000000000000e+01,3.160000000000000000e+02,2.690000000000000000e+02,4.899999999999999911e-01,2.810030800000000000e+09
9.500000000000000000e+01,1.930000000000000000e+02,6.060000000000000000e+02,1.750000000000000000e+02,4.000000000000000000e+01,4.000000000000000000e+01,2.490000000000000000e+02,1.790000000000000000e+02,5.000000000000000000e-01,2.830226400000000000e+09
8.000000000000000000e+01,1.640000000000000000e+02,5.600000000000000000e+02,1.760000000000000000e+02,4.000000000000000000e+01,4.400000000000000000e+01,2.440000000000000000e+02,1.670000000000000000e+02,5.000000000000000000e-01,2.849390300000000000e+09
8.200000000000000000e+01,1.640000000000000000e+02,5.760000000000000000e+02,1.750000000000000000e+02,4.100000000000000000e+01,4.300000000000000000e+01,2.560000000000000000e+02,1.670000000000000000e+02,5.100000000000000089e-01,2.868269500000000000e+09
8.300000000000000000e+01,1.390000000000000000e+02,5.910000000000000000e+02,1.510000000000000000e+02,3.700000000000000000e+01,4.200000000000000000e+01,3.020000000000000000e+02,1.680000000000000000e+02,5.200000000000000178e-01,2.886828800000000000e+09
7.800000000000000000e+01,1.310000000000000000e+02,5.600000000000000000e+02,1.480000000000000000e+02,3.700000000000000000e+01,4.300000000000000000e+01,3.020000000000000000e+02,1.750000000000000000e+02,5.200000000000000178e-01,2.905347200000000000e+09
6.900000000000000000e+01,1.440000000000000000e+02,5.480000000000000000e+02,1.180000000000000000e+02,3.500000000000000000e+01,4.000000000000000000e+01,2.580000000000000000e+02,1.450000000000000000e+02,5.200000000000000178e-01,2.925326900000000000e+09
6.700000000000000000e+01,1.450000000000000000e+02,5.950000000000000000e+02,1.280000000000000000e+02,3.700000000000000000e+01,4.000000000000000000e+01,3.020000000000000000e+02,1.620000000000000000e+02,5.300000000000000266e-01,2.943252700000000000e+09
7.000000000000000000e+01,1.560000000000000000e+02,5.570000000000000000e+02,1.400000000000000000e+02,4.300000000000000000e+01,5.100000000000000000e+01,3.220000000000000000e+02,1.870000000000000000e+02,5.300000000000000266e-01,2.962518100000000000e+09
7.500000000000000000e+01,1.480000000000000000e+02,5.860000000000000000e+02,1.430000000000000000e+02,4.200000000000000000e+01,5.000000000000000000e+01,2.920000000000000000e+02,1.960000000000000000e+02,5.400000000000000355e-01,2.981130500000000000e+09
7.400000000000000000e+01,1.620000000000000000e+02,5.950000000000000000e+02,1.370000000000000000e+02,4.200000000000000000e+01,4.800000000000000000e+01,2.910000000000000000e+02,1.890000000000000000e+02,5.500000000000000444e-01,2.999823800000000000e+09
7.500000000000000000e+01,1.400000000000000000e+02,6.380000000000000000e+02,1.370000000000000000e+02,4.100000000000000000e+01,5.500000000000000000e+01,3.000000000000000000e+02,1.850000000000000000e+02,5.500000000000000444e-01,3.020270200000000000e+09
8.800000000000000000e+01,1.370000000000000000e+02,5.740000000000000000e+02,1.200000000000000000e+02,4.300000000000000000e+01,6.900000000000000000e+01,2.790000000000000000e+02,1.750000000000000000e+02,5.600000000000000533e-01,3.038936800000000000e+09
8.600000000000000000e+01,1.220000000000000000e+02,5.750000000000000000e+02,1.090000000000000000e+02,3.700000000000000000e+01,6.200000000000000000e+01,2.540000000000000000e+02,2.020000000000000000e+02,5.500000000000000444e-01,3.056698900000000000e+09
8.000000000000000000e+01,1.460000000000000000e+02,5.630000000000000000e+02,1.190000000000000000e+02,4.000000000000000000e+01,6.400000000000000000e+01,2.580000000000000000e+02,2.240000000000000000e+02,5.500000000000000444e-01,3.074381000000000000e+09
1.010000000000000000e+02,1.620000000000000000e+02,5.650000000000000000e+02,1.500000000000000000e+02,4.700000000000000000e+01,7.100000000000000000e+01,3.000000000000000000e+02,2.420000000000000000e+02,5.400000000000000355e-01,3.092652000000000000e+09
1.070000000000000000e+02,1.610000000000000000e+02,4.840000000000000000e+02,1.590000000000000000e+02,5.000000000000000000e+01,6.900000000000000000e+01,2.910000000000000000e+02,2.400000000000000000e+02,5.400000000000000355e-01,3.115177500000000000e+09
1.000000000000000000e+02,1.700000000000000000e+02,5.930000000000000000e+02,1.700000000000000000e+02,4.900000000000000000e+01,6.500000000000000000e+01,3.550000000000000000e+02,2.740000000000000000e+02,5.400000000000000355e-01,3.133481100000000000e+09
9.400000000000000000e+01,1.760000000000000000e+02,6.660000000000000000e+02,1.830000000000000000e+02,4.900000000000000000e+01,6.900000000000000000e+01,3.610000000000000000e+02,2.390000000000000000e+02,5.300000000000000266e-01,3.151280200000000000e+09
9.700000000000000000e+01,1.530000000000000000e+02,6.280000000000000000e+02,2.120000000000000000e+02,5.100000000000000000e+01,7.300000000000000000e+01,3.630000000000000000e+02,2.180000000000000000e+02,5.300000000000000266e-01,3.168701400000000000e+09
1.030000000000000000e+02,1.270000000000000000e+02,6.940000000000000000e+02,2.030000000000000000e+02,4.500000000000000000e+01,7.600000000000000000e+01,3.850000000000000000e+02,2.250000000000000000e+02,5.300000000000000266e-01,3.187277200000000000e+09
1.060000000000000000e+02,1.430000000000000000e+02,7.230000000000000000e+02,2.090000000000000000e+02,4.000000000000000000e+01,7.400000000000000000e+01,3.850000000000000000e+02,2.620000000000000000e+02,5.300000000000000266e-01,3.206217300000000000e+09
1.030000000000000000e+02,1.680000000000000000e+02,6.880000000000000000e+02,2.080000000000000000e+02,4.100000000000000000e+01,6.700000000000000000e+01,3.190000000000000000e+02,2.320000000000000000e+02,5.200000000000000178e-01,3.227211300000000000e+09
1.100000000000000000e+02,1.610000000000000000e+02,6.490000000000000000e+02,1.970000000000000000e+02,4.100000000000000000e+01,6.500000000000000000e+01,3.510000000000000000e+02,2.290000000000000000e+02,5.200000000000000178e-01,3.246538300000000000e+09
1.050000000000000000e+02,1.600000000000000000e+02,6.580000000000000000e+02,1.710000000000000000e+02,3.500000000000000000e+01,6.000000000000000000e+01,3.520000000000000000e+02,2.320000000000000000e+02,5.200000000000000178e-01,3.263442600000000000e+09
7.900000000000000000e+01,1.540000000000000000e+02,5.490000000000000000e+02,1.650000000000000000e+02,3.600000000000000000e+01,5.200000000000000000e+01,3.230000000000000000e+02,2.110000000000000000e+02,5.200000000000000178e-01,3.280798500000000000e+09
6.900000000000000000e+01,1.610000000000000000e+02,5.290000000000000000e+02,1.640000000000000000e+02,4.400000000000000000e+01,6.000000000000000000e+01,3.260000000000000000e+02,1.630000000000000000e+02,5.200000000000000178e-01,3.299233800000000000e+09
6.800000000000000000e+01,1.470000000000000000e+02,4.720000000000000000e+02,1.590000000000000000e+02,4.200000000000000000e+01,5.100000000000000000e+01,3.110000000000000000e+02,1.570000000000000000e+02,5.300000000000000266e-01,3.318915100000000000e+09
6.600000000000000000e+01,1.430000000000000000e+02,4.170000000000000000e+02,1.590000000000000000e+02,4.500000000000000000e+01,4.900000000000000000e+01,2.670000000000000000e+02,1.920000000000000000e+02,5.300000000000000266e-01,3.336366300000000000e+09
7.100000000000000000e+01,1.420000000000000000e+02,4.460000000000000000e+02,1.750000000000000000e+02,4.600000000000000000e+01,4.800000000000000000e+01,2.520000000000000000e+02,1.930000000000000000e+02,5.400000000000000355e-01,3.355769700000000000e+09
8.300000000000000000e+01,1.580000000000000000e+02,4.950000000000000000e+02,1.720000000000000000e+02,4.700000000000000000e+01,4.600000000000000000e+01,2.550000000000000000e+02,2.030000000000000000e+02,5.400000000000000355e-01,3.373795500000000000e+09
8.200000000000000000e+01,1.460000000000000000e+02,4.710000000000000000e+02,1.600000000000000000e+02,4.300000000000000000e+01,4.100000000000000000e+01,2.770000000000000000e+02,2.140000000000000000e+02,5.400000000000000355e-01,3.391832100000000000e+09
8.300000000000000000e+01,1.580000000000000000e+02,6.530000000000000000e+02,1.960000000000000000e+02,4.500000000000000000e+01,4.900000000000000000e+01,3.120000000000000000e+02,2.060000000000000000e+02,5.400000000000000355e-01,3.412116500000000000e+09
7.900000000000000000e+01,1.590000000000000000e+02,6.640000000000000000e+02,2.050000000000000000e+02,4.600000000000000000e+01,5.800000000000000000e+01,3.240000000000000000e+02,1.690000000000000000e+02,5.500000000000000444e-01,3.431924000000000000e+09
7.500000000000000000e+01,1.770000000000000000e+02,6.590000000000000000e+02,1.860000000000000000e+02,4.800000000000000000e+01,5.700000000000000000e+01,3.000000000000000000e+02,1.440000000000000000e+02,5.500000000000000444e-01,3.449770700000000000e+09
6.800000000000000000e+01,1.740000000000000000e+02,6.500000000000000000e+02,1.800000000000000000e+02,4.600000000000000000e+01,5.500000000000000000e+01,2.570000000000000000e+02,1.980000000000000000e+02,5.500000000000000444e-01,3.466931900000000000e+09
6.800000000000000000e+01,1.670000000000000000e+02,6.580000000000000000e+02,1.830000000000000000e+02,4.600000000000000000e+01,5.500000000000000000e+01,2.290000000000000000e+02,1.810000000000000000e+02,5.500000000000000444e-01,3.484429000000000000e+09
7.200000000000000000e+01,1.410000000000000000e+02,5.100000000000000000e+02,1.530000000000000000e+02,4.200000000000000000e+01,4.900000000000000000e+01,1.630000000000000000e+02,1.770000000000000000e+02,5.600000000000000533e-01,3.502879800000000000e+09
7.900000000000000000e+01,1.640000000000000000e+02,5.400000000000000000e+02,1.620000000000000000e+02,4.500000000000000000e+01,4.100000000000000000e+01,1.140000000000000000e+02,1.760000000000000000e+02,5.600000000000000533e-01,3.523864800000000000e+09
8.500000000000000000e+01,1.590000000000000000e+02,5.420000000000000000e+02,1.840000000000000000e+02,5.000000000000000000e+01,4.500000000000000000e+01,1.530000000000000000e+02,1.770000000000000000e+02,5.600000000000000533e-01,3.541430700000000000e+09
8.500000000000000000e+01,1.540000000000000000e+02,5.870000000000000000e+02,1.870000000000000000e+02,5.100000000000000000e+01,4.200000000000000000e+01,1.600000000000000000e+02,9.800000000000000000e+01,5.699999999999999512e-01,3.559223900000000000e+09
8.800000000000000000e+01,1.570000000000000000e+02,6.050000000000000000e+02,1.810000000000000000e+02,5.000000000000000000e+01,4.100000000000000000e+01,1.490000000000000000e+02,1.440000000000000000e+02,5.699999999999999512e-01,3.576772400000000000e+09
8.200000000000000000e+01,1.510000000000000000e+02,6.600000000000000000e+02,1.770000000000000000e+02,5.100000000000000000e+01,4.100000000000000000e+01,1.940000000000000000e+02,1.470000000000000000e+02,5.699999999999999512e-01,3.594259900000000000e+09
7.400000000000000000e+01,1.370000000000000000e+02,6.270000000000000000e+02,1.600000000000000000e+02,4.600000000000000000e+01,3.900000000000000000e+01,2.300000000000000000e+02,1.520000000000000000e+02,5.699999999999999512e-01,3.612806200000000000e+09
7.500000000000000000e+01,1.270000000000000000e+02,6.780000000000000000e+02,1.500000000000000000e+02,4.200000000000000000e+01,3.600000000000000000e+01,2.040000000000000000e+02,1.590000000000000000e+02,5.799999999999999600e-01,3.633579400000000000e+09
7.400000000000000000e+01,1.150000000000000000e+02,6.530000000000000000e+02,1.650000000000000000e+02,4.500000000000000000e+01,4.600000000000000000e+01,2.310000000000000000e+02,1.570000000000000000e+02,5.799999999999999600e-01,3.651055100000000000e+09
7.000000000000000000e+01,1.100000000000000000e+02,6.190000000000000000e+02,1.630000000000000000e+02,4.200000000000000000e+01,4.400000000000000000e+01,2.630000000000000000e+02,1.120000000000000000e+02,5.799999999999999600e-01,3.669667900000000000e+09
7.000000000000000000e+01,1.070000000000000000e+02,5.520000000000000000e+02,1.720000000000000000e+02,4.400000000000000000e+01,4.700000000000000000e+01,2.380000000000000000e+02,1.100000000000000000e+02,5.899999999999999689e-01,3.688564300000000000e+09
7.200000000000000000e+01,9.600000000000000000e+01,5.820000000000000000e+02,2.020000000000000000e+02,4.400000000000000000e+01,4.500000000000000000e+01,2.050000000000000000e+02,9.900000000000000000e+01,5.899999999999999689e-01,3.708137600000000000e+09
6.500000000000000000e+01,1.060000000000000000e+02,5.270000000000000000e+02,2.000000000000000000e+02,4.400000000000000000e+01,4.700000000000000000e+01,2.250000000000000000e+02,1.010000000000000000e+02,5.999999999999999778e-01,3.728749700000000000e+09
7.000000000000000000e+01,1.140000000000000000e+02,4.990000000000000000e+02,1.990000000000000000e+02,4.000000000000000000e+01,4.600000000000000000e+01,2.340000000000000000e+02,1.450000000000000000e+02,5.999999999999999778e-01,3.746044800000000000e+09
7.000000000000000000e+01,1.250000000000000000e+02,5.310000000000000000e+02,2.110000000000000000e+02,4.300000000000000000e+01,4.700000000000000000e+01,2.050000000000000000e+02,1.500000000000000000e+02,6.099999999999999867e-01,3.764774800000000000e+09
7.300000000000000000e+01,1.310000000000000000e+02,5.180000000000000000e+02,2.060000000000000000e+02,4.200000000000000000e+01,4.800000000000000000e+01,2.010000000000000000e+02,1.470000000000000000e+02,6.099999999999999867e-01,3.782180400000000000e+09
7.500000000000000000e+01,1.300000000000000000e+02,6.080000000000000000e+02,1.690000000000000000e+02,4.100000000000000000e+01,4.900000000000000000e+01,2.000000000000000000e+02,1.500000000000000000e+02,6.099999999999999867e-01,3.801744600000000000e+09
7.700000000000000000e+01,1.200000000000000000e+02,5.570000000000000000e+02,1.480000000000000000e+02,3.500000000000000000e+01,5.100000000000000000e+01,2.740000000000000000e+02,1.460000000000000000e+02,6.099999999999999867e-01,3.823865900000000000e+09
7.400000000000000000e+01,1.150000000000000000e+02,5.440000000000000000e+02,1.450000000000000000e+02,3.800000000000000000e+01,4.400000000000000000e+01,2.400000000000000000e+02,1.820000000000000000e+02,6.099999999999999867e-01,3.843461900000000000e+09
7.200000000000000000e+01,1.030000000000000000e+02,5.520000000000000000e+02,1.430000000000000000e+02,3.400000000000000000e+01,4.100000000000000000e+01,2.450000000000000000e+02,1.810000000000000000e+02,6.199999999999999956e-01,3.860702300000000000e+09
6.900000000000000000e+01,1.090000000000000000e+02,6.320000000000000000e+02,1.530000000000000000e+02,3.500000000000000000e+01,4.000000000000000000e+01,2.510000000000000000e+02,1.810000000000000000e+02,6.199999999999999956e-01,3.877767800000000000e+09
6.600000000000000000e+01,1.020000000000000000e+02,5.400000000000000000e+02,1.710000000000000000e+02,3.800000000000000000e+01,4.100000000000000000e+01,2.840000000000000000e+02,1.810000000000000000e+02,6.199999999999999956e-01,3.895188800000000000e+09
6.100000000000000000e+01,9.400000000000000000e+01,5.760000000000000000e+02,1.800000000000000000e+02,4.000000000000000000e+01,3.600000000000000000e+01,2.130000000000000000e+02,1.840000000000000000e+02,6.300000000000000044e-01,3.913889200000000000e+09
6.700000000000000000e+01,9.100000000000000000e+01,5.800000000000000000e+02,1.710000000000000000e+02,4.000000000000000000e+01,4.000000000000000000e+01,2.120000000000000000e+02,1.090000000000000000e+02,6.300000000000000044e-01,3.934231700000000000e+09
8.800000000000000000e+01,9.200000000000000000e+01,5.870000000000000000e+02,1.930000000000000000e+02,4.200000000000000000e+01,3.800000000000000000e+01,2.690000000000000000e+02,1.490000000000000000e+02,6.300000000000000044e-01,3.951988700000000000e+09
9.100000000000000000e+01,9.700000000000000000e+01,5.840000000000000000e+02,1.790000000000000000e+02,4.300000000000000000e+01,4.300000000000000000e+01,3.190000000000000000e+02,1.530000000000000000e+02,6.300000000000000044e-01,3.969520700000000000e+09
9.200000000000000000e+01,1.020000000000000000e+02,5.760000000000000000e+02,1.710000000000000000e+02,4.200000000000000000e+01,4.400000000000000000e+01,3.000000000000000000e+02,1.630000000000000000e+02,6.300000000000000044e-01,3.986153800000000000e+09
9.000000000000000000e+01,1.140000000000000000e+02,5.670000000000000000e+02,1.740000000000000000e+02,3.900000000000000000e+01,4.200000000000000000e+01,2.850000000000000000e+02,1.560000000000000000e+02,6.199999999999999956e-01,4.002832000000000000e+09
8.000000000000000000e+01,1.160000000000000000e+02,5.810000000000000000e+02,1.820000000000000000e+02,3.900000000000000000e+01,3.800000000000000000e+01,2.950000000000000000e+02,1.450000000000000000e+02,6.300000000000000044e-01,4.025856000000000000e+09
6.900000000000000000e+01,1.210000000000000000e+02,6.800000000000000000e+02,1.770000000000000000e+02,4.000000000000000000e+01,4.100000000000000000e+01,2.850000000000000000e+02,1.150000000000000000e+02,6.199999999999999956e-01,4.043681200000000000e+09
6.300000000000000000e+01,1.150000000000000000e+02,6.610000000000000000e+02,1.810000000000000000e+02,3.700000000000000000e+01,3.300000000000000000e+01,2.310000000000000000e+02,1.090000000000000000e+02,6.199999999999999956e-01,4.061524900000000000e+09
7.100000000000000000e+01,1.200000000000000000e+02,6.510000000000000000e+02,1.720000000000000000e+02,3.600000000000000000e+01,3.300000000000000000e+01,2.300000000000000000e+02,9.100000000000000000e+01,6.199999999999999956e-01,4.079024700000000000e+09
7.600000000000000000e+01,1.110000000000000000e+02,6.800000000000000000e+02,1.690000000000000000e+02,4.200000000000000000e+01,3.400000000000000000e+01,2.280000000000000000e+02,8.800000000000000000e+01,6.199999999999999956e-01,4.097068600000000000e+09
8.500000000000000000e+01,1.070000000000000000e+02,6.640000000000000000e+02,1.590000000000000000e+02,4.300000000000000000e+01,4.000000000000000000e+01,2.340000000000000000e+02,1.770000000000000000e+02,6.199999999999999956e-01,4.117790600000000000e+09
8.200000000000000000e+01,1.110000000000000000e+02,5.530000000000000000e+02,1.540000000000000000e+02,4.500000000000000000e+01,3.900000000000000000e+01,1.810000000000000000e+02,1.750000000000000000e+02,6.199999999999999956e-01,4.136752600000000000e+09
8.300000000000000000e+01,1.020000000000000000e+02,5.470000000000000000e+02,1.770000000000000000e+02,4.600000000000000000e+01,4.000000000000000000e+01,1.680000000000000000e+02,1.810000000000000000e+02,6.199999999999999956e-01,4.153918600000000000e+09
7.600000000000000000e+01,1.030000000000000000e+02,5.920000000000000000e+02,1.780000000000000000e+02,4.400000000000000000e+01,3.800000000000000000e+01,1.980000000000000000e+02,1.820000000000000000e+02,6.199999999999999956e-01,4.170891400000000000e+09
6.900000000000000000e+01,1.030000000000000000e+02,6.060000000000000000e+02,1.840000000000000000e+02,3.900000000000000000e+01,3.800000000000000000e+01,2.050000000000000000e+02,1.900000000000000000e+02,6.199999999999999956e-01,4.188202000000000000e+09
6.100000000000000000e+01,1.130000000000000000e+02,6.110000000000000000e+02,1.840000000000000000e+02,3.700000000000000000e+01,3.200000000000000000e+01,1.840000000000000000e+02,1.420000000000000000e+02,6.199999999999999956e-01,4.207654800000000000e+09
5.800000000000000000e+01,1.080000000000000000e+02,6.160000000000000000e+02,1.590000000000000000e+02,3.000000000000000000e+01,3.100000000000000000e+01,1.750000000000000000e+02,1.700000000000000000e+02,6.199999999999999956e-01,4.228709400000000000e+09
6.300000000000000000e+01,1.000000000000000000e+02,5.750000000000000000e+02,1.460000000000000000e+02,3.000000000000000000e+01,3.300000000000000000e+01,2.500000000000000000e+02,1.880000000000000000e+02,6.099999999999999867e-01,4.246473500000000000e+09
6.200000000000000000e+01,9.100000000000000000e+01,5.290000000000000000e+02,1.680000000000000000e+02,3.300000000000000000e+01,3.300000000000000000e+01,2.270000000000000000e+02,1.920000000000000000e+02,6.199999999999999956e-01,4.264130500000000000e+09
6.900000000000000000e+01,9.100000000000000000e+01,4.380000000000000000e+02,1.540000000000000000e+02,3.600000000000000000e+01,3.500000000000000000e+01,2.210000000000000000e+02,1.870000000000000000e+02,6.199999999999999956e-01,4.282746300000000000e+09
6.500000000000000000e+01,8.800000000000000000e+01,4.420000000000000000e+02,1.640000000000000000e+02,3.700000000000000000e+01,3.600000000000000000e+01,2.210000000000000000e+02,1.640000000000000000e+02,6.199999999999999956e-01,4.302676100000000000e+09
6.800000000000000000e+01,1.000000000000000000e+02,4.450000000000000000e+02,1.910000000000000000e+02,4.000000000000000000e+01,3.500000000000000000e+01,2.230000000000000000e+02,1.260000000000000000e+02,6.199999999999999956e-01,4.326055400000000000e+09
6.600000000000000000e+01,1.100000000000000000e+02,4.990000000000000000e+02,1.740000000000000000e+02,3.800000000000000000e+01,3.200000000000000000e+01,1.280000000000000000e+02,1.780000000000000000e+02,6.300000000000000044e-01,4.344778900000000000e+09
6.600000000000000000e+01,1.140000000000000000e+02,5.080000000000000000e+02,1.630000000000000000e+02,3.600000000000000000e+01,3.200000000000000000e+01,1.030000000000000000e+02,1.770000000000000000e+02,6.300000000000000044e-01,4.362416300000000000e+09
6.600000000000000000e+01,1.180000000000000000e+02,5.510000000000000000e+02,1.660000000000000000e+02,3.500000000000000000e+01,3.000000000000000000e+01,1.010000000000000000e+02,1.820000000000000000e+02,6.300000000000000044e-01,4.381273900000000000e+09
6.900000000000000000e+01,1.100000000000000000e+02,5.900000000000000000e+02,1.710000000000000000e+02,3.800000000000000000e+01,3.100000000000000000e+01,1.140000000000000000e+02,1.870000000000000000e+02,6.300000000000000044e-01,4.399363700000000000e+09
6.600000000000000000e+01,9.400000000000000000e+01,5.590000000000000000e+02,1.440000000000000000e+02,3.400000000000000000e+01,3.000000000000000000e+01,1.100000000000000000e+02,1.900000000000000000e+02,6.300000000000000044e-01,4.418086300000000000e+09
6.500000000000000000e+01,8.800000000000000000e+01,4.940000000000000000e+02,1.400000000000000000e+02,3.500000000000000000e+01,3.000000000000000000e+01,1.920000000000000000e+02,1.150000000000000000e+02,6.199999999999999956e-01,4.437932900000000000e+09
6.500000000000000000e+01,8.000000000000000000e+01,5.430000000000000000e+02,1.790000000000000000e+02,4.000000000000000000e+01,3.600000000000000000e+01,2.190000000000000000e+02,1.100000000000000000e+02,6.300000000000000044e-01,4.457184500000000000e+09
5.900000000000000000e+01,8.400000000000000000e+01,5.460000000000000000e+02,1.830000000000000000e+02,3.900000000000000000e+01,3.800000000000000000e+01,2.240000000000000000e+02,9.700000000000000000e+01,6.300000000000000044e-01,4.474162000000000000e+09
6.000000000000000000e+01,9.200000000000000000e+01,5.610000000000000000e+02,1.790000000000000000e+02,3.800000000000000000e+01,4.100000000000000000e+01,2.210000000000000000e+02,8.700000000000000000e+01,6.300000000000000044e-01,4.491453300000000000e+09
5.600000000000000000e+01,8.800000000000000000e+01,5.880000000000000000e+02,1.850000000000000000e+02,3.800000000000000000e+01,4.000000000000000000e+01,2.180000000000000000e+02,7.700000000000000000e+01,6.300000000000000044e-01,4.510837900000000000e+09
6.500000000000000000e+01,9.700000000000000000e+01,6.250000000000000000e+02,1.840000000000000000e+02,3.700000000000000000e+01,3.900000000000000000e+01,1.540000000000000000e+02,7.800000000000000000e+01,6.400000000000000133e-01,4.530329200000000000e+09
6.800000000000000000e+01,9.800000000000000000e+01,5.830000000000000000e+02,1.370000000000000000e+02,3.000000000000000000e+01,3.300000000000000000e+01,1.220000000000000000e+02,7.300000000000000000e+01,6.300000000000000044e-01,4.548859800000000000e+09
7.300000000000000000e+01,9.700000000000000000e+01,5.570000000000000000e+02,1.360000000000000000e+02,3.100000000000000000e+01,3.000000000000000000e+01,1.350000000000000000e+02,7.400000000000000000e+01,6.300000000000000044e-01,4.565817800000000000e+09
7.000000000000000000e+01,9.800000000000000000e+01,4.790000000000000000e+02,1.240000000000000000e+02,2.700000000000000000e+01,2.400000000000000000e+01,1.290000000000000000e+02,7.500000000000000000e+01,6.300000000000000044e-01,4.583350400000000000e+09
6.900000000000000000e+01,1.030000000000000000e+02,4.900000000000000000e+02,1.090000000000000000e+02,2.800000000000000000e+01,3.000000000000000000e+01,1.700000000000000000e+02,8.800000000000000000e+01,6.300000000000000044e-01,4.602472400000000000e+09
8.400000000000000000e+01,1.300000000000000000e+02,4.880000000000000000e+02,1.400000000000000000e+02,3.800000000000000000e+01,3.900000000000000000e+01,1.700000000000000000e+02,8.900000000000000000e+01,6.300000000000000044e-01,4.623457600000000000e+09
8.300000000000000000e+01,1.270000000000000000e+02,4.920000000000000000e+02,1.470000000000000000e+02,3.800000000000000000e+01,4.000000000000000000e+01,1.660000000000000000e+02,8.700000000000000000e+01,6.300000000000000044e-01,4.642411000000000000e+09
8.200000000000000000e+01,1.210000000000000000e+02,5.050000000000000000e+02,1.700000000000000000e+02,4.400000000000000000e+01,4.500000000000000000e+01,1.710000000000000000e+02,8.800000000000000000e+01,6.400000000000000133e-01,4.660260100000000000e+09
8.100000000000000000e+01,1.130000000000000000e+02,5.100000000000000000e+02,1.740000000000000000e+02,4.500000000000000000e+01,4.500000000000000000e+01,1.700000000000000000e+02,8.500000000000000000e+01,6.400000000000000133e-01,4.679293800000000000e+09
9.100000000000000000e+01,1.110000000000000000e+02,4.590000000000000000e+02,1.750000000000000000e+02,4.600000000000000000e+01,4.300000000000000000e+01,1.320000000000000000e+02,8.100000000000000000e+01,6.400000000000000133e-01,4.698077900000000000e+09
6.900000000000000000e+01,7.000000000000000000e+01,5.030000000000000000e+02,1.770000000000000000e+02,4.100000000000000000e+01,3.600000000000000000e+01,1.390000000000000000e+02,7.000000000000000000e+01,6.400000000000000133e-01,4.719760700000000000e+09
7.100000000000000000e+01,1.180000000000000000e+02,5.500000000000000000e+02,2.090000000000000000e+02,4.500000000000000000e+01,4.000000000000000000e+01,1.380000000000000000e+02,6.900000000000000000e+01,6.400000000000000133e-01,4.739073300000000000e+09
7.000000000000000000e+01,1.170000000000000000e+02,5.610000000000000000e+02,1.860000000000000000e+02,3.800000000000000000e+01,3.300000000000000000e+01,1.040000000000000000e+02,6.500000000000000000e+01,6.400000000000000133e-01,4.756331900000000000e+09
7.900000000000000000e+01,1.270000000000000000e+02,5.880000000000000000e+02,1.880000000000000000e+02,3.900000000000000000e+01,3.600000000000000000e+01,9.600000000000000000e+01,6.700000000000000000e+01,6.500000000000000222e-01,4.774376500000000000e+09
6.600000000000000000e+01,1.260000000000000000e+02,6.120000000000000000e+02,2.130000000000000000e+02,4.100000000000000000e+01,3.600000000000000000e+01,1.010000000000000000e+02,6.400000000000000000e+01,6.500000000000000222e-01,4.792055000000000000e+09
6.700000000000000000e+01,1.420000000000000000e+02,6.120000000000000000e+02,1.990000000000000000e+02,4.300000000000000000e+01,3.700000000000000000e+01,8.000000000000000000e+01,6.200000000000000000e+01,6.500000000000000222e-01,4.811732900000000000e+09
6.500000000000000000e+01,1.160000000000000000e+02,6.000000000000000000e+02,1.620000000000000000e+02,4.000000000000000000e+01,3.400000000000000000e+01,7.900000000000000000e+01,6.700000000000000000e+01,6.600000000000000311e-01,4.831391700000000000e+09
6.400000000000000000e+01,1.230000000000000000e+02,5.740000000000000000e+02,1.950000000000000000e+02,4.100000000000000000e+01,3.300000000000000000e+01,8.200000000000000000e+01,8.000000000000000000e+01,6.600000000000000311e-01,4.849574300000000000e+09
6.000000000000000000e+01,1.170000000000000000e+02,5.900000000000000000e+02,1.930000000000000000e+02,3.900000000000000000e+01,3.100000000000000000e+01,1.030000000000000000e+02,8.300000000000000000e+01,6.600000000000000311e-01,4.867519600000000000e+09
6.200000000000000000e+01,1.170000000000000000e+02,6.000000000000000000e+02,1.690000000000000000e+02,3.800000000000000000e+01,2.900000000000000000e+01,1.000000000000000000e+02,7.600000000000000000e+01,6.600000000000000311e-01,4.885090800000000000e+09
7.700000000000000000e+01,1.010000000000000000e+02,5.450000000000000000e+02,1.720000000000000000e+02,3.300000000000000000e+01,2.800000000000000000e+01,1.000000000000000000e+02,8.100000000000000000e+01,6.700000000000000400e-01,4.903621100000000000e+09
7.700000000000000000e+01,1.100000000000000000e+02,5.280000000000000000e+02,1.690000000000000000e+02,3.300000000000000000e+01,2.900000000000000000e+01,1.020000000000000000e+02,7.900000000000000000e+01,6.700000000000000400e-01,4.926178700000000000e+09
7.800000000000000000e+01,1.050000000000000000e+02,5.180000000000000000e+02,1.350000000000000000e+02,3.600000000000000000e+01,3.100000000000000000e+01,1.120000000000000000e+02,8.600000000000000000e+01,6.600000000000000311e-01,4.947483300000000000e+09
7.300000000000000000e+01,1.010000000000000000e+02,4.690000000000000000e+02,1.370000000000000000e+02,3.600000000000000000e+01,3.200000000000000000e+01,8.800000000000000000e+01,8.000000000000000000e+01,6.600000000000000311e-01,4.964889400000000000e+09
7.200000000000000000e+01,1.090000000000000000e+02,5.070000000000000000e+02,1.410000000000000000e+02,3.600000000000000000e+01,3.100000000000000000e+01,7.600000000000000000e+01,8.000000000000000000e+01,6.600000000000000311e-01,4.982122000000000000e+09
5.500000000000000000e+01,1.070000000000000000e+02,4.850000000000000000e+02,1.400000000000000000e+02,3.500000000000000000e+01,3.100000000000000000e+01,7.300000000000000000e+01,7.600000000000000000e+01,6.600000000000000311e-01,5.000517600000000000e+09
4.900000000000000000e+01,8.800000000000000000e+01,4.740000000000000000e+02,1.480000000000000000e+02,3.600000000000000000e+01,3.000000000000000000e+01,8.100000000000000000e+01,8.100000000000000000e+01,6.600000000000000311e-01,5.023612300000000000e+09
5.200000000000000000e+01,9.200000000000000000e+01,4.920000000000000000e+02,1.770000000000000000e+02,3.500000000000000000e+01,3.300000000000000000e+01,6.500000000000000000e+01,5.800000000000000000e+01,6.600000000000000311e-01,5.042658900000000000e+09
5.400000000000000000e+01,9.500000000000000000e+01,5.150000000000000000e+02,1.690000000000000000e+02,3.500000000000000000e+01,3.300000000000000000e+01,6.500000000000000000e+01,6.200000000000000000e+01,6.600000000000000311e-01,5.060845800000000000e+09
5.300000000000000000e+01,9.700000000000000000e+01,4.270000000000000000e+02,1.710000000000000000e+02,3.400000000000000000e+01,3.400000000000000000e+01,6.800000000000000000e+01,6.800000000000000000e+01,6.600000000000000311e-01,5.078980600000000000e+09
5.100000000000000000e+01,9.000000000000000000e+01,4.210000000000000000e+02,1.690000000000000000e+02,3.600000000000000000e+01,3.400000000000000000e+01,8.100000000000000000e+01,6.800000000000000000e+01,6.600000000000000311e-01,5.098646000000000000e+09
5.300000000000000000e+01,8.700000000000000000e+01,4.450000000000000000e+02,1.720000000000000000e+02,3.700000000000000000e+01,3.300000000000000000e+01,8.300000000000000000e+01,6.300000000000000000e+01,6.600000000000000311e-01,5.117640200000000000e+09
5.200000000000000000e+01,9.100000000000000000e+01,4.740000000000000000e+02,1.440000000000000000e+02,3.300000000000000000e+01,2.900000000000000000e+01,8.100000000000000000e+01,7.300000000000000000e+01,6.500000000000000222e-01,5.137382600000000000e+09
5.100000000000000000e+01,9.600000000000000000e+01,4.520000000000000000e+02,1.520000000000000000e+02,3.200000000000000000e+01,3.000000000000000000e+01,9.100000000000000000e+01,7.500000000000000000e+01,6.500000000000000222e-01,5.154768200000000000e+09
5.300000000000000000e+01,8.900000000000000000e+01,4.630000000000000000e+02,1.410000000000000000e+02,2.900000000000000000e+01,2.800000000000000000e+01,9.100000000000000000e+01,7.500000000000000000e+01,6.500000000000000222e-01,5.367483400000000000e+09
5.200000000000000000e+01,9.400000000000000000e+01,4.600000000000000000e+02,1.390000000000000000e+02,3.100000000000000000e+01,2.800000000000000000e+01,9.000000000000000000e+01,7.500000000000000000e+01,6.500000000000000222e-01,5.384444300000000000e+09
5.400000000000000000e+01,9.400000000000000000e+01,4.570000000000000000e+02,1.550000000000000000e+02,3.300000000000000000e+01,3.000000000000000000e+01,7.700000000000000000e+01,7.200000000000000000e+01,6.500000000000000222e-01,5.401697100000000000e+09
4.900000000000000000e+01,9.700000000000000000e+01,5.040000000000000000e+02,1.460000000000000000e+02,3.100000000000000000e+01,3.100000000000000000e+01,8.200000000000000000e+01,6.300000000000000000e+01,6.500000000000000222e-01,5.421611200000000000e+09
6.200000000000000000e+01,9.400000000000000000e+01,5.550000000000000000e+02,1.410000000000000000e+02,3.200000000000000000e+01,3.000000000000000000e+01,7.400000000000000000e+01,5.900000000000000000e+01,6.500000000000000222e-01,5.439092100000000000e+09
6.900000000000000000e+01,1.120000000000000000e+02,5.620000000000000000e+02,1.720000000000000000e+02,4.200000000000000000e+01,3.600000000000000000e+01,7.500000000000000000e+01,5.200000000000000000e+01,6.500000000000000222e-01,5.456463800000000000e+09
6.700000000000000000e+01,1.070000000000000000e+02,5.550000000000000000e+02,1.710000000000000000e+02,4.000000000000000000e+01,3.500000000000000000e+01,6.700000000000000000e+01,4.800000000000000000e+01,6.500000000000000222e-01,5.472891400000000000e+09
7.100000000000000000e+01,1.050000000000000000e+02,5.280000000000000000e+02,1.430000000000000000e+02,3.800000000000000000e+01,3.800000000000000000e+01,7.800000000000000000e+01,5.700000000000000000e+01,6.500000000000000222e-01,5.489678300000000000e+09
7.200000000000000000e+01,9.400000000000000000e+01,4.440000000000000000e+02,1.490000000000000000e+02,3.900000000000000000e+01,3.500000000000000000e+01,6.800000000000000000e+01,5.700000000000000000e+01,6.500000000000000222e-01,5.507099700000000000e+09
6.900000000000000000e+01,1.010000000000000000e+02,3.750000000000000000e+02,1.400000000000000000e+02,3.900000000000000000e+01,3.500000000000000000e+01,6.900000000000000000e+01,6.500000000000000000e+01,6.500000000000000222e-01,5.527990900000000000e+09
6.300000000000000000e+01,7.800000000000000000e+01,3.830000000000000000e+02,1.040000000000000000e+02,3.100000000000000000e+01,3.000000000000000000e+01,7.100000000000000000e+01,6.500000000000000000e+01,6.500000000000000222e-01,5.544991900000000000e+09
6.700000000000000000e+01,8.200000000000000000e+01,4.570000000000000000e+02,1.180000000000000000e+02,4.000000000000000000e+01,3.400000000000000000e+01,7.100000000000000000e+01,6.600000000000000000e+01,6.500000000000000222e-01,5.561641800000000000e+09
6.100000000000000000e+01,8.100000000000000000e+01,4.610000000000000000e+02,1.380000000000000000e+02,4.100000000000000000e+01,3.000000000000000000e+01,6.800000000000000000e+01,5.800000000000000000e+01,6.500000000000000222e-01,5.579893900000000000e+09
5.900000000000000000e+01,7.800000000000000000e+01,4.910000000000000000e+02,1.320000000000000000e+02,3.900000000000000000e+01,3.100000000000000000e+01,6.700000000000000000e+01,5.600000000000000000e+01,6.500000000000000222e-01,5.598748400000000000e+09
6.200000000000000000e+01,1.000000000000000000e+02,5.350000000000000000e+02,1.420000000000000000e+02,4.200000000000000000e+01,3.500000000000000000e+01,7.900000000000000000e+01,4.800000000000000000e+01,6.500000000000000222e-01,5.617064500000000000e+09
6.100000000000000000e+01,1.080000000000000000e+02,5.570000000000000000e+02,1.530000000000000000e+02,4.400000000000000000e+01,3.500000000000000000e+01,8.500000000000000000e+01,4.800000000000000000e+01,6.500000000000000222e-01,5.637028900000000000e+09
6.500000000000000000e+01,1.090000000000000000e+02,5.070000000000000000e+02,1.480000000000000000e+02,3.600000000000000000e+01,3.000000000000000000e+01,8.200000000000000000e+01,5.500000000000000000e+01,6.500000000000000222e-01,5.653852900000000000e+09
6.300000000000000000e+01,1.140000000000000000e+02,5.160000000000000000e+02,1.400000000000000000e+02,3.600000000000000000e+01,2.800000000000000000e+01,8.500000000000000000e+01,5.700000000000000000e+01,6.400000000000000133e-01,5.670218400000000000e+09
7.000000000000000000e+01,1.260000000000000000e+02,5.030000000000000000e+02,1.470000000000000000e+02,4.000000000000000000e+01,3.200000000000000000e+01,8.900000000000000000e+01,6.000000000000000000e+01,6.400000000000000133e-01,5.686331700000000000e+09
5.700000000000000000e+01,1.040000000000000000e+02,5.090000000000000000e+02,1.380000000000000000e+02,3.700000000000000000e+01,2.800000000000000000e+01,8.600000000000000000e+01,5.700000000000000000e+01,6.400000000000000133e-01,5.705723200000000000e+09
5.900000000000000000e+01,9.700000000000000000e+01,4.810000000000000000e+02,1.500000000000000000e+02,3.400000000000000000e+01,2.700000000000000000e+01,7.700000000000000000e+01,5.400000000000000000e+01,6.400000000000000133e-01,5.728087400000000000e+09
6.600000000000000000e+01,9.800000000000000000e+01,5.310000000000000000e+02,1.510000000000000000e+02,3.300000000000000000e+01,2.800000000000000000e+01,7.600000000000000000e+01,5.000000000000000000e+01,6.400000000000000133e-01,5.745812600000000000e+09
6.800000000000000000e+01,1.010000000000000000e+02,5.150000000000000000e+02,1.590000000000000000e+02,3.600000000000000000e+01,3.200000000000000000e+01,6.400000000000000000e+01,4.700000000000000000e+01,6.400000000000000133e-01,5.762783500000000000e+09
6.300000000000000000e+01,8.600000000000000000e+01,4.910000000000000000e+02,1.490000000000000000e+02,3.100000000000000000e+01,2.800000000000000000e+01,6.500000000000000000e+01,4.400000000000000000e+01,6.500000000000000222e-01,5.781025900000000000e+09
6.400000000000000000e+01,8.200000000000000000e+01,4.540000000000000000e+02,1.490000000000000000e+02,3.000000000000000000e+01,2.500000000000000000e+01,7.000000000000000000e+01,4.500000000000000000e+01,6.500000000000000222e-01,5.799173500000000000e+09
6.500000000000000000e+01,8.200000000000000000e+01,4.960000000000000000e+02,1.250000000000000000e+02,3.100000000000000000e+01,2.700000000000000000e+01,7.100000000000000000e+01,4.500000000000000000e+01,6.500000000000000222e-01,5.817801700000000000e+09
5.700000000000000000e+01,8.200000000000000000e+01,4.150000000000000000e+02,1.150000000000000000e+02,3.100000000000000000e+01,2.800000000000000000e+01,7.300000000000000000e+01,4.100000000000000000e+01,6.500000000000000222e-01,5.837790600000000000e+09
5.800000000000000000e+01,7.600000000000000000e+01,5.080000000000000000e+02,1.030000000000000000e+02,3.000000000000000000e+01,2.400000000000000000e+01,7.300000000000000000e+01,4.500000000000000000e+01,6.500000000000000222e-01,5.855032100000000000e+09
5.700000000000000000e+01,7.900000000000000000e+01,5.180000000000000000e+02,1.330000000000000000e+02,3.200000000000000000e+01,2.600000000000000000e+01,7.000000000000000000e+01,4.500000000000000000e+01,6.500000000000000222e-01,5.872201400000000000e+09
6.800000000000000000e+01,7.500000000000000000e+01,5.320000000000000000e+02,1.380000000000000000e+02,3.100000000000000000e+01,2.800000000000000000e+01,6.400000000000000000e+01,5.000000000000000000e+01,6.500000000000000222e-01,5.889687900000000000e+09
7.400000000000000000e+01,8.000000000000000000e+01,5.450000000000000000e+02,1.540000000000000000e+02,3.400000000000000000e+01,2.900000000000000000e+01,6.800000000000000000e+01,5.800000000000000000e+01,6.500000000000000222e-01,5.909395100000000000e+09
6.800000000000000000e+01,7.400000000000000000e+01,5.750000000000000000e+02,1.680000000000000000e+02,3.400000000000000000e+01,2.800000000000000000e+01,6.600000000000000000e+01,5.700000000000000000e+01,6.500000000000000222e-01,5.931083600000000000e+09
6.700000000000000000e+01,7.300000000000000000e+01,4.810000000000000000e+02,1.630000000000000000e+02,3.300000000000000000e+01,2.900000000000000000e+01,6.600000000000000000e+01,6.000000000000000000e+01,6.500000000000000222e-01,5.950138700000000000e+09
7.500000000000000000e+01,7.400000000000000000e+01,4.910000000000000000e+02,1.440000000000000000e+02,3.100000000000000000e+01,2.900000000000000000e+01,8.000000000000000000e+01,6.300000000000000000e+01,6.500000000000000222e-01,5.966912800000000000e+09
7.600000000000000000e+01,7.400000000000000000e+01,4.690000000000000000e+02,1.520000000000000000e+02,3.300000000000000000e+01,3.100000000000000000e+01,7.800000000000000000e+01,6.500000000000000000e+01,6.500000000000000222e-01,5.983752700000000000e+09
7.200000000000000000e+01,6.700000000000000000e+01,3.910000000000000000e+02,1.380000000000000000e+02,2.900000000000000000e+01,2.900000000000000000e+01,7.400000000000000000e+01,6.300000000000000000e+01,6.500000000000000222e-01,6.001197800000000000e+09
7.200000000000000000e+01,7.400000000000000000e+01,4.140000000000000000e+02,1.240000000000000000e+02,3.300000000000000000e+01,3.300000000000000000e+01,7.400000000000000000e+01,6.600000000000000000e+01,6.500000000000000222e-01,6.019908400000000000e+09
7.300000000000000000e+01,7.500000000000000000e+01,4.620000000000000000e+02,1.220000000000000000e+02,3.000000000000000000e+01,3.500000000000000000e+01,9.000000000000000000e+01,6.800000000000000000e+01,6.500000000000000222e-01,6.041134200000000000e+09
6.400000000000000000e+01,7.400000000000000000e+01,4.440000000000000000e+02,1.270000000000000000e+02,2.900000000000000000e+01,3.400000000000000000e+01,8.100000000000000000e+01,6.400000000000000000e+01,6.500000000000000222e-01,6.058627600000000000e+09
5.300000000000000000e+01,7.900000000000000000e+01,4.550000000000000000e+02,1.260000000000000000e+02,2.800000000000000000e+01,3.100000000000000000e+01,8.000000000000000000e+01,6.100000000000000000e+01,6.500000000000000222e-01,6.075552600000000000e+09
5.300000000000000000e+01,8.500000000000000000e+01,4.740000000000000000e+02,1.370000000000000000e+02,3.100000000000000000e+01,3.300000000000000000e+01,7.700000000000000000e+01,5.800000000000000000e+01,6.500000000000000222e-01,6.093154800000000000e+09
6.000000000000000000e+01,8.500000000000000000e+01,5.180000000000000000e+02,1.330000000000000000e+02,2.900000000000000000e+01,3.200000000000000000e+01,7.800000000000000000e+01,6.100000000000000000e+01,6.500000000000000222e-01,6.112747600000000000e+09
5.900000000000000000e+01,8.400000000000000000e+01,5.050000000000000000e+02,1.600000000000000000e+02,3.400000000000000000e+01,3.200000000000000000e+01,8.900000000000000000e+01,5.900000000000000000e+01,6.500000000000000222e-01,6.131719100000000000e+09
6.400000000000000000e+01,9.600000000000000000e+01,5.470000000000000000e+02,1.740000000000000000e+02,3.800000000000000000e+01,3.300000000000000000e+01,8.900000000000000000e+01,6.300000000000000000e+01,6.500000000000000222e-01,6.149272100000000000e+09
6.400000000000000000e+01,9.100000000000000000e+01,5.430000000000000000e+02,1.740000000000000000e+02,3.800000000000000000e+01,3.300000000000000000e+01,9.300000000000000000e+01,6.400000000000000000e+01,6.500000000000000222e-01,6.166405100000000000e+09
6.400000000000000000e+01,8.600000000000000000e+01,5.800000000000000000e+02,1.660000000000000000e+02,3.600000000000000000e+01,3.100000000000000000e+01,9.400000000000000000e+01,6.100000000000000000e+01,6.500000000000000222e-01,6.183131100000000000e+09
5.900000000000000000e+01,8.900000000000000000e+01,5.490000000000000000e+02,1.890000000000000000e+02,3.800000000000000000e+01,2.900000000000000000e+01,1.010000000000000000e+02,6.300000000000000000e+01,6.500000000000000222e-01,6.199888800000000000e+09
6.600000000000000000e+01,9.300000000000000000e+01,5.880000000000000000e+02,1.700000000000000000e+02,3.700000000000000000e+01,2.900000000000000000e+01,7.800000000000000000e+01,6.800000000000000000e+01,6.500000000000000222e-01,6.220662600000000000e+09
6.200000000000000000e+01,8.300000000000000000e+01,5.770000000000000000e+02,1.520000000000000000e+02,3.300000000000000000e+01,2.700000000000000000e+01,7.600000000000000000e+01,6.500000000000000000e+01,6.500000000000000222e-01,6.240648600000000000e+09
7.400000000000000000e+01,8.500000000000000000e+01,5.710000000000000000e+02,1.390000000000000000e+02,3.400000000000000000e+01,2.900000000000000000e+01,7.300000000000000000e+01,6.800000000000000000e+01,6.500000000000000222e-01,6.258927400000000000e+09
7.100000000000000000e+01,8.400000000000000000e+01,5.200000000000000000e+02,1.450000000000000000e+02,3.300000000000000000e+01,2.700000000000000000e+01,7.300000000000000000e+01,6.900000000000000000e+01,6.500000000000000222e-01,6.276720100000000000e+09
7.800000000000000000e+01,7.800000000000000000e+01,5.140000000000000000e+02,1.410000000000000000e+02,3.000000000000000000e+01,2.800000000000000000e+01,6.400000000000000000e+01,7.100000000000000000e+01,6.500000000000000222e-01,6.293697600000000000e+09
7.000000000000000000e+01,6.800000000000000000e+01,4.670000000000000000e+02,1.500000000000000000e+02,2.900000000000000000e+01,2.400000000000000000e+01,5.900000000000000000e+01,6.200000000000000000e+01,6.500000000000000222e-01,6.315417700000000000e+09
7.300000000000000000e+01,7.000000000000000000e+01,4.480000000000000000e+02,1.530000000000000000e+02,3.000000000000000000e+01,2.400000000000000000e+01,5.900000000000000000e+01,6.000000000000000000e+01,6.600000000000000311e-01,6.332958300000000000e+09
7.500000000000000000e+01,6.800000000000000000e+01,4.350000000000000000e+02,1.530000000000000000e+02,3.000000000000000000e+01,2.500000000000000000e+01,4.600000000000000000e+01,5.800000000000000000e+01,6.600000000000000311e-01,6.351851700000000000e+09
7.500000000000000000e+01,6.700000000000000000e+01,4.180000000000000000e+02,1.550000000000000000e+02,3.500000000000000000e+01,3.200000000000000000e+01,4.900000000000000000e+01,5.800000000000000000e+01,6.600000000000000311e-01,6.379586200000000000e+09
7.000000000000000000e+01,6.900000000000000000e+01,3.860000000000000000e+02,1.510000000000000000e+02,3.700000000000000000e+01,3.300000000000000000e+01,5.300000000000000000e+01,4.800000000000000000e+01,6.600000000000000311e-01,6.416918400000000000e+09
6.800000000000000000e+01,7.100000000000000000e+01,3.490000000000000000e+02,1.420000000000000000e+02,3.800000000000000000e+01,3.400000000000000000e+01,5.600000000000000000e+01,4.700000000000000000e+01,6.600000000000000311e-01,6.445704000000000000e+09
6.600000000000000000e+01,6.600000000000000000e+01,3.800000000000000000e+02,1.490000000000000000e+02,3.700000000000000000e+01,3.300000000000000000e+01,5.400000000000000000e+01,4.600000000000000000e+01,6.600000000000000311e-01,6.462979000000000000e+09
4.800000000000000000e+01,7.300000000000000000e+01,3.980000000000000000e+02,1.600000000000000000e+02,3.700000000000000000e+01,3.300000000000000000e+01,5.000000000000000000e+01,4.200000000000000000e+01,6.600000000000000311e-01,6.480760700000000000e+09
5.200000000000000000e+01,7.900000000000000000e+01,4.710000000000000000e+02,1.480000000000000000e+02,3.400000000000000000e+01,3.000000000000000000e+01,4.300000000000000000e+01,4.000000000000000000e+01,6.600000000000000311e-01,6.499338800000000000e+09
5.100000000000000000e+01,7.800000000000000000e+01,5.130000000000000000e+02,1.320000000000000000e+02,3.200000000000000000e+01,2.700000000000000000e+01,3.100000000000000000e+01,3.800000000000000000e+01,6.600000000000000311e-01,6.519233300000000000e+09
5.400000000000000000e+01,7.800000000000000000e+01,5.350000000000000000e+02,1.420000000000000000e+02,3.100000000000000000e+01,2.500000000000000000e+01,3.200000000000000000e+01,3.800000000000000000e+01,6.600000000000000311e-01,6.537336500000000000e+09
5.200000000000000000e+01,8.300000000000000000e+01,5.840000000000000000e+02,1.330000000000000000e+02,3.200000000000000000e+01,2.700000000000000000e+01,3.100000000000000000e+01,3.800000000000000000e+01,6.600000000000000311e-01,6.555460800000000000e+09
5.300000000000000000e+01,8.900000000000000000e+01,6.330000000000000000e+02,1.330000000000000000e+02,3.200000000000000000e+01,2.700000000000000000e+01,3.200000000000000000e+01,3.400000000000000000e+01,6.600000000000000311e-01,6.572351900000000000e+09
5.100000000000000000e+01,9.200000000000000000e+01,5.860000000000000000e+02,1.310000000000000000e+02,3.000000000000000000e+01,2.600000000000000000e+01,3.200000000000000000e+01,4.200000000000000000e+01,6.500000000000000222e-01,6.589631000000000000e+09
4.800000000000000000e+01,8.400000000000000000e+01,5.350000000000000000e+02,1.360000000000000000e+02,3.100000000000000000e+01,2.500000000000000000e+01,3.300000000000000000e+01,4.400000000000000000e+01,6.500000000000000222e-01,6.607989600000000000e+09
4.700000000000000000e+01,8.300000000000000000e+01,5.560000000000000000e+02,1.400000000000000000e+02,3.100000000000000000e+01,2.600000000000000000e+01,2.600000000000000000e+01,4.400000000000000000e+01,6.500000000000000222e-01,6.629707000000000000e+09
4.900000000000000000e+01,8.800000000000000000e+01,4.600000000000000000e+02,1.430000000000000000e+02,3.200000000000000000e+01,2.500000000000000000e+01,2.700000000000000000e+01,5.000000000000000000e+01,6.500000000000000222e-01,6.647776100000000000e+09
4.900000000000000000e+01,7.900000000000000000e+01,3.960000000000000000e+02,1.550000000000000000e+02,3.100000000000000000e+01,2.200000000000000000e+01,2.500000000000000000e+01,5.700000000000000000e+01,6.500000000000000222e-01,6.664593100000000000e+09
4.600000000000000000e+01,7.400000000000000000e+01,3.880000000000000000e+02,1.530000000000000000e+02,3.300000000000000000e+01,2.400000000000000000e+01,3.700000000000000000e+01,5.300000000000000000e+01,6.500000000000000222e-01,6.682168100000000000e+09
4.300000000000000000e+01,7.700000000000000000e+01,3.940000000000000000e+02,1.440000000000000000e+02,3.100000000000000000e+01,2.600000000000000000e+01,3.700000000000000000e+01,5.200000000000000000e+01,6.500000000000000222e-01,6.703434200000000000e+09
4.200000000000000000e+01,7.900000000000000000e+01,4.150000000000000000e+02,1.290000000000000000e+02,3.200000000000000000e+01,2.600000000000000000e+01,3.900000000000000000e+01,5.100000000000000000e+01,6.500000000000000222e-01,6.725092400000000000e+09
3.900000000000000000e+01,7.300000000000000000e+01,4.500000000000000000e+02,1.300000000000000000e+02,3.100000000000000000e+01,2.500000000000000000e+01,3.800000000000000000e+01,4.600000000000000000e+01,6.500000000000000222e-01,6.742822000000000000e+09
4.300000000000000000e+01,8.000000000000000000e+01,4.460000000000000000e+02,1.060000000000000000e+02,3.200000000000000000e+01,2.600000000000000000e+01,3.900000000000000000e+01,3.600000000000000000e+01,6.500000000000000222e-01,6.760197700000000000e+09
4.500000000000000000e+01,7.500000000000000000e+01,4.390000000000000000e+02,1.060000000000000000e+02,2.900000000000000000e+01,2.300000000000000000e+01,2.700000000000000000e+01,3.500000000000000000e+01,6.500000000000000222e-01,6.777335800000000000e+09
5.600000000000000000e+01,8.600000000000000000e+01,4.530000000000000000e+02,1.130000000000000000e+02,3.500000000000000000e+01,2.600000000000000000e+01,2.700000000000000000e+01,4.700000000000000000e+01,6.500000000000000222e-01,6.793476400000000000e+09
5.600000000000000000e+01,8.400000000000000000e+01,3.670000000000000000e+02,1.130000000000000000e+02,3.300000000000000000e+01,2.600000000000000000e+01,2.400000000000000000e+01,4.700000000000000000e+01,6.500000000000000222e-01,6.812522200000000000e+09
5.900000000000000000e+01,8.100000000000000000e+01,3.360000000000000000e+02,9.900000000000000000e+01,3.400000000000000000e+01,2.600000000000000000e+01,2.400000000000000000e+01,4.800000000000000000e+01,6.400000000000000133e-01,6.833143500000000000e+09
6.200000000000000000e+01,7.300000000000000000e+01,2.880000000000000000e+02,1.210000000000000000e+02,3.400000000000000000e+01,2.500000000000000000e+01,2.300000000000000000e+01,5.200000000000000000e+01,6.400000000000000133e-01,6.851059900000000000e+09
5.900000000000000000e+01,7.700000000000000000e+01,3.230000000000000000e+02,1.300000000000000000e+02,3.600000000000000000e+01,2.800000000000000000e+01,2.200000000000000000e+01,4.900000000000000000e+01,6.400000000000000133e-01,6.868600300000000000e+09
5.200000000000000000e+01,7.200000000000000000e+01,3.200000000000000000e+02,1.290000000000000000e+02,3.100000000000000000e+01,2.300000000000000000e+01,2.100000000000000000e+01,3.900000000000000000e+01,6.400000000000000133e-01,6.885235000000000000e+09
5.900000000000000000e+01,7.500000000000000000e+01,3.700000000000000000e+02,1.430000000000000000e+02,3.500000000000000000e+01,2.700000000000000000e+01,2.300000000000000000e+01,4.100000000000000000e+01,6.400000000000000133e-01,6.904179600000000000e+09
6.200000000000000000e+01,8.500000000000000000e+01,4.610000000000000000e+02,1.820000000000000000e+02,3.800000000000000000e+01,3.000000000000000000e+01,2.300000000000000000e+01,4.000000000000000000e+01,6.400000000000000133e-01,6.923006300000000000e+09
5.400000000000000000e+01,8.000000000000000000e+01,4.610000000000000000e+02,1.660000000000000000e+02,3.700000000000000000e+01,3.200000000000000000e+01,2.100000000000000000e+01,5.000000000000000000e+01,6.400000000000000133e-01,6.941405600000000000e+09
5.800000000000000000e+01,7.600000000000000000e+01,4.480000000000000000e+02,1.590000000000000000e+02,3.700000000000000000e+01,3.100000000000000000e+01,2.600000000000000000e+01,5.200000000000000000e+01,6.400000000000000133e-01,6.960395200000000000e+09
6.200000000000000000e+01,6.900000000000000000e+01,5.020000000000000000e+02,1.540000000000000000e+02,3.400000000000000000e+01,3.000000000000000000e+01,2.500000000000000000e+01,5.200000000000000000e+01,6.400000000000000133e-01,6.977922700000000000e+09
6.100000000000000000e+01,7.500000000000000000e+01,4.900000000000000000e+02,1.610000000000000000e+02,3.000000000000000000e+01,2.800000000000000000e+01,2.400000000000000000e+01,5.000000000000000000e+01,6.400000000000000133e-01,6.995495000000000000e+09
6.000000000000000000e+01,6.400000000000000000e+01,3.910000000000000000e+02,1.130000000000000000e+02,2.400000000000000000e+01,2.500000000000000000e+01,2.500000000000000000e+01,5.200000000000000000e+01,6.400000000000000133e-01,7.014307200000000000e+09
5.900000000000000000e+01,7.200000000000000000e+01,4.050000000000000000e+02,1.120000000000000000e+02,2.500000000000000000e+01,2.300000000000000000e+01,2.600000000000000000e+01,4.900000000000000000e+01,6.400000000000000133e-01,7.033410200000000000e+09
5.800000000000000000e+01,7.000000000000000000e+01,4.000000000000000000e+02,1.140000000000000000e+02,2.200000000000000000e+01,2.700000000000000000e+01,2.200000000000000000e+01,5.000000000000000000e+01,6.400000000000000133e-01,7.050964000000000000e+09
6.000000000000000000e+01,8.000000000000000000e+01,3.070000000000000000e+02,1.610000000000000000e+02,2.900000000000000000e+01,2.900000000000000000e+01,2.600000000000000000e+01,5.000000000000000000e+01,6.400000000000000133e-01,7.069024200000000000e+09
5.500000000000000000e+01,7.400000000000000000e+01,2.840000000000000000e+02,1.490000000000000000e+02,3.000000000000000000e+01,2.900000000000000000e+01,2.700000000000000000e+01,5.100000000000000000e+01,6.400000000000000133e-01,7.085928600000000000e+09
5.000000000000000000e+01,7.400000000000000000e+01,2.830000000000000000e+02,1.530000000000000000e+02,3.200000000000000000e+01,2.900000000000000000e+01,2.600000000000000000e+01,5.100000000000000000e+01,6.400000000000000133e-01,7.103632300000000000e+09
5.100000000000000000e+01,7.500000000000000000e+01,2.830000000000000000e+02,1.540000000000000000e+02,3.400000000000000000e+01,3.100000000000000000e+01,2.500000000000000000e+01,4.000000000000000000e+01,6.400000000000000133e-01,7.123008000000000000e+09
5.700000000000000000e+01,8.400000000000000000e+01,2.890000000000000000e+02,1.610000000000000000e+02,3.400000000000000000e+01,2.900000000000000000e+01,2.400000000000000000e+01,3.600000000000000000e+01,6.400000000000000133e-01,7.140417100000000000e+09
5.700000000000000000e+01,8.000000000000000000e+01,3.420000000000000000e+02,1.180000000000000000e+02,3.200000000000000000e+01,2.800000000000000000e+01,2.000000000000000000e+01,4.200000000000000000e+01,6.400000000000000133e-01,7.158821600000000000e+09
6.100000000000000000e+01,7.600000000000000000e+01,3.700000000000000000e+02,1.030000000000000000e+02,3.000000000000000000e+01,2.900000000000000000e+01,2.000000000000000000e+01,4.800000000000000000e+01,6.400000000000000133e-01,7.176273800000000000e+09
6.000000000000000000e+01,7.400000000000000000e+01,3.990000000000000000e+02,9.600000000000000000e+01,2.900000000000000000e+01,3.000000000000000000e+01,2.000000000000000000e+01,4.700000000000000000e+01,6.400000000000000133e-01,7.194084300000000000e+09
6.300000000000000000e+01,7.400000000000000000e+01,4.060000000000000000e+02,9.500000000000000000e+01,2.400000000000000000e+01,2.700000000000000000e+01,2.000000000000000000e+01,4.600000000000000000e+01,6.300000000000000044e-01,7.212770400000000000e+09
6.100000000000000000e+01,6.500000000000000000e+01,3.960000000000000000e+02,9.600000000000000000e+01,2.600000000000000000e+01,3.000000000000000000e+01,2.300000000000000000e+01,5.000000000000000000e+01,6.300000000000000044e-01,7.232101700000000000e+09
5.600000000000000000e+01,7.000000000000000000e+01,3.760000000000000000e+02,1.000000000000000000e+02,2.500000000000000000e+01,3.000000000000000000e+01,2.300000000000000000e+01,4.700000000000000000e+01,6.300000000000000044e-01,7.250466300000000000e+09
6.000000000000000000e+01,6.800000000000000000e+01,3.440000000000000000e+02,1.000000000000000000e+02,2.500000000000000000e+01,2.900000000000000000e+01,2.200000000000000000e+01,5.200000000000000000e+01,6.300000000000000044e-01,7.269485900000000000e+09
6.700000000000000000e+01,7.400000000000000000e+01,3.420000000000000000e+02,1.060000000000000000e+02,2.600000000000000000e+01,2.900000000000000000e+01,2.200000000000000000e+01,5.400000000000000000e+01,6.300000000000000044e-01,7.286596800000000000e+09
6.700000000000000000e+01,7.800000000000000000e+01,4.210000000000000000e+02,1.400000000000000000e+02,3.500000000000000000e+01,3.000000000000000000e+01,2.200000000000000000e+01,5.700000000000000000e+01,6.300000000000000044e-01,7.305302200000000000e+09
6.500000000000000000e+01,8.600000000000000000e+01,4.590000000000000000e+02,1.580000000000000000e+02,3.600000000000000000e+01,2.800000000000000000e+01,2.000000000000000000e+01,5.400000000000000000e+01,6.300000000000000044e-01,7.324561100000000000e+09
6.500000000000000000e+01,8.000000000000000000e+01,4.670000000000000000e+02,1.560000000000000000e+02,3.700000000000000000e+01,2.800000000000000000e+01,2.600000000000000000e+01,5.700000000000000000e+01,6.300000000000000044e-01,7.342819000000000000e+09
5.900000000000000000e+01,8.400000000000000000e+01,4.700000000000000000e+02,1.560000000000000000e+02,3.700000000000000000e+01,2.800000000000000000e+01,2.800000000000000000e+01,4.800000000000000000e+01,6.300000000000000044e-01,7.359975700000000000e+09
5.300000000000000000e+01,9.500000000000000000e+01,4.880000000000000000e+02,1.700000000000000000e+02,4.400000000000000000e+01,3.100000000000000000e+01,3.200000000000000000e+01,4.800000000000000000e+01,6.300000000000000044e-01,7.377561200000000000e+09
6.400000000000000000e+01,8.900000000000000000e+01,4.290000000000000000e+02,1.590000000000000000e+02,3.900000000000000000e+01,2.900000000000000000e+01,3.300000000000000000e+01,5.100000000000000000e+01,6.300000000000000044e-01,7.395498600000000000e+09
7.400000000000000000e+01,8.700000000000000000e+01,4.330000000000000000e+02,1.440000000000000000e+02,3.900000000000000000e+01,3.300000000000000000e+01,3.800000000000000000e+01,1.580000000000000000e+02,6.300000000000000044e-01,7.415985900000000000e+09
7.300000000000000000e+01,8.400000000000000000e+01,4.130000000000000000e+02,1.410000000000000000e+02,3.700000000000000000e+01,3.100000000000000000e+01,3.600000000000000000e+01,1.590000000000000000e+02,6.300000000000000044e-01,7.436819800000000000e+09
8.700000000000000000e+01,8.100000000000000000e+01,4.130000000000000000e+02,1.600000000000000000e+02,3.900000000000000000e+01,3.200000000000000000e+01,3.600000000000000000e+01,1.720000000000000000e+02,6.300000000000000044e-01,7.454293800000000000e+09
8.700000000000000000e+01,6.300000000000000000e+01,3.710000000000000000e+02,1.400000000000000000e+02,3.100000000000000000e+01,3.100000000000000000e+01,6.100000000000000000e+01,2.160000000000000000e+02,6.300000000000000044e-01,7.470966500000000000e+09
8.000000000000000000e+01,7.900000000000000000e+01,4.150000000000000000e+02,1.640000000000000000e+02,3.400000000000000000e+01,3.500000000000000000e+01,7.100000000000000000e+01,2.250000000000000000e+02,6.300000000000000044e-01,7.489642700000000000e+09
8.400000000000000000e+01,7.300000000000000000e+01,4.490000000000000000e+02,1.670000000000000000e+02,3.300000000000000000e+01,2.900000000000000000e+01,6.800000000000000000e+01,2.130000000000000000e+02,6.300000000000000044e-01,7.511023100000000000e+09
8.800000000000000000e+01,7.800000000000000000e+01,4.760000000000000000e+02,1.700000000000000000e+02,3.600000000000000000e+01,3.100000000000000000e+01,9.100000000000000000e+01,2.240000000000000000e+02,6.300000000000000044e-01,7.530424700000000000e+09
7.900000000000000000e+01,8.500000000000000000e+01,4.950000000000000000e+02,1.640000000000000000e+02,3.700000000000000000e+01,3.400000000000000000e+01,1.000000000000000000e+02,2.200000000000000000e+02,6.199999999999999956e-01,7.547826400000000000e+09
7.800000000000000000e+01,1.060000000000000000e+02,5.770000000000000000e+02,1.800000000000000000e+02,4.000000000000000000e+01,3.200000000000000000e+01,8.900000000000000000e+01,1.870000000000000000e+02,6.199999999999999956e-01,7.565765500000000000e+09
7.700000000000000000e+01,9.300000000000000000e+01,6.010000000000000000e+02,1.560000000000000000e+02,3.900000000000000000e+01,3.000000000000000000e+01,8.500000000000000000e+01,1.750000000000000000e+02,6.199999999999999956e-01,7.583679200000000000e+09
6.500000000000000000e+01,1.070000000000000000e+02,6.110000000000000000e+02,1.550000000000000000e+02,4.200000000000000000e+01,3.500000000000000000e+01,9.500000000000000000e+01,1.210000000000000000e+02,6.099999999999999867e-01,7.600896100000000000e+09
6.300000000000000000e+01,1.240000000000000000e+02,6.610000000000000000e+02,1.810000000000000000e+02,4.300000000000000000e+01,3.600000000000000000e+01,9.000000000000000000e+01,1.710000000000000000e+02,6.099999999999999867e-01,7.624049600000000000e+09
6.300000000000000000e+01,1.240000000000000000e+02,6.970000000000000000e+02,1.880000000000000000e+02,4.300000000000000000e+01,4.400000000000000000e+01,2.480000000000000000e+02,1.770000000000000000e+02,5.999999999999999778e-01,7.643162400000000000e+09
6.700000000000000000e+01,1.260000000000000000e+02,7.190000000000000000e+02,1.900000000000000000e+02,4.500000000000000000e+01,4.400000000000000000e+01,2.590000000000000000e+02,1.770000000000000000e+02,5.999999999999999778e-01,7.660230100000000000e+09
6.800000000000000000e+01,1.420000000000000000e+02,7.030000000000000000e+02,1.850000000000000000e+02,4.500000000000000000e+01,5.300000000000000000e+01,3.080000000000000000e+02,1.930000000000000000e+02,5.899999999999999689e-01,7.678692600000000000e+09
7.500000000000000000e+01,1.690000000000000000e+02,7.710000000000000000e+02,1.850000000000000000e+02,4.200000000000000000e+01,5.300000000000000000e+01,3.220000000000000000e+02,1.990000000000000000e+02,5.899999999999999689e-01,7.698089700000000000e+09
9.400000000000000000e+01,1.590000000000000000e+02,7.230000000000000000e+02,1.630000000000000000e+02,4.300000000000000000e+01,5.800000000000000000e+01,3.510000000000000000e+02,2.550000000000000000e+02,5.799999999999999600e-01,7.719909200000000000e+09
1.000000000000000000e+02,1.620000000000000000e+02,7.210000000000000000e+02,1.810000000000000000e+02,4.600000000000000000e+01,6.100000000000000000e+01,3.690000000000000000e+02,2.620000000000000000e+02,5.699999999999999512e-01,7.738120500000000000e+09
1.030000000000000000e+02,1.520000000000000000e+02,6.390000000000000000e+02,1.680000000000000000e+02,4.300000000000000000e+01,6.400000000000000000e+01,4.250000000000000000e+02,2.790000000000000000e+02,5.699999999999999512e-01,7.756774300000000000e+09
1.060000000000000000e+02,1.770000000000000000e+02,6.040000000000000000e+02,2.080000000000000000e+02,4.600000000000000000e+01,5.700000000000000000e+01,4.320000000000000000e+02,2.810000000000000000e+02,5.600000000000000533e-01,7.774310200000000000e+09
1.030000000000000000e+02,1.540000000000000000e+02,4.500000000000000000e+02,2.140000000000000000e+02,4.800000000000000000e+01,5.900000000000000000e+01,4.360000000000000000e+02,2.810000000000000000e+02,5.500000000000000444e-01,7.791815200000000000e+09
1.080000000000000000e+02,1.700000000000000000e+02,4.930000000000000000e+02,2.340000000000000000e+02,6.000000000000000000e+01,8.400000000000000000e+01,5.300000000000000000e+02,2.840000000000000000e+02,5.500000000000000444e-01,7.810510400000000000e+09
1.160000000000000000e+02,1.800000000000000000e+02,5.490000000000000000e+02,2.230000000000000000e+02,6.000000000000000000e+01,8.600000000000000000e+01,5.450000000000000000e+02,3.150000000000000000e+02,5.400000000000000355e-01,7.830006300000000000e+09
1.150000000000000000e+02,1.810000000000000000e+02,5.890000000000000000e+02,2.380000000000000000e+02,6.000000000000000000e+01,8.600000000000000000e+01,5.090000000000000000e+02,3.210000000000000000e+02,5.300000000000000266e-01,7.847871000000000000e+09
1.190000000000000000e+02,1.450000000000000000e+02,6.070000000000000000e+02,2.010000000000000000e+02,5.800000000000000000e+01,8.900000000000000000e+01,5.220000000000000000e+02,3.740000000000000000e+02,5.300000000000000266e-01,7.865957000000000000e+09
1.170000000000000000e+02,1.370000000000000000e+02,6.400000000000000000e+02,2.020000000000000000e+02,5.700000000000000000e+01,8.900000000000000000e+01,5.370000000000000000e+02,3.740000000000000000e+02,5.200000000000000178e-01,7.882828000000000000e+09
1.030000000000000000e+02,1.190000000000000000e+02,6.550000000000000000e+02,1.770000000000000000e+02,4.200000000000000000e+01,6.300000000000000000e+01,4.390000000000000000e+02,3.330000000000000000e+02,5.200000000000000178e-01,7.901361400000000000e+09
9.200000000000000000e+01,1.330000000000000000e+02,5.690000000000000000e+02,1.690000000000000000e+02,4.700000000000000000e+01,6.200000000000000000e+01,3.760000000000000000e+02,3.590000000000000000e+02,5.200000000000000178e-01,7.921692700000000000e+09
1.090000000000000000e+02,1.430000000000000000e+02,5.350000000000000000e+02,1.600000000000000000e+02,4.900000000000000000e+01,6.800000000000000000e+01,4.020000000000000000e+02,3.370000000000000000e+02,5.100000000000000089e-01,7.939853700000000000e+09
1.090000000000000000e+02,1.490000000000000000e+02,4.990000000000000000e+02,1.600000000000000000e+02,4.800000000000000000e+01,6.600000000000000000e+01,3.690000000000000000e+02,2.810000000000000000e+02,5.100000000000000089e-01,7.958060600000000000e+09
1.120000000000000000e+02,1.740000000000000000e+02,4.590000000000000000e+02,1.520000000000000000e+02,4.600000000000000000e+01,6.700000000000000000e+01,3.940000000000000000e+02,3.150000000000000000e+02,5.100000000000000089e-01,7.977126200000000000e+09
1.210000000000000000e+02,1.920000000000000000e+02,4.350000000000000000e+02,1.760000000000000000e+02,5.300000000000000000e+01,7.800000000000000000e+01,4.170000000000000000e+02,3.510000000000000000e+02,5.000000000000000000e-01,7.994440200000000000e+09
1.160000000000000000e+02,1.750000000000000000e+02,4.290000000000000000e+02,1.710000000000000000e+02,4.600000000000000000e+01,6.900000000000000000e+01,3.870000000000000000e+02,3.240000000000000000e+02,5.000000000000000000e-01,8.013984500000000000e+09
1.220000000000000000e+02,1.860000000000000000e+02,4.580000000000000000e+02,1.730000000000000000e+02,5.200000000000000000e+01,6.700000000000000000e+01,3.850000000000000000e+02,3.380000000000000000e+02,5.000000000000000000e-01,8.034162100000000000e+09
1.210000000000000000e+02,1.900000000000000000e+02,5.380000000000000000e+02,1.820000000000000000e+02,5.200000000000000000e+01,6.900000000000000000e+01,3.870000000000000000e+02,3.970000000000000000e+02,4.899999999999999911e-01,8.052331400000000000e+09
1.200000000000000000e+02,1.810000000000000000e+02,5.870000000000000000e+02,2.120000000000000000e+02,5.400000000000000000e+01,7.200000000000000000e+01,3.550000000000000000e+02,3.830000000000000000e+02,4.899999999999999911e-01,8.069803900000000000e+09
1.100000000000000000e+02,1.570000000000000000e+02,5.420000000000000000e+02,1.890000000000000000e+02,4.700000000000000000e+01,5.900000000000000000e+01,3.200000000000000000e+02,3.400000000000000000e+02,4.899999999999999911e-01,8.088362100000000000e+09
1.120000000000000000e+02,1.850000000000000000e+02,5.520000000000000000e+02,1.940000000000000000e+02,4.800000000000000000e+01,6.100000000000000000e+01,3.260000000000000000e+02,3.870000000000000000e+02,4.899999999999999911e-01,8.107635300000000000e+09
1.030000000000000000e+02,1.830000000000000000e+02,5.790000000000000000e+02,1.970000000000000000e+02,4.300000000000000000e+01,6.000000000000000000e+01,2.890000000000000000e+02,4.090000000000000000e+02,4.899999999999999911e-01,8.131767200000000000e+09
1.010000000000000000e+02,1.990000000000000000e+02,5.300000000000000000e+02,1.900000000000000000e+02,4.300000000000000000e+01,6.500000000000000000e+01,3.470000000000000000e+02,3.640000000000000000e+02,4.899999999999999911e-01,8.148826800000000000e+09
1.050000000000000000e+02,1.860000000000000000e+02,4.810000000000000000e+02,1.450000000000000000e+02,3.900000000000000000e+01,6.500000000000000000e+01,4.130000000000000000e+02,3.920000000000000000e+02,4.899999999999999911e-01,8.167330500000000000e+09
1.030000000000000000e+02,1.880000000000000000e+02,4.950000000000000000e+02,1.480000000000000000e+02,4.300000000000000000e+01,6.600000000000000000e+01,4.170000000000000000e+02,3.800000000000000000e+02,4.799999999999999822e-01,8.185041600000000000e+09
1.090000000000000000e+02,2.000000000000000000e+02,5.440000000000000000e+02,1.850000000000000000e+02,4.800000000000000000e+01,6.500000000000000000e+01,4.320000000000000000e+02,2.980000000000000000e+02,4.799999999999999822e-01,8.203196400000000000e+09
9.400000000000000000e+01,1.880000000000000000e+02,5.120000000000000000e+02,1.780000000000000000e+02,4.400000000000000000e+01,6.000000000000000000e+01,4.310000000000000000e+02,3.050000000000000000e+02,4.799999999999999822e-01,8.224492100000000000e+09
9.500000000000000000e+01,1.650000000000000000e+02,5.290000000000000000e+02,1.790000000000000000e+02,4.300000000000000000e+01,6.000000000000000000e+01,4.490000000000000000e+02,4.010000000000000000e+02,4.799999999999999822e-01,8.243654400000000000e+09
9.400000000000000000e+01,1.650000000000000000e+02,5.140000000000000000e+02,2.070000000000000000e+02,4.300000000000000000e+01,5.700000000000000000e+01,3.930000000000000000e+02,3.600000000000000000e+02,4.799999999999999822e-01,8.262423600000000000e+09
9.200000000000000000e+01,1.690000000000000000e+02,6.060000000000000000e+02,2.070000000000000000e+02,4.200000000000000000e+01,6.500000000000000000e+01,4.380000000000000000e+02,3.670000000000000000e+02,4.799999999999999822e-01,8.280961000000000000e+09
9.000000000000000000e+01,1.530000000000000000e+02,5.810000000000000000e+02,1.750000000000000000e+02,3.600000000000000000e+01,6.400000000000000000e+01,4.220000000000000000e+02,3.640000000000000000e+02,4.799999999999999822e-01,8.299346400000000000e+09
9.800000000000000000e+01,1.590000000000000000e+02,5.760000000000000000e+02,1.800000000000000000e+02,3.900000000000000000e+01,6.500000000000000000e+01,4.230000000000000000e+02,3.250000000000000000e+02,4.799999999999999822e-01,8.318974000000000000e+09
9.700000000000000000e+01,1.670000000000000000e+02,5.760000000000000000e+02,1.940000000000000000e+02,4.300000000000000000e+01,6.700000000000000000e+01,4.710000000000000000e+02,2.470000000000000000e+02,4.799999999999999822e-01,8.340079800000000000e+09
9.600000000000000000e+01,1.730000000000000000e+02,6.170000000000000000e+02,1.690000000000000000e+02,4.400000000000000000e+01,6.400000000000000000e+01,4.710000000000000000e+02,2.870000000000000000e+02,4.799999999999999822e-01,8.358671600000000000e+09
1.000000000000000000e+02,2.130000000000000000e+02,6.160000000000000000e+02,1.820000000000000000e+02,5.100000000000000000e+01,6.000000000000000000e+01,4.280000000000000000e+02,2.870000000000000000e+02,4.799999999999999822e-01,8.377128200000000000e+09
9.300000000000000000e+01,2.030000000000000000e+02,6.250000000000000000e+02,1.930000000000000000e+02,5.000000000000000000e+01,5.900000000000000000e+01,4.220000000000000000e+02,2.840000000000000000e+02,4.799999999999999822e-01,8.395947900000000000e+09
8.800000000000000000e+01,2.000000000000000000e+02,6.090000000000000000e+02,2.000000000000000000e+02,5.100000000000000000e+01,6.300000000000000000e+01,4.380000000000000000e+02,2.870000000000000000e+02,4.799999999999999822e-01,8.416970200000000000e+09
9.300000000000000000e+01,2.060000000000000000e+02,6.120000000000000000e+02,2.030000000000000000e+02,4.800000000000000000e+01,5.300000000000000000e+01,3.290000000000000000e+02,2.560000000000000000e+02,4.799999999999999822e-01,8.437057900000000000e+09
8.700000000000000000e+01,2.200000000000000000e+02,5.850000000000000000e+02,2.030000000000000000e+02,4.800000000000000000e+01,5.300000000000000000e+01,2.930000000000000000e+02,2.130000000000000000e+02,4.799999999999999822e-01,8.456663400000000000e+09
9.000000000000000000e+01,1.950000000000000000e+02,5.840000000000000000e+02,1.990000000000000000e+02,4.400000000000000000e+01,5.400000000000000000e+01,2.800000000000000000e+02,2.030000000000000000e+02,4.899999999999999911e-01,8.475213100000000000e+09
9.300000000000000000e+01,1.990000000000000000e+02,5.950000000000000000e+02,1.980000000000000000e+02,4.500000000000000000e+01,5.900000000000000000e+01,3.290000000000000000e+02,2.420000000000000000e+02,4.899999999999999911e-01,8.493308400000000000e+09
9.200000000000000000e+01,2.100000000000000000e+02,6.440000000000000000e+02,1.760000000000000000e+02,4.200000000000000000e+01,6.100000000000000000e+01,3.610000000000000000e+02,3.140000000000000000e+02,4.899999999999999911e-01,8.512610400000000000e+09
7.800000000000000000e+01,1.980000000000000000e+02,6.400000000000000000e+02,1.770000000000000000e+02,4.100000000000000000e+01,6.100000000000000000e+01,3.320000000000000000e+02,2.930000000000000000e+02,4.899999999999999911e-01,8.534212600000000000e+09
8.500000000000000000e+01,1.820000000000000000e+02,6.700000000000000000e+02,1.710000000000000000e+02,4.000000000000000000e+01,6.200000000000000000e+01,3.460000000000000000e+02,2.990000000000000000e+02,4.899999999999999911e-01,8.552471200000000000e+09
7.800000000000000000e+01,1.740000000000000000e+02,5.840000000000000000e+02,1.610000000000000000e+02,3.200000000000000000e+01,5.800000000000000000e+01,3.510000000000000000e+02,3.060000000000000000e+02,4.899999999999999911e-01,8.570188200000000000e+09
8.400000000000000000e+01,1.530000000000000000e+02,5.540000000000000000e+02,1.360000000000000000e+02,3.300000000000000000e+01,6.000000000000000000e+01,3.790000000000000000e+02,2.910000000000000000e+02,4.899999999999999911e-01,8.590096000000000000e+09
8.300000000000000000e+01,1.370000000000000000e+02,5.010000000000000000e+02,1.380000000000000000e+02,3.900000000000000000e+01,5.500000000000000000e+01,3.320000000000000000e+02,2.240000000000000000e+02,4.899999999999999911e-01,8.610008700000000000e+09
8.500000000000000000e+01,1.380000000000000000e+02,5.500000000000000000e+02,1.210000000000000000e+02,3.700000000000000000e+01,5.200000000000000000e+01,3.290000000000000000e+02,2.180000000000000000e+02,4.899999999999999911e-01,8.629687400000000000e+09
8.600000000000000000e+01,1.360000000000000000e+02,5.400000000000000000e+02,1.400000000000000000e+02,3.800000000000000000e+01,5.100000000000000000e+01,3.480000000000000000e+02,2.770000000000000000e+02,4.899999999999999911e-01,8.648913500000000000e+09
8.800000000000000000e+01,1.350000000000000000e+02,5.220000000000000000e+02,1.420000000000000000e+02,3.900000000000000000e+01,5.700000000000000000e+01,3.840000000000000000e+02,3.090000000000000000e+02,4.899999999999999911e-01,8.668483200000000000e+09
7.800000000000000000e+01,1.440000000000000000e+02,5.680000000000000000e+02,1.920000000000000000e+02,4.500000000000000000e+01,5.900000000000000000e+01,3.640000000000000000e+02,3.060000000000000000e+02,4.799999999999999822e-01,8.687599700000000000e+09
9.200000000000000000e+01,1.370000000000000000e+02,5.660000000000000000e+02,2.180000000000000000e+02,4.500000000000000000e+01,6.400000000000000000e+01,4.240000000000000000e+02,3.010000000000000000e+02,4.799999999999999822e-01,8.709416200000000000e+09
9.500000000000000000e+01,1.390000000000000000e+02,5.130000000000000000e+02,2.140000000000000000e+02,4.900000000000000000e+01,6.600000000000000000e+01,4.220000000000000000e+02,3.250000000000000000e+02,4.799999999999999822e-01,8.737560200000000000e+09
8.800000000000000000e+01,1.350000000000000000e+02,5.100000000000000000e+02,2.040000000000000000e+02,4.900000000000000000e+01,6.300000000000000000e+01,3.930000000000000000e+02,2.690000000000000000e+02,4.799999999999999822e-01,8.756363600000000000e+09
9.900000000000000000e+01,1.540000000000000000e+02,6.230000000000000000e+02,2.160000000000000000e+02,5.500000000000000000e+01,5.900000000000000000e+01,3.760000000000000000e+02,2.430000000000000000e+02,4.799999999999999822e-01,8.774851000000000000e+09
9.800000000000000000e+01,1.440000000000000000e+02,5.860000000000000000e+02,1.800000000000000000e+02,5.100000000000000000e+01,6.300000000000000000e+01,4.310000000000000000e+02,2.390000000000000000e+02,4.799999999999999822e-01,8.793236700000000000e+09
9.500000000000000000e+01,1.450000000000000000e+02,6.170000000000000000e+02,1.580000000000000000e+02,4.900000000000000000e+01,5.700000000000000000e+01,3.730000000000000000e+02,2.230000000000000000e+02,4.799999999999999822e-01,8.813090700000000000e+09
1.050000000000000000e+02,1.560000000000000000e+02,6.770000000000000000e+02,1.650000000000000000e+02,4.700000000000000000e+01,5.700000000000000000e+01,3.760000000000000000e+02,2.050000000000000000e+02,4.799999999999999822e-01,8.834028500000000000e+09
1.080000000000000000e+02,1.720000000000000000e+02,7.120000000000000000e+02,1.660000000000000000e+02,5.000000000000000000e+01,7.100000000000000000e+01,4.780000000000000000e+02,2.310000000000000000e+02,4.799999999999999822e-01,8.852421100000000000e+09
1.010000000000000000e+02,1.730000000000000000e+02,6.240000000000000000e+02,1.560000000000000000e+02,4.800000000000000000e+01,7.300000000000000000e+01,4.650000000000000000e+02,2.110000000000000000e+02,4.799999999999999822e-01,8.870487600000000000e+09
1.020000000000000000e+02,1.780000000000000000e+02,6.460000000000000000e+02,1.550000000000000000e+02,4.900000000000000000e+01,6.700000000000000000e+01,4.060000000000000000e+02,2.060000000000000000e+02,4.799999999999999822e-01,8.889268000000000000e+09
1.090000000000000000e+02,1.760000000000000000e+02,6.660000000000000000e+02,1.550000000000000000e+02,5.000000000000000000e+01,7.300000000000000000e+01,4.480000000000000000e+02,2.110000000000000000e+02,4.799999999999999822e-01,8.910045400000000000e+09
1.030000000000000000e+02,1.920000000000000000e+02,6.340000000000000000e+02,1.670000000000000000e+02,5.500000000000000000e+01,7.800000000000000000e+01,4.750000000000000000e+02,1.810000000000000000e+02,4.899999999999999911e-01,8.930442300000000000e+09
1.020000000000000000e+02,1.860000000000000000e+02,6.090000000000000000e+02,1.670000000000000000e+02,5.300000000000000000e+01,7.400000000000000000e+01,4.450000000000000000e+02,1.910000000000000000e+02,4.899999999999999911e-01,8.948650200000000000e+09
9.500000000000000000e+01,1.630000000000000000e+02,6.740000000000000000e+02,1.720000000000000000e+02,5.100000000000000000e+01,7.200000000000000000e+01,4.560000000000000000e+02,1.820000000000000000e+02,4.899999999999999911e-01,8.968069400000000000e+09
9.500000000000000000e+01,1.600000000000000000e+02,6.390000000000000000e+02,1.760000000000000000e+02,5.000000000000000000e+01,7.200000000000000000e+01,4.240000000000000000e+02,1.780000000000000000e+02,4.899999999999999911e-01,8.986592200000000000e+09
8.100000000000000000e+01,1.640000000000000000e+02,5.990000000000000000e+02,1.810000000000000000e+02,4.900000000000000000e+01,6.600000000000000000e+01,3.690000000000000000e+02,2.150000000000000000e+02,4.899999999999999911e-01,9.006283300000000000e+09
8.300000000000000000e+01,1.450000000000000000e+02,6.010000000000000000e+02,1.840000000000000000e+02,4.500000000000000000e+01,6.100000000000000000e+01,3.190000000000000000e+02,2.150000000000000000e+02,4.899999999999999911e-01,9.028021000000000000e+09
9.100000000000000000e+01,1.400000000000000000e+02,6.120000000000000000e+02,1.980000000000000000e+02,4.500000000000000000e+01,5.000000000000000000e+01,2.520000000000000000e+02,1.930000000000000000e+02,5.000000000000000000e-01,9.047342300000000000e+09
1.060000000000000000e+02,1.490000000000000000e+02,5.500000000000000000e+02,1.980000000000000000e+02,4.200000000000000000e+01,4.700000000000000000e+01,2.220000000000000000e+02,2.500000000000000000e+02,5.100000000000000089e-01,9.067005400000000000e+09
1.080000000000000000e+02,1.540000000000000000e+02,5.580000000000000000e+02,1.980000000000000000e+02,4.400000000000000000e+01,4.500000000000000000e+01,2.130000000000000000e+02,2.560000000000000000e+02,5.100000000000000089e-01,9.086005800000000000e+09
1.190000000000000000e+02,2.210000000000000000e+02,5.480000000000000000e+02,1.880000000000000000e+02,4.200000000000000000e+01,5.300000000000000000e+01,2.520000000000000000e+02,2.340000000000000000e+02,5.200000000000000178e-01,9.105609400000000000e+09
1.230000000000000000e+02,2.550000000000000000e+02,5.150000000000000000e+02,1.800000000000000000e+02,3.800000000000000000e+01,5.600000000000000000e+01,3.360000000000000000e+02,2.350000000000000000e+02,5.200000000000000178e-01,9.132773200000000000e+09
1.260000000000000000e+02,3.770000000000000000e+02,4.600000000000000000e+02,1.650000000000000000e+02,4.000000000000000000e+01,5.600000000000000000e+01,3.070000000000000000e+02,2.660000000000000000e+02,5.300000000000000266e-01,9.151657200000000000e+09
1.200000000000000000e+02,4.260000000000000000e+02,4.440000000000000000e+02,1.760000000000000000e+02,4.000000000000000000e+01,5.400000000000000000e+01,2.960000000000000000e+02,2.260000000000000000e+02,5.300000000000000266e-01,9.170465600000000000e+09
1.210000000000000000e+02,4.350000000000000000e+02,4.250000000000000000e+02,1.720000000000000000e+02,3.400000000000000000e+01,5.100000000000000000e+01,2.930000000000000000e+02,2.160000000000000000e+02,5.300000000000000266e-01,9.189597700000000000e+09
1.190000000000000000e+02,4.130000000000000000e+02,4.220000000000000000e+02,1.710000000000000000e+02,3.600000000000000000e+01,5.400000000000000000e+01,3.270000000000000000e+02,2.280000000000000000e+02,5.400000000000000355e-01,9.208221900000000000e+09
1.050000000000000000e+02,3.890000000000000000e+02,4.710000000000000000e+02,1.700000000000000000e+02,4.100000000000000000e+01,5.000000000000000000e+01,2.410000000000000000e+02,2.260000000000000000e+02,5.400000000000000355e-01,9.234557000000000000e+09
1.010000000000000000e+02,2.760000000000000000e+02,4.660000000000000000e+02,1.810000000000000000e+02,4.100000000000000000e+01,4.700000000000000000e+01,2.330000000000000000e+02,2.380000000000000000e+02,5.400000000000000355e-01,9.253305400000000000e+09
1.000000000000000000e+02,1.950000000000000000e+02,5.290000000000000000e+02,1.620000000000000000e+02,4.100000000000000000e+01,4.600000000000000000e+01,2.270000000000000000e+02,2.260000000000000000e+02,5.500000000000000444e-01,9.271217700000000000e+09
9.600000000000000000e+01,1.620000000000000000e+02,5.910000000000000000e+02,1.570000000000000000e+02,4.100000000000000000e+01,4.600000000000000000e+01,2.310000000000000000e+02,2.310000000000000000e+02,5.400000000000000355e-01,9.292269100000000000e+09
7.800000000000000000e+01,1.510000000000000000e+02,6.050000000000000000e+02,1.550000000000000000e+02,4.200000000000000000e+01,3.000000000000000000e+01,1.440000000000000000e+02,2.050000000000000000e+02,5.400000000000000355e-01,9.310721300000000000e+09
8.300000000000000000e+01,1.540000000000000000e+02,6.580000000000000000e+02,1.690000000000000000e+02,4.300000000000000000e+01,3.200000000000000000e+01,1.660000000000000000e+02,2.100000000000000000e+02,5.400000000000000355e-01,9.332180800000000000e+09
7.800000000000000000e+01,1.570000000000000000e+02,6.700000000000000000e+02,1.520000000000000000e+02,4.300000000000000000e+01,3.600000000000000000e+01,1.850000000000000000e+02,2.040000000000000000e+02,5.400000000000000355e-01,9.350511500000000000e+09
8.200000000000000000e+01,1.810000000000000000e+02,6.700000000000000000e+02,1.510000000000000000e+02,4.300000000000000000e+01,3.800000000000000000e+01,2.020000000000000000e+02,2.250000000000000000e+02,5.400000000000000355e-01,9.369771000000000000e+09
8.500000000000000000e+01,1.940000000000000000e+02,6.640000000000000000e+02,1.510000000000000000e+02,4.300000000000000000e+01,3.900000000000000000e+01,2.140000000000000000e+02,2.190000000000000000e+02,5.400000000000000355e-01,9.389251400000000000e+09
8.900000000000000000e+01,1.880000000000000000e+02,6.740000000000000000e+02,1.680000000000000000e+02,4.300000000000000000e+01,4.000000000000000000e+01,2.020000000000000000e+02,2.210000000000000000e+02,5.300000000000000266e-01,9.409163000000000000e+09
9.600000000000000000e+01,2.090000000000000000e+02,6.480000000000000000e+02,1.490000000000000000e+02,4.300000000000000000e+01,4.100000000000000000e+01,1.790000000000000000e+02,2.110000000000000000e+02,5.300000000000000266e-01,9.431532600000000000e+09
9.200000000000000000e+01,2.040000000000000000e+02,7.060000000000000000e+02,1.620000000000000000e+02,4.300000000000000000e+01,4.000000000000000000e+01,1.590000000000000000e+02,1.620000000000000000e+02,5.300000000000000266e-01,9.450692800000000000e+09
8.300000000000000000e+01,1.680000000000000000e+02,6.710000000000000000e+02,1.600000000000000000e+02,4.300000000000000000e+01,4.100000000000000000e+01,1.440000000000000000e+02,1.730000000000000000e+02,5.200000000000000178e-01,9.468592400000000000e+09
9.100000000000000000e+01,1.630000000000000000e+02,7.330000000000000000e+02,2.220000000000000000e+02,5.100000000000000000e+01,4.400000000000000000e+01,1.740000000000000000e+02,2.150000000000000000e+02,5.200000000000000178e-01,9.487575700000000000e+09
9.000000000000000000e+01,1.800000000000000000e+02,7.600000000000000000e+02,2.120000000000000000e+02,4.900000000000000000e+01,4.300000000000000000e+01,1.800000000000000000e+02,2.200000000000000000e+02,5.200000000000000178e-01,9.506687200000000000e+09
7.700000000000000000e+01,1.640000000000000000e+02,7.050000000000000000e+02,2.070000000000000000e+02,4.500000000000000000e+01,4.100000000000000000e+01,1.760000000000000000e+02,2.220000000000000000e+02,5.100000000000000089e-01,9.529680500000000000e+09
9.400000000000000000e+01,1.840000000000000000e+02,6.600000000000000000e+02,2.010000000000000000e+02,5.000000000000000000e+01,4.600000000000000000e+01,2.120000000000000000e+02,2.370000000000000000e+02,5.100000000000000089e-01,9.548570300000000000e+09
1.050000000000000000e+02,1.850000000000000000e+02,6.650000000000000000e+02,2.050000000000000000e+02,4.900000000000000000e+01,5.500000000000000000e+01,3.060000000000000000e+02,2.220000000000000000e+02,5.100000000000000089e-01,9.568412100000000000e+09
9.900000000000000000e+01,1.790000000000000000e+02,5.390000000000000000e+02,1.310000000000000000e+02,3.800000000000000000e+01,5.300000000000000000e+01,2.970000000000000000e+02,2.210000000000000000e+02,5.100000000000000089e-01,9.586548200000000000e+09
1.040000000000000000e+02,1.830000000000000000e+02,5.470000000000000000e+02,1.300000000000000000e+02,4.100000000000000000e+01,5.300000000000000000e+01,2.920000000000000000e+02,2.280000000000000000e+02,5.100000000000000089e-01,9.608712100000000000e+09
1.100000000000000000e+02,1.860000000000000000e+02,6.170000000000000000e+02,1.480000000000000000e+02,4.200000000000000000e+01,5.300000000000000000e+01,3.190000000000000000e+02,2.240000000000000000e+02,5.100000000000000089e-01,9.629164400000000000e+09
1.070000000000000000e+02,1.660000000000000000e+02,5.930000000000000000e+02,1.710000000000000000e+02,3.900000000000000000e+01,5.100000000000000000e+01,3.050000000000000000e+02,1.910000000000000000e+02,5.200000000000000178e-01,9.652462700000000000e+09
1.160000000000000000e+02,1.740000000000000000e+02,6.200000000000000000e+02,1.660000000000000000e+02,3.900000000000000000e+01,4.300000000000000000e+01,2.410000000000000000e+02,2.500000000000000000e+02,5.200000000000000178e-01,9.673560300000000000e+09
1.130000000000000000e+02,1.760000000000000000e+02,6.310000000000000000e+02,1.750000000000000000e+02,4.200000000000000000e+01,4.200000000000000000e+01,2.220000000000000000e+02,2.190000000000000000e+02,5.200000000000000178e-01,9.692953800000000000e+09
1.130000000000000000e+02,2.030000000000000000e+02,7.430000000000000000e+02,2.040000000000000000e+02,4.800000000000000000e+01,4.300000000000000000e+01,2.160000000000000000e+02,2.100000000000000000e+02,5.200000000000000178e-01,9.717635100000000000e+09
1.120000000000000000e+02,1.930000000000000000e+02,6.980000000000000000e+02,1.970000000000000000e+02,4.600000000000000000e+01,4.100000000000000000e+01,1.740000000000000000e+02,2.170000000000000000e+02,5.200000000000000178e-01,9.739383500000000000e+09
1.070000000000000000e+02,1.970000000000000000e+02,7.360000000000000000e+02,1.700000000000000000e+02,4.400000000000000000e+01,4.500000000000000000e+01,1.930000000000000000e+02,2.510000000000000000e+02,5.200000000000000178e-01,9.758467900000000000e+09
1.020000000000000000e+02,2.000000000000000000e+02,7.230000000000000000e+02,1.710000000000000000e+02,4.400000000000000000e+01,4.000000000000000000e+01,1.520000000000000000e+02,1.880000000000000000e+02,5.200000000000000178e-01,9.777982300000000000e+09
1.160000000000000000e+02,2.080000000000000000e+02,7.120000000000000000e+02,1.780000000000000000e+02,4.400000000000000000e+01,4.100000000000000000e+01,1.770000000000000000e+02,2.010000000000000000e+02,5.200000000000000178e-01,9.796484500000000000e+09
1.130000000000000000e+02,1.650000000000000000e+02,5.270000000000000000e+02,1.460000000000000000e+02,3.700000000000000000e+01,4.500000000000000000e+01,1.900000000000000000e+02,2.040000000000000000e+02,5.300000000000000266e-01,9.816539900000000000e+09
1.150000000000000000e+02,1.640000000000000000e+02,4.920000000000000000e+02,1.310000000000000000e+02,3.800000000000000000e+01,4.500000000000000000e+01,2.060000000000000000e+02,2.360000000000000000e+02,5.300000000000000266e-01,9.837619000000000000e+09
1.110000000000000000e+02,1.750000000000000000e+02,4.560000000000000000e+02,1.510000000000000000e+02,3.700000000000000000e+01,4.000000000000000000e+01,1.720000000000000000e+02,2.360000000000000000e+02,5.300000000000000266e-01,9.857330200000000000e+09
9.800000000000000000e+01,1.610000000000000000e+02,4.430000000000000000e+02,1.470000000000000000e+02,3.700000000000000000e+01,4.000000000000000000e+01,1.680000000000000000e+02,2.330000000000000000e+02,5.300000000000000266e-01,9.876825200000000000e+09
8.400000000000000000e+01,1.510000000000000000e+02,4.440000000000000000e+02,1.380000000000000000e+02,3.700000000000000000e+01,4.000000000000000000e+01,1.380000000000000000e+02,2.260000000000000000e+02,5.300000000000000266e-01,9.895391100000000000e+09
9.000000000000000000e+01,1.490000000000000000e+02,4.550000000000000000e+02,1.400000000000000000e+02,3.500000000000000000e+01,3.200000000000000000e+01,1.170000000000000000e+02,2.180000000000000000e+02,5.300000000000000266e-01,9.918795300000000000e+09
8.400000000000000000e+01,1.520000000000000000e+02,5.360000000000000000e+02,1.770000000000000000e+02,3.900000000000000000e+01,3.400000000000000000e+01,9.900000000000000000e+01,1.790000000000000000e+02,5.300000000000000266e-01,9.937624900000000000e+09
8.700000000000000000e+01,1.400000000000000000e+02,5.670000000000000000e+02,1.650000000000000000e+02,4.000000000000000000e+01,3.300000000000000000e+01,1.070000000000000000e+02,1.230000000000000000e+02,5.400000000000000355e-01,9.956680600000000000e+09
9.200000000000000000e+01,1.460000000000000000e+02,5.630000000000000000e+02,1.660000000000000000e+02,4.100000000000000000e+01,3.300000000000000000e+01,1.050000000000000000e+02,1.830000000000000000e+02,5.500000000000000444e-01,9.974748200000000000e+09
9.600000000000000000e+01,1.440000000000000000e+02,5.590000000000000000e+02,1.520000000000000000e+02,3.900000000000000000e+01,3.700000000000000000e+01,1.990000000000000000e+02,1.960000000000000000e+02,5.500000000000000444e-01,9.995004100000000000e+09
8.400000000000000000e+01,1.370000000000000000e+02,5.920000000000000000e+02,1.440000000000000000e+02,3.800000000000000000e+01,4.100000000000000000e+01,2.250000000000000000e+02,2.030000000000000000e+02,5.500000000000000444e-01,1.001387500000000000e+10
9.000000000000000000e+01,1.360000000000000000e+02,5.970000000000000000e+02,1.220000000000000000e+02,3.200000000000000000e+01,3.700000000000000000e+01,2.220000000000000000e+02,2.010000000000000000e+02,5.500000000000000444e-01,1.003539600000000000e+10
9.200000000000000000e+01,1.470000000000000000e+02,6.250000000000000000e+02,1.630000000000000000e+02,4.200000000000000000e+01,4.200000000000000000e+01,2.180000000000000000e+02,2.100000000000000000e+02,5.500000000000000444e-01,1.005409170000000000e+10
8.300000000000000000e+01,1.610000000000000000e+02,6.410000000000000000e+02,1.650000000000000000e+02,4.100000000000000000e+01,4.300000000000000000e+01,2.260000000000000000e+02,1.470000000000000000e+02,5.500000000000000444e-01,1.007377750000000000e+10
1.020000000000000000e+02,1.780000000000000000e+02,6.940000000000000000e+02,1.860000000000000000e+02,4.700000000000000000e+01,4.600000000000000000e+01,1.670000000000000000e+02,2.000000000000000000e+02,5.500000000000000444e-01,1.009161470000000000e+10
