4.800000000000000000e+01,9.200000000000000000e+01,4.910000000000000000e+02,1.490000000000000000e+02,3.400000000000000000e+01,3.100000000000000000e+01,3.000000000000000000e+01,4.200000000000000000e+01,5.999999999999999778e-01,4.766685000000000000e+08
4.800000000000000000e+01,9.300000000000000000e+01,5.000000000000000000e+02,1.350000000000000000e+02,3.100000000000000000e+01,3.200000000000000000e+01,2.700000000000000000e+01,4.500000000000000000e+01,6.099999999999999867e-01,5.128843000000000000e+08
5.400000000000000000e+01,9.700000000000000000e+01,4.950000000000000000e+02,1.390000000000000000e+02,3.400000000000000000e+01,3.100000000000000000e+01,2.600000000000000000e+01,4.500000000000000000e+01,6.099999999999999867e-01,8.564414000000000000e+08
5.000000000000000000e+01,9.800000000000000000e+01,4.580000000000000000e+02,1.500000000000000000e+02,3.300000000000000000e+01,2.700000000000000000e+01,2.300000000000000000e+01,4.100000000000000000e+01,6.099999999999999867e-01,8.742823000000000000e+08
6.900000000000000000e+01,8.600000000000000000e+01,3.960000000000000000e+02,1.580000000000000000e+02,3.300000000000000000e+01,2.600000000000000000e+01,3.200000000000000000e+01,1.870000000000000000e+02,6.099999999999999867e-01,8.926054000000000000e+08
6.800000000000000000e+01,9.100000000000000000e+01,3.580000000000000000e+02,1.470000000000000000e+02,3.100000000000000000e+01,2.300000000000000000e+01,3.400000000000000000e+01,1.970000000000000000e+02,6.099999999999999867e-01,9.126312000000000000e+08
8.100000000000000000e+01,9.600000000000000000e+01,4.420000000000000000e+02,1.550000000000000000e+02,3.500000000000000000e+01,2.600000000000000000e+01,3.500000000000000000e+01,2.110000000000000000e+02,6.099999999999999867e-01,9.312991000000000000e+08
8.100000000000000000e+01,9.700000000000000000e+01,4.490000000000000000e+02,1.550000000000000000e+02,3.500000000000000000e+01,2.700000000000000000e+01,3.500000000000000000e+01,2.160000000000000000e+02,6.099999999999999867e-01,9.496230000000000000e+08
8.400000000000000000e+01,1.110000000000000000e+02,5.200000000000000000e+02,1.560000000000000000e+02,3.900000000000000000e+01,3.000000000000000000e+01,3.800000000000000000e+01,2.200000000000000000e+02,6.099999999999999867e-01,9.671458000000000000e+08
7.100000000000000000e+01,1.220000000000000000e+02,5.400000000000000000e+02,1.510000000000000000e+02,4.000000000000000000e+01,3.200000000000000000e+01,3.200000000000000000e+01,1.310000000000000000e+02,6.099999999999999867e-01,9.854119000000000000e+08
7.500000000000000000e+01,1.190000000000000000e+02,5.520000000000000000e+02,1.540000000000000000e+02,4.100000000000000000e+01,3.100000000000000000e+01,3.100000000000000000e+01,1.160000000000000000e+02,6.099999999999999867e-01,1.005510700000000000e+09
6.900000000000000000e+01,1.180000000000000000e+02,5.080000000000000000e+02,1.780000000000000000e+02,4.000000000000000000e+01,3.300000000000000000e+01,2.900000000000000000e+01,9.700000000000000000e+01,6.099999999999999867e-01,1.023459400000000000e+09
6.400000000000000000e+01,1.150000000000000000e+02,5.100000000000000000e+02,1.820000000000000000e+02,3.700000000000000000e+01,3.200000000000000000e+01,2.700000000000000000e+01,9.300000000000000000e+01,6.099999999999999867e-01,1.042063200000000000e+09
6.100000000000000000e+01,1.110000000000000000e+02,4.270000000000000000e+02,1.530000000000000000e+02,3.200000000000000000e+01,3.200000000000000000e+01,2.400000000000000000e+01,8.500000000000000000e+01,6.099999999999999867e-01,1.059886900000000000e+09
6.200000000000000000e+01,1.010000000000000000e+02,4.400000000000000000e+02,1.430000000000000000e+02,2.900000000000000000e+01,3.000000000000000000e+01,2.400000000000000000e+01,7.800000000000000000e+01,6.199999999999999956e-01,1.080593800000000000e+09
5.600000000000000000e+01,1.150000000000000000e+02,4.650000000000000000e+02,1.530000000000000000e+02,3.300000000000000000e+01,3.200000000000000000e+01,2.500000000000000000e+01,7.700000000000000000e+01,6.199999999999999956e-01,1.101451800000000000e+09
5.200000000000000000e+01,1.160000000000000000e+02,4.530000000000000000e+02,1.190000000000000000e+02,3.000000000000000000e+01,2.800000000000000000e+01,2.500000000000000000e+01,7.100000000000000000e+01,6.199999999999999956e-01,1.120686900000000000e+09
6.100000000000000000e+01,1.260000000000000000e+02,4.600000000000000000e+02,1.150000000000000000e+02,3.300000000000000000e+01,3.000000000000000000e+01,2.700000000000000000e+01,6.400000000000000000e+01,6.199999999999999956e-01,1.138238300000000000e+09
6.900000000000000000e+01,1.270000000000000000e+02,4.550000000000000000e+02,1.230000000000000000e+02,3.300000000000000000e+01,2.600000000000000000e+01,2.600000000000000000e+01,6.600000000000000000e+01,6.199999999999999956e-01,1.182093600000000000e+09
6.500000000000000000e+01,1.270000000000000000e+02,4.030000000000000000e+02,1.190000000000000000e+02,3.400000000000000000e+01,2.600000000000000000e+01,2.400000000000000000e+01,5.900000000000000000e+01,6.300000000000000044e-01,1.203562600000000000e+09
6.400000000000000000e+01,1.150000000000000000e+02,3.820000000000000000e+02,1.090000000000000000e+02,2.900000000000000000e+01,2.300000000000000000e+01,2.400000000000000000e+01,5.900000000000000000e+01,6.300000000000000044e-01,1.220838900000000000e+09
6.400000000000000000e+01,1.190000000000000000e+02,3.890000000000000000e+02,1.190000000000000000e+02,2.900000000000000000e+01,2.500000000000000000e+01,2.600000000000000000e+01,5.200000000000000000e+01,6.300000000000000044e-01,1.238907200000000000e+09
5.400000000000000000e+01,1.070000000000000000e+02,3.530000000000000000e+02,1.150000000000000000e+02,2.900000000000000000e+01,2.300000000000000000e+01,2.600000000000000000e+01,5.000000000000000000e+01,6.300000000000000044e-01,1.257185300000000000e+09
4.300000000000000000e+01,9.700000000000000000e+01,3.330000000000000000e+02,1.080000000000000000e+02,3.200000000000000000e+01,2.400000000000000000e+01,2.700000000000000000e+01,3.900000000000000000e+01,6.300000000000000044e-01,1.275424400000000000e+09
4.500000000000000000e+01,1.020000000000000000e+02,3.880000000000000000e+02,1.180000000000000000e+02,3.100000000000000000e+01,2.400000000000000000e+01,2.700000000000000000e+01,3.900000000000000000e+01,6.300000000000000044e-01,1.295672600000000000e+09
4.800000000000000000e+01,9.200000000000000000e+01,3.820000000000000000e+02,1.320000000000000000e+02,3.600000000000000000e+01,2.600000000000000000e+01,2.700000000000000000e+01,3.800000000000000000e+01,6.300000000000000044e-01,1.315854400000000000e+09
4.200000000000000000e+01,8.400000000000000000e+01,4.030000000000000000e+02,1.140000000000000000e+02,3.400000000000000000e+01,2.200000000000000000e+01,2.700000000000000000e+01,3.600000000000000000e+01,6.300000000000000044e-01,1.333988800000000000e+09
4.300000000000000000e+01,9.500000000000000000e+01,4.600000000000000000e+02,1.180000000000000000e+02,3.500000000000000000e+01,2.600000000000000000e+01,2.500000000000000000e+01,3.800000000000000000e+01,6.300000000000000044e-01,1.352969600000000000e+09
5.100000000000000000e+01,8.300000000000000000e+01,4.940000000000000000e+02,1.170000000000000000e+02,3.200000000000000000e+01,2.500000000000000000e+01,2.500000000000000000e+01,4.300000000000000000e+01,6.300000000000000044e-01,1.371772000000000000e+09
5.000000000000000000e+01,7.500000000000000000e+01,4.490000000000000000e+02,1.040000000000000000e+02,3.300000000000000000e+01,2.400000000000000000e+01,2.400000000000000000e+01,4.600000000000000000e+01,6.300000000000000044e-01,1.393313300000000000e+09
5.000000000000000000e+01,1.080000000000000000e+02,4.450000000000000000e+02,9.100000000000000000e+01,3.100000000000000000e+01,2.700000000000000000e+01,2.400000000000000000e+01,4.700000000000000000e+01,6.300000000000000044e-01,1.411212100000000000e+09
4.700000000000000000e+01,1.090000000000000000e+02,3.910000000000000000e+02,9.400000000000000000e+01,3.100000000000000000e+01,2.800000000000000000e+01,2.300000000000000000e+01,4.500000000000000000e+01,6.300000000000000044e-01,1.428560900000000000e+09
4.500000000000000000e+01,1.010000000000000000e+02,3.540000000000000000e+02,8.000000000000000000e+01,2.900000000000000000e+01,2.600000000000000000e+01,2.400000000000000000e+01,4.100000000000000000e+01,6.300000000000000044e-01,1.445393800000000000e+09
4.700000000000000000e+01,1.070000000000000000e+02,3.200000000000000000e+02,8.700000000000000000e+01,2.800000000000000000e+01,2.700000000000000000e+01,2.300000000000000000e+01,4.700000000000000000e+01,6.300000000000000044e-01,1.462859000000000000e+09
4.600000000000000000e+01,1.040000000000000000e+02,3.200000000000000000e+02,9.300000000000000000e+01,2.600000000000000000e+01,2.700000000000000000e+01,2.300000000000000000e+01,4.500000000000000000e+01,6.300000000000000044e-01,1.479812100000000000e+09
4.500000000000000000e+01,7.000000000000000000e+01,3.180000000000000000e+02,8.300000000000000000e+01,2.600000000000000000e+01,2.400000000000000000e+01,2.500000000000000000e+01,4.300000000000000000e+01,6.300000000000000044e-01,1.502122000000000000e+09
4.900000000000000000e+01,6.900000000000000000e+01,3.330000000000000000e+02,7.900000000000000000e+01,2.700000000000000000e+01,2.500000000000000000e+01,2.400000000000000000e+01,4.600000000000000000e+01,6.199999999999999956e-01,1.520647700000000000e+09
5.300000000000000000e+01,7.300000000000000000e+01,3.690000000000000000e+02,8.300000000000000000e+01,2.700000000000000000e+01,2.500000000000000000e+01,2.800000000000000000e+01,4.600000000000000000e+01,6.199999999999999956e-01,1.537577100000000000e+09
4.500000000000000000e+01,7.300000000000000000e+01,3.930000000000000000e+02,9.400000000000000000e+01,3.100000000000000000e+01,2.600000000000000000e+01,3.000000000000000000e+01,3.400000000000000000e+01,6.199999999999999956e-01,1.554788600000000000e+09
4.300000000000000000e+01,7.700000000000000000e+01,4.020000000000000000e+02,9.600000000000000000e+01,3.100000000000000000e+01,2.500000000000000000e+01,3.100000000000000000e+01,4.200000000000000000e+01,6.199999999999999956e-01,1.572232000000000000e+09
6.000000000000000000e+01,7.700000000000000000e+01,4.140000000000000000e+02,9.500000000000000000e+01,3.000000000000000000e+01,2.500000000000000000e+01,4.100000000000000000e+01,5.400000000000000000e+01,6.199999999999999956e-01,1.589257800000000000e+09
5.700000000000000000e+01,7.400000000000000000e+01,3.940000000000000000e+02,9.100000000000000000e+01,2.900000000000000000e+01,2.500000000000000000e+01,5.000000000000000000e+01,5.100000000000000000e+01,6.099999999999999867e-01,1.609849500000000000e+09
5.900000000000000000e+01,7.600000000000000000e+01,3.300000000000000000e+02,1.100000000000000000e+02,3.400000000000000000e+01,2.600000000000000000e+01,5.200000000000000000e+01,5.300000000000000000e+01,6.099999999999999867e-01,1.628101100000000000e+09
6.100000000000000000e+01,7.100000000000000000e+01,3.050000000000000000e+02,1.280000000000000000e+02,3.000000000000000000e+01,2.500000000000000000e+01,5.100000000000000000e+01,5.400000000000000000e+01,6.099999999999999867e-01,1.645092900000000000e+09
6.200000000000000000e+01,6.700000000000000000e+01,3.390000000000000000e+02,1.250000000000000000e+02,2.900000000000000000e+01,2.400000000000000000e+01,5.000000000000000000e+01,4.500000000000000000e+01,6.099999999999999867e-01,1.661593900000000000e+09
4.700000000000000000e+01,7.200000000000000000e+01,3.140000000000000000e+02,1.330000000000000000e+02,3.000000000000000000e+01,2.500000000000000000e+01,4.300000000000000000e+01,3.300000000000000000e+01,6.099999999999999867e-01,1.677948100000000000e+09
4.600000000000000000e+01,8.000000000000000000e+01,3.050000000000000000e+02,1.610000000000000000e+02,3.100000000000000000e+01,2.500000000000000000e+01,3.000000000000000000e+01,3.200000000000000000e+01,6.099999999999999867e-01,1.700496700000000000e+09
4.200000000000000000e+01,9.100000000000000000e+01,3.550000000000000000e+02,1.560000000000000000e+02,2.900000000000000000e+01,2.600000000000000000e+01,2.200000000000000000e+01,3.200000000000000000e+01,6.199999999999999956e-01,1.718823900000000000e+09
3.500000000000000000e+01,9.400000000000000000e+01,3.950000000000000000e+02,1.400000000000000000e+02,3.200000000000000000e+01,2.500000000000000000e+01,1.900000000000000000e+01,3.100000000000000000e+01,6.199999999999999956e-01,1.736263900000000000e+09
4.200000000000000000e+01,9.500000000000000000e+01,4.180000000000000000e+02,1.620000000000000000e+02,3.300000000000000000e+01,2.900000000000000000e+01,2.000000000000000000e+01,3.600000000000000000e+01,6.199999999999999956e-01,1.754509700000000000e+09
4.000000000000000000e+01,9.200000000000000000e+01,4.560000000000000000e+02,1.820000000000000000e+02,3.700000000000000000e+01,2.800000000000000000e+01,1.700000000000000000e+01,3.200000000000000000e+01,6.300000000000000044e-01,1.775442500000000000e+09
4.100000000000000000e+01,9.100000000000000000e+01,5.190000000000000000e+02,1.720000000000000000e+02,3.700000000000000000e+01,2.800000000000000000e+01,2.000000000000000000e+01,3.300000000000000000e+01,6.300000000000000044e-01,1.794203200000000000e+09
3.900000000000000000e+01,7.100000000000000000e+01,6.950000000000000000e+02,1.770000000000000000e+02,3.400000000000000000e+01,2.800000000000000000e+01,2.000000000000000000e+01,3.000000000000000000e+01,6.300000000000000044e-01,1.814352300000000000e+09
4.000000000000000000e+01,6.700000000000000000e+01,7.350000000000000000e+02,1.790000000000000000e+02,3.300000000000000000e+01,2.900000000000000000e+01,2.400000000000000000e+01,3.200000000000000000e+01,6.300000000000000044e-01,1.834395100000000000e+09
3.300000000000000000e+01,6.700000000000000000e+01,7.380000000000000000e+02,1.670000000000000000e+02,3.300000000000000000e+01,2.600000000000000000e+01,2.500000000000000000e+01,2.800000000000000000e+01,6.300000000000000044e-01,1.851292900000000000e+09
3.700000000000000000e+01,7.900000000000000000e+01,7.370000000000000000e+02,1.890000000000000000e+02,3.900000000000000000e+01,3.200000000000000000e+01,2.700000000000000000e+01,3.400000000000000000e+01,6.300000000000000044e-01,1.868985200000000000e+09
4.200000000000000000e+01,7.800000000000000000e+01,7.130000000000000000e+02,1.960000000000000000e+02,4.100000000000000000e+01,3.500000000000000000e+01,2.700000000000000000e+01,4.300000000000000000e+01,6.300000000000000044e-01,1.888183600000000000e+09
4.900000000000000000e+01,7.900000000000000000e+01,5.150000000000000000e+02,1.900000000000000000e+02,4.200000000000000000e+01,3.400000000000000000e+01,3.600000000000000000e+01,4.400000000000000000e+01,6.400000000000000133e-01,1.909699000000000000e+09
5.700000000000000000e+01,8.000000000000000000e+01,4.190000000000000000e+02,1.880000000000000000e+02,4.100000000000000000e+01,3.400000000000000000e+01,3.500000000000000000e+01,4.300000000000000000e+01,6.400000000000000133e-01,1.927713500000000000e+09
6.300000000000000000e+01,7.700000000000000000e+01,4.080000000000000000e+02,1.950000000000000000e+02,4.300000000000000000e+01,3.700000000000000000e+01,5.800000000000000000e+01,5.400000000000000000e+01,6.400000000000000133e-01,1.945270800000000000e+09
6.500000000000000000e+01,6.100000000000000000e+01,3.700000000000000000e+02,1.750000000000000000e+02,3.500000000000000000e+01,3.100000000000000000e+01,6.700000000000000000e+01,5.500000000000000000e+01,6.400000000000000133e-01,1.962100600000000000e+09
6.300000000000000000e+01,6.100000000000000000e+01,3.400000000000000000e+02,1.560000000000000000e+02,3.300000000000000000e+01,2.900000000000000000e+01,7.000000000000000000e+01,4.900000000000000000e+01,6.400000000000000133e-01,1.978433800000000000e+09
5.800000000000000000e+01,5.300000000000000000e+01,3.790000000000000000e+02,1.610000000000000000e+02,3.100000000000000000e+01,2.900000000000000000e+01,7.000000000000000000e+01,5.000000000000000000e+01,6.400000000000000133e-01,1.996687400000000000e+09
5.700000000000000000e+01,5.400000000000000000e+01,4.030000000000000000e+02,1.720000000000000000e+02,3.300000000000000000e+01,3.000000000000000000e+01,7.100000000000000000e+01,5.000000000000000000e+01,6.400000000000000133e-01,2.016527200000000000e+09
5.300000000000000000e+01,7.800000000000000000e+01,3.490000000000000000e+02,1.700000000000000000e+02,3.600000000000000000e+01,3.000000000000000000e+01,1.020000000000000000e+02,4.700000000000000000e+01,6.500000000000000222e-01,2.033685100000000000e+09
5.400000000000000000e+01,8.300000000000000000e+01,3.950000000000000000e+02,1.600000000000000000e+02,3.700000000000000000e+01,3.200000000000000000e+01,1.020000000000000000e+02,4.700000000000000000e+01,6.500000000000000222e-01,2.050492500000000000e+09
5.700000000000000000e+01,8.100000000000000000e+01,4.430000000000000000e+02,1.670000000000000000e+02,3.700000000000000000e+01,3.100000000000000000e+01,1.110000000000000000e+02,5.000000000000000000e+01,6.500000000000000222e-01,2.067528000000000000e+09
6.000000000000000000e+01,9.200000000000000000e+01,4.690000000000000000e+02,1.630000000000000000e+02,4.000000000000000000e+01,3.100000000000000000e+01,1.110000000000000000e+02,5.100000000000000000e+01,6.600000000000000311e-01,2.085386100000000000e+09
6.100000000000000000e+01,9.100000000000000000e+01,4.700000000000000000e+02,2.080000000000000000e+02,4.500000000000000000e+01,3.800000000000000000e+01,1.200000000000000000e+02,5.600000000000000000e+01,6.600000000000000311e-01,2.105508900000000000e+09
6.000000000000000000e+01,7.400000000000000000e+01,4.790000000000000000e+02,1.980000000000000000e+02,4.000000000000000000e+01,3.500000000000000000e+01,1.040000000000000000e+02,5.100000000000000000e+01,6.600000000000000311e-01,2.123208400000000000e+09
6.100000000000000000e+01,7.000000000000000000e+01,5.320000000000000000e+02,1.890000000000000000e+02,3.800000000000000000e+01,3.500000000000000000e+01,1.050000000000000000e+02,5.300000000000000000e+01,6.600000000000000311e-01,2.139779100000000000e+09
6.000000000000000000e+01,8.200000000000000000e+01,5.220000000000000000e+02,1.910000000000000000e+02,4.000000000000000000e+01,3.600000000000000000e+01,1.180000000000000000e+02,5.500000000000000000e+01,6.700000000000000400e-01,2.156157000000000000e+09
6.000000000000000000e+01,7.500000000000000000e+01,4.760000000000000000e+02,1.990000000000000000e+02,3.800000000000000000e+01,3.600000000000000000e+01,1.210000000000000000e+02,5.700000000000000000e+01,6.700000000000000400e-01,2.173450300000000000e+09
6.000000000000000000e+01,8.400000000000000000e+01,5.370000000000000000e+02,1.560000000000000000e+02,3.400000000000000000e+01,3.100000000000000000e+01,1.220000000000000000e+02,6.700000000000000000e+01,6.700000000000000400e-01,2.191056700000000000e+09
6.600000000000000000e+01,8.900000000000000000e+01,5.910000000000000000e+02,1.810000000000000000e+02,4.000000000000000000e+01,3.200000000000000000e+01,1.110000000000000000e+02,8.400000000000000000e+01,6.700000000000000400e-01,2.211453200000000000e+09
6.400000000000000000e+01,1.120000000000000000e+02,6.290000000000000000e+02,1.920000000000000000e+02,4.200000000000000000e+01,3.300000000000000000e+01,1.180000000000000000e+02,1.370000000000000000e+02,6.700000000000000400e-01,2.229552800000000000e+09
6.700000000000000000e+01,1.190000000000000000e+02,6.490000000000000000e+02,1.940000000000000000e+02,4.200000000000000000e+01,3.600000000000000000e+01,1.020000000000000000e+02,1.440000000000000000e+02,6.700000000000000400e-01,2.246718600000000000e+09
6.700000000000000000e+01,1.210000000000000000e+02,6.880000000000000000e+02,1.880000000000000000e+02,4.000000000000000000e+01,3.600000000000000000e+01,1.830000000000000000e+02,1.550000000000000000e+02,6.700000000000000400e-01,2.264007600000000000e+09
6.600000000000000000e+01,1.240000000000000000e+02,6.590000000000000000e+02,1.890000000000000000e+02,4.000000000000000000e+01,4.000000000000000000e+01,2.480000000000000000e+02,1.550000000000000000e+02,6.600000000000000311e-01,2.280463000000000000e+09
6.400000000000000000e+01,1.210000000000000000e+02,6.130000000000000000e+02,1.650000000000000000e+02,3.600000000000000000e+01,4.200000000000000000e+01,2.570000000000000000e+02,1.520000000000000000e+02,6.600000000000000311e-01,2.301017100000000000e+09
6.500000000000000000e+01,9.800000000000000000e+01,5.020000000000000000e+02,1.670000000000000000e+02,3.300000000000000000e+01,4.000000000000000000e+01,2.600000000000000000e+02,1.110000000000000000e+02,6.600000000000000311e-01,2.319173300000000000e+09
6.700000000000000000e+01,8.700000000000000000e+01,4.480000000000000000e+02,1.690000000000000000e+02,3.300000000000000000e+01,3.700000000000000000e+01,2.630000000000000000e+02,1.030000000000000000e+02,6.600000000000000311e-01,2.336373800000000000e+09
6.600000000000000000e+01,8.300000000000000000e+01,4.130000000000000000e+02,1.740000000000000000e+02,3.700000000000000000e+01,3.500000000000000000e+01,2.150000000000000000e+02,8.600000000000000000e+01,6.600000000000000311e-01,2.352921600000000000e+09
6.700000000000000000e+01,8.000000000000000000e+01,3.830000000000000000e+02,1.680000000000000000e+02,3.900000000000000000e+01,3.200000000000000000e+01,1.930000000000000000e+02,1.620000000000000000e+02,6.500000000000000222e-01,2.369515600000000000e+09
6.400000000000000000e+01,7.900000000000000000e+01,4.220000000000000000e+02,1.640000000000000000e+02,3.600000000000000000e+01,3.000000000000000000e+01,1.910000000000000000e+02,1.630000000000000000e+02,6.500000000000000222e-01,2.387155000000000000e+09
5.900000000000000000e+01,8.200000000000000000e+01,4.190000000000000000e+02,2.080000000000000000e+02,4.100000000000000000e+01,2.900000000000000000e+01,1.860000000000000000e+02,1.610000000000000000e+02,6.500000000000000222e-01,2.407623000000000000e+09
5.700000000000000000e+01,7.400000000000000000e+01,4.730000000000000000e+02,2.200000000000000000e+02,4.200000000000000000e+01,3.000000000000000000e+01,1.830000000000000000e+02,1.590000000000000000e+02,6.500000000000000222e-01,2.424781900000000000e+09
5.800000000000000000e+01,8.000000000000000000e+01,5.150000000000000000e+02,2.230000000000000000e+02,4.300000000000000000e+01,3.500000000000000000e+01,2.100000000000000000e+02,1.650000000000000000e+02,6.500000000000000222e-01,2.442402000000000000e+09
6.100000000000000000e+01,8.000000000000000000e+01,5.450000000000000000e+02,2.320000000000000000e+02,4.400000000000000000e+01,3.400000000000000000e+01,1.710000000000000000e+02,1.680000000000000000e+02,6.500000000000000222e-01,2.459431600000000000e+09
6.200000000000000000e+01,9.100000000000000000e+01,5.670000000000000000e+02,2.510000000000000000e+02,5.200000000000000000e+01,3.700000000000000000e+01,1.640000000000000000e+02,1.660000000000000000e+02,6.500000000000000222e-01,2.476017600000000000e+09
7.800000000000000000e+01,1.180000000000000000e+02,6.480000000000000000e+02,2.230000000000000000e+02,5.600000000000000000e+01,4.200000000000000000e+01,1.700000000000000000e+02,1.760000000000000000e+02,6.500000000000000222e-01,2.494220400000000000e+09
7.600000000000000000e+01,1.270000000000000000e+02,6.800000000000000000e+02,2.200000000000000000e+02,5.500000000000000000e+01,4.000000000000000000e+01,1.690000000000000000e+02,1.800000000000000000e+02,6.500000000000000222e-01,2.512804500000000000e+09
7.700000000000000000e+01,1.250000000000000000e+02,6.770000000000000000e+02,2.160000000000000000e+02,5.200000000000000000e+01,3.600000000000000000e+01,1.540000000000000000e+02,1.770000000000000000e+02,6.500000000000000222e-01,2.530964100000000000e+09
7.300000000000000000e+01,1.380000000000000000e+02,7.240000000000000000e+02,2.090000000000000000e+02,5.100000000000000000e+01,4.100000000000000000e+01,1.650000000000000000e+02,1.340000000000000000e+02,6.400000000000000133e-01,2.547764600000000000e+09
7.200000000000000000e+01,1.390000000000000000e+02,7.670000000000000000e+02,1.950000000000000000e+02,4.400000000000000000e+01,5.300000000000000000e+01,3.390000000000000000e+02,1.710000000000000000e+02,6.300000000000000044e-01,2.565199900000000000e+09
5.500000000000000000e+01,1.250000000000000000e+02,7.510000000000000000e+02,1.860000000000000000e+02,3.700000000000000000e+01,5.800000000000000000e+01,3.640000000000000000e+02,1.670000000000000000e+02,6.300000000000000044e-01,2.582766300000000000e+09
7.300000000000000000e+01,1.380000000000000000e+02,7.600000000000000000e+02,1.700000000000000000e+02,3.400000000000000000e+01,5.900000000000000000e+01,3.700000000000000000e+02,1.650000000000000000e+02,6.199999999999999956e-01,2.602795400000000000e+09
7.300000000000000000e+01,1.400000000000000000e+02,7.840000000000000000e+02,1.840000000000000000e+02,4.100000000000000000e+01,6.100000000000000000e+01,3.680000000000000000e+02,1.690000000000000000e+02,6.099999999999999867e-01,2.622029600000000000e+09
7.300000000000000000e+01,1.590000000000000000e+02,7.540000000000000000e+02,1.700000000000000000e+02,3.800000000000000000e+01,5.700000000000000000e+01,3.670000000000000000e+02,1.790000000000000000e+02,5.999999999999999778e-01,2.639659600000000000e+09
7.400000000000000000e+01,1.820000000000000000e+02,6.990000000000000000e+02,1.610000000000000000e+02,3.800000000000000000e+01,4.600000000000000000e+01,2.320000000000000000e+02,1.880000000000000000e+02,5.899999999999999689e-01,2.657149100000000000e+09
8.300000000000000000e+01,1.910000000000000000e+02,7.080000000000000000e+02,1.500000000000000000e+02,3.900000000000000000e+01,4.100000000000000000e+01,2.220000000000000000e+02,1.920000000000000000e+02,5.799999999999999600e-01,2.674553200000000000e+09
7.800000000000000000e+01,1.890000000000000000e+02,6.620000000000000000e+02,1.480000000000000000e+02,4.200000000000000000e+01,4.500000000000000000e+01,2.390000000000000000e+02,1.990000000000000000e+02,5.699999999999999512e-01,2.692897200000000000e+09
8.600000000000000000e+01,1.880000000000000000e+02,6.850000000000000000e+02,1.300000000000000000e+02,3.800000000000000000e+01,4.300000000000000000e+01,2.350000000000000000e+02,2.150000000000000000e+02,5.600000000000000533e-01,2.711079100000000000e+09
8.800000000000000000e+01,1.830000000000000000e+02,6.580000000000000000e+02,1.360000000000000000e+02,4.400000000000000000e+01,4.500000000000000000e+01,2.400000000000000000e+02,2.100000000000000000e+02,5.500000000000000444e-01,2.728332800000000000e+09
8.400000000000000000e+01,1.660000000000000000e+02,6.920000000000000000e+02,1.380000000000000000e+02,4.600000000000000000e+01,4.500000000000000000e+01,2.270000000000000000e+02,1.900000000000000000e+02,5.400000000000000355e-01,2.746302700000000000e+09
7.500000000000000000e+01,1.560000000000000000e+02,6.450000000000000000e+02,1.300000000000000000e+02,4.200000000000000000e+01,4.100000000000000000e+01,2.080000000000000000e+02,1.940000000000000000e+02,5.300000000000000266e-01,2.765009600000000000e+09
7.900000000000000000e+01,1.460000000000000000e+02,7.100000000000000000e+02,1.340000000000000000e+02,4.300000000000000000e+01,3.500000000000000000e+01,2.280000000000000000e+02,2.040000000000000000e+02,5.300000000000000266e-01,2.784748500000000000e+09
6.900000000000000000e+01,1.500000000000000000e+02,6.330000000000000000e+02,1.500000000000000000e+02,4.400000000000000000e+01,5.400000000000000000e+01,3.090000000000000000e+02,2.350000000000000000e+02,5.300000000000000266e-01,2.804500300000000000e+09
6.500000000000000000e+01,1.270000000000000000e+02,6.120000000000000000e+02,1.830000000000000000e+02,4.100000000000000000e+01,5.500000000000000000e+01,3.030000000000000000e+02,2.270000000000000000e+02,5.200000000000000178e-01,2.821535500000000000e+09
7.000000000000000000e+01,1.120000000000000000e+02,5.650000000000000000e+02,2.070000000000000000e+02,4.300000000000000000e+01,5.700000000000000000e+01,3.050000000000000000e+02,2.110000000000000000e+02,5.200000000000000178e-01,2.838495800000000000e+09
8.100000000000000000e+01,1.430000000000000000e+02,5.580000000000000000e+02,2.150000000000000000e+02,4.800000000000000000e+01,5.800000000000000000e+01,2.990000000000000000e+02,2.050000000000000000e+02,5.300000000000000266e-01,2.855035500000000000e+09
6.700000000000000000e+01,1.510000000000000000e+02,4.400000000000000000e+02,2.640000000000000000e+02,5.800000000000000000e+01,7.100000000000000000e+01,3.660000000000000000e+02,2.020000000000000000e+02,5.300000000000000266e-01,2.871374200000000000e+09
6.800000000000000000e+01,1.580000000000000000e+02,4.200000000000000000e+02,2.570000000000000000e+02,5.600000000000000000e+01,5.800000000000000000e+01,3.020000000000000000e+02,1.350000000000000000e+02,5.300000000000000266e-01,2.890131000000000000e+09
6.700000000000000000e+01,2.110000000000000000e+02,4.520000000000000000e+02,2.320000000000000000e+02,5.600000000000000000e+01,5.700000000000000000e+01,2.970000000000000000e+02,1.790000000000000000e+02,5.400000000000000355e-01,2.910035100000000000e+09
6.300000000000000000e+01,2.120000000000000000e+02,4.390000000000000000e+02,2.090000000000000000e+02,5.300000000000000000e+01,5.600000000000000000e+01,2.930000000000000000e+02,1.770000000000000000e+02,5.500000000000000444e-01,2.929570000000000000e+09
5.300000000000000000e+01,1.920000000000000000e+02,4.890000000000000000e+02,2.180000000000000000e+02,5.200000000000000000e+01,5.600000000000000000e+01,2.960000000000000000e+02,1.850000000000000000e+02,5.500000000000000444e-01,2.946252800000000000e+09
5.900000000000000000e+01,1.920000000000000000e+02,5.200000000000000000e+02,1.550000000000000000e+02,4.200000000000000000e+01,4.000000000000000000e+01,1.610000000000000000e+02,1.720000000000000000e+02,5.600000000000000533e-01,2.962780600000000000e+09
5.900000000000000000e+01,1.830000000000000000e+02,5.340000000000000000e+02,1.500000000000000000e+02,4.100000000000000000e+01,4.200000000000000000e+01,1.490000000000000000e+02,1.740000000000000000e+02,5.600000000000000533e-01,2.980229800000000000e+09
5.900000000000000000e+01,1.220000000000000000e+02,5.260000000000000000e+02,1.490000000000000000e+02,3.900000000000000000e+01,3.800000000000000000e+01,1.350000000000000000e+02,1.060000000000000000e+02,5.699999999999999512e-01,2.999469900000000000e+09
6.500000000000000000e+01,1.220000000000000000e+02,5.240000000000000000e+02,1.620000000000000000e+02,4.200000000000000000e+01,3.700000000000000000e+01,1.450000000000000000e+02,1.170000000000000000e+02,5.799999999999999600e-01,3.017624000000000000e+09
6.500000000000000000e+01,1.230000000000000000e+02,5.360000000000000000e+02,1.960000000000000000e+02,4.100000000000000000e+01,3.500000000000000000e+01,1.190000000000000000e+02,1.020000000000000000e+02,5.899999999999999689e-01,3.036330500000000000e+09
5.800000000000000000e+01,1.270000000000000000e+02,5.690000000000000000e+02,1.930000000000000000e+02,3.900000000000000000e+01,3.100000000000000000e+01,1.020000000000000000e+02,9.500000000000000000e+01,5.999999999999999778e-01,3.053296200000000000e+09
5.500000000000000000e+01,1.230000000000000000e+02,5.550000000000000000e+02,1.860000000000000000e+02,3.800000000000000000e+01,3.100000000000000000e+01,1.000000000000000000e+02,9.200000000000000000e+01,6.099999999999999867e-01,3.070509500000000000e+09
5.700000000000000000e+01,1.280000000000000000e+02,5.430000000000000000e+02,1.920000000000000000e+02,3.900000000000000000e+01,3.200000000000000000e+01,1.020000000000000000e+02,9.300000000000000000e+01,6.099999999999999867e-01,3.089220900000000000e+09
6.900000000000000000e+01,1.370000000000000000e+02,6.070000000000000000e+02,1.920000000000000000e+02,3.400000000000000000e+01,3.100000000000000000e+01,8.800000000000000000e+01,9.600000000000000000e+01,6.099999999999999867e-01,3.109199200000000000e+09
6.400000000000000000e+01,1.360000000000000000e+02,5.690000000000000000e+02,1.290000000000000000e+02,3.000000000000000000e+01,2.900000000000000000e+01,8.500000000000000000e+01,8.400000000000000000e+01,6.199999999999999956e-01,3.126861500000000000e+09
6.500000000000000000e+01,1.230000000000000000e+02,4.920000000000000000e+02,1.450000000000000000e+02,3.000000000000000000e+01,2.900000000000000000e+01,8.900000000000000000e+01,8.900000000000000000e+01,6.199999999999999956e-01,3.145691300000000000e+09
7.100000000000000000e+01,1.240000000000000000e+02,5.090000000000000000e+02,1.470000000000000000e+02,3.100000000000000000e+01,2.800000000000000000e+01,9.400000000000000000e+01,9.100000000000000000e+01,6.199999999999999956e-01,3.163927100000000000e+09
7.100000000000000000e+01,1.010000000000000000e+02,5.240000000000000000e+02,1.410000000000000000e+02,3.300000000000000000e+01,2.600000000000000000e+01,9.200000000000000000e+01,8.900000000000000000e+01,6.300000000000000044e-01,3.181703100000000000e+09
5.300000000000000000e+01,9.200000000000000000e+01,4.480000000000000000e+02,1.530000000000000000e+02,3.700000000000000000e+01,2.900000000000000000e+01,9.200000000000000000e+01,6.400000000000000000e+01,6.300000000000000044e-01,3.200190600000000000e+09
5.400000000000000000e+01,8.500000000000000000e+01,4.490000000000000000e+02,1.670000000000000000e+02,3.700000000000000000e+01,3.400000000000000000e+01,8.400000000000000000e+01,7.200000000000000000e+01,6.400000000000000133e-01,3.219636400000000000e+09
5.300000000000000000e+01,8.600000000000000000e+01,4.580000000000000000e+02,1.470000000000000000e+02,3.600000000000000000e+01,3.400000000000000000e+01,8.400000000000000000e+01,6.000000000000000000e+01,6.400000000000000133e-01,3.236891600000000000e+09
4.600000000000000000e+01,8.600000000000000000e+01,4.900000000000000000e+02,1.440000000000000000e+02,3.500000000000000000e+01,3.500000000000000000e+01,7.500000000000000000e+01,6.200000000000000000e+01,6.400000000000000133e-01,3.254170700000000000e+09
4.500000000000000000e+01,8.600000000000000000e+01,4.940000000000000000e+02,1.620000000000000000e+02,3.500000000000000000e+01,3.600000000000000000e+01,7.800000000000000000e+01,6.200000000000000000e+01,6.400000000000000133e-01,3.272329000000000000e+09
5.000000000000000000e+01,7.700000000000000000e+01,4.830000000000000000e+02,1.360000000000000000e+02,3.200000000000000000e+01,3.300000000000000000e+01,6.800000000000000000e+01,6.500000000000000000e+01,6.400000000000000133e-01,3.289634200000000000e+09
5.400000000000000000e+01,7.000000000000000000e+01,4.640000000000000000e+02,1.440000000000000000e+02,3.200000000000000000e+01,3.100000000000000000e+01,8.900000000000000000e+01,6.100000000000000000e+01,6.400000000000000133e-01,3.309709400000000000e+09
5.300000000000000000e+01,6.300000000000000000e+01,4.810000000000000000e+02,1.560000000000000000e+02,3.500000000000000000e+01,3.000000000000000000e+01,9.300000000000000000e+01,6.100000000000000000e+01,6.400000000000000133e-01,3.326859400000000000e+09
5.900000000000000000e+01,5.600000000000000000e+01,4.540000000000000000e+02,1.560000000000000000e+02,3.400000000000000000e+01,3.000000000000000000e+01,1.070000000000000000e+02,5.500000000000000000e+01,6.400000000000000133e-01,3.344147300000000000e+09
5.700000000000000000e+01,5.500000000000000000e+01,5.070000000000000000e+02,1.530000000000000000e+02,3.700000000000000000e+01,3.000000000000000000e+01,1.110000000000000000e+02,5.300000000000000000e+01,6.400000000000000133e-01,3.363220300000000000e+09
5.800000000000000000e+01,6.600000000000000000e+01,4.910000000000000000e+02,1.630000000000000000e+02,3.800000000000000000e+01,3.600000000000000000e+01,1.450000000000000000e+02,6.600000000000000000e+01,6.500000000000000222e-01,3.380958200000000000e+09
6.500000000000000000e+01,6.900000000000000000e+01,4.930000000000000000e+02,1.500000000000000000e+02,3.600000000000000000e+01,3.400000000000000000e+01,1.380000000000000000e+02,1.490000000000000000e+02,6.500000000000000222e-01,3.402491300000000000e+09
6.900000000000000000e+01,7.300000000000000000e+01,5.790000000000000000e+02,1.640000000000000000e+02,3.700000000000000000e+01,3.700000000000000000e+01,1.730000000000000000e+02,1.600000000000000000e+02,6.500000000000000222e-01,3.422198800000000000e+09
6.500000000000000000e+01,8.700000000000000000e+01,5.670000000000000000e+02,1.670000000000000000e+02,3.800000000000000000e+01,3.700000000000000000e+01,2.160000000000000000e+02,1.710000000000000000e+02,6.400000000000000133e-01,3.440220500000000000e+09
7.500000000000000000e+01,1.050000000000000000e+02,5.750000000000000000e+02,1.750000000000000000e+02,3.900000000000000000e+01,4.000000000000000000e+01,2.500000000000000000e+02,2.500000000000000000e+02,6.400000000000000133e-01,3.457246700000000000e+09
7.200000000000000000e+01,1.110000000000000000e+02,6.390000000000000000e+02,1.670000000000000000e+02,3.800000000000000000e+01,4.000000000000000000e+01,3.300000000000000000e+02,3.060000000000000000e+02,6.300000000000000044e-01,3.473837200000000000e+09
6.500000000000000000e+01,1.190000000000000000e+02,6.240000000000000000e+02,1.710000000000000000e+02,4.100000000000000000e+01,4.400000000000000000e+01,3.480000000000000000e+02,2.780000000000000000e+02,6.199999999999999956e-01,3.492014500000000000e+09
6.400000000000000000e+01,1.370000000000000000e+02,6.120000000000000000e+02,1.520000000000000000e+02,4.300000000000000000e+01,4.800000000000000000e+01,3.770000000000000000e+02,2.750000000000000000e+02,6.099999999999999867e-01,3.511797100000000000e+09
6.300000000000000000e+01,1.330000000000000000e+02,6.360000000000000000e+02,1.640000000000000000e+02,4.500000000000000000e+01,4.800000000000000000e+01,3.580000000000000000e+02,2.970000000000000000e+02,5.999999999999999778e-01,3.529897200000000000e+09
6.400000000000000000e+01,1.230000000000000000e+02,6.570000000000000000e+02,1.520000000000000000e+02,4.300000000000000000e+01,5.400000000000000000e+01,4.200000000000000000e+02,2.690000000000000000e+02,5.899999999999999689e-01,3.547358800000000000e+09
6.900000000000000000e+01,1.140000000000000000e+02,6.030000000000000000e+02,1.750000000000000000e+02,4.200000000000000000e+01,5.000000000000000000e+01,4.130000000000000000e+02,2.130000000000000000e+02,5.799999999999999600e-01,3.565436000000000000e+09
1.000000000000000000e+02,1.360000000000000000e+02,6.240000000000000000e+02,1.730000000000000000e+02,4.600000000000000000e+01,5.300000000000000000e+01,4.240000000000000000e+02,3.630000000000000000e+02,5.699999999999999512e-01,3.582898400000000000e+09
1.060000000000000000e+02,1.280000000000000000e+02,5.630000000000000000e+02,1.800000000000000000e+02,4.200000000000000000e+01,4.700000000000000000e+01,4.030000000000000000e+02,3.760000000000000000e+02,5.600000000000000533e-01,3.604472200000000000e+09
1.120000000000000000e+02,1.750000000000000000e+02,5.290000000000000000e+02,1.630000000000000000e+02,4.500000000000000000e+01,6.500000000000000000e+01,5.070000000000000000e+02,3.900000000000000000e+02,5.400000000000000355e-01,3.624154900000000000e+09
1.080000000000000000e+02,1.800000000000000000e+02,4.650000000000000000e+02,1.550000000000000000e+02,4.300000000000000000e+01,6.100000000000000000e+01,4.700000000000000000e+02,3.840000000000000000e+02,5.300000000000000266e-01,3.641056500000000000e+09
1.090000000000000000e+02,2.110000000000000000e+02,5.560000000000000000e+02,1.620000000000000000e+02,5.500000000000000000e+01,6.400000000000000000e+01,4.520000000000000000e+02,3.840000000000000000e+02,5.200000000000000178e-01,3.658208800000000000e+09
1.020000000000000000e+02,2.150000000000000000e+02,5.430000000000000000e+02,1.750000000000000000e+02,5.200000000000000000e+01,6.400000000000000000e+01,4.960000000000000000e+02,2.650000000000000000e+02,5.100000000000000089e-01,3.676121700000000000e+09
1.100000000000000000e+02,2.210000000000000000e+02,5.490000000000000000e+02,1.710000000000000000e+02,5.500000000000000000e+01,8.500000000000000000e+01,5.880000000000000000e+02,2.930000000000000000e+02,5.100000000000000089e-01,3.696117200000000000e+09
1.100000000000000000e+02,1.940000000000000000e+02,5.400000000000000000e+02,1.840000000000000000e+02,5.000000000000000000e+01,7.500000000000000000e+01,5.270000000000000000e+02,2.970000000000000000e+02,5.100000000000000089e-01,3.714978300000000000e+09
1.100000000000000000e+02,2.010000000000000000e+02,5.200000000000000000e+02,1.900000000000000000e+02,5.100000000000000000e+01,7.600000000000000000e+01,5.240000000000000000e+02,2.900000000000000000e+02,5.000000000000000000e-01,3.734026300000000000e+09
1.050000000000000000e+02,1.750000000000000000e+02,4.300000000000000000e+02,1.950000000000000000e+02,4.600000000000000000e+01,7.800000000000000000e+01,5.080000000000000000e+02,2.820000000000000000e+02,5.000000000000000000e-01,3.752377500000000000e+09
8.700000000000000000e+01,1.490000000000000000e+02,4.220000000000000000e+02,1.710000000000000000e+02,4.200000000000000000e+01,7.600000000000000000e+01,4.860000000000000000e+02,2.680000000000000000e+02,5.000000000000000000e-01,3.770184000000000000e+09
6.400000000000000000e+01,1.290000000000000000e+02,4.040000000000000000e+02,1.800000000000000000e+02,3.700000000000000000e+01,5.100000000000000000e+01,3.660000000000000000e+02,2.230000000000000000e+02,5.000000000000000000e-01,3.790502800000000000e+09
6.300000000000000000e+01,1.320000000000000000e+02,4.620000000000000000e+02,1.860000000000000000e+02,4.000000000000000000e+01,5.900000000000000000e+01,4.070000000000000000e+02,1.670000000000000000e+02,5.000000000000000000e-01,3.812132600000000000e+09
6.400000000000000000e+01,1.240000000000000000e+02,5.300000000000000000e+02,1.890000000000000000e+02,4.100000000000000000e+01,5.700000000000000000e+01,4.470000000000000000e+02,1.780000000000000000e+02,5.100000000000000089e-01,3.830136300000000000e+09
6.400000000000000000e+01,1.210000000000000000e+02,5.570000000000000000e+02,1.630000000000000000e+02,3.400000000000000000e+01,5.400000000000000000e+01,4.460000000000000000e+02,1.820000000000000000e+02,5.100000000000000089e-01,3.848376300000000000e+09
7.700000000000000000e+01,1.170000000000000000e+02,6.140000000000000000e+02,1.640000000000000000e+02,3.400000000000000000e+01,5.300000000000000000e+01,4.140000000000000000e+02,1.880000000000000000e+02,5.200000000000000178e-01,3.865855000000000000e+09
7.800000000000000000e+01,1.160000000000000000e+02,6.350000000000000000e+02,1.550000000000000000e+02,3.600000000000000000e+01,5.100000000000000000e+01,3.990000000000000000e+02,1.770000000000000000e+02,5.200000000000000178e-01,3.883068900000000000e+09
7.800000000000000000e+01,1.280000000000000000e+02,6.600000000000000000e+02,1.480000000000000000e+02,3.400000000000000000e+01,3.800000000000000000e+01,3.270000000000000000e+02,1.640000000000000000e+02,5.300000000000000266e-01,3.905555700000000000e+09
7.700000000000000000e+01,1.260000000000000000e+02,5.710000000000000000e+02,1.390000000000000000e+02,3.500000000000000000e+01,3.300000000000000000e+01,2.490000000000000000e+02,2.040000000000000000e+02,5.300000000000000266e-01,3.923490700000000000e+09
9.200000000000000000e+01,1.240000000000000000e+02,5.360000000000000000e+02,1.590000000000000000e+02,3.900000000000000000e+01,4.500000000000000000e+01,2.960000000000000000e+02,2.180000000000000000e+02,5.300000000000000266e-01,3.941177200000000000e+09
7.600000000000000000e+01,1.250000000000000000e+02,4.760000000000000000e+02,1.640000000000000000e+02,3.900000000000000000e+01,4.400000000000000000e+01,2.750000000000000000e+02,2.090000000000000000e+02,5.400000000000000355e-01,3.959576600000000000e+09
8.200000000000000000e+01,1.340000000000000000e+02,4.800000000000000000e+02,1.800000000000000000e+02,4.000000000000000000e+01,4.700000000000000000e+01,2.760000000000000000e+02,2.180000000000000000e+02,5.400000000000000355e-01,3.979134600000000000e+09
7.600000000000000000e+01,1.200000000000000000e+02,4.440000000000000000e+02,1.890000000000000000e+02,4.100000000000000000e+01,4.900000000000000000e+01,2.540000000000000000e+02,2.150000000000000000e+02,5.500000000000000444e-01,3.998206800000000000e+09
7.700000000000000000e+01,1.150000000000000000e+02,4.610000000000000000e+02,1.820000000000000000e+02,3.800000000000000000e+01,5.000000000000000000e+01,2.440000000000000000e+02,1.420000000000000000e+02,5.500000000000000444e-01,4.017505700000000000e+09
6.200000000000000000e+01,1.130000000000000000e+02,4.790000000000000000e+02,1.640000000000000000e+02,3.300000000000000000e+01,3.700000000000000000e+01,1.370000000000000000e+02,1.120000000000000000e+02,5.600000000000000533e-01,4.034859400000000000e+09
6.400000000000000000e+01,1.230000000000000000e+02,4.610000000000000000e+02,1.680000000000000000e+02,3.800000000000000000e+01,3.800000000000000000e+01,1.360000000000000000e+02,1.050000000000000000e+02,5.600000000000000533e-01,4.052737000000000000e+09
5.900000000000000000e+01,1.150000000000000000e+02,4.170000000000000000e+02,1.450000000000000000e+02,3.300000000000000000e+01,3.600000000000000000e+01,1.280000000000000000e+02,8.200000000000000000e+01,5.699999999999999512e-01,4.070673300000000000e+09
5.400000000000000000e+01,9.700000000000000000e+01,4.050000000000000000e+02,1.310000000000000000e+02,3.300000000000000000e+01,3.400000000000000000e+01,1.300000000000000000e+02,7.000000000000000000e+01,5.699999999999999512e-01,4.088334800000000000e+09
5.600000000000000000e+01,9.100000000000000000e+01,3.890000000000000000e+02,1.480000000000000000e+02,3.200000000000000000e+01,3.200000000000000000e+01,1.250000000000000000e+02,8.000000000000000000e+01,5.699999999999999512e-01,4.109582400000000000e+09
5.600000000000000000e+01,9.400000000000000000e+01,3.870000000000000000e+02,1.380000000000000000e+02,3.300000000000000000e+01,3.300000000000000000e+01,1.400000000000000000e+02,6.900000000000000000e+01,5.799999999999999600e-01,4.127408400000000000e+09
6.200000000000000000e+01,9.600000000000000000e+01,4.630000000000000000e+02,1.420000000000000000e+02,3.600000000000000000e+01,3.500000000000000000e+01,1.510000000000000000e+02,7.000000000000000000e+01,5.899999999999999689e-01,4.144973700000000000e+09
6.100000000000000000e+01,1.100000000000000000e+02,5.430000000000000000e+02,1.550000000000000000e+02,3.700000000000000000e+01,3.600000000000000000e+01,1.570000000000000000e+02,7.800000000000000000e+01,5.899999999999999689e-01,4.163025100000000000e+09
6.800000000000000000e+01,1.320000000000000000e+02,5.150000000000000000e+02,1.500000000000000000e+02,4.200000000000000000e+01,4.000000000000000000e+01,1.690000000000000000e+02,8.300000000000000000e+01,5.999999999999999778e-01,4.180900800000000000e+09
7.000000000000000000e+01,1.450000000000000000e+02,5.340000000000000000e+02,1.320000000000000000e+02,4.300000000000000000e+01,4.400000000000000000e+01,2.000000000000000000e+02,7.600000000000000000e+01,5.999999999999999778e-01,4.201559800000000000e+09
7.600000000000000000e+01,1.500000000000000000e+02,5.170000000000000000e+02,1.660000000000000000e+02,5.200000000000000000e+01,5.300000000000000000e+01,2.080000000000000000e+02,8.300000000000000000e+01,6.099999999999999867e-01,4.222197000000000000e+09
7.400000000000000000e+01,1.480000000000000000e+02,4.740000000000000000e+02,1.650000000000000000e+02,4.700000000000000000e+01,5.700000000000000000e+01,2.110000000000000000e+02,1.000000000000000000e+02,6.099999999999999867e-01,4.240317700000000000e+09
8.100000000000000000e+01,1.450000000000000000e+02,4.070000000000000000e+02,1.770000000000000000e+02,4.700000000000000000e+01,5.600000000000000000e+01,2.380000000000000000e+02,1.030000000000000000e+02,6.099999999999999867e-01,4.257608500000000000e+09
7.600000000000000000e+01,1.260000000000000000e+02,4.430000000000000000e+02,1.900000000000000000e+02,4.400000000000000000e+01,5.300000000000000000e+01,2.510000000000000000e+02,1.050000000000000000e+02,6.199999999999999956e-01,4.276648700000000000e+09
7.300000000000000000e+01,1.270000000000000000e+02,4.370000000000000000e+02,2.130000000000000000e+02,4.700000000000000000e+01,5.300000000000000000e+01,2.210000000000000000e+02,1.040000000000000000e+02,6.199999999999999956e-01,4.297071100000000000e+09
7.400000000000000000e+01,1.400000000000000000e+02,4.820000000000000000e+02,1.950000000000000000e+02,3.600000000000000000e+01,4.400000000000000000e+01,2.080000000000000000e+02,1.720000000000000000e+02,6.300000000000000044e-01,4.317555000000000000e+09
7.000000000000000000e+01,1.330000000000000000e+02,4.660000000000000000e+02,1.910000000000000000e+02,3.500000000000000000e+01,3.600000000000000000e+01,2.230000000000000000e+02,1.650000000000000000e+02,6.300000000000000044e-01,4.337182800000000000e+09
6.300000000000000000e+01,1.300000000000000000e+02,5.380000000000000000e+02,2.320000000000000000e+02,4.400000000000000000e+01,4.100000000000000000e+01,2.180000000000000000e+02,1.630000000000000000e+02,6.300000000000000044e-01,4.355417700000000000e+09
6.200000000000000000e+01,1.480000000000000000e+02,6.440000000000000000e+02,2.200000000000000000e+02,4.600000000000000000e+01,4.700000000000000000e+01,2.090000000000000000e+02,1.680000000000000000e+02,6.400000000000000133e-01,4.374289100000000000e+09
7.500000000000000000e+01,1.510000000000000000e+02,6.700000000000000000e+02,2.030000000000000000e+02,4.400000000000000000e+01,5.000000000000000000e+01,2.860000000000000000e+02,2.370000000000000000e+02,6.300000000000000044e-01,4.393685100000000000e+09
6.700000000000000000e+01,1.350000000000000000e+02,6.630000000000000000e+02,2.040000000000000000e+02,4.500000000000000000e+01,4.900000000000000000e+01,2.890000000000000000e+02,2.080000000000000000e+02,6.300000000000000044e-01,4.414972000000000000e+09
6.900000000000000000e+01,1.560000000000000000e+02,6.690000000000000000e+02,2.030000000000000000e+02,4.500000000000000000e+01,4.900000000000000000e+01,2.680000000000000000e+02,2.150000000000000000e+02,6.199999999999999956e-01,4.433409900000000000e+09
7.500000000000000000e+01,1.550000000000000000e+02,6.100000000000000000e+02,1.460000000000000000e+02,3.600000000000000000e+01,5.000000000000000000e+01,2.530000000000000000e+02,2.230000000000000000e+02,6.199999999999999956e-01,4.452189700000000000e+09
8.600000000000000000e+01,1.470000000000000000e+02,4.640000000000000000e+02,1.680000000000000000e+02,3.800000000000000000e+01,4.700000000000000000e+01,2.400000000000000000e+02,2.190000000000000000e+02,6.199999999999999956e-01,4.471255700000000000e+09
7.700000000000000000e+01,1.360000000000000000e+02,4.230000000000000000e+02,1.800000000000000000e+02,4.000000000000000000e+01,4.300000000000000000e+01,1.280000000000000000e+02,1.460000000000000000e+02,6.099999999999999867e-01,4.491085900000000000e+09
8.200000000000000000e+01,1.420000000000000000e+02,4.640000000000000000e+02,2.190000000000000000e+02,4.700000000000000000e+01,4.400000000000000000e+01,1.200000000000000000e+02,1.260000000000000000e+02,6.199999999999999956e-01,4.514038200000000000e+09
7.900000000000000000e+01,1.450000000000000000e+02,4.700000000000000000e+02,2.380000000000000000e+02,5.100000000000000000e+01,4.400000000000000000e+01,1.200000000000000000e+02,1.110000000000000000e+02,6.199999999999999956e-01,4.532820300000000000e+09
8.900000000000000000e+01,1.420000000000000000e+02,4.860000000000000000e+02,2.300000000000000000e+02,5.300000000000000000e+01,4.200000000000000000e+01,1.370000000000000000e+02,1.480000000000000000e+02,6.099999999999999867e-01,4.551463700000000000e+09
8.000000000000000000e+01,1.340000000000000000e+02,5.370000000000000000e+02,2.160000000000000000e+02,4.800000000000000000e+01,4.100000000000000000e+01,1.530000000000000000e+02,1.440000000000000000e+02,6.099999999999999867e-01,4.569700500000000000e+09
7.700000000000000000e+01,1.310000000000000000e+02,5.510000000000000000e+02,2.030000000000000000e+02,4.500000000000000000e+01,3.700000000000000000e+01,1.490000000000000000e+02,1.480000000000000000e+02,6.099999999999999867e-01,4.588768300000000000e+09
7.500000000000000000e+01,1.420000000000000000e+02,5.460000000000000000e+02,1.920000000000000000e+02,4.200000000000000000e+01,3.600000000000000000e+01,1.480000000000000000e+02,1.510000000000000000e+02,6.199999999999999956e-01,4.610292700000000000e+09
7.400000000000000000e+01,1.240000000000000000e+02,5.250000000000000000e+02,1.690000000000000000e+02,4.000000000000000000e+01,3.800000000000000000e+01,1.460000000000000000e+02,1.500000000000000000e+02,6.199999999999999956e-01,4.628760600000000000e+09
6.300000000000000000e+01,1.270000000000000000e+02,4.930000000000000000e+02,1.590000000000000000e+02,3.700000000000000000e+01,3.200000000000000000e+01,1.220000000000000000e+02,9.400000000000000000e+01,6.300000000000000044e-01,4.647358200000000000e+09
6.400000000000000000e+01,1.240000000000000000e+02,4.780000000000000000e+02,1.730000000000000000e+02,3.600000000000000000e+01,3.000000000000000000e+01,9.400000000000000000e+01,9.200000000000000000e+01,6.300000000000000044e-01,4.665392000000000000e+09
6.900000000000000000e+01,1.290000000000000000e+02,4.680000000000000000e+02,1.760000000000000000e+02,3.800000000000000000e+01,3.200000000000000000e+01,1.100000000000000000e+02,8.600000000000000000e+01,6.400000000000000133e-01,4.686284900000000000e+09
7.600000000000000000e+01,1.080000000000000000e+02,4.290000000000000000e+02,1.560000000000000000e+02,3.900000000000000000e+01,3.300000000000000000e+01,1.050000000000000000e+02,7.900000000000000000e+01,6.500000000000000222e-01,4.706383800000000000e+09
7.500000000000000000e+01,9.600000000000000000e+01,4.890000000000000000e+02,1.510000000000000000e+02,3.600000000000000000e+01,3.100000000000000000e+01,9.300000000000000000e+01,7.600000000000000000e+01,6.500000000000000222e-01,4.725176900000000000e+09
7.400000000000000000e+01,9.500000000000000000e+01,5.010000000000000000e+02,1.650000000000000000e+02,3.600000000000000000e+01,3.300000000000000000e+01,8.500000000000000000e+01,7.300000000000000000e+01,6.500000000000000222e-01,4.743086700000000000e+09
7.400000000000000000e+01,1.040000000000000000e+02,4.590000000000000000e+02,1.460000000000000000e+02,3.600000000000000000e+01,3.200000000000000000e+01,9.700000000000000000e+01,7.700000000000000000e+01,6.500000000000000222e-01,4.763093800000000000e+09
6.700000000000000000e+01,1.030000000000000000e+02,4.490000000000000000e+02,1.480000000000000000e+02,3.800000000000000000e+01,3.100000000000000000e+01,7.200000000000000000e+01,6.500000000000000000e+01,6.500000000000000222e-01,4.782160900000000000e+09
5.700000000000000000e+01,9.900000000000000000e+01,4.700000000000000000e+02,1.370000000000000000e+02,3.100000000000000000e+01,2.900000000000000000e+01,8.000000000000000000e+01,5.800000000000000000e+01,6.500000000000000222e-01,4.802336500000000000e+09
6.700000000000000000e+01,1.040000000000000000e+02,4.880000000000000000e+02,1.450000000000000000e+02,3.400000000000000000e+01,3.000000000000000000e+01,8.000000000000000000e+01,6.700000000000000000e+01,6.500000000000000222e-01,4.824507300000000000e+09
5.700000000000000000e+01,9.900000000000000000e+01,4.800000000000000000e+02,1.340000000000000000e+02,3.100000000000000000e+01,2.700000000000000000e+01,7.800000000000000000e+01,6.500000000000000000e+01,6.500000000000000222e-01,4.843423700000000000e+09
5.700000000000000000e+01,9.200000000000000000e+01,4.800000000000000000e+02,1.350000000000000000e+02,3.600000000000000000e+01,3.000000000000000000e+01,7.400000000000000000e+01,6.500000000000000000e+01,6.500000000000000222e-01,4.862173900000000000e+09
6.100000000000000000e+01,1.170000000000000000e+02,4.750000000000000000e+02,1.320000000000000000e+02,3.400000000000000000e+01,2.800000000000000000e+01,8.100000000000000000e+01,6.300000000000000000e+01,6.500000000000000222e-01,4.880781000000000000e+09
5.800000000000000000e+01,1.160000000000000000e+02,4.290000000000000000e+02,1.180000000000000000e+02,3.500000000000000000e+01,2.800000000000000000e+01,6.800000000000000000e+01,5.700000000000000000e+01,6.500000000000000222e-01,4.902859500000000000e+09
5.300000000000000000e+01,1.120000000000000000e+02,3.950000000000000000e+02,1.140000000000000000e+02,3.500000000000000000e+01,2.800000000000000000e+01,6.900000000000000000e+01,4.600000000000000000e+01,6.500000000000000222e-01,4.920933300000000000e+09
5.400000000000000000e+01,1.120000000000000000e+02,4.080000000000000000e+02,1.130000000000000000e+02,3.700000000000000000e+01,2.900000000000000000e+01,6.900000000000000000e+01,4.900000000000000000e+01,6.500000000000000222e-01,4.940631700000000000e+09
6.300000000000000000e+01,1.250000000000000000e+02,4.960000000000000000e+02,1.240000000000000000e+02,3.300000000000000000e+01,2.700000000000000000e+01,7.300000000000000000e+01,5.200000000000000000e+01,6.500000000000000222e-01,4.958953600000000000e+09
6.100000000000000000e+01,9.400000000000000000e+01,5.020000000000000000e+02,1.190000000000000000e+02,3.500000000000000000e+01,2.600000000000000000e+01,6.800000000000000000e+01,5.200000000000000000e+01,6.400000000000000133e-01,5.179621300000000000e+09
6.200000000000000000e+01,9.500000000000000000e+01,5.140000000000000000e+02,1.240000000000000000e+02,3.200000000000000000e+01,2.500000000000000000e+01,7.000000000000000000e+01,5.200000000000000000e+01,6.400000000000000133e-01,5.197371800000000000e+09
5.700000000000000000e+01,9.600000000000000000e+01,5.110000000000000000e+02,1.470000000000000000e+02,3.300000000000000000e+01,2.700000000000000000e+01,7.000000000000000000e+01,5.100000000000000000e+01,6.400000000000000133e-01,5.217346900000000000e+09
5.800000000000000000e+01,1.040000000000000000e+02,4.800000000000000000e+02,1.460000000000000000e+02,3.200000000000000000e+01,2.600000000000000000e+01,7.600000000000000000e+01,4.800000000000000000e+01,6.400000000000000133e-01,5.234454200000000000e+09
4.800000000000000000e+01,8.100000000000000000e+01,3.770000000000000000e+02,1.280000000000000000e+02,2.900000000000000000e+01,2.400000000000000000e+01,5.800000000000000000e+01,3.800000000000000000e+01,6.400000000000000133e-01,5.251425800000000000e+09
4.700000000000000000e+01,8.500000000000000000e+01,4.290000000000000000e+02,1.320000000000000000e+02,2.800000000000000000e+01,2.500000000000000000e+01,5.400000000000000000e+01,3.500000000000000000e+01,6.400000000000000133e-01,5.267920900000000000e+09
4.300000000000000000e+01,1.000000000000000000e+02,4.130000000000000000e+02,1.340000000000000000e+02,2.900000000000000000e+01,2.600000000000000000e+01,5.000000000000000000e+01,3.200000000000000000e+01,6.400000000000000133e-01,5.286750400000000000e+09
4.200000000000000000e+01,1.110000000000000000e+02,3.520000000000000000e+02,9.200000000000000000e+01,2.400000000000000000e+01,2.100000000000000000e+01,4.500000000000000000e+01,3.000000000000000000e+01,6.400000000000000133e-01,5.305696800000000000e+09
4.000000000000000000e+01,1.070000000000000000e+02,3.480000000000000000e+02,1.010000000000000000e+02,2.500000000000000000e+01,1.900000000000000000e+01,3.500000000000000000e+01,2.700000000000000000e+01,6.400000000000000133e-01,5.322005600000000000e+09
4.200000000000000000e+01,1.120000000000000000e+02,4.070000000000000000e+02,1.240000000000000000e+02,3.100000000000000000e+01,2.400000000000000000e+01,4.400000000000000000e+01,2.900000000000000000e+01,6.400000000000000133e-01,5.338454400000000000e+09
3.800000000000000000e+01,1.160000000000000000e+02,4.030000000000000000e+02,1.200000000000000000e+02,2.900000000000000000e+01,2.400000000000000000e+01,4.300000000000000000e+01,2.700000000000000000e+01,6.400000000000000133e-01,5.355608000000000000e+09
4.000000000000000000e+01,1.020000000000000000e+02,4.190000000000000000e+02,1.260000000000000000e+02,3.200000000000000000e+01,2.400000000000000000e+01,4.200000000000000000e+01,2.700000000000000000e+01,6.400000000000000133e-01,5.373909700000000000e+09
4.600000000000000000e+01,9.300000000000000000e+01,4.680000000000000000e+02,1.610000000000000000e+02,3.900000000000000000e+01,3.000000000000000000e+01,4.200000000000000000e+01,3.000000000000000000e+01,6.400000000000000133e-01,5.392912300000000000e+09
4.400000000000000000e+01,9.100000000000000000e+01,4.810000000000000000e+02,1.590000000000000000e+02,3.900000000000000000e+01,3.200000000000000000e+01,4.200000000000000000e+01,3.100000000000000000e+01,6.500000000000000222e-01,5.412213000000000000e+09
4.400000000000000000e+01,9.300000000000000000e+01,4.570000000000000000e+02,1.670000000000000000e+02,3.900000000000000000e+01,3.000000000000000000e+01,3.500000000000000000e+01,3.700000000000000000e+01,6.500000000000000222e-01,5.430032600000000000e+09
4.700000000000000000e+01,8.900000000000000000e+01,4.790000000000000000e+02,1.830000000000000000e+02,4.100000000000000000e+01,3.000000000000000000e+01,4.100000000000000000e+01,3.600000000000000000e+01,6.500000000000000222e-01,5.446629100000000000e+09
4.900000000000000000e+01,9.500000000000000000e+01,4.890000000000000000e+02,1.740000000000000000e+02,4.000000000000000000e+01,3.100000000000000000e+01,4.200000000000000000e+01,3.800000000000000000e+01,6.500000000000000222e-01,5.463040800000000000e+09
4.500000000000000000e+01,1.030000000000000000e+02,4.830000000000000000e+02,1.460000000000000000e+02,3.500000000000000000e+01,2.800000000000000000e+01,4.200000000000000000e+01,3.700000000000000000e+01,6.500000000000000222e-01,5.480821800000000000e+09
5.000000000000000000e+01,1.020000000000000000e+02,5.190000000000000000e+02,1.580000000000000000e+02,3.600000000000000000e+01,2.600000000000000000e+01,4.000000000000000000e+01,3.800000000000000000e+01,6.500000000000000222e-01,5.501671300000000000e+09
5.500000000000000000e+01,9.700000000000000000e+01,5.420000000000000000e+02,1.420000000000000000e+02,3.200000000000000000e+01,2.400000000000000000e+01,3.600000000000000000e+01,3.200000000000000000e+01,6.500000000000000222e-01,5.519214400000000000e+09
5.900000000000000000e+01,9.100000000000000000e+01,4.910000000000000000e+02,1.360000000000000000e+02,3.000000000000000000e+01,2.500000000000000000e+01,2.700000000000000000e+01,3.900000000000000000e+01,6.500000000000000222e-01,5.536808500000000000e+09
5.600000000000000000e+01,8.000000000000000000e+01,5.100000000000000000e+02,1.640000000000000000e+02,3.400000000000000000e+01,2.700000000000000000e+01,2.700000000000000000e+01,4.100000000000000000e+01,6.500000000000000222e-01,5.555318600000000000e+09
5.700000000000000000e+01,8.200000000000000000e+01,5.700000000000000000e+02,1.670000000000000000e+02,3.300000000000000000e+01,2.500000000000000000e+01,2.600000000000000000e+01,4.200000000000000000e+01,6.500000000000000222e-01,5.573142600000000000e+09
5.400000000000000000e+01,8.300000000000000000e+01,5.400000000000000000e+02,1.590000000000000000e+02,3.100000000000000000e+01,2.700000000000000000e+01,2.500000000000000000e+01,4.300000000000000000e+01,6.500000000000000222e-01,5.590804700000000000e+09
4.500000000000000000e+01,7.800000000000000000e+01,5.090000000000000000e+02,1.510000000000000000e+02,2.900000000000000000e+01,3.000000000000000000e+01,2.400000000000000000e+01,4.200000000000000000e+01,6.500000000000000222e-01,5.609949700000000000e+09
4.100000000000000000e+01,8.000000000000000000e+01,5.410000000000000000e+02,1.440000000000000000e+02,2.800000000000000000e+01,3.100000000000000000e+01,2.500000000000000000e+01,3.700000000000000000e+01,6.500000000000000222e-01,5.627317600000000000e+09
4.500000000000000000e+01,8.400000000000000000e+01,5.440000000000000000e+02,1.270000000000000000e+02,2.800000000000000000e+01,3.000000000000000000e+01,2.200000000000000000e+01,3.500000000000000000e+01,6.500000000000000222e-01,5.644430200000000000e+09
4.500000000000000000e+01,9.800000000000000000e+01,4.780000000000000000e+02,1.440000000000000000e+02,2.800000000000000000e+01,2.900000000000000000e+01,2.000000000000000000e+01,3.200000000000000000e+01,6.500000000000000222e-01,5.661504300000000000e+09
5.000000000000000000e+01,1.120000000000000000e+02,4.650000000000000000e+02,1.410000000000000000e+02,3.200000000000000000e+01,3.000000000000000000e+01,2.100000000000000000e+01,3.300000000000000000e+01,6.500000000000000222e-01,5.679403900000000000e+09
6.000000000000000000e+01,1.210000000000000000e+02,4.650000000000000000e+02,1.410000000000000000e+02,3.300000000000000000e+01,3.000000000000000000e+01,2.300000000000000000e+01,3.700000000000000000e+01,6.600000000000000311e-01,5.702359300000000000e+09
6.400000000000000000e+01,1.230000000000000000e+02,4.840000000000000000e+02,1.610000000000000000e+02,3.400000000000000000e+01,2.900000000000000000e+01,2.200000000000000000e+01,4.400000000000000000e+01,6.600000000000000311e-01,5.721945700000000000e+09
6.400000000000000000e+01,1.250000000000000000e+02,4.480000000000000000e+02,1.570000000000000000e+02,3.100000000000000000e+01,2.600000000000000000e+01,2.100000000000000000e+01,4.400000000000000000e+01,6.600000000000000311e-01,5.741672900000000000e+09
6.900000000000000000e+01,1.050000000000000000e+02,3.980000000000000000e+02,1.390000000000000000e+02,3.200000000000000000e+01,2.900000000000000000e+01,2.200000000000000000e+01,5.100000000000000000e+01,6.600000000000000311e-01,5.759525800000000000e+09
6.300000000000000000e+01,1.020000000000000000e+02,4.140000000000000000e+02,1.440000000000000000e+02,3.300000000000000000e+01,2.800000000000000000e+01,2.200000000000000000e+01,4.900000000000000000e+01,6.600000000000000311e-01,5.777217800000000000e+09
5.300000000000000000e+01,1.060000000000000000e+02,4.200000000000000000e+02,1.530000000000000000e+02,3.300000000000000000e+01,2.600000000000000000e+01,2.000000000000000000e+01,4.600000000000000000e+01,6.600000000000000311e-01,5.796507400000000000e+09
4.600000000000000000e+01,1.160000000000000000e+02,3.320000000000000000e+02,1.220000000000000000e+02,3.100000000000000000e+01,2.600000000000000000e+01,2.000000000000000000e+01,4.000000000000000000e+01,6.600000000000000311e-01,5.815909800000000000e+09
4.200000000000000000e+01,1.110000000000000000e+02,3.100000000000000000e+02,1.300000000000000000e+02,3.100000000000000000e+01,2.700000000000000000e+01,2.100000000000000000e+01,3.800000000000000000e+01,6.600000000000000311e-01,5.834076200000000000e+09
3.400000000000000000e+01,1.180000000000000000e+02,3.400000000000000000e+02,1.360000000000000000e+02,2.900000000000000000e+01,2.900000000000000000e+01,2.300000000000000000e+01,3.300000000000000000e+01,6.600000000000000311e-01,5.851812100000000000e+09
3.400000000000000000e+01,1.230000000000000000e+02,3.710000000000000000e+02,1.270000000000000000e+02,2.800000000000000000e+01,3.000000000000000000e+01,2.200000000000000000e+01,3.300000000000000000e+01,6.600000000000000311e-01,5.870232000000000000e+09
3.800000000000000000e+01,1.100000000000000000e+02,3.390000000000000000e+02,1.310000000000000000e+02,2.700000000000000000e+01,3.000000000000000000e+01,2.300000000000000000e+01,3.100000000000000000e+01,6.600000000000000311e-01,5.889005600000000000e+09
4.600000000000000000e+01,1.100000000000000000e+02,3.750000000000000000e+02,1.740000000000000000e+02,3.500000000000000000e+01,3.100000000000000000e+01,2.500000000000000000e+01,3.500000000000000000e+01,6.600000000000000311e-01,5.908918300000000000e+09
5.100000000000000000e+01,1.200000000000000000e+02,3.950000000000000000e+02,1.830000000000000000e+02,3.700000000000000000e+01,3.100000000000000000e+01,2.400000000000000000e+01,3.900000000000000000e+01,6.600000000000000311e-01,5.925648300000000000e+09
5.000000000000000000e+01,1.270000000000000000e+02,4.240000000000000000e+02,1.760000000000000000e+02,3.800000000000000000e+01,2.700000000000000000e+01,2.400000000000000000e+01,3.500000000000000000e+01,6.600000000000000311e-01,5.942555000000000000e+09
5.200000000000000000e+01,1.180000000000000000e+02,4.190000000000000000e+02,1.830000000000000000e+02,3.800000000000000000e+01,2.600000000000000000e+01,2.400000000000000000e+01,3.500000000000000000e+01,6.600000000000000311e-01,5.959232500000000000e+09
5.100000000000000000e+01,1.210000000000000000e+02,4.460000000000000000e+02,1.740000000000000000e+02,3.900000000000000000e+01,2.500000000000000000e+01,2.400000000000000000e+01,3.700000000000000000e+01,6.600000000000000311e-01,5.977132000000000000e+09
4.900000000000000000e+01,1.190000000000000000e+02,5.040000000000000000e+02,1.480000000000000000e+02,3.400000000000000000e+01,2.500000000000000000e+01,2.200000000000000000e+01,3.400000000000000000e+01,6.600000000000000311e-01,5.996933900000000000e+09
4.300000000000000000e+01,1.160000000000000000e+02,5.080000000000000000e+02,1.320000000000000000e+02,3.400000000000000000e+01,2.700000000000000000e+01,2.400000000000000000e+01,3.000000000000000000e+01,6.600000000000000311e-01,6.016656500000000000e+09
4.500000000000000000e+01,1.160000000000000000e+02,5.360000000000000000e+02,1.360000000000000000e+02,3.300000000000000000e+01,2.600000000000000000e+01,2.200000000000000000e+01,2.900000000000000000e+01,6.600000000000000311e-01,6.033645500000000000e+09
5.400000000000000000e+01,1.190000000000000000e+02,5.450000000000000000e+02,1.390000000000000000e+02,3.300000000000000000e+01,2.600000000000000000e+01,2.300000000000000000e+01,3.600000000000000000e+01,6.600000000000000311e-01,6.050917500000000000e+09
5.500000000000000000e+01,1.200000000000000000e+02,5.330000000000000000e+02,1.440000000000000000e+02,3.400000000000000000e+01,2.800000000000000000e+01,2.400000000000000000e+01,3.300000000000000000e+01,6.600000000000000311e-01,6.067551100000000000e+09
5.100000000000000000e+01,1.190000000000000000e+02,4.750000000000000000e+02,1.330000000000000000e+02,3.100000000000000000e+01,2.700000000000000000e+01,2.300000000000000000e+01,3.200000000000000000e+01,6.600000000000000311e-01,6.085370700000000000e+09
5.200000000000000000e+01,1.210000000000000000e+02,4.710000000000000000e+02,1.180000000000000000e+02,2.700000000000000000e+01,2.400000000000000000e+01,2.100000000000000000e+01,3.000000000000000000e+01,6.600000000000000311e-01,6.105589400000000000e+09
5.500000000000000000e+01,1.420000000000000000e+02,4.990000000000000000e+02,1.800000000000000000e+02,3.300000000000000000e+01,2.900000000000000000e+01,2.600000000000000000e+01,3.300000000000000000e+01,6.600000000000000311e-01,6.124687300000000000e+09
4.500000000000000000e+01,1.400000000000000000e+02,4.920000000000000000e+02,1.820000000000000000e+02,3.400000000000000000e+01,2.900000000000000000e+01,2.500000000000000000e+01,2.500000000000000000e+01,6.600000000000000311e-01,6.142041900000000000e+09
4.300000000000000000e+01,1.410000000000000000e+02,4.800000000000000000e+02,1.770000000000000000e+02,3.300000000000000000e+01,3.300000000000000000e+01,2.400000000000000000e+01,3.100000000000000000e+01,6.600000000000000311e-01,6.159352800000000000e+09
4.800000000000000000e+01,1.370000000000000000e+02,5.380000000000000000e+02,1.830000000000000000e+02,3.400000000000000000e+01,3.400000000000000000e+01,2.600000000000000000e+01,3.300000000000000000e+01,6.600000000000000311e-01,6.176478700000000000e+09
5.000000000000000000e+01,1.300000000000000000e+02,5.550000000000000000e+02,1.950000000000000000e+02,3.900000000000000000e+01,3.700000000000000000e+01,2.700000000000000000e+01,3.400000000000000000e+01,6.600000000000000311e-01,6.194180600000000000e+09
4.700000000000000000e+01,9.700000000000000000e+01,4.970000000000000000e+02,1.360000000000000000e+02,3.600000000000000000e+01,3.400000000000000000e+01,2.300000000000000000e+01,3.300000000000000000e+01,6.600000000000000311e-01,6.213373500000000000e+09
4.700000000000000000e+01,8.700000000000000000e+01,4.730000000000000000e+02,1.340000000000000000e+02,3.400000000000000000e+01,3.400000000000000000e+01,2.300000000000000000e+01,3.200000000000000000e+01,6.600000000000000311e-01,6.231738200000000000e+09
4.900000000000000000e+01,8.500000000000000000e+01,5.810000000000000000e+02,1.410000000000000000e+02,3.500000000000000000e+01,3.000000000000000000e+01,2.300000000000000000e+01,3.000000000000000000e+01,6.600000000000000311e-01,6.248639600000000000e+09
4.700000000000000000e+01,8.400000000000000000e+01,5.490000000000000000e+02,1.350000000000000000e+02,3.500000000000000000e+01,3.000000000000000000e+01,2.200000000000000000e+01,2.700000000000000000e+01,6.600000000000000311e-01,6.265479900000000000e+09
4.300000000000000000e+01,8.200000000000000000e+01,5.080000000000000000e+02,1.250000000000000000e+02,3.100000000000000000e+01,2.700000000000000000e+01,2.100000000000000000e+01,2.800000000000000000e+01,6.600000000000000311e-01,6.283027200000000000e+09
4.400000000000000000e+01,8.300000000000000000e+01,5.050000000000000000e+02,1.650000000000000000e+02,3.300000000000000000e+01,3.000000000000000000e+01,2.200000000000000000e+01,2.700000000000000000e+01,6.600000000000000311e-01,6.302966500000000000e+09
4.500000000000000000e+01,8.000000000000000000e+01,4.970000000000000000e+02,1.540000000000000000e+02,3.200000000000000000e+01,2.900000000000000000e+01,2.300000000000000000e+01,2.800000000000000000e+01,6.600000000000000311e-01,6.321495200000000000e+09
4.400000000000000000e+01,8.200000000000000000e+01,4.220000000000000000e+02,1.680000000000000000e+02,3.500000000000000000e+01,3.100000000000000000e+01,2.300000000000000000e+01,2.600000000000000000e+01,6.600000000000000311e-01,6.338621000000000000e+09
4.100000000000000000e+01,8.200000000000000000e+01,3.610000000000000000e+02,1.720000000000000000e+02,3.600000000000000000e+01,3.100000000000000000e+01,2.300000000000000000e+01,2.700000000000000000e+01,6.600000000000000311e-01,6.355323700000000000e+09
3.800000000000000000e+01,7.800000000000000000e+01,3.840000000000000000e+02,1.700000000000000000e+02,3.500000000000000000e+01,3.000000000000000000e+01,2.200000000000000000e+01,2.500000000000000000e+01,6.600000000000000311e-01,6.372402500000000000e+09
3.300000000000000000e+01,6.400000000000000000e+01,3.700000000000000000e+02,1.360000000000000000e+02,3.100000000000000000e+01,2.700000000000000000e+01,2.100000000000000000e+01,2.500000000000000000e+01,6.600000000000000311e-01,6.391361700000000000e+09
3.300000000000000000e+01,9.600000000000000000e+01,4.320000000000000000e+02,1.560000000000000000e+02,3.400000000000000000e+01,2.900000000000000000e+01,2.300000000000000000e+01,2.700000000000000000e+01,6.600000000000000311e-01,6.412717900000000000e+09
2.600000000000000000e+01,9.800000000000000000e+01,3.880000000000000000e+02,1.370000000000000000e+02,2.800000000000000000e+01,2.500000000000000000e+01,2.100000000000000000e+01,2.700000000000000000e+01,6.600000000000000311e-01,6.430743100000000000e+09
3.000000000000000000e+01,9.200000000000000000e+01,3.800000000000000000e+02,1.400000000000000000e+02,2.800000000000000000e+01,2.500000000000000000e+01,2.000000000000000000e+01,2.800000000000000000e+01,6.600000000000000311e-01,6.447594100000000000e+09
3.500000000000000000e+01,9.700000000000000000e+01,3.560000000000000000e+02,1.380000000000000000e+02,2.700000000000000000e+01,2.500000000000000000e+01,2.200000000000000000e+01,2.900000000000000000e+01,6.600000000000000311e-01,6.465694200000000000e+09
3.500000000000000000e+01,1.190000000000000000e+02,4.330000000000000000e+02,1.590000000000000000e+02,3.100000000000000000e+01,2.400000000000000000e+01,2.300000000000000000e+01,3.000000000000000000e+01,6.600000000000000311e-01,6.483961800000000000e+09
3.700000000000000000e+01,1.020000000000000000e+02,3.860000000000000000e+02,1.600000000000000000e+02,3.100000000000000000e+01,2.300000000000000000e+01,2.100000000000000000e+01,2.900000000000000000e+01,6.600000000000000311e-01,6.503177600000000000e+09
3.800000000000000000e+01,1.020000000000000000e+02,3.750000000000000000e+02,1.600000000000000000e+02,3.000000000000000000e+01,2.400000000000000000e+01,2.100000000000000000e+01,2.900000000000000000e+01,6.600000000000000311e-01,6.520651700000000000e+09
4.400000000000000000e+01,1.120000000000000000e+02,3.930000000000000000e+02,1.770000000000000000e+02,3.400000000000000000e+01,2.600000000000000000e+01,2.500000000000000000e+01,2.800000000000000000e+01,6.600000000000000311e-01,6.538574800000000000e+09
4.400000000000000000e+01,1.100000000000000000e+02,4.190000000000000000e+02,1.920000000000000000e+02,3.600000000000000000e+01,2.600000000000000000e+01,2.300000000000000000e+01,3.300000000000000000e+01,6.600000000000000311e-01,6.556411600000000000e+09
4.500000000000000000e+01,9.900000000000000000e+01,3.380000000000000000e+02,1.760000000000000000e+02,3.300000000000000000e+01,2.800000000000000000e+01,2.300000000000000000e+01,3.100000000000000000e+01,6.600000000000000311e-01,6.572951200000000000e+09
4.700000000000000000e+01,9.900000000000000000e+01,3.170000000000000000e+02,1.850000000000000000e+02,3.800000000000000000e+01,2.900000000000000000e+01,2.500000000000000000e+01,3.300000000000000000e+01,6.600000000000000311e-01,6.591389900000000000e+09
4.800000000000000000e+01,1.060000000000000000e+02,3.610000000000000000e+02,1.910000000000000000e+02,4.100000000000000000e+01,2.900000000000000000e+01,2.700000000000000000e+01,3.400000000000000000e+01,6.700000000000000400e-01,6.612373700000000000e+09
4.700000000000000000e+01,1.120000000000000000e+02,3.790000000000000000e+02,2.320000000000000000e+02,4.200000000000000000e+01,3.100000000000000000e+01,2.600000000000000000e+01,3.500000000000000000e+01,6.700000000000000400e-01,6.630332000000000000e+09
4.900000000000000000e+01,1.130000000000000000e+02,3.840000000000000000e+02,2.380000000000000000e+02,4.200000000000000000e+01,3.300000000000000000e+01,2.700000000000000000e+01,3.100000000000000000e+01,6.700000000000000400e-01,6.647125300000000000e+09
4.700000000000000000e+01,1.010000000000000000e+02,3.490000000000000000e+02,2.350000000000000000e+02,4.200000000000000000e+01,3.300000000000000000e+01,2.700000000000000000e+01,3.000000000000000000e+01,6.700000000000000400e-01,6.664491600000000000e+09
4.600000000000000000e+01,9.900000000000000000e+01,3.750000000000000000e+02,2.150000000000000000e+02,3.600000000000000000e+01,3.300000000000000000e+01,2.500000000000000000e+01,2.800000000000000000e+01,6.700000000000000400e-01,6.682681000000000000e+09
4.400000000000000000e+01,1.060000000000000000e+02,3.670000000000000000e+02,2.190000000000000000e+02,3.500000000000000000e+01,3.200000000000000000e+01,2.500000000000000000e+01,2.800000000000000000e+01,6.800000000000000488e-01,6.702961700000000000e+09
4.000000000000000000e+01,9.900000000000000000e+01,3.360000000000000000e+02,1.710000000000000000e+02,3.400000000000000000e+01,2.800000000000000000e+01,2.300000000000000000e+01,2.800000000000000000e+01,6.800000000000000488e-01,6.720930800000000000e+09
3.400000000000000000e+01,9.500000000000000000e+01,2.970000000000000000e+02,1.420000000000000000e+02,3.100000000000000000e+01,2.500000000000000000e+01,2.300000000000000000e+01,2.600000000000000000e+01,6.700000000000000400e-01,6.739419000000000000e+09
3.600000000000000000e+01,9.600000000000000000e+01,2.910000000000000000e+02,1.430000000000000000e+02,3.300000000000000000e+01,2.800000000000000000e+01,2.200000000000000000e+01,2.800000000000000000e+01,6.700000000000000400e-01,6.756355800000000000e+09
3.800000000000000000e+01,1.000000000000000000e+02,2.910000000000000000e+02,1.400000000000000000e+02,3.400000000000000000e+01,2.900000000000000000e+01,2.300000000000000000e+01,3.300000000000000000e+01,6.700000000000000400e-01,6.774439800000000000e+09
3.900000000000000000e+01,8.100000000000000000e+01,2.540000000000000000e+02,1.260000000000000000e+02,3.200000000000000000e+01,2.900000000000000000e+01,2.100000000000000000e+01,3.000000000000000000e+01,6.700000000000000400e-01,6.793595900000000000e+09
4.000000000000000000e+01,8.000000000000000000e+01,2.970000000000000000e+02,1.170000000000000000e+02,3.200000000000000000e+01,3.100000000000000000e+01,2.000000000000000000e+01,3.000000000000000000e+01,6.700000000000000400e-01,6.815044100000000000e+09
4.200000000000000000e+01,8.400000000000000000e+01,3.030000000000000000e+02,1.300000000000000000e+02,3.600000000000000000e+01,3.200000000000000000e+01,1.900000000000000000e+01,3.200000000000000000e+01,6.600000000000000311e-01,6.832317800000000000e+09
4.500000000000000000e+01,8.800000000000000000e+01,3.350000000000000000e+02,1.320000000000000000e+02,3.500000000000000000e+01,3.000000000000000000e+01,2.200000000000000000e+01,3.500000000000000000e+01,6.600000000000000311e-01,6.850724900000000000e+09
5.500000000000000000e+01,8.400000000000000000e+01,3.060000000000000000e+02,1.510000000000000000e+02,3.700000000000000000e+01,3.000000000000000000e+01,2.200000000000000000e+01,4.100000000000000000e+01,6.600000000000000311e-01,6.868154300000000000e+09
5.400000000000000000e+01,8.300000000000000000e+01,3.250000000000000000e+02,1.460000000000000000e+02,3.800000000000000000e+01,3.200000000000000000e+01,2.300000000000000000e+01,4.200000000000000000e+01,6.500000000000000222e-01,6.886754800000000000e+09
5.500000000000000000e+01,8.300000000000000000e+01,3.610000000000000000e+02,1.340000000000000000e+02,3.900000000000000000e+01,2.800000000000000000e+01,2.400000000000000000e+01,4.300000000000000000e+01,6.500000000000000222e-01,6.905788200000000000e+09
5.800000000000000000e+01,8.200000000000000000e+01,3.960000000000000000e+02,1.410000000000000000e+02,3.800000000000000000e+01,2.900000000000000000e+01,2.500000000000000000e+01,4.500000000000000000e+01,6.500000000000000222e-01,6.925033400000000000e+09
5.500000000000000000e+01,7.800000000000000000e+01,4.630000000000000000e+02,1.510000000000000000e+02,4.000000000000000000e+01,2.700000000000000000e+01,2.500000000000000000e+01,4.200000000000000000e+01,6.400000000000000133e-01,6.942517200000000000e+09
4.200000000000000000e+01,7.400000000000000000e+01,4.820000000000000000e+02,1.380000000000000000e+02,3.900000000000000000e+01,2.400000000000000000e+01,2.300000000000000000e+01,3.100000000000000000e+01,6.400000000000000133e-01,6.961040600000000000e+09
4.600000000000000000e+01,7.900000000000000000e+01,5.220000000000000000e+02,1.590000000000000000e+02,4.400000000000000000e+01,2.600000000000000000e+01,2.400000000000000000e+01,3.400000000000000000e+01,6.400000000000000133e-01,6.979750100000000000e+09
4.300000000000000000e+01,8.300000000000000000e+01,4.850000000000000000e+02,1.580000000000000000e+02,3.900000000000000000e+01,2.500000000000000000e+01,2.300000000000000000e+01,3.200000000000000000e+01,6.400000000000000133e-01,6.998432700000000000e+09
4.700000000000000000e+01,1.090000000000000000e+02,4.650000000000000000e+02,1.770000000000000000e+02,4.100000000000000000e+01,3.200000000000000000e+01,2.500000000000000000e+01,3.300000000000000000e+01,6.400000000000000133e-01,7.017304200000000000e+09
4.800000000000000000e+01,1.100000000000000000e+02,3.890000000000000000e+02,1.830000000000000000e+02,3.800000000000000000e+01,3.100000000000000000e+01,2.200000000000000000e+01,3.400000000000000000e+01,6.500000000000000222e-01,7.036020100000000000e+09
4.700000000000000000e+01,1.080000000000000000e+02,3.550000000000000000e+02,1.770000000000000000e+02,3.800000000000000000e+01,3.200000000000000000e+01,2.300000000000000000e+01,3.300000000000000000e+01,6.500000000000000222e-01,7.054729900000000000e+09
4.400000000000000000e+01,1.020000000000000000e+02,2.490000000000000000e+02,1.560000000000000000e+02,3.100000000000000000e+01,3.000000000000000000e+01,2.300000000000000000e+01,3.000000000000000000e+01,6.500000000000000222e-01,7.073401300000000000e+09
4.400000000000000000e+01,1.030000000000000000e+02,3.160000000000000000e+02,1.640000000000000000e+02,3.200000000000000000e+01,3.100000000000000000e+01,2.500000000000000000e+01,3.000000000000000000e+01,6.500000000000000222e-01,7.093373100000000000e+09
4.100000000000000000e+01,9.600000000000000000e+01,3.200000000000000000e+02,1.440000000000000000e+02,3.300000000000000000e+01,2.900000000000000000e+01,2.200000000000000000e+01,2.600000000000000000e+01,6.500000000000000222e-01,7.112881500000000000e+09
3.900000000000000000e+01,9.600000000000000000e+01,3.220000000000000000e+02,1.240000000000000000e+02,3.200000000000000000e+01,2.900000000000000000e+01,2.300000000000000000e+01,2.600000000000000000e+01,6.500000000000000222e-01,7.131899900000000000e+09
3.700000000000000000e+01,9.700000000000000000e+01,3.300000000000000000e+02,1.250000000000000000e+02,3.200000000000000000e+01,2.800000000000000000e+01,2.200000000000000000e+01,2.700000000000000000e+01,6.500000000000000222e-01,7.150224200000000000e+09
3.600000000000000000e+01,1.000000000000000000e+02,3.630000000000000000e+02,1.610000000000000000e+02,3.400000000000000000e+01,2.700000000000000000e+01,2.200000000000000000e+01,2.700000000000000000e+01,6.500000000000000222e-01,7.168196700000000000e+09
3.600000000000000000e+01,1.090000000000000000e+02,3.640000000000000000e+02,1.610000000000000000e+02,3.500000000000000000e+01,2.900000000000000000e+01,2.000000000000000000e+01,2.600000000000000000e+01,6.500000000000000222e-01,7.186385700000000000e+09
3.800000000000000000e+01,1.150000000000000000e+02,5.030000000000000000e+02,1.680000000000000000e+02,3.500000000000000000e+01,2.600000000000000000e+01,2.200000000000000000e+01,2.900000000000000000e+01,6.500000000000000222e-01,7.207573600000000000e+09
3.800000000000000000e+01,1.170000000000000000e+02,6.080000000000000000e+02,1.670000000000000000e+02,3.600000000000000000e+01,2.700000000000000000e+01,2.300000000000000000e+01,2.900000000000000000e+01,6.500000000000000222e-01,7.227213600000000000e+09
3.700000000000000000e+01,1.200000000000000000e+02,6.250000000000000000e+02,1.660000000000000000e+02,3.500000000000000000e+01,2.600000000000000000e+01,2.300000000000000000e+01,2.700000000000000000e+01,6.500000000000000222e-01,7.246125200000000000e+09
3.800000000000000000e+01,1.170000000000000000e+02,6.280000000000000000e+02,1.340000000000000000e+02,3.400000000000000000e+01,2.700000000000000000e+01,2.300000000000000000e+01,2.700000000000000000e+01,6.500000000000000222e-01,7.264342000000000000e+09
4.000000000000000000e+01,1.060000000000000000e+02,5.840000000000000000e+02,1.330000000000000000e+02,3.500000000000000000e+01,2.600000000000000000e+01,2.400000000000000000e+01,2.900000000000000000e+01,6.500000000000000222e-01,7.283197100000000000e+09
4.300000000000000000e+01,9.500000000000000000e+01,4.880000000000000000e+02,1.310000000000000000e+02,3.600000000000000000e+01,2.600000000000000000e+01,2.400000000000000000e+01,3.000000000000000000e+01,6.500000000000000222e-01,7.306531700000000000e+09
4.500000000000000000e+01,9.500000000000000000e+01,3.410000000000000000e+02,1.300000000000000000e+02,3.700000000000000000e+01,2.600000000000000000e+01,2.300000000000000000e+01,2.900000000000000000e+01,6.500000000000000222e-01,7.325419700000000000e+09
4.500000000000000000e+01,9.300000000000000000e+01,3.200000000000000000e+02,1.370000000000000000e+02,3.700000000000000000e+01,2.900000000000000000e+01,2.400000000000000000e+01,3.200000000000000000e+01,6.500000000000000222e-01,7.342828500000000000e+09
4.300000000000000000e+01,9.200000000000000000e+01,3.100000000000000000e+02,1.370000000000000000e+02,3.600000000000000000e+01,2.800000000000000000e+01,2.300000000000000000e+01,3.100000000000000000e+01,6.500000000000000222e-01,7.361953600000000000e+09
3.800000000000000000e+01,8.200000000000000000e+01,3.380000000000000000e+02,1.200000000000000000e+02,3.300000000000000000e+01,2.600000000000000000e+01,2.200000000000000000e+01,2.800000000000000000e+01,6.500000000000000222e-01,7.381695700000000000e+09
3.400000000000000000e+01,9.100000000000000000e+01,3.460000000000000000e+02,1.890000000000000000e+02,3.900000000000000000e+01,3.200000000000000000e+01,2.300000000000000000e+01,2.700000000000000000e+01,6.500000000000000222e-01,7.402407300000000000e+09
3.100000000000000000e+01,9.600000000000000000e+01,4.300000000000000000e+02,2.050000000000000000e+02,4.000000000000000000e+01,3.300000000000000000e+01,2.400000000000000000e+01,2.800000000000000000e+01,6.500000000000000222e-01,7.422110800000000000e+09
3.100000000000000000e+01,9.400000000000000000e+01,4.530000000000000000e+02,2.050000000000000000e+02,3.900000000000000000e+01,3.200000000000000000e+01,2.400000000000000000e+01,2.700000000000000000e+01,6.500000000000000222e-01,7.441155500000000000e+09
3.200000000000000000e+01,9.600000000000000000e+01,4.440000000000000000e+02,2.140000000000000000e+02,4.000000000000000000e+01,3.200000000000000000e+01,2.400000000000000000e+01,2.700000000000000000e+01,6.500000000000000222e-01,7.459637600000000000e+09
3.300000000000000000e+01,9.700000000000000000e+01,4.850000000000000000e+02,2.120000000000000000e+02,4.100000000000000000e+01,3.300000000000000000e+01,2.500000000000000000e+01,2.700000000000000000e+01,6.500000000000000222e-01,7.477723900000000000e+09
2.400000000000000000e+01,7.000000000000000000e+01,4.770000000000000000e+02,1.310000000000000000e+02,2.700000000000000000e+01,2.600000000000000000e+01,2.200000000000000000e+01,2.200000000000000000e+01,6.500000000000000222e-01,7.501344000000000000e+09
2.600000000000000000e+01,6.700000000000000000e+01,4.100000000000000000e+02,1.170000000000000000e+02,2.300000000000000000e+01,2.500000000000000000e+01,2.300000000000000000e+01,2.100000000000000000e+01,6.500000000000000222e-01,7.522822600000000000e+09
3.100000000000000000e+01,7.500000000000000000e+01,4.130000000000000000e+02,1.110000000000000000e+02,2.400000000000000000e+01,2.400000000000000000e+01,2.200000000000000000e+01,2.400000000000000000e+01,6.500000000000000222e-01,7.541226900000000000e+09
3.000000000000000000e+01,7.400000000000000000e+01,4.580000000000000000e+02,9.600000000000000000e+01,2.300000000000000000e+01,2.300000000000000000e+01,2.200000000000000000e+01,2.400000000000000000e+01,6.500000000000000222e-01,7.560214000000000000e+09
3.300000000000000000e+01,7.700000000000000000e+01,4.510000000000000000e+02,1.200000000000000000e+02,2.800000000000000000e+01,2.800000000000000000e+01,2.000000000000000000e+01,2.600000000000000000e+01,6.500000000000000222e-01,7.578316900000000000e+09
3.900000000000000000e+01,8.100000000000000000e+01,4.310000000000000000e+02,1.210000000000000000e+02,3.000000000000000000e+01,2.800000000000000000e+01,2.200000000000000000e+01,3.000000000000000000e+01,6.500000000000000222e-01,7.597610500000000000e+09
4.000000000000000000e+01,7.200000000000000000e+01,4.300000000000000000e+02,1.040000000000000000e+02,3.000000000000000000e+01,2.600000000000000000e+01,1.900000000000000000e+01,3.400000000000000000e+01,6.500000000000000222e-01,7.620390900000000000e+09
3.900000000000000000e+01,6.400000000000000000e+01,4.090000000000000000e+02,1.040000000000000000e+02,2.900000000000000000e+01,2.700000000000000000e+01,2.200000000000000000e+01,3.400000000000000000e+01,6.500000000000000222e-01,7.639558800000000000e+09
4.500000000000000000e+01,7.800000000000000000e+01,3.870000000000000000e+02,1.580000000000000000e+02,3.700000000000000000e+01,3.300000000000000000e+01,2.500000000000000000e+01,3.700000000000000000e+01,6.500000000000000222e-01,7.658545800000000000e+09
4.800000000000000000e+01,8.200000000000000000e+01,3.170000000000000000e+02,1.480000000000000000e+02,3.200000000000000000e+01,2.900000000000000000e+01,2.500000000000000000e+01,3.600000000000000000e+01,6.500000000000000222e-01,7.676534100000000000e+09
4.400000000000000000e+01,7.700000000000000000e+01,2.970000000000000000e+02,1.490000000000000000e+02,3.000000000000000000e+01,2.900000000000000000e+01,2.400000000000000000e+01,3.400000000000000000e+01,6.500000000000000222e-01,7.697903600000000000e+09
4.400000000000000000e+01,7.900000000000000000e+01,2.850000000000000000e+02,1.530000000000000000e+02,3.300000000000000000e+01,3.000000000000000000e+01,2.500000000000000000e+01,3.100000000000000000e+01,6.500000000000000222e-01,7.719847000000000000e+09
4.300000000000000000e+01,7.700000000000000000e+01,2.460000000000000000e+02,1.570000000000000000e+02,3.200000000000000000e+01,3.000000000000000000e+01,2.300000000000000000e+01,2.900000000000000000e+01,6.500000000000000222e-01,7.738642600000000000e+09
3.800000000000000000e+01,7.800000000000000000e+01,2.990000000000000000e+02,1.420000000000000000e+02,3.000000000000000000e+01,2.700000000000000000e+01,2.200000000000000000e+01,2.900000000000000000e+01,6.400000000000000133e-01,7.756600800000000000e+09
3.400000000000000000e+01,8.800000000000000000e+01,3.870000000000000000e+02,1.610000000000000000e+02,3.400000000000000000e+01,3.100000000000000000e+01,2.200000000000000000e+01,3.000000000000000000e+01,6.400000000000000133e-01,7.776165100000000000e+09
3.900000000000000000e+01,9.100000000000000000e+01,4.100000000000000000e+02,1.620000000000000000e+02,3.500000000000000000e+01,3.000000000000000000e+01,2.200000000000000000e+01,2.700000000000000000e+01,6.500000000000000222e-01,7.800490900000000000e+09
3.900000000000000000e+01,9.900000000000000000e+01,4.330000000000000000e+02,1.800000000000000000e+02,3.700000000000000000e+01,3.200000000000000000e+01,2.600000000000000000e+01,2.800000000000000000e+01,6.500000000000000222e-01,7.820260500000000000e+09
3.900000000000000000e+01,1.160000000000000000e+02,4.460000000000000000e+02,1.780000000000000000e+02,3.600000000000000000e+01,3.200000000000000000e+01,2.600000000000000000e+01,2.800000000000000000e+01,6.500000000000000222e-01,7.839097900000000000e+09
3.800000000000000000e+01,1.120000000000000000e+02,4.550000000000000000e+02,1.570000000000000000e+02,3.300000000000000000e+01,3.000000000000000000e+01,2.400000000000000000e+01,2.600000000000000000e+01,6.500000000000000222e-01,7.857035200000000000e+09
3.700000000000000000e+01,1.040000000000000000e+02,4.630000000000000000e+02,1.560000000000000000e+02,3.300000000000000000e+01,2.900000000000000000e+01,2.500000000000000000e+01,2.400000000000000000e+01,6.500000000000000222e-01,7.875875400000000000e+09
3.500000000000000000e+01,1.060000000000000000e+02,5.430000000000000000e+02,1.770000000000000000e+02,3.400000000000000000e+01,3.000000000000000000e+01,2.400000000000000000e+01,2.500000000000000000e+01,6.500000000000000222e-01,7.898066700000000000e+09
3.200000000000000000e+01,1.040000000000000000e+02,5.710000000000000000e+02,1.650000000000000000e+02,3.100000000000000000e+01,2.700000000000000000e+01,2.100000000000000000e+01,2.200000000000000000e+01,6.500000000000000222e-01,7.920227200000000000e+09
3.300000000000000000e+01,8.700000000000000000e+01,5.680000000000000000e+02,1.820000000000000000e+02,3.500000000000000000e+01,2.600000000000000000e+01,2.100000000000000000e+01,2.300000000000000000e+01,6.500000000000000222e-01,7.939043400000000000e+09
3.700000000000000000e+01,9.200000000000000000e+01,5.580000000000000000e+02,1.790000000000000000e+02,3.400000000000000000e+01,2.500000000000000000e+01,2.200000000000000000e+01,2.300000000000000000e+01,6.600000000000000311e-01,7.957643800000000000e+09
3.900000000000000000e+01,9.000000000000000000e+01,5.210000000000000000e+02,1.630000000000000000e+02,3.400000000000000000e+01,2.700000000000000000e+01,2.200000000000000000e+01,2.500000000000000000e+01,6.600000000000000311e-01,7.975882300000000000e+09
3.500000000000000000e+01,8.500000000000000000e+01,4.230000000000000000e+02,1.420000000000000000e+02,3.300000000000000000e+01,2.700000000000000000e+01,2.200000000000000000e+01,2.400000000000000000e+01,6.600000000000000311e-01,7.999210100000000000e+09
3.700000000000000000e+01,8.400000000000000000e+01,3.850000000000000000e+02,1.400000000000000000e+02,3.100000000000000000e+01,2.800000000000000000e+01,2.300000000000000000e+01,2.600000000000000000e+01,6.600000000000000311e-01,8.018793400000000000e+09
4.200000000000000000e+01,9.300000000000000000e+01,4.260000000000000000e+02,1.340000000000000000e+02,3.100000000000000000e+01,3.200000000000000000e+01,2.500000000000000000e+01,2.800000000000000000e+01,6.600000000000000311e-01,8.037880500000000000e+09
4.000000000000000000e+01,8.100000000000000000e+01,4.080000000000000000e+02,1.340000000000000000e+02,3.100000000000000000e+01,3.200000000000000000e+01,2.500000000000000000e+01,2.700000000000000000e+01,6.600000000000000311e-01,8.056742400000000000e+09
3.600000000000000000e+01,8.100000000000000000e+01,3.800000000000000000e+02,1.340000000000000000e+02,2.800000000000000000e+01,2.700000000000000000e+01,2.400000000000000000e+01,2.600000000000000000e+01,6.600000000000000311e-01,8.074785900000000000e+09
3.800000000000000000e+01,8.400000000000000000e+01,3.790000000000000000e+02,1.270000000000000000e+02,2.900000000000000000e+01,2.600000000000000000e+01,2.500000000000000000e+01,2.600000000000000000e+01,6.600000000000000311e-01,8.095045900000000000e+09
4.300000000000000000e+01,9.300000000000000000e+01,4.970000000000000000e+02,1.370000000000000000e+02,3.700000000000000000e+01,3.000000000000000000e+01,2.500000000000000000e+01,2.500000000000000000e+01,6.600000000000000311e-01,8.117413400000000000e+09
3.600000000000000000e+01,8.800000000000000000e+01,4.690000000000000000e+02,1.210000000000000000e+02,3.200000000000000000e+01,2.400000000000000000e+01,2.400000000000000000e+01,2.300000000000000000e+01,6.600000000000000311e-01,8.136907700000000000e+09
3.700000000000000000e+01,8.700000000000000000e+01,4.280000000000000000e+02,1.220000000000000000e+02,3.400000000000000000e+01,2.600000000000000000e+01,2.500000000000000000e+01,2.300000000000000000e+01,6.600000000000000311e-01,8.157249100000000000e+09
3.900000000000000000e+01,8.000000000000000000e+01,4.610000000000000000e+02,1.110000000000000000e+02,3.500000000000000000e+01,2.900000000000000000e+01,2.600000000000000000e+01,2.400000000000000000e+01,6.600000000000000311e-01,8.176722900000000000e+09
3.700000000000000000e+01,7.800000000000000000e+01,5.610000000000000000e+02,1.310000000000000000e+02,3.500000000000000000e+01,3.000000000000000000e+01,2.600000000000000000e+01,2.700000000000000000e+01,6.500000000000000222e-01,8.197254300000000000e+09
2.900000000000000000e+01,6.600000000000000000e+01,5.050000000000000000e+02,1.310000000000000000e+02,2.900000000000000000e+01,2.800000000000000000e+01,2.400000000000000000e+01,2.600000000000000000e+01,6.500000000000000222e-01,8.220355900000000000e+09
3.300000000000000000e+01,7.000000000000000000e+01,5.250000000000000000e+02,1.270000000000000000e+02,3.300000000000000000e+01,3.100000000000000000e+01,2.600000000000000000e+01,2.700000000000000000e+01,6.500000000000000222e-01,8.239766700000000000e+09
3.600000000000000000e+01,8.000000000000000000e+01,5.690000000000000000e+02,1.210000000000000000e+02,3.100000000000000000e+01,3.000000000000000000e+01,2.600000000000000000e+01,2.700000000000000000e+01,6.500000000000000222e-01,8.259425700000000000e+09
3.900000000000000000e+01,8.000000000000000000e+01,5.400000000000000000e+02,1.230000000000000000e+02,3.000000000000000000e+01,2.900000000000000000e+01,2.400000000000000000e+01,2.700000000000000000e+01,6.500000000000000222e-01,8.277471800000000000e+09
3.900000000000000000e+01,7.800000000000000000e+01,4.500000000000000000e+02,1.120000000000000000e+02,2.800000000000000000e+01,3.000000000000000000e+01,2.400000000000000000e+01,2.600000000000000000e+01,6.500000000000000222e-01,8.298864000000000000e+09
4.400000000000000000e+01,8.700000000000000000e+01,4.600000000000000000e+02,1.100000000000000000e+02,3.100000000000000000e+01,3.200000000000000000e+01,2.500000000000000000e+01,2.600000000000000000e+01,6.500000000000000222e-01,8.319672300000000000e+09
4.100000000000000000e+01,1.000000000000000000e+02,4.460000000000000000e+02,1.140000000000000000e+02,3.000000000000000000e+01,3.000000000000000000e+01,2.200000000000000000e+01,2.600000000000000000e+01,6.500000000000000222e-01,8.338532000000000000e+09
3.900000000000000000e+01,9.500000000000000000e+01,3.920000000000000000e+02,1.180000000000000000e+02,3.100000000000000000e+01,3.000000000000000000e+01,2.300000000000000000e+01,2.600000000000000000e+01,6.500000000000000222e-01,8.357165200000000000e+09
3.800000000000000000e+01,1.000000000000000000e+02,3.830000000000000000e+02,1.210000000000000000e+02,3.300000000000000000e+01,2.900000000000000000e+01,2.300000000000000000e+01,2.600000000000000000e+01,6.500000000000000222e-01,8.376272300000000000e+09
3.900000000000000000e+01,1.050000000000000000e+02,3.740000000000000000e+02,1.200000000000000000e+02,3.400000000000000000e+01,2.900000000000000000e+01,2.200000000000000000e+01,2.700000000000000000e+01,6.500000000000000222e-01,8.396452900000000000e+09
3.200000000000000000e+01,9.600000000000000000e+01,2.670000000000000000e+02,1.080000000000000000e+02,3.100000000000000000e+01,2.700000000000000000e+01,2.200000000000000000e+01,2.700000000000000000e+01,6.400000000000000133e-01,8.417508000000000000e+09
3.300000000000000000e+01,7.900000000000000000e+01,2.360000000000000000e+02,1.010000000000000000e+02,3.100000000000000000e+01,2.700000000000000000e+01,2.300000000000000000e+01,2.500000000000000000e+01,6.400000000000000133e-01,8.437411500000000000e+09
3.300000000000000000e+01,7.500000000000000000e+01,2.170000000000000000e+02,9.000000000000000000e+01,3.100000000000000000e+01,2.800000000000000000e+01,2.400000000000000000e+01,2.500000000000000000e+01,6.400000000000000133e-01,8.456770600000000000e+09
4.400000000000000000e+01,7.200000000000000000e+01,2.090000000000000000e+02,7.700000000000000000e+01,2.800000000000000000e+01,2.800000000000000000e+01,2.800000000000000000e+01,3.400000000000000000e+01,6.300000000000000044e-01,8.475912100000000000e+09
4.500000000000000000e+01,6.800000000000000000e+01,1.680000000000000000e+02,5.600000000000000000e+01,2.400000000000000000e+01,2.400000000000000000e+01,6.100000000000000000e+01,3.800000000000000000e+01,6.300000000000000044e-01,8.498855800000000000e+09
7.000000000000000000e+01,7.000000000000000000e+01,1.390000000000000000e+02,4.400000000000000000e+01,2.400000000000000000e+01,2.400000000000000000e+01,6.400000000000000000e+01,6.800000000000000000e+01,6.199999999999999956e-01,8.518709100000000000e+09
7.500000000000000000e+01,8.400000000000000000e+01,2.120000000000000000e+02,8.000000000000000000e+01,3.000000000000000000e+01,2.600000000000000000e+01,6.800000000000000000e+01,1.520000000000000000e+02,6.099999999999999867e-01,8.538392700000000000e+09
8.100000000000000000e+01,8.700000000000000000e+01,2.330000000000000000e+02,9.700000000000000000e+01,3.100000000000000000e+01,2.500000000000000000e+01,7.000000000000000000e+01,1.570000000000000000e+02,6.099999999999999867e-01,8.556616100000000000e+09
8.400000000000000000e+01,9.200000000000000000e+01,2.620000000000000000e+02,1.060000000000000000e+02,3.500000000000000000e+01,2.700000000000000000e+01,8.700000000000000000e+01,1.940000000000000000e+02,5.999999999999999778e-01,8.577314600000000000e+09
8.600000000000000000e+01,9.800000000000000000e+01,3.490000000000000000e+02,1.110000000000000000e+02,3.700000000000000000e+01,2.900000000000000000e+01,7.000000000000000000e+01,1.980000000000000000e+02,5.899999999999999689e-01,8.598179600000000000e+09
7.900000000000000000e+01,1.000000000000000000e+02,3.590000000000000000e+02,1.430000000000000000e+02,4.300000000000000000e+01,2.900000000000000000e+01,9.000000000000000000e+01,2.410000000000000000e+02,5.899999999999999689e-01,8.620780400000000000e+09
8.900000000000000000e+01,1.070000000000000000e+02,3.460000000000000000e+02,1.720000000000000000e+02,4.700000000000000000e+01,3.300000000000000000e+01,1.240000000000000000e+02,2.390000000000000000e+02,5.799999999999999600e-01,8.639634900000000000e+09
9.400000000000000000e+01,1.090000000000000000e+02,3.440000000000000000e+02,1.700000000000000000e+02,4.600000000000000000e+01,3.400000000000000000e+01,1.410000000000000000e+02,3.310000000000000000e+02,5.699999999999999512e-01,8.658115700000000000e+09
1.430000000000000000e+02,1.330000000000000000e+02,3.570000000000000000e+02,1.660000000000000000e+02,4.400000000000000000e+01,4.400000000000000000e+01,3.430000000000000000e+02,3.930000000000000000e+02,5.600000000000000533e-01,8.677816700000000000e+09
1.730000000000000000e+02,1.360000000000000000e+02,2.800000000000000000e+02,1.690000000000000000e+02,4.900000000000000000e+01,7.300000000000000000e+01,4.420000000000000000e+02,5.190000000000000000e+02,5.500000000000000444e-01,8.703260700000000000e+09
1.950000000000000000e+02,1.400000000000000000e+02,2.740000000000000000e+02,1.450000000000000000e+02,4.500000000000000000e+01,1.610000000000000000e+02,4.810000000000000000e+02,5.580000000000000000e+02,5.400000000000000355e-01,8.722218200000000000e+09
2.380000000000000000e+02,1.370000000000000000e+02,2.480000000000000000e+02,1.060000000000000000e+02,5.100000000000000000e+01,2.020000000000000000e+02,6.240000000000000000e+02,6.190000000000000000e+02,5.400000000000000355e-01,8.740308000000000000e+09
2.410000000000000000e+02,1.650000000000000000e+02,3.910000000000000000e+02,1.520000000000000000e+02,5.600000000000000000e+01,2.080000000000000000e+02,6.830000000000000000e+02,6.000000000000000000e+02,5.300000000000000266e-01,8.759410300000000000e+09
2.190000000000000000e+02,1.800000000000000000e+02,4.040000000000000000e+02,2.440000000000000000e+02,6.700000000000000000e+01,2.110000000000000000e+02,6.730000000000000000e+02,5.870000000000000000e+02,5.200000000000000178e-01,8.778550100000000000e+09
2.200000000000000000e+02,1.920000000000000000e+02,4.580000000000000000e+02,2.640000000000000000e+02,7.000000000000000000e+01,2.140000000000000000e+02,7.260000000000000000e+02,6.010000000000000000e+02,5.200000000000000178e-01,8.799181400000000000e+09
2.170000000000000000e+02,1.990000000000000000e+02,5.110000000000000000e+02,2.790000000000000000e+02,8.700000000000000000e+01,3.430000000000000000e+02,8.590000000000000000e+02,6.530000000000000000e+02,5.100000000000000089e-01,8.820813100000000000e+09
1.680000000000000000e+02,2.390000000000000000e+02,6.480000000000000000e+02,3.660000000000000000e+02,9.000000000000000000e+01,3.460000000000000000e+02,8.500000000000000000e+02,6.330000000000000000e+02,5.000000000000000000e-01,8.840204400000000000e+09
1.620000000000000000e+02,2.280000000000000000e+02,5.740000000000000000e+02,3.650000000000000000e+02,9.000000000000000000e+01,3.540000000000000000e+02,8.770000000000000000e+02,6.460000000000000000e+02,5.000000000000000000e-01,8.858367000000000000e+09
1.650000000000000000e+02,2.190000000000000000e+02,5.850000000000000000e+02,3.150000000000000000e+02,8.800000000000000000e+01,3.630000000000000000e+02,8.490000000000000000e+02,6.200000000000000000e+02,4.899999999999999911e-01,8.876508700000000000e+09
1.470000000000000000e+02,2.230000000000000000e+02,5.760000000000000000e+02,3.300000000000000000e+02,9.300000000000000000e+01,3.690000000000000000e+02,8.860000000000000000e+02,5.540000000000000000e+02,4.899999999999999911e-01,8.899110800000000000e+09
2.040000000000000000e+02,2.280000000000000000e+02,5.400000000000000000e+02,3.210000000000000000e+02,8.300000000000000000e+01,2.430000000000000000e+02,9.240000000000000000e+02,5.600000000000000000e+02,4.799999999999999822e-01,8.918695600000000000e+09
2.260000000000000000e+02,1.900000000000000000e+02,4.040000000000000000e+02,2.270000000000000000e+02,8.300000000000000000e+01,2.620000000000000000e+02,9.100000000000000000e+02,5.570000000000000000e+02,4.699999999999999734e-01,8.937924100000000000e+09
2.550000000000000000e+02,1.950000000000000000e+02,5.820000000000000000e+02,2.150000000000000000e+02,8.200000000000000000e+01,2.600000000000000000e+02,9.960000000000000000e+02,5.860000000000000000e+02,4.699999999999999734e-01,8.956195700000000000e+09
2.940000000000000000e+02,1.810000000000000000e+02,6.270000000000000000e+02,2.190000000000000000e+02,7.900000000000000000e+01,2.610000000000000000e+02,1.075000000000000000e+03,6.620000000000000000e+02,4.699999999999999734e-01,8.975982600000000000e+09
2.880000000000000000e+02,1.800000000000000000e+02,6.320000000000000000e+02,1.760000000000000000e+02,7.000000000000000000e+01,2.620000000000000000e+02,1.019000000000000000e+03,6.370000000000000000e+02,4.699999999999999734e-01,8.995870300000000000e+09
2.520000000000000000e+02,1.890000000000000000e+02,6.560000000000000000e+02,2.160000000000000000e+02,7.100000000000000000e+01,2.530000000000000000e+02,8.770000000000000000e+02,5.340000000000000000e+02,4.699999999999999734e-01,9.018600500000000000e+09
2.540000000000000000e+02,1.910000000000000000e+02,7.340000000000000000e+02,2.370000000000000000e+02,6.900000000000000000e+01,2.180000000000000000e+02,8.950000000000000000e+02,5.600000000000000000e+02,4.699999999999999734e-01,9.037631000000000000e+09
2.460000000000000000e+02,1.870000000000000000e+02,6.200000000000000000e+02,2.300000000000000000e+02,6.800000000000000000e+01,2.190000000000000000e+02,8.220000000000000000e+02,5.780000000000000000e+02,4.699999999999999734e-01,9.056936800000000000e+09
2.110000000000000000e+02,1.900000000000000000e+02,5.380000000000000000e+02,2.190000000000000000e+02,6.500000000000000000e+01,2.070000000000000000e+02,7.680000000000000000e+02,5.330000000000000000e+02,4.600000000000000200e-01,9.076118400000000000e+09
2.170000000000000000e+02,1.810000000000000000e+02,5.000000000000000000e+02,2.100000000000000000e+02,6.500000000000000000e+01,1.870000000000000000e+02,8.110000000000000000e+02,5.760000000000000000e+02,4.600000000000000200e-01,9.099969800000000000e+09
2.150000000000000000e+02,1.670000000000000000e+02,4.950000000000000000e+02,1.810000000000000000e+02,6.200000000000000000e+01,2.050000000000000000e+02,8.130000000000000000e+02,6.260000000000000000e+02,4.500000000000000111e-01,9.119187100000000000e+09
2.080000000000000000e+02,1.600000000000000000e+02,3.910000000000000000e+02,1.420000000000000000e+02,5.300000000000000000e+01,1.880000000000000000e+02,7.930000000000000000e+02,5.800000000000000000e+02,4.500000000000000111e-01,9.137836300000000000e+09
2.560000000000000000e+02,2.060000000000000000e+02,4.000000000000000000e+02,1.520000000000000000e+02,5.900000000000000000e+01,1.860000000000000000e+02,7.570000000000000000e+02,5.730000000000000000e+02,4.500000000000000111e-01,9.156146000000000000e+09
2.640000000000000000e+02,2.090000000000000000e+02,4.460000000000000000e+02,1.630000000000000000e+02,6.400000000000000000e+01,2.290000000000000000e+02,7.460000000000000000e+02,5.920000000000000000e+02,4.500000000000000111e-01,9.175813800000000000e+09
2.960000000000000000e+02,2.070000000000000000e+02,4.500000000000000000e+02,1.920000000000000000e+02,6.900000000000000000e+01,2.490000000000000000e+02,7.540000000000000000e+02,6.220000000000000000e+02,4.400000000000000022e-01,9.197955800000000000e+09
2.960000000000000000e+02,2.120000000000000000e+02,4.470000000000000000e+02,3.270000000000000000e+02,8.800000000000000000e+01,2.690000000000000000e+02,7.680000000000000000e+02,6.150000000000000000e+02,4.400000000000000022e-01,9.220491900000000000e+09
3.110000000000000000e+02,2.130000000000000000e+02,4.640000000000000000e+02,3.410000000000000000e+02,9.300000000000000000e+01,3.000000000000000000e+02,7.070000000000000000e+02,6.360000000000000000e+02,4.400000000000000022e-01,9.241088700000000000e+09
2.710000000000000000e+02,1.880000000000000000e+02,4.530000000000000000e+02,3.520000000000000000e+02,9.500000000000000000e+01,3.390000000000000000e+02,6.690000000000000000e+02,6.410000000000000000e+02,4.400000000000000022e-01,9.259231300000000000e+09
3.000000000000000000e+02,2.060000000000000000e+02,4.230000000000000000e+02,3.520000000000000000e+02,9.700000000000000000e+01,3.800000000000000000e+02,7.240000000000000000e+02,6.960000000000000000e+02,4.299999999999999933e-01,9.278212900000000000e+09
2.800000000000000000e+02,2.030000000000000000e+02,4.150000000000000000e+02,3.410000000000000000e+02,9.300000000000000000e+01,3.880000000000000000e+02,6.300000000000000000e+02,6.850000000000000000e+02,4.299999999999999933e-01,9.299233500000000000e+09
3.520000000000000000e+02,1.900000000000000000e+02,4.800000000000000000e+02,2.560000000000000000e+02,7.700000000000000000e+01,3.610000000000000000e+02,6.050000000000000000e+02,6.630000000000000000e+02,4.299999999999999933e-01,9.318855400000000000e+09
3.410000000000000000e+02,2.360000000000000000e+02,5.250000000000000000e+02,2.530000000000000000e+02,7.800000000000000000e+01,3.460000000000000000e+02,6.100000000000000000e+02,6.400000000000000000e+02,4.299999999999999933e-01,9.338161100000000000e+09
3.440000000000000000e+02,2.390000000000000000e+02,5.520000000000000000e+02,2.440000000000000000e+02,7.300000000000000000e+01,3.320000000000000000e+02,6.650000000000000000e+02,5.980000000000000000e+02,4.299999999999999933e-01,9.355924000000000000e+09
3.290000000000000000e+02,2.250000000000000000e+02,5.710000000000000000e+02,2.440000000000000000e+02,6.600000000000000000e+01,2.610000000000000000e+02,6.320000000000000000e+02,5.860000000000000000e+02,4.400000000000000022e-01,9.376039700000000000e+09
3.190000000000000000e+02,2.630000000000000000e+02,5.870000000000000000e+02,2.460000000000000000e+02,6.600000000000000000e+01,2.860000000000000000e+02,6.500000000000000000e+02,5.860000000000000000e+02,4.400000000000000022e-01,9.395755700000000000e+09
2.500000000000000000e+02,2.720000000000000000e+02,5.430000000000000000e+02,2.180000000000000000e+02,6.300000000000000000e+01,2.960000000000000000e+02,6.550000000000000000e+02,5.790000000000000000e+02,4.400000000000000022e-01,9.417402500000000000e+09
2.330000000000000000e+02,2.550000000000000000e+02,4.740000000000000000e+02,1.990000000000000000e+02,4.700000000000000000e+01,2.980000000000000000e+02,6.600000000000000000e+02,5.990000000000000000e+02,4.299999999999999933e-01,9.439706700000000000e+09
2.130000000000000000e+02,2.390000000000000000e+02,4.310000000000000000e+02,2.200000000000000000e+02,4.400000000000000000e+01,2.890000000000000000e+02,6.920000000000000000e+02,6.200000000000000000e+02,4.299999999999999933e-01,9.458373600000000000e+09
1.880000000000000000e+02,2.340000000000000000e+02,4.610000000000000000e+02,2.460000000000000000e+02,5.100000000000000000e+01,3.040000000000000000e+02,6.360000000000000000e+02,5.620000000000000000e+02,4.299999999999999933e-01,9.477260900000000000e+09
1.880000000000000000e+02,1.910000000000000000e+02,5.400000000000000000e+02,2.860000000000000000e+02,5.400000000000000000e+01,2.500000000000000000e+02,6.070000000000000000e+02,5.150000000000000000e+02,4.400000000000000022e-01,9.500246600000000000e+09
1.700000000000000000e+02,1.990000000000000000e+02,5.830000000000000000e+02,2.750000000000000000e+02,5.200000000000000000e+01,2.540000000000000000e+02,6.340000000000000000e+02,5.370000000000000000e+02,4.400000000000000022e-01,9.520079200000000000e+09
2.040000000000000000e+02,1.970000000000000000e+02,6.500000000000000000e+02,3.090000000000000000e+02,6.400000000000000000e+01,2.650000000000000000e+02,6.540000000000000000e+02,5.640000000000000000e+02,4.400000000000000022e-01,9.538795000000000000e+09
2.090000000000000000e+02,1.960000000000000000e+02,7.340000000000000000e+02,3.070000000000000000e+02,6.200000000000000000e+01,2.340000000000000000e+02,5.730000000000000000e+02,5.170000000000000000e+02,4.500000000000000111e-01,9.557930800000000000e+09
2.010000000000000000e+02,2.180000000000000000e+02,7.170000000000000000e+02,3.220000000000000000e+02,7.300000000000000000e+01,2.090000000000000000e+02,5.580000000000000000e+02,4.670000000000000000e+02,4.600000000000000200e-01,9.576077200000000000e+09
2.070000000000000000e+02,2.290000000000000000e+02,6.630000000000000000e+02,2.880000000000000000e+02,7.000000000000000000e+01,2.160000000000000000e+02,5.500000000000000000e+02,4.390000000000000000e+02,4.600000000000000200e-01,9.595798700000000000e+09
2.190000000000000000e+02,2.140000000000000000e+02,6.230000000000000000e+02,2.840000000000000000e+02,7.200000000000000000e+01,1.850000000000000000e+02,5.390000000000000000e+02,4.990000000000000000e+02,4.600000000000000200e-01,9.618179900000000000e+09
1.890000000000000000e+02,1.970000000000000000e+02,5.250000000000000000e+02,2.390000000000000000e+02,6.400000000000000000e+01,1.470000000000000000e+02,4.880000000000000000e+02,4.630000000000000000e+02,4.600000000000000200e-01,9.637318700000000000e+09
1.990000000000000000e+02,1.970000000000000000e+02,4.800000000000000000e+02,2.130000000000000000e+02,6.800000000000000000e+01,1.650000000000000000e+02,4.900000000000000000e+02,4.600000000000000000e+02,4.699999999999999734e-01,9.656667800000000000e+09
2.160000000000000000e+02,1.720000000000000000e+02,5.270000000000000000e+02,1.590000000000000000e+02,5.000000000000000000e+01,1.530000000000000000e+02,4.880000000000000000e+02,4.770000000000000000e+02,4.699999999999999734e-01,9.676225100000000000e+09
2.060000000000000000e+02,1.720000000000000000e+02,7.260000000000000000e+02,1.920000000000000000e+02,5.500000000000000000e+01,1.390000000000000000e+02,4.910000000000000000e+02,5.190000000000000000e+02,4.799999999999999822e-01,9.700240500000000000e+09
1.980000000000000000e+02,1.700000000000000000e+02,7.160000000000000000e+02,1.850000000000000000e+02,4.700000000000000000e+01,1.860000000000000000e+02,4.560000000000000000e+02,4.730000000000000000e+02,4.799999999999999822e-01,9.720166200000000000e+09
2.020000000000000000e+02,1.530000000000000000e+02,7.210000000000000000e+02,1.810000000000000000e+02,4.400000000000000000e+01,1.800000000000000000e+02,4.790000000000000000e+02,4.740000000000000000e+02,4.799999999999999822e-01,9.738917800000000000e+09
2.020000000000000000e+02,1.450000000000000000e+02,7.440000000000000000e+02,2.100000000000000000e+02,4.100000000000000000e+01,1.660000000000000000e+02,4.360000000000000000e+02,4.980000000000000000e+02,4.799999999999999822e-01,9.757641300000000000e+09
1.860000000000000000e+02,1.370000000000000000e+02,7.660000000000000000e+02,2.140000000000000000e+02,4.700000000000000000e+01,2.100000000000000000e+02,4.260000000000000000e+02,4.960000000000000000e+02,4.899999999999999911e-01,9.779964300000000000e+09
1.830000000000000000e+02,1.420000000000000000e+02,5.780000000000000000e+02,1.760000000000000000e+02,4.200000000000000000e+01,2.210000000000000000e+02,4.460000000000000000e+02,4.880000000000000000e+02,4.799999999999999822e-01,9.803984500000000000e+09
1.650000000000000000e+02,1.340000000000000000e+02,5.980000000000000000e+02,1.950000000000000000e+02,4.400000000000000000e+01,1.830000000000000000e+02,4.110000000000000000e+02,4.260000000000000000e+02,4.799999999999999822e-01,9.826136900000000000e+09
1.570000000000000000e+02,1.570000000000000000e+02,7.120000000000000000e+02,2.530000000000000000e+02,5.200000000000000000e+01,1.850000000000000000e+02,3.950000000000000000e+02,3.760000000000000000e+02,4.799999999999999822e-01,9.845062500000000000e+09
1.380000000000000000e+02,1.670000000000000000e+02,7.080000000000000000e+02,2.300000000000000000e+02,5.100000000000000000e+01,2.070000000000000000e+02,4.520000000000000000e+02,3.430000000000000000e+02,4.899999999999999911e-01,9.863550300000000000e+09
1.410000000000000000e+02,1.760000000000000000e+02,6.760000000000000000e+02,2.360000000000000000e+02,5.700000000000000000e+01,1.870000000000000000e+02,4.500000000000000000e+02,4.080000000000000000e+02,4.899999999999999911e-01,9.883121400000000000e+09
1.610000000000000000e+02,1.620000000000000000e+02,6.720000000000000000e+02,2.400000000000000000e+02,6.200000000000000000e+01,1.890000000000000000e+02,5.180000000000000000e+02,4.220000000000000000e+02,4.899999999999999911e-01,9.903784400000000000e+09
1.730000000000000000e+02,1.610000000000000000e+02,6.550000000000000000e+02,2.280000000000000000e+02,6.100000000000000000e+01,1.870000000000000000e+02,5.250000000000000000e+02,4.320000000000000000e+02,5.000000000000000000e-01,9.922466800000000000e+09
1.700000000000000000e+02,1.440000000000000000e+02,5.230000000000000000e+02,2.010000000000000000e+02,5.900000000000000000e+01,1.940000000000000000e+02,5.170000000000000000e+02,4.340000000000000000e+02,5.000000000000000000e-01,9.940758600000000000e+09
1.610000000000000000e+02,1.450000000000000000e+02,4.980000000000000000e+02,2.100000000000000000e+02,6.200000000000000000e+01,1.650000000000000000e+02,4.890000000000000000e+02,4.510000000000000000e+02,4.899999999999999911e-01,9.961136300000000000e+09
1.770000000000000000e+02,1.520000000000000000e+02,4.390000000000000000e+02,1.950000000000000000e+02,5.000000000000000000e+01,1.710000000000000000e+02,6.200000000000000000e+02,4.040000000000000000e+02,4.899999999999999911e-01,9.979666400000000000e+09
1.640000000000000000e+02,1.750000000000000000e+02,4.350000000000000000e+02,1.900000000000000000e+02,4.600000000000000000e+01,1.630000000000000000e+02,5.610000000000000000e+02,4.320000000000000000e+02,4.899999999999999911e-01,9.998796500000000000e+09
1.480000000000000000e+02,1.750000000000000000e+02,4.280000000000000000e+02,1.900000000000000000e+02,4.800000000000000000e+01,1.700000000000000000e+02,5.700000000000000000e+02,4.310000000000000000e+02,4.899999999999999911e-01,1.002085110000000000e+10
1.450000000000000000e+02,1.790000000000000000e+02,4.760000000000000000e+02,2.320000000000000000e+02,5.200000000000000000e+01,1.670000000000000000e+02,5.590000000000000000e+02,4.380000000000000000e+02,4.899999999999999911e-01,1.003894520000000000e+10
1.390000000000000000e+02,1.630000000000000000e+02,3.900000000000000000e+02,2.200000000000000000e+02,5.100000000000000000e+01,1.650000000000000000e+02,5.190000000000000000e+02,4.040000000000000000e+02,4.899999999999999911e-01,1.005786570000000000e+10
1.200000000000000000e+02,1.550000000000000000e+02,4.520000000000000000e+02,2.450000000000000000e+02,5.800000000000000000e+01,1.310000000000000000e+02,3.200000000000000000e+02,3.980000000000000000e+02,4.899999999999999911e-01,1.007658220000000000e+10
1.710000000000000000e+02,1.570000000000000000e+02,4.670000000000000000e+02,2.570000000000000000e+02,6.800000000000000000e+01,1.600000000000000000e+02,3.390000000000000000e+02,3.250000000000000000e+02,4.899999999999999911e-01,1.010268620000000000e+10
