9.400000000000000000e+01,2.650000000000000000e+02,5.520000000000000000e+02,1.690000000000000000e+02,6.300000000000000000e+01,1.000000000000000000e+02,4.860000000000000000e+02,1.890000000000000000e+02,3.900000000000000133e-01,4.625875000000000000e+08
9.500000000000000000e+01,2.120000000000000000e+02,5.660000000000000000e+02,1.730000000000000000e+02,6.400000000000000000e+01,9.800000000000000000e+01,4.620000000000000000e+02,1.870000000000000000e+02,4.000000000000000222e-01,4.904832000000000000e+08
8.900000000000000000e+01,2.000000000000000000e+02,5.470000000000000000e+02,1.780000000000000000e+02,6.700000000000000000e+01,9.900000000000000000e+01,4.670000000000000000e+02,1.840000000000000000e+02,4.099999999999999756e-01,8.108175000000000000e+08
7.300000000000000000e+01,1.800000000000000000e+02,5.520000000000000000e+02,1.630000000000000000e+02,5.600000000000000000e+01,9.000000000000000000e+01,4.390000000000000000e+02,1.680000000000000000e+02,4.199999999999999845e-01,8.301652000000000000e+08
7.900000000000000000e+01,2.610000000000000000e+02,6.040000000000000000e+02,1.570000000000000000e+02,5.700000000000000000e+01,1.080000000000000000e+02,4.910000000000000000e+02,2.030000000000000000e+02,4.199999999999999845e-01,8.490458000000000000e+08
8.100000000000000000e+01,2.780000000000000000e+02,6.690000000000000000e+02,1.450000000000000000e+02,4.900000000000000000e+01,9.700000000000000000e+01,5.210000000000000000e+02,2.000000000000000000e+02,4.299999999999999933e-01,8.680078000000000000e+08
9.300000000000000000e+01,3.020000000000000000e+02,7.160000000000000000e+02,1.750000000000000000e+02,5.400000000000000000e+01,1.050000000000000000e+02,5.900000000000000000e+02,2.430000000000000000e+02,4.299999999999999933e-01,8.869043000000000000e+08
9.000000000000000000e+01,3.010000000000000000e+02,7.620000000000000000e+02,1.750000000000000000e+02,5.300000000000000000e+01,9.600000000000000000e+01,5.890000000000000000e+02,2.390000000000000000e+02,4.299999999999999933e-01,9.053630000000000000e+08
9.600000000000000000e+01,3.160000000000000000e+02,8.020000000000000000e+02,1.770000000000000000e+02,5.200000000000000000e+01,9.700000000000000000e+01,5.960000000000000000e+02,2.360000000000000000e+02,4.299999999999999933e-01,9.242737000000000000e+08
9.400000000000000000e+01,2.910000000000000000e+02,8.110000000000000000e+02,1.810000000000000000e+02,5.200000000000000000e+01,7.900000000000000000e+01,5.370000000000000000e+02,2.160000000000000000e+02,4.400000000000000022e-01,9.425842000000000000e+08
9.500000000000000000e+01,2.640000000000000000e+02,8.070000000000000000e+02,1.680000000000000000e+02,5.400000000000000000e+01,8.400000000000000000e+01,5.140000000000000000e+02,2.230000000000000000e+02,4.400000000000000022e-01,9.604734000000000000e+08
9.100000000000000000e+01,2.680000000000000000e+02,8.320000000000000000e+02,1.620000000000000000e+02,5.200000000000000000e+01,7.500000000000000000e+01,5.070000000000000000e+02,1.590000000000000000e+02,4.400000000000000022e-01,9.786791000000000000e+08
9.000000000000000000e+01,2.630000000000000000e+02,8.510000000000000000e+02,1.540000000000000000e+02,5.000000000000000000e+01,7.400000000000000000e+01,4.600000000000000000e+02,1.530000000000000000e+02,4.299999999999999933e-01,9.971698000000000000e+08
8.400000000000000000e+01,2.620000000000000000e+02,8.290000000000000000e+02,1.570000000000000000e+02,4.800000000000000000e+01,7.200000000000000000e+01,4.560000000000000000e+02,1.390000000000000000e+02,4.199999999999999845e-01,1.014994700000000000e+09
8.300000000000000000e+01,2.420000000000000000e+02,7.850000000000000000e+02,1.710000000000000000e+02,5.500000000000000000e+01,6.300000000000000000e+01,4.540000000000000000e+02,1.240000000000000000e+02,4.199999999999999845e-01,1.033833500000000000e+09
9.700000000000000000e+01,2.550000000000000000e+02,7.080000000000000000e+02,1.750000000000000000e+02,5.800000000000000000e+01,7.000000000000000000e+01,4.480000000000000000e+02,2.220000000000000000e+02,4.099999999999999756e-01,1.054909900000000000e+09
8.800000000000000000e+01,2.260000000000000000e+02,6.170000000000000000e+02,1.510000000000000000e+02,5.600000000000000000e+01,8.400000000000000000e+01,4.060000000000000000e+02,2.420000000000000000e+02,4.099999999999999756e-01,1.073261600000000000e+09
8.900000000000000000e+01,2.260000000000000000e+02,5.340000000000000000e+02,1.510000000000000000e+02,5.600000000000000000e+01,8.900000000000000000e+01,4.170000000000000000e+02,2.550000000000000000e+02,4.099999999999999756e-01,1.091115300000000000e+09
9.200000000000000000e+01,2.220000000000000000e+02,5.780000000000000000e+02,1.660000000000000000e+02,6.400000000000000000e+01,9.100000000000000000e+01,4.290000000000000000e+02,2.590000000000000000e+02,4.099999999999999756e-01,1.110391500000000000e+09
9.100000000000000000e+01,2.610000000000000000e+02,6.120000000000000000e+02,1.780000000000000000e+02,6.800000000000000000e+01,9.600000000000000000e+01,4.360000000000000000e+02,2.540000000000000000e+02,4.099999999999999756e-01,1.129168400000000000e+09
6.500000000000000000e+01,2.730000000000000000e+02,6.320000000000000000e+02,1.620000000000000000e+02,6.300000000000000000e+01,1.070000000000000000e+02,5.200000000000000000e+02,1.840000000000000000e+02,4.099999999999999756e-01,1.147125400000000000e+09
7.200000000000000000e+01,2.750000000000000000e+02,6.790000000000000000e+02,1.740000000000000000e+02,6.100000000000000000e+01,1.010000000000000000e+02,5.160000000000000000e+02,2.630000000000000000e+02,4.099999999999999756e-01,1.165291000000000000e+09
9.000000000000000000e+01,2.940000000000000000e+02,7.620000000000000000e+02,2.110000000000000000e+02,7.400000000000000000e+01,1.190000000000000000e+02,5.210000000000000000e+02,2.810000000000000000e+02,4.099999999999999756e-01,1.183427700000000000e+09
9.200000000000000000e+01,3.190000000000000000e+02,7.560000000000000000e+02,2.070000000000000000e+02,7.100000000000000000e+01,1.230000000000000000e+02,5.520000000000000000e+02,2.900000000000000000e+02,4.099999999999999756e-01,1.201265600000000000e+09
9.000000000000000000e+01,2.940000000000000000e+02,8.340000000000000000e+02,1.830000000000000000e+02,6.400000000000000000e+01,1.910000000000000000e+02,7.090000000000000000e+02,3.380000000000000000e+02,4.000000000000000222e-01,1.220952700000000000e+09
1.130000000000000000e+02,2.960000000000000000e+02,9.060000000000000000e+02,1.920000000000000000e+02,6.700000000000000000e+01,2.000000000000000000e+02,6.780000000000000000e+02,3.910000000000000000e+02,4.000000000000000222e-01,1.239093900000000000e+09
1.240000000000000000e+02,3.440000000000000000e+02,9.690000000000000000e+02,2.120000000000000000e+02,7.400000000000000000e+01,2.090000000000000000e+02,7.400000000000000000e+02,3.420000000000000000e+02,4.000000000000000222e-01,1.256646200000000000e+09
1.200000000000000000e+02,3.520000000000000000e+02,9.680000000000000000e+02,1.830000000000000000e+02,6.300000000000000000e+01,2.030000000000000000e+02,7.400000000000000000e+02,3.300000000000000000e+02,4.000000000000000222e-01,1.274884900000000000e+09
1.280000000000000000e+02,3.460000000000000000e+02,1.055000000000000000e+03,1.890000000000000000e+02,7.600000000000000000e+01,2.270000000000000000e+02,7.910000000000000000e+02,3.590000000000000000e+02,4.000000000000000222e-01,1.293998000000000000e+09
1.280000000000000000e+02,3.300000000000000000e+02,1.036000000000000000e+03,1.890000000000000000e+02,7.900000000000000000e+01,2.020000000000000000e+02,8.230000000000000000e+02,3.850000000000000000e+02,3.900000000000000133e-01,1.312199700000000000e+09
1.190000000000000000e+02,3.300000000000000000e+02,9.710000000000000000e+02,1.860000000000000000e+02,7.900000000000000000e+01,2.070000000000000000e+02,9.310000000000000000e+02,4.210000000000000000e+02,4.000000000000000222e-01,1.331111000000000000e+09
1.110000000000000000e+02,2.780000000000000000e+02,9.560000000000000000e+02,1.630000000000000000e+02,7.400000000000000000e+01,2.130000000000000000e+02,9.250000000000000000e+02,4.280000000000000000e+02,4.000000000000000222e-01,1.350708100000000000e+09
1.080000000000000000e+02,2.500000000000000000e+02,9.640000000000000000e+02,1.760000000000000000e+02,7.400000000000000000e+01,2.110000000000000000e+02,9.280000000000000000e+02,4.280000000000000000e+02,4.000000000000000222e-01,1.368377400000000000e+09
9.800000000000000000e+01,2.730000000000000000e+02,9.580000000000000000e+02,1.680000000000000000e+02,6.500000000000000000e+01,1.920000000000000000e+02,8.920000000000000000e+02,4.120000000000000000e+02,4.000000000000000222e-01,1.386724600000000000e+09
1.090000000000000000e+02,3.070000000000000000e+02,9.270000000000000000e+02,1.750000000000000000e+02,6.600000000000000000e+01,1.740000000000000000e+02,8.460000000000000000e+02,4.020000000000000000e+02,4.000000000000000222e-01,1.405125500000000000e+09
1.010000000000000000e+02,2.840000000000000000e+02,9.010000000000000000e+02,1.720000000000000000e+02,6.400000000000000000e+01,1.510000000000000000e+02,7.310000000000000000e+02,3.090000000000000000e+02,4.000000000000000222e-01,1.424194800000000000e+09
9.800000000000000000e+01,2.940000000000000000e+02,8.700000000000000000e+02,1.750000000000000000e+02,6.500000000000000000e+01,1.340000000000000000e+02,7.560000000000000000e+02,3.240000000000000000e+02,4.000000000000000222e-01,1.442443100000000000e+09
9.800000000000000000e+01,3.120000000000000000e+02,8.720000000000000000e+02,1.660000000000000000e+02,6.800000000000000000e+01,1.310000000000000000e+02,7.280000000000000000e+02,3.090000000000000000e+02,4.000000000000000222e-01,1.460658400000000000e+09
9.700000000000000000e+01,2.830000000000000000e+02,8.060000000000000000e+02,1.860000000000000000e+02,6.500000000000000000e+01,1.160000000000000000e+02,6.970000000000000000e+02,2.940000000000000000e+02,4.000000000000000222e-01,1.478677000000000000e+09
8.900000000000000000e+01,2.440000000000000000e+02,7.640000000000000000e+02,1.760000000000000000e+02,5.700000000000000000e+01,1.020000000000000000e+02,6.290000000000000000e+02,2.280000000000000000e+02,4.000000000000000222e-01,1.496531800000000000e+09
8.800000000000000000e+01,2.490000000000000000e+02,7.780000000000000000e+02,1.810000000000000000e+02,5.600000000000000000e+01,9.900000000000000000e+01,6.710000000000000000e+02,2.190000000000000000e+02,4.000000000000000222e-01,1.514316000000000000e+09
9.500000000000000000e+01,2.820000000000000000e+02,7.000000000000000000e+02,1.670000000000000000e+02,5.500000000000000000e+01,9.300000000000000000e+01,6.080000000000000000e+02,1.760000000000000000e+02,4.000000000000000222e-01,1.531241300000000000e+09
9.600000000000000000e+01,3.050000000000000000e+02,6.960000000000000000e+02,1.760000000000000000e+02,5.300000000000000000e+01,8.700000000000000000e+01,6.050000000000000000e+02,1.790000000000000000e+02,4.099999999999999756e-01,1.548271600000000000e+09
9.800000000000000000e+01,3.100000000000000000e+02,6.690000000000000000e+02,1.620000000000000000e+02,5.700000000000000000e+01,9.400000000000000000e+01,6.130000000000000000e+02,2.150000000000000000e+02,4.000000000000000222e-01,1.564372200000000000e+09
9.500000000000000000e+01,3.530000000000000000e+02,6.570000000000000000e+02,1.670000000000000000e+02,6.100000000000000000e+01,1.220000000000000000e+02,6.540000000000000000e+02,2.600000000000000000e+02,4.000000000000000222e-01,1.581567700000000000e+09
9.800000000000000000e+01,3.520000000000000000e+02,6.490000000000000000e+02,1.700000000000000000e+02,6.000000000000000000e+01,1.250000000000000000e+02,5.910000000000000000e+02,2.800000000000000000e+02,4.000000000000000222e-01,1.599112000000000000e+09
8.800000000000000000e+01,3.130000000000000000e+02,7.630000000000000000e+02,1.690000000000000000e+02,5.800000000000000000e+01,1.270000000000000000e+02,5.430000000000000000e+02,3.000000000000000000e+02,4.000000000000000222e-01,1.616009800000000000e+09
8.700000000000000000e+01,2.910000000000000000e+02,7.310000000000000000e+02,1.750000000000000000e+02,6.400000000000000000e+01,1.360000000000000000e+02,5.630000000000000000e+02,3.100000000000000000e+02,4.000000000000000222e-01,1.632265600000000000e+09
1.050000000000000000e+02,2.900000000000000000e+02,7.010000000000000000e+02,1.880000000000000000e+02,7.300000000000000000e+01,1.490000000000000000e+02,5.930000000000000000e+02,3.110000000000000000e+02,4.000000000000000222e-01,1.648797200000000000e+09
1.080000000000000000e+02,2.450000000000000000e+02,6.990000000000000000e+02,1.940000000000000000e+02,7.500000000000000000e+01,1.320000000000000000e+02,5.030000000000000000e+02,3.060000000000000000e+02,4.000000000000000222e-01,1.665453400000000000e+09
1.080000000000000000e+02,2.400000000000000000e+02,8.300000000000000000e+02,1.880000000000000000e+02,7.400000000000000000e+01,1.310000000000000000e+02,5.140000000000000000e+02,3.240000000000000000e+02,4.000000000000000222e-01,1.682820200000000000e+09
1.090000000000000000e+02,2.470000000000000000e+02,7.710000000000000000e+02,1.990000000000000000e+02,7.900000000000000000e+01,1.240000000000000000e+02,5.110000000000000000e+02,3.040000000000000000e+02,4.000000000000000222e-01,1.699657200000000000e+09
1.080000000000000000e+02,2.590000000000000000e+02,8.590000000000000000e+02,1.870000000000000000e+02,7.600000000000000000e+01,1.210000000000000000e+02,5.320000000000000000e+02,3.190000000000000000e+02,4.000000000000000222e-01,1.717278500000000000e+09
8.600000000000000000e+01,2.650000000000000000e+02,8.500000000000000000e+02,1.570000000000000000e+02,6.200000000000000000e+01,1.170000000000000000e+02,4.750000000000000000e+02,2.990000000000000000e+02,3.900000000000000133e-01,1.734948900000000000e+09
8.600000000000000000e+01,2.760000000000000000e+02,8.530000000000000000e+02,1.410000000000000000e+02,5.700000000000000000e+01,1.060000000000000000e+02,4.450000000000000000e+02,2.800000000000000000e+02,3.900000000000000133e-01,1.751688400000000000e+09
8.600000000000000000e+01,2.720000000000000000e+02,7.490000000000000000e+02,1.310000000000000000e+02,5.500000000000000000e+01,9.800000000000000000e+01,4.020000000000000000e+02,2.290000000000000000e+02,3.800000000000000044e-01,1.769249300000000000e+09
9.100000000000000000e+01,3.230000000000000000e+02,7.540000000000000000e+02,1.170000000000000000e+02,5.000000000000000000e+01,9.800000000000000000e+01,4.600000000000000000e+02,2.330000000000000000e+02,3.800000000000000044e-01,1.786293900000000000e+09
8.800000000000000000e+01,3.090000000000000000e+02,6.330000000000000000e+02,1.070000000000000000e+02,4.800000000000000000e+01,9.300000000000000000e+01,4.100000000000000000e+02,2.260000000000000000e+02,3.800000000000000044e-01,1.803825300000000000e+09
9.200000000000000000e+01,2.890000000000000000e+02,6.920000000000000000e+02,1.200000000000000000e+02,4.800000000000000000e+01,6.200000000000000000e+01,3.940000000000000000e+02,2.190000000000000000e+02,3.800000000000000044e-01,1.820559000000000000e+09
8.800000000000000000e+01,2.690000000000000000e+02,7.080000000000000000e+02,1.200000000000000000e+02,4.500000000000000000e+01,6.400000000000000000e+01,3.860000000000000000e+02,2.230000000000000000e+02,3.800000000000000044e-01,1.838683300000000000e+09
7.900000000000000000e+01,2.700000000000000000e+02,7.030000000000000000e+02,1.190000000000000000e+02,4.500000000000000000e+01,6.700000000000000000e+01,3.750000000000000000e+02,2.280000000000000000e+02,3.800000000000000044e-01,1.856217400000000000e+09
7.200000000000000000e+01,2.430000000000000000e+02,6.640000000000000000e+02,1.130000000000000000e+02,4.500000000000000000e+01,6.700000000000000000e+01,3.160000000000000000e+02,2.120000000000000000e+02,3.800000000000000044e-01,1.872788700000000000e+09
6.700000000000000000e+01,2.240000000000000000e+02,6.240000000000000000e+02,1.010000000000000000e+02,3.600000000000000000e+01,6.200000000000000000e+01,2.960000000000000000e+02,1.970000000000000000e+02,3.900000000000000133e-01,1.889739500000000000e+09
6.400000000000000000e+01,2.150000000000000000e+02,5.600000000000000000e+02,8.400000000000000000e+01,3.400000000000000000e+01,9.400000000000000000e+01,3.690000000000000000e+02,2.200000000000000000e+02,3.900000000000000133e-01,1.907292300000000000e+09
7.100000000000000000e+01,2.460000000000000000e+02,5.790000000000000000e+02,1.030000000000000000e+02,3.800000000000000000e+01,9.400000000000000000e+01,3.710000000000000000e+02,1.960000000000000000e+02,4.000000000000000222e-01,1.924539800000000000e+09
7.100000000000000000e+01,2.390000000000000000e+02,5.840000000000000000e+02,1.200000000000000000e+02,3.800000000000000000e+01,9.300000000000000000e+01,3.870000000000000000e+02,2.140000000000000000e+02,4.099999999999999756e-01,1.942884500000000000e+09
7.400000000000000000e+01,2.150000000000000000e+02,5.920000000000000000e+02,1.380000000000000000e+02,4.300000000000000000e+01,9.200000000000000000e+01,3.930000000000000000e+02,2.280000000000000000e+02,4.199999999999999845e-01,1.960483500000000000e+09
7.500000000000000000e+01,2.120000000000000000e+02,6.220000000000000000e+02,1.370000000000000000e+02,4.400000000000000000e+01,1.010000000000000000e+02,4.590000000000000000e+02,2.460000000000000000e+02,4.199999999999999845e-01,1.977685100000000000e+09
7.400000000000000000e+01,2.170000000000000000e+02,5.900000000000000000e+02,1.380000000000000000e+02,4.600000000000000000e+01,7.500000000000000000e+01,4.040000000000000000e+02,2.260000000000000000e+02,4.299999999999999933e-01,1.994288400000000000e+09
6.700000000000000000e+01,2.490000000000000000e+02,6.210000000000000000e+02,1.630000000000000000e+02,4.900000000000000000e+01,7.300000000000000000e+01,4.260000000000000000e+02,2.230000000000000000e+02,4.299999999999999933e-01,2.010895700000000000e+09
7.600000000000000000e+01,2.650000000000000000e+02,6.400000000000000000e+02,1.550000000000000000e+02,5.000000000000000000e+01,7.400000000000000000e+01,4.140000000000000000e+02,2.350000000000000000e+02,4.299999999999999933e-01,2.027454600000000000e+09
6.900000000000000000e+01,2.470000000000000000e+02,6.680000000000000000e+02,1.430000000000000000e+02,4.600000000000000000e+01,8.200000000000000000e+01,4.350000000000000000e+02,2.390000000000000000e+02,4.400000000000000022e-01,2.045391100000000000e+09
6.700000000000000000e+01,2.610000000000000000e+02,6.330000000000000000e+02,1.470000000000000000e+02,4.700000000000000000e+01,7.400000000000000000e+01,3.650000000000000000e+02,2.170000000000000000e+02,4.400000000000000022e-01,2.062942700000000000e+09
6.500000000000000000e+01,2.540000000000000000e+02,6.300000000000000000e+02,1.560000000000000000e+02,4.600000000000000000e+01,7.200000000000000000e+01,3.550000000000000000e+02,2.120000000000000000e+02,4.400000000000000022e-01,2.080515000000000000e+09
7.200000000000000000e+01,2.390000000000000000e+02,7.160000000000000000e+02,1.370000000000000000e+02,4.500000000000000000e+01,6.900000000000000000e+01,3.080000000000000000e+02,2.220000000000000000e+02,4.400000000000000022e-01,2.098575100000000000e+09
6.700000000000000000e+01,2.250000000000000000e+02,6.910000000000000000e+02,1.390000000000000000e+02,4.500000000000000000e+01,7.800000000000000000e+01,3.680000000000000000e+02,1.880000000000000000e+02,4.500000000000000111e-01,2.115102600000000000e+09
6.700000000000000000e+01,2.230000000000000000e+02,7.240000000000000000e+02,1.420000000000000000e+02,4.400000000000000000e+01,6.800000000000000000e+01,2.950000000000000000e+02,1.970000000000000000e+02,4.400000000000000022e-01,2.132115700000000000e+09
6.800000000000000000e+01,2.020000000000000000e+02,7.910000000000000000e+02,1.410000000000000000e+02,4.400000000000000000e+01,6.400000000000000000e+01,3.100000000000000000e+02,2.060000000000000000e+02,4.400000000000000022e-01,2.149783700000000000e+09
6.800000000000000000e+01,2.070000000000000000e+02,7.990000000000000000e+02,1.340000000000000000e+02,4.500000000000000000e+01,6.600000000000000000e+01,3.310000000000000000e+02,2.050000000000000000e+02,4.400000000000000022e-01,2.166323900000000000e+09
5.700000000000000000e+01,1.490000000000000000e+02,6.570000000000000000e+02,1.130000000000000000e+02,4.300000000000000000e+01,6.300000000000000000e+01,3.290000000000000000e+02,1.880000000000000000e+02,4.400000000000000022e-01,2.182608900000000000e+09
6.000000000000000000e+01,1.390000000000000000e+02,6.540000000000000000e+02,1.110000000000000000e+02,4.300000000000000000e+01,4.800000000000000000e+01,2.350000000000000000e+02,2.160000000000000000e+02,4.400000000000000022e-01,2.198987900000000000e+09
6.900000000000000000e+01,1.590000000000000000e+02,6.640000000000000000e+02,1.050000000000000000e+02,4.200000000000000000e+01,5.200000000000000000e+01,2.450000000000000000e+02,2.220000000000000000e+02,4.400000000000000022e-01,2.216382500000000000e+09
6.800000000000000000e+01,2.350000000000000000e+02,5.960000000000000000e+02,1.020000000000000000e+02,4.000000000000000000e+01,5.200000000000000000e+01,2.340000000000000000e+02,2.020000000000000000e+02,4.400000000000000022e-01,2.233516500000000000e+09
7.200000000000000000e+01,2.510000000000000000e+02,6.270000000000000000e+02,9.900000000000000000e+01,3.900000000000000000e+01,4.900000000000000000e+01,1.980000000000000000e+02,2.210000000000000000e+02,4.500000000000000111e-01,2.249897000000000000e+09
7.300000000000000000e+01,2.840000000000000000e+02,7.220000000000000000e+02,1.110000000000000000e+02,3.900000000000000000e+01,5.000000000000000000e+01,1.810000000000000000e+02,2.220000000000000000e+02,4.500000000000000111e-01,2.266025600000000000e+09
6.900000000000000000e+01,2.850000000000000000e+02,7.030000000000000000e+02,1.060000000000000000e+02,4.000000000000000000e+01,5.200000000000000000e+01,2.240000000000000000e+02,2.140000000000000000e+02,4.400000000000000022e-01,2.282480200000000000e+09
6.200000000000000000e+01,2.740000000000000000e+02,6.210000000000000000e+02,1.010000000000000000e+02,3.700000000000000000e+01,4.700000000000000000e+01,2.420000000000000000e+02,1.780000000000000000e+02,4.500000000000000111e-01,2.299356300000000000e+09
6.700000000000000000e+01,2.300000000000000000e+02,6.740000000000000000e+02,1.020000000000000000e+02,4.000000000000000000e+01,4.800000000000000000e+01,2.210000000000000000e+02,1.810000000000000000e+02,4.500000000000000111e-01,2.316465600000000000e+09
6.600000000000000000e+01,2.200000000000000000e+02,6.530000000000000000e+02,9.700000000000000000e+01,3.900000000000000000e+01,4.900000000000000000e+01,2.330000000000000000e+02,1.620000000000000000e+02,4.600000000000000200e-01,2.333348500000000000e+09
6.800000000000000000e+01,1.980000000000000000e+02,5.740000000000000000e+02,8.900000000000000000e+01,3.800000000000000000e+01,4.400000000000000000e+01,2.420000000000000000e+02,1.620000000000000000e+02,4.600000000000000200e-01,2.349683100000000000e+09
7.100000000000000000e+01,2.210000000000000000e+02,5.880000000000000000e+02,1.000000000000000000e+02,3.700000000000000000e+01,3.900000000000000000e+01,2.030000000000000000e+02,1.320000000000000000e+02,4.699999999999999734e-01,2.366284600000000000e+09
7.800000000000000000e+01,2.220000000000000000e+02,5.850000000000000000e+02,1.030000000000000000e+02,4.100000000000000000e+01,4.200000000000000000e+01,1.940000000000000000e+02,1.970000000000000000e+02,4.799999999999999822e-01,2.383025800000000000e+09
7.500000000000000000e+01,2.070000000000000000e+02,5.690000000000000000e+02,1.110000000000000000e+02,3.900000000000000000e+01,4.200000000000000000e+01,1.960000000000000000e+02,1.930000000000000000e+02,4.799999999999999822e-01,2.400289000000000000e+09
7.100000000000000000e+01,2.330000000000000000e+02,6.150000000000000000e+02,1.120000000000000000e+02,3.800000000000000000e+01,3.800000000000000000e+01,1.730000000000000000e+02,1.910000000000000000e+02,4.899999999999999911e-01,2.416538000000000000e+09
7.400000000000000000e+01,2.340000000000000000e+02,5.850000000000000000e+02,1.080000000000000000e+02,3.800000000000000000e+01,3.900000000000000000e+01,1.580000000000000000e+02,1.910000000000000000e+02,4.899999999999999911e-01,2.432928800000000000e+09
7.700000000000000000e+01,2.320000000000000000e+02,5.930000000000000000e+02,1.080000000000000000e+02,4.000000000000000000e+01,4.400000000000000000e+01,2.110000000000000000e+02,2.340000000000000000e+02,5.000000000000000000e-01,2.449495000000000000e+09
7.300000000000000000e+01,2.270000000000000000e+02,5.810000000000000000e+02,1.080000000000000000e+02,3.700000000000000000e+01,3.900000000000000000e+01,1.860000000000000000e+02,2.150000000000000000e+02,5.000000000000000000e-01,2.466265500000000000e+09
7.200000000000000000e+01,2.570000000000000000e+02,5.970000000000000000e+02,9.700000000000000000e+01,3.600000000000000000e+01,3.900000000000000000e+01,1.970000000000000000e+02,2.230000000000000000e+02,5.100000000000000089e-01,2.483556100000000000e+09
7.200000000000000000e+01,2.320000000000000000e+02,5.540000000000000000e+02,1.020000000000000000e+02,4.000000000000000000e+01,4.600000000000000000e+01,2.480000000000000000e+02,2.280000000000000000e+02,5.000000000000000000e-01,2.500300300000000000e+09
6.700000000000000000e+01,2.350000000000000000e+02,6.240000000000000000e+02,9.400000000000000000e+01,3.700000000000000000e+01,4.400000000000000000e+01,2.640000000000000000e+02,2.420000000000000000e+02,5.000000000000000000e-01,2.518037900000000000e+09
6.200000000000000000e+01,2.220000000000000000e+02,6.480000000000000000e+02,9.600000000000000000e+01,3.700000000000000000e+01,4.600000000000000000e+01,2.310000000000000000e+02,2.180000000000000000e+02,5.000000000000000000e-01,2.535004500000000000e+09
5.900000000000000000e+01,2.370000000000000000e+02,6.300000000000000000e+02,8.800000000000000000e+01,3.700000000000000000e+01,4.600000000000000000e+01,2.310000000000000000e+02,1.840000000000000000e+02,5.000000000000000000e-01,2.551968300000000000e+09
5.800000000000000000e+01,2.710000000000000000e+02,6.450000000000000000e+02,1.050000000000000000e+02,4.000000000000000000e+01,4.600000000000000000e+01,2.190000000000000000e+02,1.730000000000000000e+02,5.000000000000000000e-01,2.568977200000000000e+09
6.800000000000000000e+01,2.750000000000000000e+02,6.640000000000000000e+02,1.080000000000000000e+02,3.800000000000000000e+01,4.200000000000000000e+01,1.690000000000000000e+02,1.850000000000000000e+02,5.100000000000000089e-01,2.586534400000000000e+09
6.400000000000000000e+01,2.500000000000000000e+02,6.050000000000000000e+02,1.040000000000000000e+02,3.600000000000000000e+01,4.200000000000000000e+01,1.470000000000000000e+02,1.650000000000000000e+02,5.100000000000000089e-01,2.602604400000000000e+09
7.100000000000000000e+01,2.580000000000000000e+02,6.200000000000000000e+02,1.120000000000000000e+02,4.100000000000000000e+01,3.900000000000000000e+01,1.340000000000000000e+02,1.320000000000000000e+02,5.100000000000000089e-01,2.620978500000000000e+09
6.900000000000000000e+01,2.470000000000000000e+02,6.790000000000000000e+02,1.240000000000000000e+02,4.200000000000000000e+01,3.800000000000000000e+01,1.320000000000000000e+02,1.250000000000000000e+02,5.100000000000000089e-01,2.638373700000000000e+09
6.700000000000000000e+01,1.680000000000000000e+02,6.180000000000000000e+02,1.150000000000000000e+02,4.000000000000000000e+01,3.900000000000000000e+01,1.560000000000000000e+02,1.250000000000000000e+02,5.100000000000000089e-01,2.655334700000000000e+09
5.800000000000000000e+01,1.520000000000000000e+02,6.000000000000000000e+02,1.210000000000000000e+02,4.300000000000000000e+01,3.900000000000000000e+01,1.510000000000000000e+02,8.300000000000000000e+01,5.200000000000000178e-01,2.672798600000000000e+09
5.900000000000000000e+01,1.520000000000000000e+02,6.310000000000000000e+02,1.300000000000000000e+02,4.500000000000000000e+01,4.500000000000000000e+01,1.640000000000000000e+02,7.000000000000000000e+01,5.200000000000000178e-01,2.690163400000000000e+09
4.600000000000000000e+01,1.570000000000000000e+02,5.710000000000000000e+02,1.210000000000000000e+02,4.100000000000000000e+01,4.100000000000000000e+01,1.550000000000000000e+02,6.500000000000000000e+01,5.200000000000000178e-01,2.707178200000000000e+09
5.000000000000000000e+01,1.590000000000000000e+02,5.100000000000000000e+02,1.150000000000000000e+02,4.100000000000000000e+01,4.100000000000000000e+01,1.780000000000000000e+02,1.350000000000000000e+02,5.300000000000000266e-01,2.725681300000000000e+09
5.500000000000000000e+01,1.550000000000000000e+02,4.930000000000000000e+02,1.090000000000000000e+02,4.100000000000000000e+01,4.300000000000000000e+01,1.850000000000000000e+02,1.450000000000000000e+02,5.400000000000000355e-01,2.743479500000000000e+09
5.500000000000000000e+01,1.510000000000000000e+02,4.610000000000000000e+02,9.000000000000000000e+01,3.600000000000000000e+01,4.100000000000000000e+01,1.820000000000000000e+02,1.490000000000000000e+02,5.400000000000000355e-01,2.762482500000000000e+09
5.900000000000000000e+01,1.610000000000000000e+02,4.370000000000000000e+02,8.300000000000000000e+01,3.600000000000000000e+01,3.600000000000000000e+01,1.670000000000000000e+02,1.500000000000000000e+02,5.400000000000000355e-01,2.779467800000000000e+09
6.000000000000000000e+01,1.450000000000000000e+02,4.720000000000000000e+02,8.500000000000000000e+01,3.400000000000000000e+01,3.700000000000000000e+01,1.910000000000000000e+02,1.540000000000000000e+02,5.500000000000000444e-01,2.797442300000000000e+09
5.600000000000000000e+01,1.360000000000000000e+02,4.790000000000000000e+02,7.700000000000000000e+01,3.400000000000000000e+01,3.800000000000000000e+01,1.670000000000000000e+02,1.410000000000000000e+02,5.500000000000000444e-01,2.815650700000000000e+09
6.500000000000000000e+01,1.620000000000000000e+02,4.750000000000000000e+02,8.500000000000000000e+01,3.700000000000000000e+01,3.000000000000000000e+01,1.330000000000000000e+02,1.790000000000000000e+02,5.500000000000000444e-01,2.834153000000000000e+09
7.300000000000000000e+01,1.840000000000000000e+02,5.210000000000000000e+02,9.300000000000000000e+01,3.900000000000000000e+01,3.300000000000000000e+01,1.300000000000000000e+02,1.870000000000000000e+02,5.500000000000000444e-01,2.852045000000000000e+09
7.600000000000000000e+01,2.570000000000000000e+02,4.940000000000000000e+02,9.500000000000000000e+01,4.300000000000000000e+01,4.100000000000000000e+01,2.000000000000000000e+02,1.920000000000000000e+02,5.500000000000000444e-01,2.869089000000000000e+09
7.500000000000000000e+01,2.460000000000000000e+02,4.620000000000000000e+02,8.300000000000000000e+01,4.300000000000000000e+01,4.100000000000000000e+01,1.760000000000000000e+02,2.030000000000000000e+02,5.500000000000000444e-01,2.887364900000000000e+09
8.500000000000000000e+01,2.510000000000000000e+02,4.650000000000000000e+02,1.010000000000000000e+02,4.600000000000000000e+01,4.100000000000000000e+01,1.770000000000000000e+02,1.960000000000000000e+02,5.500000000000000444e-01,2.905033200000000000e+09
8.200000000000000000e+01,2.450000000000000000e+02,4.470000000000000000e+02,1.020000000000000000e+02,4.300000000000000000e+01,4.300000000000000000e+01,1.810000000000000000e+02,2.000000000000000000e+02,5.500000000000000444e-01,2.923664700000000000e+09
8.200000000000000000e+01,2.340000000000000000e+02,4.820000000000000000e+02,9.700000000000000000e+01,4.200000000000000000e+01,4.100000000000000000e+01,1.970000000000000000e+02,2.190000000000000000e+02,5.500000000000000444e-01,2.942751700000000000e+09
7.900000000000000000e+01,1.580000000000000000e+02,4.910000000000000000e+02,1.120000000000000000e+02,4.100000000000000000e+01,3.800000000000000000e+01,1.480000000000000000e+02,2.640000000000000000e+02,5.400000000000000355e-01,2.960810500000000000e+09
7.700000000000000000e+01,1.670000000000000000e+02,5.070000000000000000e+02,1.180000000000000000e+02,4.000000000000000000e+01,4.000000000000000000e+01,1.460000000000000000e+02,2.740000000000000000e+02,5.400000000000000355e-01,2.978591800000000000e+09
6.800000000000000000e+01,1.600000000000000000e+02,4.900000000000000000e+02,1.010000000000000000e+02,3.600000000000000000e+01,3.900000000000000000e+01,1.770000000000000000e+02,2.680000000000000000e+02,5.300000000000000266e-01,2.996701700000000000e+09
6.300000000000000000e+01,1.490000000000000000e+02,5.660000000000000000e+02,1.080000000000000000e+02,3.500000000000000000e+01,3.900000000000000000e+01,1.740000000000000000e+02,2.360000000000000000e+02,5.300000000000000266e-01,3.017431600000000000e+09
5.700000000000000000e+01,1.440000000000000000e+02,5.290000000000000000e+02,1.140000000000000000e+02,3.700000000000000000e+01,3.900000000000000000e+01,2.140000000000000000e+02,2.150000000000000000e+02,5.200000000000000178e-01,3.039638200000000000e+09
5.800000000000000000e+01,1.360000000000000000e+02,5.520000000000000000e+02,1.190000000000000000e+02,3.900000000000000000e+01,3.900000000000000000e+01,2.380000000000000000e+02,1.680000000000000000e+02,5.200000000000000178e-01,3.057044200000000000e+09
6.100000000000000000e+01,1.500000000000000000e+02,6.090000000000000000e+02,1.150000000000000000e+02,3.800000000000000000e+01,3.700000000000000000e+01,2.500000000000000000e+02,1.640000000000000000e+02,5.200000000000000178e-01,3.076440000000000000e+09
6.000000000000000000e+01,1.500000000000000000e+02,6.210000000000000000e+02,1.200000000000000000e+02,3.900000000000000000e+01,4.000000000000000000e+01,2.450000000000000000e+02,1.690000000000000000e+02,5.200000000000000178e-01,3.095261500000000000e+09
5.900000000000000000e+01,1.500000000000000000e+02,5.690000000000000000e+02,1.090000000000000000e+02,3.900000000000000000e+01,4.600000000000000000e+01,2.540000000000000000e+02,1.660000000000000000e+02,5.200000000000000178e-01,3.117350600000000000e+09
5.400000000000000000e+01,1.570000000000000000e+02,5.570000000000000000e+02,1.090000000000000000e+02,3.800000000000000000e+01,4.700000000000000000e+01,2.060000000000000000e+02,1.580000000000000000e+02,5.200000000000000178e-01,3.139617800000000000e+09
5.300000000000000000e+01,1.610000000000000000e+02,5.970000000000000000e+02,9.300000000000000000e+01,3.600000000000000000e+01,4.500000000000000000e+01,1.650000000000000000e+02,1.370000000000000000e+02,5.200000000000000178e-01,3.157831800000000000e+09
5.000000000000000000e+01,1.450000000000000000e+02,5.700000000000000000e+02,1.150000000000000000e+02,3.900000000000000000e+01,4.600000000000000000e+01,1.710000000000000000e+02,1.300000000000000000e+02,5.200000000000000178e-01,3.175625000000000000e+09
5.500000000000000000e+01,1.740000000000000000e+02,6.310000000000000000e+02,1.140000000000000000e+02,3.800000000000000000e+01,4.400000000000000000e+01,1.420000000000000000e+02,1.150000000000000000e+02,5.300000000000000266e-01,3.195094200000000000e+09
5.400000000000000000e+01,1.730000000000000000e+02,6.760000000000000000e+02,1.170000000000000000e+02,3.900000000000000000e+01,3.600000000000000000e+01,1.460000000000000000e+02,1.250000000000000000e+02,5.300000000000000266e-01,3.217267900000000000e+09
6.000000000000000000e+01,2.010000000000000000e+02,6.670000000000000000e+02,1.190000000000000000e+02,3.800000000000000000e+01,3.400000000000000000e+01,1.500000000000000000e+02,1.630000000000000000e+02,5.300000000000000266e-01,3.239519500000000000e+09
5.700000000000000000e+01,1.980000000000000000e+02,6.170000000000000000e+02,1.170000000000000000e+02,3.700000000000000000e+01,3.000000000000000000e+01,1.470000000000000000e+02,1.610000000000000000e+02,5.400000000000000355e-01,3.257710900000000000e+09
6.000000000000000000e+01,2.160000000000000000e+02,5.820000000000000000e+02,9.600000000000000000e+01,3.500000000000000000e+01,3.000000000000000000e+01,1.470000000000000000e+02,1.520000000000000000e+02,5.400000000000000355e-01,3.276113300000000000e+09
5.400000000000000000e+01,2.010000000000000000e+02,5.730000000000000000e+02,1.010000000000000000e+02,3.400000000000000000e+01,2.800000000000000000e+01,1.480000000000000000e+02,1.500000000000000000e+02,5.400000000000000355e-01,3.295009800000000000e+09
5.200000000000000000e+01,2.040000000000000000e+02,5.100000000000000000e+02,1.020000000000000000e+02,3.400000000000000000e+01,3.000000000000000000e+01,1.430000000000000000e+02,1.650000000000000000e+02,5.400000000000000355e-01,3.317265500000000000e+09
5.000000000000000000e+01,1.730000000000000000e+02,5.430000000000000000e+02,9.700000000000000000e+01,3.500000000000000000e+01,3.100000000000000000e+01,1.670000000000000000e+02,1.530000000000000000e+02,5.500000000000000444e-01,3.339659200000000000e+09
5.100000000000000000e+01,1.700000000000000000e+02,5.410000000000000000e+02,9.700000000000000000e+01,3.400000000000000000e+01,3.300000000000000000e+01,1.960000000000000000e+02,1.550000000000000000e+02,5.500000000000000444e-01,3.357267800000000000e+09
5.300000000000000000e+01,1.710000000000000000e+02,5.340000000000000000e+02,1.040000000000000000e+02,3.500000000000000000e+01,3.100000000000000000e+01,1.720000000000000000e+02,1.410000000000000000e+02,5.500000000000000444e-01,3.375745100000000000e+09
5.600000000000000000e+01,1.580000000000000000e+02,5.330000000000000000e+02,1.110000000000000000e+02,3.700000000000000000e+01,3.100000000000000000e+01,1.860000000000000000e+02,1.590000000000000000e+02,5.500000000000000444e-01,3.396585300000000000e+09
6.400000000000000000e+01,1.680000000000000000e+02,5.530000000000000000e+02,1.110000000000000000e+02,3.700000000000000000e+01,3.000000000000000000e+01,1.710000000000000000e+02,1.570000000000000000e+02,5.500000000000000444e-01,3.419390900000000000e+09
6.400000000000000000e+01,1.720000000000000000e+02,6.180000000000000000e+02,1.220000000000000000e+02,3.800000000000000000e+01,2.900000000000000000e+01,1.680000000000000000e+02,1.380000000000000000e+02,5.500000000000000444e-01,3.437005200000000000e+09
7.300000000000000000e+01,1.720000000000000000e+02,6.110000000000000000e+02,1.210000000000000000e+02,4.000000000000000000e+01,3.400000000000000000e+01,1.570000000000000000e+02,1.900000000000000000e+02,5.600000000000000533e-01,3.455161500000000000e+09
7.100000000000000000e+01,2.030000000000000000e+02,6.390000000000000000e+02,1.230000000000000000e+02,4.300000000000000000e+01,3.500000000000000000e+01,1.630000000000000000e+02,1.930000000000000000e+02,5.600000000000000533e-01,3.476724500000000000e+09
7.400000000000000000e+01,2.120000000000000000e+02,6.220000000000000000e+02,1.140000000000000000e+02,4.400000000000000000e+01,3.600000000000000000e+01,1.510000000000000000e+02,1.780000000000000000e+02,5.600000000000000533e-01,3.499348100000000000e+09
6.800000000000000000e+01,2.110000000000000000e+02,6.520000000000000000e+02,1.140000000000000000e+02,4.600000000000000000e+01,3.700000000000000000e+01,1.860000000000000000e+02,1.600000000000000000e+02,5.600000000000000533e-01,3.517042800000000000e+09
6.400000000000000000e+01,2.040000000000000000e+02,5.930000000000000000e+02,1.110000000000000000e+02,4.400000000000000000e+01,4.000000000000000000e+01,1.660000000000000000e+02,1.670000000000000000e+02,5.600000000000000533e-01,3.535142600000000000e+09
5.700000000000000000e+01,2.090000000000000000e+02,6.030000000000000000e+02,1.060000000000000000e+02,4.200000000000000000e+01,3.600000000000000000e+01,1.430000000000000000e+02,1.620000000000000000e+02,5.600000000000000533e-01,3.555577400000000000e+09
5.500000000000000000e+01,1.570000000000000000e+02,6.050000000000000000e+02,9.600000000000000000e+01,3.800000000000000000e+01,5.000000000000000000e+01,2.240000000000000000e+02,1.740000000000000000e+02,5.600000000000000533e-01,3.577798700000000000e+09
5.700000000000000000e+01,1.700000000000000000e+02,6.410000000000000000e+02,9.600000000000000000e+01,3.700000000000000000e+01,5.000000000000000000e+01,2.220000000000000000e+02,1.750000000000000000e+02,5.500000000000000444e-01,3.600136500000000000e+09
5.600000000000000000e+01,1.630000000000000000e+02,6.090000000000000000e+02,1.080000000000000000e+02,4.200000000000000000e+01,5.100000000000000000e+01,2.070000000000000000e+02,1.810000000000000000e+02,5.500000000000000444e-01,3.618982200000000000e+09
6.200000000000000000e+01,1.570000000000000000e+02,6.020000000000000000e+02,1.040000000000000000e+02,4.300000000000000000e+01,4.900000000000000000e+01,2.100000000000000000e+02,2.060000000000000000e+02,5.500000000000000444e-01,3.637081200000000000e+09
5.800000000000000000e+01,1.540000000000000000e+02,5.930000000000000000e+02,9.900000000000000000e+01,4.200000000000000000e+01,4.800000000000000000e+01,2.300000000000000000e+02,1.690000000000000000e+02,5.500000000000000444e-01,3.655564000000000000e+09
5.800000000000000000e+01,1.540000000000000000e+02,5.750000000000000000e+02,1.000000000000000000e+02,4.200000000000000000e+01,3.500000000000000000e+01,1.640000000000000000e+02,1.690000000000000000e+02,5.500000000000000444e-01,3.677692100000000000e+09
5.500000000000000000e+01,1.310000000000000000e+02,5.120000000000000000e+02,1.170000000000000000e+02,4.700000000000000000e+01,4.100000000000000000e+01,1.930000000000000000e+02,1.760000000000000000e+02,5.500000000000000444e-01,3.699977900000000000e+09
5.700000000000000000e+01,1.630000000000000000e+02,5.400000000000000000e+02,1.060000000000000000e+02,4.300000000000000000e+01,3.800000000000000000e+01,1.960000000000000000e+02,1.730000000000000000e+02,5.500000000000000444e-01,3.717751000000000000e+09
5.200000000000000000e+01,1.760000000000000000e+02,5.700000000000000000e+02,9.800000000000000000e+01,4.300000000000000000e+01,3.600000000000000000e+01,1.900000000000000000e+02,1.500000000000000000e+02,5.500000000000000444e-01,3.735995700000000000e+09
5.500000000000000000e+01,1.790000000000000000e+02,5.990000000000000000e+02,1.100000000000000000e+02,4.400000000000000000e+01,4.000000000000000000e+01,2.120000000000000000e+02,1.500000000000000000e+02,5.500000000000000444e-01,3.756170000000000000e+09
5.300000000000000000e+01,1.760000000000000000e+02,6.110000000000000000e+02,1.110000000000000000e+02,4.300000000000000000e+01,3.900000000000000000e+01,2.060000000000000000e+02,1.400000000000000000e+02,5.500000000000000444e-01,3.794167400000000000e+09
6.200000000000000000e+01,2.110000000000000000e+02,6.260000000000000000e+02,9.800000000000000000e+01,3.900000000000000000e+01,3.200000000000000000e+01,1.800000000000000000e+02,1.340000000000000000e+02,5.500000000000000444e-01,3.811725300000000000e+09
6.700000000000000000e+01,2.200000000000000000e+02,7.180000000000000000e+02,1.090000000000000000e+02,4.100000000000000000e+01,3.900000000000000000e+01,1.810000000000000000e+02,1.310000000000000000e+02,5.400000000000000355e-01,3.829298600000000000e+09
8.200000000000000000e+01,2.190000000000000000e+02,7.050000000000000000e+02,1.100000000000000000e+02,4.000000000000000000e+01,3.900000000000000000e+01,1.950000000000000000e+02,1.790000000000000000e+02,5.400000000000000355e-01,3.847171900000000000e+09
8.500000000000000000e+01,2.070000000000000000e+02,7.040000000000000000e+02,1.190000000000000000e+02,4.000000000000000000e+01,3.600000000000000000e+01,1.610000000000000000e+02,1.920000000000000000e+02,5.400000000000000355e-01,3.865391100000000000e+09
8.600000000000000000e+01,2.160000000000000000e+02,7.140000000000000000e+02,1.230000000000000000e+02,4.300000000000000000e+01,3.700000000000000000e+01,1.890000000000000000e+02,1.900000000000000000e+02,5.400000000000000355e-01,3.883346900000000000e+09
8.100000000000000000e+01,1.880000000000000000e+02,7.050000000000000000e+02,1.220000000000000000e+02,4.400000000000000000e+01,3.900000000000000000e+01,1.910000000000000000e+02,1.890000000000000000e+02,5.400000000000000355e-01,3.901437700000000000e+09
7.500000000000000000e+01,1.670000000000000000e+02,6.290000000000000000e+02,1.100000000000000000e+02,3.900000000000000000e+01,3.100000000000000000e+01,1.780000000000000000e+02,1.890000000000000000e+02,5.400000000000000355e-01,3.920664500000000000e+09
5.800000000000000000e+01,1.640000000000000000e+02,6.100000000000000000e+02,1.090000000000000000e+02,3.700000000000000000e+01,3.200000000000000000e+01,1.920000000000000000e+02,1.380000000000000000e+02,5.400000000000000355e-01,3.939695600000000000e+09
5.800000000000000000e+01,1.730000000000000000e+02,6.560000000000000000e+02,1.020000000000000000e+02,4.000000000000000000e+01,3.900000000000000000e+01,2.310000000000000000e+02,1.290000000000000000e+02,5.400000000000000355e-01,3.961412900000000000e+09
6.000000000000000000e+01,1.700000000000000000e+02,6.140000000000000000e+02,9.300000000000000000e+01,3.700000000000000000e+01,4.000000000000000000e+01,2.320000000000000000e+02,1.210000000000000000e+02,5.400000000000000355e-01,3.979352400000000000e+09
5.400000000000000000e+01,1.870000000000000000e+02,7.470000000000000000e+02,8.200000000000000000e+01,3.300000000000000000e+01,4.000000000000000000e+01,2.440000000000000000e+02,1.200000000000000000e+02,5.300000000000000266e-01,3.997396100000000000e+09
5.700000000000000000e+01,1.830000000000000000e+02,7.520000000000000000e+02,9.100000000000000000e+01,3.900000000000000000e+01,4.400000000000000000e+01,2.680000000000000000e+02,1.180000000000000000e+02,5.300000000000000266e-01,4.016987900000000000e+09
5.700000000000000000e+01,1.820000000000000000e+02,7.740000000000000000e+02,9.100000000000000000e+01,3.900000000000000000e+01,4.500000000000000000e+01,2.530000000000000000e+02,1.150000000000000000e+02,5.200000000000000178e-01,4.039231700000000000e+09
5.400000000000000000e+01,1.710000000000000000e+02,6.950000000000000000e+02,7.700000000000000000e+01,3.300000000000000000e+01,4.200000000000000000e+01,2.070000000000000000e+02,1.360000000000000000e+02,5.200000000000000178e-01,4.061470900000000000e+09
5.000000000000000000e+01,1.660000000000000000e+02,7.120000000000000000e+02,8.400000000000000000e+01,3.400000000000000000e+01,4.100000000000000000e+01,2.020000000000000000e+02,1.370000000000000000e+02,5.200000000000000178e-01,4.079220500000000000e+09
5.200000000000000000e+01,1.410000000000000000e+02,5.630000000000000000e+02,8.800000000000000000e+01,3.400000000000000000e+01,4.100000000000000000e+01,1.910000000000000000e+02,1.370000000000000000e+02,5.200000000000000178e-01,4.098141200000000000e+09
7.000000000000000000e+01,1.530000000000000000e+02,5.410000000000000000e+02,1.000000000000000000e+02,3.800000000000000000e+01,4.200000000000000000e+01,1.740000000000000000e+02,1.370000000000000000e+02,5.200000000000000178e-01,4.117361400000000000e+09
6.900000000000000000e+01,1.490000000000000000e+02,4.760000000000000000e+02,1.020000000000000000e+02,3.800000000000000000e+01,4.500000000000000000e+01,1.880000000000000000e+02,1.230000000000000000e+02,5.200000000000000178e-01,4.139228500000000000e+09
6.500000000000000000e+01,1.640000000000000000e+02,4.910000000000000000e+02,1.070000000000000000e+02,4.000000000000000000e+01,4.400000000000000000e+01,2.080000000000000000e+02,1.000000000000000000e+02,5.200000000000000178e-01,4.161313700000000000e+09
6.700000000000000000e+01,1.620000000000000000e+02,4.930000000000000000e+02,1.180000000000000000e+02,4.100000000000000000e+01,4.500000000000000000e+01,1.890000000000000000e+02,1.770000000000000000e+02,5.200000000000000178e-01,4.179570700000000000e+09
6.800000000000000000e+01,1.800000000000000000e+02,4.670000000000000000e+02,1.230000000000000000e+02,4.200000000000000000e+01,4.500000000000000000e+01,1.970000000000000000e+02,1.800000000000000000e+02,5.300000000000000266e-01,4.197737900000000000e+09
5.100000000000000000e+01,1.860000000000000000e+02,4.360000000000000000e+02,1.120000000000000000e+02,3.600000000000000000e+01,4.100000000000000000e+01,1.780000000000000000e+02,1.840000000000000000e+02,5.300000000000000266e-01,4.216942200000000000e+09
5.500000000000000000e+01,2.080000000000000000e+02,4.930000000000000000e+02,1.130000000000000000e+02,3.700000000000000000e+01,3.600000000000000000e+01,1.550000000000000000e+02,1.860000000000000000e+02,5.300000000000000266e-01,4.239150600000000000e+09
6.100000000000000000e+01,2.020000000000000000e+02,5.130000000000000000e+02,1.130000000000000000e+02,3.700000000000000000e+01,3.600000000000000000e+01,1.580000000000000000e+02,1.750000000000000000e+02,5.400000000000000355e-01,4.261552100000000000e+09
6.000000000000000000e+01,2.050000000000000000e+02,4.990000000000000000e+02,1.030000000000000000e+02,3.800000000000000000e+01,3.000000000000000000e+01,1.530000000000000000e+02,1.620000000000000000e+02,5.400000000000000355e-01,4.279406500000000000e+09
5.900000000000000000e+01,2.020000000000000000e+02,5.650000000000000000e+02,1.000000000000000000e+02,3.900000000000000000e+01,3.800000000000000000e+01,1.820000000000000000e+02,1.680000000000000000e+02,5.500000000000000444e-01,4.297349800000000000e+09
5.800000000000000000e+01,1.780000000000000000e+02,5.420000000000000000e+02,1.040000000000000000e+02,3.900000000000000000e+01,3.900000000000000000e+01,1.880000000000000000e+02,1.680000000000000000e+02,5.500000000000000444e-01,4.318602500000000000e+09
5.700000000000000000e+01,1.720000000000000000e+02,4.870000000000000000e+02,1.060000000000000000e+02,3.900000000000000000e+01,4.100000000000000000e+01,1.890000000000000000e+02,1.700000000000000000e+02,5.600000000000000533e-01,4.341325900000000000e+09
6.000000000000000000e+01,1.790000000000000000e+02,4.710000000000000000e+02,1.010000000000000000e+02,3.700000000000000000e+01,4.300000000000000000e+01,1.630000000000000000e+02,1.780000000000000000e+02,5.600000000000000533e-01,4.359207400000000000e+09
6.000000000000000000e+01,1.950000000000000000e+02,4.390000000000000000e+02,9.700000000000000000e+01,3.500000000000000000e+01,4.400000000000000000e+01,1.710000000000000000e+02,1.240000000000000000e+02,5.600000000000000533e-01,4.377462200000000000e+09
6.200000000000000000e+01,1.860000000000000000e+02,3.800000000000000000e+02,9.000000000000000000e+01,3.300000000000000000e+01,3.700000000000000000e+01,1.530000000000000000e+02,1.190000000000000000e+02,5.600000000000000533e-01,4.398521000000000000e+09
6.200000000000000000e+01,1.830000000000000000e+02,4.670000000000000000e+02,9.700000000000000000e+01,3.400000000000000000e+01,3.600000000000000000e+01,1.510000000000000000e+02,1.160000000000000000e+02,5.600000000000000533e-01,4.421274100000000000e+09
5.800000000000000000e+01,1.690000000000000000e+02,5.790000000000000000e+02,9.200000000000000000e+01,3.200000000000000000e+01,3.500000000000000000e+01,1.560000000000000000e+02,1.090000000000000000e+02,5.699999999999999512e-01,4.439456000000000000e+09
5.200000000000000000e+01,1.650000000000000000e+02,5.730000000000000000e+02,8.700000000000000000e+01,3.200000000000000000e+01,2.700000000000000000e+01,1.590000000000000000e+02,1.220000000000000000e+02,5.699999999999999512e-01,4.457300500000000000e+09
5.900000000000000000e+01,1.510000000000000000e+02,6.460000000000000000e+02,9.000000000000000000e+01,3.200000000000000000e+01,2.700000000000000000e+01,1.620000000000000000e+02,1.330000000000000000e+02,5.699999999999999512e-01,4.477362400000000000e+09
5.700000000000000000e+01,1.440000000000000000e+02,6.430000000000000000e+02,9.400000000000000000e+01,3.100000000000000000e+01,2.500000000000000000e+01,1.350000000000000000e+02,1.290000000000000000e+02,5.699999999999999512e-01,4.499670200000000000e+09
5.400000000000000000e+01,1.490000000000000000e+02,5.930000000000000000e+02,7.700000000000000000e+01,2.600000000000000000e+01,2.400000000000000000e+01,1.440000000000000000e+02,1.360000000000000000e+02,5.699999999999999512e-01,4.517787400000000000e+09
6.300000000000000000e+01,1.550000000000000000e+02,5.220000000000000000e+02,8.600000000000000000e+01,2.600000000000000000e+01,2.100000000000000000e+01,1.580000000000000000e+02,1.370000000000000000e+02,5.699999999999999512e-01,4.536410100000000000e+09
7.300000000000000000e+01,1.500000000000000000e+02,5.390000000000000000e+02,8.500000000000000000e+01,2.700000000000000000e+01,2.800000000000000000e+01,1.660000000000000000e+02,1.570000000000000000e+02,5.699999999999999512e-01,4.555054800000000000e+09
7.100000000000000000e+01,1.520000000000000000e+02,5.310000000000000000e+02,8.200000000000000000e+01,2.600000000000000000e+01,2.700000000000000000e+01,1.500000000000000000e+02,1.480000000000000000e+02,5.699999999999999512e-01,4.577344200000000000e+09
7.000000000000000000e+01,1.730000000000000000e+02,5.400000000000000000e+02,8.200000000000000000e+01,2.700000000000000000e+01,2.900000000000000000e+01,1.480000000000000000e+02,1.430000000000000000e+02,5.699999999999999512e-01,4.599665400000000000e+09
7.200000000000000000e+01,2.000000000000000000e+02,5.720000000000000000e+02,8.600000000000000000e+01,2.800000000000000000e+01,3.000000000000000000e+01,1.450000000000000000e+02,1.340000000000000000e+02,5.699999999999999512e-01,4.617789300000000000e+09
6.800000000000000000e+01,1.910000000000000000e+02,5.550000000000000000e+02,9.100000000000000000e+01,3.000000000000000000e+01,3.400000000000000000e+01,1.700000000000000000e+02,1.370000000000000000e+02,5.699999999999999512e-01,4.636384800000000000e+09
5.400000000000000000e+01,1.830000000000000000e+02,5.330000000000000000e+02,9.700000000000000000e+01,2.800000000000000000e+01,3.000000000000000000e+01,1.570000000000000000e+02,1.000000000000000000e+02,5.699999999999999512e-01,4.655491900000000000e+09
4.800000000000000000e+01,1.900000000000000000e+02,4.920000000000000000e+02,1.020000000000000000e+02,2.800000000000000000e+01,3.700000000000000000e+01,1.990000000000000000e+02,9.000000000000000000e+01,5.699999999999999512e-01,4.677320700000000000e+09
5.100000000000000000e+01,1.850000000000000000e+02,4.860000000000000000e+02,1.000000000000000000e+02,2.800000000000000000e+01,3.800000000000000000e+01,2.090000000000000000e+02,1.530000000000000000e+02,5.699999999999999512e-01,4.699456100000000000e+09
5.200000000000000000e+01,1.530000000000000000e+02,4.560000000000000000e+02,9.700000000000000000e+01,2.900000000000000000e+01,3.900000000000000000e+01,2.050000000000000000e+02,1.560000000000000000e+02,5.699999999999999512e-01,4.717369900000000000e+09
4.700000000000000000e+01,1.500000000000000000e+02,4.650000000000000000e+02,9.300000000000000000e+01,3.000000000000000000e+01,3.600000000000000000e+01,1.790000000000000000e+02,1.520000000000000000e+02,5.699999999999999512e-01,4.735969200000000000e+09
4.600000000000000000e+01,1.520000000000000000e+02,4.870000000000000000e+02,9.000000000000000000e+01,3.100000000000000000e+01,3.800000000000000000e+01,2.350000000000000000e+02,1.430000000000000000e+02,5.699999999999999512e-01,4.755120300000000000e+09
5.000000000000000000e+01,1.250000000000000000e+02,4.610000000000000000e+02,8.900000000000000000e+01,3.300000000000000000e+01,3.900000000000000000e+01,2.080000000000000000e+02,1.480000000000000000e+02,5.699999999999999512e-01,4.777218500000000000e+09
6.000000000000000000e+01,1.400000000000000000e+02,4.670000000000000000e+02,9.900000000000000000e+01,3.600000000000000000e+01,4.100000000000000000e+01,2.600000000000000000e+02,1.200000000000000000e+02,5.699999999999999512e-01,4.799483800000000000e+09
7.800000000000000000e+01,1.800000000000000000e+02,4.750000000000000000e+02,1.110000000000000000e+02,4.500000000000000000e+01,4.500000000000000000e+01,2.730000000000000000e+02,1.290000000000000000e+02,5.699999999999999512e-01,4.821880200000000000e+09
8.300000000000000000e+01,1.880000000000000000e+02,4.630000000000000000e+02,1.180000000000000000e+02,5.000000000000000000e+01,4.800000000000000000e+01,2.790000000000000000e+02,1.600000000000000000e+02,5.699999999999999512e-01,4.841091700000000000e+09
9.200000000000000000e+01,2.010000000000000000e+02,4.870000000000000000e+02,1.250000000000000000e+02,5.200000000000000000e+01,4.700000000000000000e+01,2.380000000000000000e+02,1.630000000000000000e+02,5.699999999999999512e-01,4.859547000000000000e+09
8.900000000000000000e+01,1.990000000000000000e+02,5.530000000000000000e+02,1.300000000000000000e+02,5.200000000000000000e+01,4.300000000000000000e+01,2.720000000000000000e+02,1.580000000000000000e+02,5.699999999999999512e-01,4.877900700000000000e+09
8.500000000000000000e+01,1.740000000000000000e+02,5.790000000000000000e+02,1.250000000000000000e+02,5.600000000000000000e+01,4.400000000000000000e+01,2.290000000000000000e+02,1.330000000000000000e+02,5.699999999999999512e-01,4.903541200000000000e+09
7.700000000000000000e+01,1.780000000000000000e+02,5.700000000000000000e+02,1.240000000000000000e+02,5.200000000000000000e+01,4.000000000000000000e+01,2.130000000000000000e+02,1.940000000000000000e+02,5.699999999999999512e-01,4.922533100000000000e+09
7.800000000000000000e+01,2.210000000000000000e+02,5.950000000000000000e+02,1.410000000000000000e+02,5.600000000000000000e+01,4.000000000000000000e+01,2.250000000000000000e+02,1.750000000000000000e+02,5.699999999999999512e-01,4.940388200000000000e+09
7.100000000000000000e+01,2.150000000000000000e+02,5.700000000000000000e+02,1.410000000000000000e+02,5.600000000000000000e+01,4.000000000000000000e+01,2.280000000000000000e+02,1.750000000000000000e+02,5.699999999999999512e-01,4.958470200000000000e+09
7.700000000000000000e+01,2.240000000000000000e+02,6.110000000000000000e+02,1.520000000000000000e+02,5.700000000000000000e+01,3.700000000000000000e+01,1.810000000000000000e+02,1.780000000000000000e+02,5.699999999999999512e-01,4.977421300000000000e+09
7.400000000000000000e+01,2.260000000000000000e+02,5.850000000000000000e+02,1.530000000000000000e+02,5.100000000000000000e+01,3.600000000000000000e+01,2.380000000000000000e+02,1.790000000000000000e+02,5.699999999999999512e-01,4.996831200000000000e+09
7.500000000000000000e+01,2.010000000000000000e+02,5.910000000000000000e+02,1.460000000000000000e+02,5.000000000000000000e+01,3.800000000000000000e+01,2.440000000000000000e+02,1.190000000000000000e+02,5.699999999999999512e-01,5.019076400000000000e+09
6.900000000000000000e+01,1.570000000000000000e+02,6.000000000000000000e+02,1.180000000000000000e+02,4.000000000000000000e+01,3.800000000000000000e+01,2.510000000000000000e+02,1.400000000000000000e+02,5.699999999999999512e-01,5.041248900000000000e+09
7.100000000000000000e+01,1.540000000000000000e+02,6.310000000000000000e+02,1.100000000000000000e+02,4.200000000000000000e+01,4.300000000000000000e+01,2.830000000000000000e+02,1.560000000000000000e+02,5.600000000000000533e-01,5.060322500000000000e+09
6.800000000000000000e+01,1.470000000000000000e+02,5.260000000000000000e+02,8.900000000000000000e+01,4.100000000000000000e+01,4.500000000000000000e+01,2.980000000000000000e+02,1.580000000000000000e+02,5.600000000000000533e-01,5.079142900000000000e+09
7.000000000000000000e+01,1.610000000000000000e+02,5.140000000000000000e+02,8.700000000000000000e+01,4.200000000000000000e+01,4.200000000000000000e+01,2.520000000000000000e+02,1.550000000000000000e+02,5.600000000000000533e-01,5.098482000000000000e+09
6.000000000000000000e+01,1.650000000000000000e+02,4.980000000000000000e+02,8.700000000000000000e+01,4.000000000000000000e+01,4.200000000000000000e+01,2.640000000000000000e+02,1.360000000000000000e+02,5.600000000000000533e-01,5.119065400000000000e+09
7.500000000000000000e+01,1.950000000000000000e+02,5.180000000000000000e+02,1.340000000000000000e+02,5.100000000000000000e+01,4.300000000000000000e+01,2.370000000000000000e+02,1.150000000000000000e+02,5.600000000000000533e-01,5.141332200000000000e+09
7.700000000000000000e+01,1.980000000000000000e+02,5.340000000000000000e+02,1.560000000000000000e+02,5.400000000000000000e+01,4.100000000000000000e+01,2.140000000000000000e+02,1.410000000000000000e+02,5.600000000000000533e-01,5.159650400000000000e+09
7.900000000000000000e+01,2.000000000000000000e+02,5.920000000000000000e+02,1.620000000000000000e+02,5.300000000000000000e+01,4.000000000000000000e+01,2.090000000000000000e+02,1.800000000000000000e+02,5.699999999999999512e-01,5.178504000000000000e+09
7.700000000000000000e+01,1.890000000000000000e+02,6.020000000000000000e+02,1.610000000000000000e+02,5.300000000000000000e+01,4.100000000000000000e+01,2.060000000000000000e+02,1.890000000000000000e+02,5.699999999999999512e-01,5.204006100000000000e+09
7.400000000000000000e+01,1.700000000000000000e+02,6.290000000000000000e+02,1.630000000000000000e+02,5.100000000000000000e+01,3.900000000000000000e+01,1.920000000000000000e+02,1.900000000000000000e+02,5.699999999999999512e-01,5.222762700000000000e+09
5.900000000000000000e+01,1.300000000000000000e+02,6.260000000000000000e+02,1.280000000000000000e+02,4.300000000000000000e+01,3.800000000000000000e+01,1.990000000000000000e+02,1.880000000000000000e+02,5.699999999999999512e-01,5.241130200000000000e+09
5.800000000000000000e+01,1.250000000000000000e+02,5.730000000000000000e+02,1.000000000000000000e+02,3.700000000000000000e+01,3.700000000000000000e+01,1.810000000000000000e+02,2.250000000000000000e+02,5.600000000000000533e-01,5.259032900000000000e+09
5.700000000000000000e+01,1.440000000000000000e+02,5.420000000000000000e+02,1.040000000000000000e+02,4.200000000000000000e+01,3.900000000000000000e+01,1.740000000000000000e+02,1.930000000000000000e+02,5.600000000000000533e-01,5.277388800000000000e+09
5.700000000000000000e+01,1.490000000000000000e+02,6.010000000000000000e+02,1.200000000000000000e+02,4.500000000000000000e+01,4.000000000000000000e+01,1.780000000000000000e+02,1.890000000000000000e+02,5.600000000000000533e-01,5.297191500000000000e+09
6.000000000000000000e+01,1.630000000000000000e+02,6.480000000000000000e+02,1.250000000000000000e+02,4.800000000000000000e+01,4.200000000000000000e+01,1.730000000000000000e+02,1.930000000000000000e+02,5.600000000000000533e-01,5.319574200000000000e+09
5.900000000000000000e+01,1.660000000000000000e+02,6.830000000000000000e+02,1.260000000000000000e+02,4.400000000000000000e+01,4.000000000000000000e+01,1.560000000000000000e+02,2.030000000000000000e+02,5.600000000000000533e-01,5.337791000000000000e+09
5.400000000000000000e+01,1.640000000000000000e+02,6.920000000000000000e+02,1.240000000000000000e+02,4.100000000000000000e+01,3.700000000000000000e+01,1.750000000000000000e+02,1.560000000000000000e+02,5.500000000000000444e-01,5.356132000000000000e+09
5.000000000000000000e+01,1.430000000000000000e+02,6.810000000000000000e+02,1.070000000000000000e+02,3.700000000000000000e+01,3.500000000000000000e+01,1.720000000000000000e+02,1.560000000000000000e+02,5.500000000000000444e-01,5.376487200000000000e+09
5.400000000000000000e+01,1.540000000000000000e+02,6.950000000000000000e+02,9.800000000000000000e+01,3.900000000000000000e+01,3.700000000000000000e+01,1.620000000000000000e+02,1.600000000000000000e+02,5.500000000000000444e-01,5.398511300000000000e+09
5.100000000000000000e+01,1.570000000000000000e+02,6.650000000000000000e+02,9.100000000000000000e+01,3.500000000000000000e+01,3.600000000000000000e+01,1.590000000000000000e+02,1.540000000000000000e+02,5.400000000000000355e-01,5.421019500000000000e+09
5.500000000000000000e+01,1.760000000000000000e+02,6.450000000000000000e+02,1.170000000000000000e+02,4.500000000000000000e+01,3.600000000000000000e+01,1.560000000000000000e+02,1.330000000000000000e+02,5.400000000000000355e-01,5.442816000000000000e+09
5.700000000000000000e+01,1.740000000000000000e+02,6.720000000000000000e+02,1.290000000000000000e+02,4.600000000000000000e+01,3.500000000000000000e+01,1.510000000000000000e+02,1.470000000000000000e+02,5.300000000000000266e-01,5.461097800000000000e+09
5.600000000000000000e+01,1.770000000000000000e+02,7.330000000000000000e+02,1.460000000000000000e+02,4.800000000000000000e+01,3.900000000000000000e+01,1.480000000000000000e+02,1.600000000000000000e+02,5.300000000000000266e-01,5.479212500000000000e+09
5.200000000000000000e+01,1.650000000000000000e+02,6.840000000000000000e+02,1.360000000000000000e+02,4.400000000000000000e+01,3.400000000000000000e+01,1.430000000000000000e+02,1.570000000000000000e+02,5.300000000000000266e-01,5.498575600000000000e+09
5.300000000000000000e+01,1.580000000000000000e+02,6.570000000000000000e+02,1.340000000000000000e+02,4.500000000000000000e+01,3.500000000000000000e+01,1.560000000000000000e+02,1.580000000000000000e+02,5.200000000000000178e-01,5.520882300000000000e+09
5.600000000000000000e+01,1.620000000000000000e+02,6.090000000000000000e+02,1.370000000000000000e+02,4.200000000000000000e+01,3.400000000000000000e+01,1.660000000000000000e+02,1.770000000000000000e+02,5.200000000000000178e-01,5.539374400000000000e+09
5.700000000000000000e+01,1.690000000000000000e+02,5.870000000000000000e+02,1.280000000000000000e+02,4.000000000000000000e+01,3.300000000000000000e+01,1.450000000000000000e+02,1.500000000000000000e+02,5.300000000000000266e-01,5.557388900000000000e+09
6.400000000000000000e+01,1.720000000000000000e+02,5.160000000000000000e+02,1.120000000000000000e+02,3.800000000000000000e+01,2.800000000000000000e+01,1.430000000000000000e+02,1.470000000000000000e+02,5.300000000000000266e-01,5.576526300000000000e+09
6.900000000000000000e+01,1.860000000000000000e+02,5.510000000000000000e+02,1.170000000000000000e+02,3.800000000000000000e+01,3.100000000000000000e+01,1.770000000000000000e+02,1.450000000000000000e+02,5.300000000000000266e-01,5.598619900000000000e+09
6.800000000000000000e+01,1.780000000000000000e+02,5.500000000000000000e+02,1.160000000000000000e+02,3.600000000000000000e+01,2.900000000000000000e+01,1.660000000000000000e+02,1.470000000000000000e+02,5.300000000000000266e-01,5.620736500000000000e+09
6.500000000000000000e+01,1.550000000000000000e+02,6.170000000000000000e+02,8.800000000000000000e+01,2.800000000000000000e+01,3.100000000000000000e+01,1.570000000000000000e+02,1.240000000000000000e+02,5.400000000000000355e-01,5.637958500000000000e+09
6.200000000000000000e+01,1.730000000000000000e+02,6.780000000000000000e+02,1.030000000000000000e+02,3.300000000000000000e+01,3.400000000000000000e+01,1.730000000000000000e+02,1.080000000000000000e+02,5.400000000000000355e-01,5.655918900000000000e+09
5.600000000000000000e+01,1.770000000000000000e+02,6.760000000000000000e+02,1.130000000000000000e+02,3.200000000000000000e+01,3.800000000000000000e+01,1.800000000000000000e+02,9.400000000000000000e+01,5.400000000000000355e-01,5.676460500000000000e+09
6.100000000000000000e+01,1.790000000000000000e+02,6.630000000000000000e+02,1.190000000000000000e+02,3.500000000000000000e+01,4.600000000000000000e+01,1.600000000000000000e+02,9.400000000000000000e+01,5.400000000000000355e-01,5.698475500000000000e+09
6.400000000000000000e+01,2.270000000000000000e+02,6.570000000000000000e+02,1.250000000000000000e+02,3.600000000000000000e+01,4.600000000000000000e+01,1.960000000000000000e+02,9.000000000000000000e+01,5.400000000000000355e-01,5.720814900000000000e+09
6.400000000000000000e+01,2.330000000000000000e+02,5.690000000000000000e+02,1.190000000000000000e+02,3.700000000000000000e+01,4.400000000000000000e+01,2.080000000000000000e+02,9.000000000000000000e+01,5.500000000000000444e-01,5.738866300000000000e+09
6.600000000000000000e+01,2.190000000000000000e+02,6.040000000000000000e+02,1.070000000000000000e+02,3.500000000000000000e+01,4.600000000000000000e+01,2.580000000000000000e+02,1.050000000000000000e+02,5.500000000000000444e-01,5.758244500000000000e+09
7.400000000000000000e+01,2.270000000000000000e+02,6.400000000000000000e+02,9.600000000000000000e+01,3.800000000000000000e+01,4.500000000000000000e+01,2.550000000000000000e+02,1.770000000000000000e+02,5.500000000000000444e-01,5.776295100000000000e+09
6.600000000000000000e+01,2.100000000000000000e+02,6.040000000000000000e+02,8.300000000000000000e+01,3.400000000000000000e+01,3.900000000000000000e+01,2.500000000000000000e+02,1.780000000000000000e+02,5.500000000000000444e-01,5.798472700000000000e+09
6.600000000000000000e+01,1.740000000000000000e+02,6.150000000000000000e+02,7.500000000000000000e+01,3.900000000000000000e+01,4.000000000000000000e+01,2.290000000000000000e+02,1.860000000000000000e+02,5.500000000000000444e-01,5.820801200000000000e+09
6.700000000000000000e+01,1.600000000000000000e+02,6.510000000000000000e+02,7.800000000000000000e+01,4.000000000000000000e+01,5.000000000000000000e+01,2.810000000000000000e+02,1.940000000000000000e+02,5.500000000000000444e-01,5.840964900000000000e+09
6.400000000000000000e+01,1.620000000000000000e+02,5.810000000000000000e+02,8.300000000000000000e+01,4.100000000000000000e+01,5.200000000000000000e+01,3.250000000000000000e+02,2.460000000000000000e+02,5.400000000000000355e-01,5.860478600000000000e+09
5.800000000000000000e+01,1.440000000000000000e+02,5.880000000000000000e+02,1.060000000000000000e+02,4.200000000000000000e+01,6.100000000000000000e+01,3.810000000000000000e+02,2.070000000000000000e+02,5.300000000000000266e-01,5.878417200000000000e+09
5.900000000000000000e+01,1.510000000000000000e+02,6.170000000000000000e+02,1.070000000000000000e+02,4.200000000000000000e+01,6.100000000000000000e+01,4.110000000000000000e+02,2.120000000000000000e+02,5.300000000000000266e-01,5.899025900000000000e+09
6.000000000000000000e+01,1.510000000000000000e+02,5.990000000000000000e+02,1.250000000000000000e+02,4.200000000000000000e+01,6.000000000000000000e+01,4.190000000000000000e+02,2.100000000000000000e+02,5.300000000000000266e-01,5.921361400000000000e+09
5.900000000000000000e+01,1.470000000000000000e+02,5.730000000000000000e+02,1.230000000000000000e+02,4.100000000000000000e+01,5.400000000000000000e+01,3.930000000000000000e+02,2.070000000000000000e+02,5.200000000000000178e-01,5.940885600000000000e+09
5.600000000000000000e+01,1.430000000000000000e+02,5.710000000000000000e+02,1.200000000000000000e+02,3.700000000000000000e+01,5.000000000000000000e+01,3.220000000000000000e+02,1.450000000000000000e+02,5.200000000000000178e-01,5.959687000000000000e+09
5.700000000000000000e+01,1.510000000000000000e+02,5.560000000000000000e+02,1.020000000000000000e+02,3.300000000000000000e+01,5.100000000000000000e+01,3.050000000000000000e+02,2.110000000000000000e+02,5.200000000000000178e-01,5.977379500000000000e+09
8.300000000000000000e+01,1.560000000000000000e+02,5.430000000000000000e+02,1.180000000000000000e+02,3.700000000000000000e+01,5.200000000000000000e+01,3.180000000000000000e+02,2.580000000000000000e+02,5.100000000000000089e-01,5.998968100000000000e+09
8.000000000000000000e+01,1.360000000000000000e+02,5.670000000000000000e+02,9.300000000000000000e+01,3.000000000000000000e+01,5.500000000000000000e+01,3.200000000000000000e+02,2.740000000000000000e+02,5.000000000000000000e-01,6.021136400000000000e+09
9.300000000000000000e+01,1.610000000000000000e+02,5.480000000000000000e+02,1.260000000000000000e+02,3.900000000000000000e+01,6.500000000000000000e+01,3.690000000000000000e+02,3.080000000000000000e+02,5.000000000000000000e-01,6.039128700000000000e+09
9.400000000000000000e+01,1.700000000000000000e+02,5.240000000000000000e+02,1.270000000000000000e+02,4.200000000000000000e+01,6.900000000000000000e+01,3.790000000000000000e+02,3.010000000000000000e+02,4.899999999999999911e-01,6.059007800000000000e+09
9.300000000000000000e+01,1.800000000000000000e+02,5.420000000000000000e+02,1.320000000000000000e+02,4.500000000000000000e+01,6.000000000000000000e+01,3.470000000000000000e+02,2.720000000000000000e+02,4.899999999999999911e-01,6.077404900000000000e+09
7.400000000000000000e+01,1.920000000000000000e+02,5.390000000000000000e+02,1.250000000000000000e+02,4.500000000000000000e+01,5.800000000000000000e+01,3.130000000000000000e+02,2.220000000000000000e+02,4.899999999999999911e-01,6.098777000000000000e+09
7.300000000000000000e+01,2.160000000000000000e+02,5.610000000000000000e+02,1.410000000000000000e+02,4.900000000000000000e+01,5.500000000000000000e+01,3.170000000000000000e+02,2.020000000000000000e+02,4.899999999999999911e-01,6.121159700000000000e+09
6.200000000000000000e+01,2.060000000000000000e+02,5.880000000000000000e+02,1.120000000000000000e+02,4.300000000000000000e+01,5.900000000000000000e+01,3.290000000000000000e+02,2.070000000000000000e+02,4.899999999999999911e-01,6.138580200000000000e+09
6.900000000000000000e+01,2.070000000000000000e+02,5.770000000000000000e+02,1.440000000000000000e+02,4.900000000000000000e+01,6.500000000000000000e+01,3.550000000000000000e+02,2.130000000000000000e+02,4.799999999999999822e-01,6.157312700000000000e+09
7.400000000000000000e+01,1.900000000000000000e+02,5.050000000000000000e+02,1.430000000000000000e+02,4.800000000000000000e+01,7.400000000000000000e+01,4.430000000000000000e+02,2.070000000000000000e+02,4.799999999999999822e-01,6.178478200000000000e+09
6.900000000000000000e+01,1.860000000000000000e+02,5.120000000000000000e+02,1.430000000000000000e+02,4.600000000000000000e+01,7.300000000000000000e+01,4.380000000000000000e+02,2.110000000000000000e+02,4.799999999999999822e-01,6.198952400000000000e+09
7.300000000000000000e+01,1.590000000000000000e+02,6.150000000000000000e+02,1.520000000000000000e+02,4.700000000000000000e+01,7.400000000000000000e+01,4.400000000000000000e+02,2.080000000000000000e+02,4.799999999999999822e-01,6.221091500000000000e+09
7.900000000000000000e+01,1.520000000000000000e+02,6.910000000000000000e+02,1.580000000000000000e+02,4.900000000000000000e+01,6.800000000000000000e+01,4.470000000000000000e+02,2.460000000000000000e+02,4.699999999999999734e-01,6.238596000000000000e+09
7.600000000000000000e+01,1.680000000000000000e+02,7.590000000000000000e+02,1.320000000000000000e+02,4.300000000000000000e+01,7.200000000000000000e+01,4.670000000000000000e+02,2.440000000000000000e+02,4.699999999999999734e-01,6.256348800000000000e+09
7.200000000000000000e+01,1.980000000000000000e+02,8.370000000000000000e+02,1.310000000000000000e+02,4.500000000000000000e+01,6.100000000000000000e+01,3.730000000000000000e+02,2.280000000000000000e+02,4.699999999999999734e-01,6.276557500000000000e+09
7.700000000000000000e+01,1.820000000000000000e+02,8.390000000000000000e+02,1.290000000000000000e+02,4.500000000000000000e+01,6.400000000000000000e+01,3.690000000000000000e+02,2.450000000000000000e+02,4.600000000000000200e-01,6.298781700000000000e+09
7.300000000000000000e+01,1.820000000000000000e+02,7.400000000000000000e+02,1.010000000000000000e+02,3.900000000000000000e+01,6.500000000000000000e+01,3.450000000000000000e+02,2.900000000000000000e+02,4.600000000000000200e-01,6.327674900000000000e+09
6.400000000000000000e+01,1.790000000000000000e+02,6.620000000000000000e+02,9.300000000000000000e+01,4.000000000000000000e+01,6.300000000000000000e+01,2.650000000000000000e+02,2.170000000000000000e+02,4.600000000000000200e-01,6.345498000000000000e+09
5.800000000000000000e+01,1.490000000000000000e+02,5.910000000000000000e+02,9.700000000000000000e+01,3.700000000000000000e+01,4.600000000000000000e+01,1.570000000000000000e+02,2.120000000000000000e+02,4.500000000000000111e-01,6.364059800000000000e+09
5.800000000000000000e+01,1.310000000000000000e+02,5.040000000000000000e+02,8.500000000000000000e+01,3.200000000000000000e+01,4.700000000000000000e+01,1.530000000000000000e+02,2.180000000000000000e+02,4.500000000000000111e-01,6.381891000000000000e+09
6.200000000000000000e+01,1.440000000000000000e+02,4.850000000000000000e+02,7.900000000000000000e+01,3.400000000000000000e+01,4.400000000000000000e+01,1.470000000000000000e+02,1.960000000000000000e+02,4.600000000000000200e-01,6.400425800000000000e+09
6.400000000000000000e+01,1.420000000000000000e+02,5.140000000000000000e+02,8.100000000000000000e+01,3.500000000000000000e+01,4.000000000000000000e+01,1.750000000000000000e+02,1.920000000000000000e+02,4.600000000000000200e-01,6.426346900000000000e+09
6.600000000000000000e+01,1.670000000000000000e+02,5.180000000000000000e+02,8.200000000000000000e+01,3.200000000000000000e+01,3.500000000000000000e+01,1.590000000000000000e+02,2.220000000000000000e+02,4.600000000000000200e-01,6.444125200000000000e+09
7.200000000000000000e+01,1.730000000000000000e+02,5.180000000000000000e+02,9.000000000000000000e+01,3.300000000000000000e+01,3.400000000000000000e+01,1.480000000000000000e+02,2.310000000000000000e+02,4.500000000000000111e-01,6.463227700000000000e+09
7.300000000000000000e+01,1.780000000000000000e+02,5.330000000000000000e+02,9.100000000000000000e+01,3.600000000000000000e+01,3.300000000000000000e+01,2.190000000000000000e+02,2.450000000000000000e+02,4.600000000000000200e-01,6.480877100000000000e+09
6.900000000000000000e+01,1.740000000000000000e+02,5.620000000000000000e+02,9.700000000000000000e+01,3.700000000000000000e+01,3.600000000000000000e+01,2.350000000000000000e+02,2.510000000000000000e+02,4.600000000000000200e-01,6.499647400000000000e+09
7.100000000000000000e+01,1.790000000000000000e+02,6.040000000000000000e+02,1.080000000000000000e+02,3.800000000000000000e+01,3.500000000000000000e+01,2.150000000000000000e+02,2.180000000000000000e+02,4.600000000000000200e-01,6.517538800000000000e+09
6.500000000000000000e+01,1.580000000000000000e+02,6.140000000000000000e+02,1.070000000000000000e+02,3.600000000000000000e+01,3.300000000000000000e+01,2.140000000000000000e+02,2.180000000000000000e+02,4.699999999999999734e-01,6.539772700000000000e+09
5.800000000000000000e+01,1.500000000000000000e+02,6.010000000000000000e+02,1.050000000000000000e+02,3.500000000000000000e+01,3.600000000000000000e+01,2.560000000000000000e+02,2.280000000000000000e+02,4.699999999999999734e-01,6.558561700000000000e+09
6.000000000000000000e+01,1.300000000000000000e+02,5.730000000000000000e+02,1.040000000000000000e+02,3.500000000000000000e+01,3.800000000000000000e+01,2.140000000000000000e+02,2.120000000000000000e+02,4.699999999999999734e-01,6.577424300000000000e+09
5.300000000000000000e+01,1.250000000000000000e+02,5.270000000000000000e+02,1.010000000000000000e+02,2.900000000000000000e+01,3.500000000000000000e+01,1.940000000000000000e+02,2.220000000000000000e+02,4.699999999999999734e-01,6.598660200000000000e+09
4.700000000000000000e+01,1.210000000000000000e+02,4.720000000000000000e+02,9.100000000000000000e+01,2.700000000000000000e+01,3.600000000000000000e+01,1.930000000000000000e+02,2.100000000000000000e+02,4.799999999999999822e-01,6.617702200000000000e+09
6.200000000000000000e+01,1.770000000000000000e+02,4.900000000000000000e+02,9.700000000000000000e+01,3.200000000000000000e+01,3.700000000000000000e+01,2.040000000000000000e+02,1.920000000000000000e+02,4.799999999999999822e-01,6.639639700000000000e+09
6.900000000000000000e+01,1.830000000000000000e+02,4.740000000000000000e+02,8.200000000000000000e+01,3.400000000000000000e+01,4.000000000000000000e+01,1.690000000000000000e+02,1.790000000000000000e+02,4.799999999999999822e-01,6.658102200000000000e+09
7.000000000000000000e+01,1.960000000000000000e+02,4.850000000000000000e+02,8.300000000000000000e+01,3.500000000000000000e+01,3.800000000000000000e+01,1.500000000000000000e+02,1.880000000000000000e+02,4.899999999999999911e-01,6.680350300000000000e+09
7.400000000000000000e+01,2.050000000000000000e+02,5.650000000000000000e+02,8.000000000000000000e+01,3.700000000000000000e+01,3.600000000000000000e+01,1.540000000000000000e+02,1.710000000000000000e+02,4.899999999999999911e-01,6.699417700000000000e+09
8.000000000000000000e+01,2.020000000000000000e+02,5.390000000000000000e+02,8.900000000000000000e+01,4.100000000000000000e+01,4.100000000000000000e+01,2.060000000000000000e+02,2.030000000000000000e+02,4.899999999999999911e-01,6.718101400000000000e+09
6.900000000000000000e+01,1.610000000000000000e+02,5.870000000000000000e+02,8.300000000000000000e+01,4.000000000000000000e+01,6.400000000000000000e+01,3.220000000000000000e+02,2.220000000000000000e+02,5.000000000000000000e-01,6.740315800000000000e+09
6.800000000000000000e+01,1.660000000000000000e+02,6.190000000000000000e+02,8.600000000000000000e+01,3.800000000000000000e+01,6.300000000000000000e+01,3.240000000000000000e+02,2.310000000000000000e+02,5.000000000000000000e-01,6.763694100000000000e+09
6.300000000000000000e+01,1.430000000000000000e+02,6.170000000000000000e+02,8.600000000000000000e+01,3.500000000000000000e+01,6.300000000000000000e+01,3.460000000000000000e+02,2.250000000000000000e+02,5.000000000000000000e-01,6.781491100000000000e+09
6.100000000000000000e+01,1.330000000000000000e+02,5.510000000000000000e+02,9.800000000000000000e+01,3.400000000000000000e+01,6.600000000000000000e+01,3.680000000000000000e+02,2.320000000000000000e+02,5.000000000000000000e-01,6.800290700000000000e+09
5.900000000000000000e+01,1.390000000000000000e+02,5.670000000000000000e+02,9.000000000000000000e+01,3.400000000000000000e+01,6.500000000000000000e+01,3.510000000000000000e+02,2.130000000000000000e+02,5.000000000000000000e-01,6.818494900000000000e+09
7.600000000000000000e+01,1.430000000000000000e+02,5.730000000000000000e+02,9.500000000000000000e+01,3.100000000000000000e+01,4.600000000000000000e+01,2.610000000000000000e+02,2.000000000000000000e+02,5.000000000000000000e-01,6.840980200000000000e+09
7.200000000000000000e+01,1.350000000000000000e+02,6.130000000000000000e+02,1.000000000000000000e+02,3.100000000000000000e+01,4.500000000000000000e+01,3.250000000000000000e+02,1.830000000000000000e+02,5.000000000000000000e-01,6.867470500000000000e+09
6.900000000000000000e+01,1.460000000000000000e+02,7.400000000000000000e+02,1.060000000000000000e+02,3.300000000000000000e+01,4.500000000000000000e+01,3.070000000000000000e+02,2.140000000000000000e+02,4.899999999999999911e-01,6.885192600000000000e+09
7.000000000000000000e+01,1.680000000000000000e+02,8.120000000000000000e+02,1.000000000000000000e+02,3.500000000000000000e+01,4.100000000000000000e+01,2.810000000000000000e+02,2.020000000000000000e+02,4.899999999999999911e-01,6.904282200000000000e+09
6.300000000000000000e+01,1.750000000000000000e+02,7.960000000000000000e+02,9.500000000000000000e+01,2.800000000000000000e+01,3.800000000000000000e+01,2.680000000000000000e+02,1.880000000000000000e+02,4.799999999999999822e-01,6.921556100000000000e+09
5.200000000000000000e+01,1.880000000000000000e+02,7.410000000000000000e+02,9.100000000000000000e+01,3.200000000000000000e+01,3.500000000000000000e+01,2.430000000000000000e+02,1.690000000000000000e+02,4.799999999999999822e-01,6.945163900000000000e+09
5.100000000000000000e+01,2.030000000000000000e+02,6.800000000000000000e+02,8.600000000000000000e+01,3.200000000000000000e+01,3.200000000000000000e+01,1.220000000000000000e+02,1.620000000000000000e+02,4.799999999999999822e-01,6.963482000000000000e+09
5.400000000000000000e+01,1.980000000000000000e+02,5.360000000000000000e+02,7.900000000000000000e+01,3.100000000000000000e+01,3.200000000000000000e+01,1.320000000000000000e+02,1.230000000000000000e+02,4.799999999999999822e-01,6.981696800000000000e+09
6.200000000000000000e+01,1.840000000000000000e+02,3.980000000000000000e+02,7.600000000000000000e+01,3.100000000000000000e+01,3.200000000000000000e+01,1.400000000000000000e+02,1.740000000000000000e+02,4.799999999999999822e-01,6.999907100000000000e+09
6.700000000000000000e+01,1.810000000000000000e+02,4.540000000000000000e+02,8.100000000000000000e+01,3.300000000000000000e+01,5.600000000000000000e+01,2.450000000000000000e+02,2.140000000000000000e+02,4.899999999999999911e-01,7.018079200000000000e+09
5.900000000000000000e+01,1.670000000000000000e+02,4.400000000000000000e+02,8.200000000000000000e+01,3.200000000000000000e+01,6.000000000000000000e+01,2.740000000000000000e+02,2.070000000000000000e+02,4.899999999999999911e-01,7.041140700000000000e+09
6.700000000000000000e+01,1.540000000000000000e+02,4.590000000000000000e+02,9.200000000000000000e+01,4.000000000000000000e+01,6.200000000000000000e+01,2.840000000000000000e+02,2.250000000000000000e+02,4.899999999999999911e-01,7.060267100000000000e+09
6.300000000000000000e+01,1.510000000000000000e+02,4.600000000000000000e+02,9.400000000000000000e+01,4.100000000000000000e+01,6.200000000000000000e+01,2.800000000000000000e+02,2.180000000000000000e+02,4.899999999999999911e-01,7.078610100000000000e+09
6.100000000000000000e+01,1.610000000000000000e+02,5.780000000000000000e+02,1.070000000000000000e+02,4.300000000000000000e+01,7.300000000000000000e+01,3.690000000000000000e+02,1.950000000000000000e+02,4.799999999999999822e-01,7.100068400000000000e+09
8.300000000000000000e+01,2.110000000000000000e+02,6.060000000000000000e+02,1.390000000000000000e+02,5.300000000000000000e+01,6.400000000000000000e+01,3.580000000000000000e+02,2.050000000000000000e+02,4.899999999999999911e-01,7.118604900000000000e+09
9.400000000000000000e+01,2.360000000000000000e+02,6.120000000000000000e+02,1.590000000000000000e+02,5.700000000000000000e+01,6.000000000000000000e+01,3.390000000000000000e+02,2.110000000000000000e+02,4.899999999999999911e-01,7.139286600000000000e+09
8.800000000000000000e+01,2.310000000000000000e+02,6.640000000000000000e+02,1.530000000000000000e+02,5.300000000000000000e+01,5.700000000000000000e+01,3.320000000000000000e+02,2.020000000000000000e+02,4.899999999999999911e-01,7.160351800000000000e+09
9.200000000000000000e+01,2.350000000000000000e+02,7.460000000000000000e+02,1.530000000000000000e+02,5.200000000000000000e+01,6.300000000000000000e+01,3.660000000000000000e+02,2.050000000000000000e+02,4.899999999999999911e-01,7.177910900000000000e+09
8.800000000000000000e+01,2.300000000000000000e+02,7.270000000000000000e+02,1.400000000000000000e+02,4.900000000000000000e+01,5.700000000000000000e+01,2.970000000000000000e+02,1.980000000000000000e+02,4.899999999999999911e-01,7.198371800000000000e+09
7.000000000000000000e+01,2.040000000000000000e+02,7.490000000000000000e+02,1.130000000000000000e+02,3.800000000000000000e+01,4.900000000000000000e+01,2.530000000000000000e+02,1.590000000000000000e+02,4.799999999999999822e-01,7.221498600000000000e+09
5.200000000000000000e+01,1.680000000000000000e+02,7.530000000000000000e+02,7.700000000000000000e+01,2.800000000000000000e+01,4.900000000000000000e+01,2.580000000000000000e+02,1.620000000000000000e+02,4.799999999999999822e-01,7.240536700000000000e+09
5.700000000000000000e+01,1.750000000000000000e+02,7.530000000000000000e+02,9.600000000000000000e+01,3.700000000000000000e+01,5.600000000000000000e+01,2.910000000000000000e+02,1.650000000000000000e+02,4.699999999999999734e-01,7.260075300000000000e+09
5.400000000000000000e+01,1.790000000000000000e+02,6.940000000000000000e+02,1.000000000000000000e+02,4.100000000000000000e+01,5.100000000000000000e+01,2.480000000000000000e+02,1.550000000000000000e+02,4.699999999999999734e-01,7.280202000000000000e+09
6.200000000000000000e+01,1.900000000000000000e+02,6.420000000000000000e+02,1.140000000000000000e+02,4.600000000000000000e+01,4.300000000000000000e+01,2.280000000000000000e+02,1.540000000000000000e+02,4.699999999999999734e-01,7.298282400000000000e+09
7.000000000000000000e+01,1.960000000000000000e+02,5.420000000000000000e+02,1.270000000000000000e+02,5.400000000000000000e+01,5.000000000000000000e+01,2.850000000000000000e+02,1.430000000000000000e+02,4.799999999999999822e-01,7.324506100000000000e+09
9.000000000000000000e+01,2.160000000000000000e+02,6.140000000000000000e+02,1.540000000000000000e+02,5.700000000000000000e+01,5.400000000000000000e+01,3.170000000000000000e+02,1.830000000000000000e+02,4.799999999999999822e-01,7.343903000000000000e+09
9.100000000000000000e+01,2.190000000000000000e+02,6.240000000000000000e+02,1.520000000000000000e+02,5.200000000000000000e+01,5.500000000000000000e+01,3.280000000000000000e+02,1.700000000000000000e+02,4.799999999999999822e-01,7.362809900000000000e+09
9.400000000000000000e+01,2.090000000000000000e+02,6.250000000000000000e+02,1.520000000000000000e+02,5.000000000000000000e+01,5.900000000000000000e+01,3.520000000000000000e+02,2.270000000000000000e+02,4.799999999999999822e-01,7.385127600000000000e+09
8.700000000000000000e+01,1.890000000000000000e+02,6.430000000000000000e+02,1.510000000000000000e+02,4.700000000000000000e+01,5.800000000000000000e+01,3.490000000000000000e+02,2.210000000000000000e+02,4.799999999999999822e-01,7.403066500000000000e+09
8.000000000000000000e+01,1.520000000000000000e+02,6.570000000000000000e+02,1.410000000000000000e+02,4.300000000000000000e+01,5.900000000000000000e+01,3.390000000000000000e+02,2.150000000000000000e+02,4.799999999999999822e-01,7.421179400000000000e+09
6.500000000000000000e+01,1.360000000000000000e+02,5.720000000000000000e+02,1.200000000000000000e+02,4.200000000000000000e+01,6.300000000000000000e+01,3.840000000000000000e+02,1.830000000000000000e+02,4.899999999999999911e-01,7.440837200000000000e+09
7.100000000000000000e+01,1.360000000000000000e+02,5.490000000000000000e+02,1.190000000000000000e+02,4.700000000000000000e+01,6.400000000000000000e+01,3.960000000000000000e+02,1.870000000000000000e+02,4.899999999999999911e-01,7.467631600000000000e+09
7.000000000000000000e+01,1.430000000000000000e+02,5.390000000000000000e+02,1.150000000000000000e+02,4.500000000000000000e+01,5.800000000000000000e+01,3.920000000000000000e+02,1.560000000000000000e+02,5.000000000000000000e-01,7.485483300000000000e+09
7.200000000000000000e+01,1.710000000000000000e+02,5.690000000000000000e+02,1.130000000000000000e+02,4.500000000000000000e+01,6.500000000000000000e+01,4.200000000000000000e+02,1.710000000000000000e+02,5.000000000000000000e-01,7.503293900000000000e+09
7.700000000000000000e+01,2.190000000000000000e+02,6.910000000000000000e+02,1.290000000000000000e+02,4.600000000000000000e+01,6.100000000000000000e+01,3.880000000000000000e+02,1.800000000000000000e+02,5.000000000000000000e-01,7.521547700000000000e+09
7.100000000000000000e+01,2.080000000000000000e+02,6.970000000000000000e+02,1.300000000000000000e+02,4.300000000000000000e+01,5.700000000000000000e+01,3.320000000000000000e+02,1.760000000000000000e+02,5.000000000000000000e-01,7.540726200000000000e+09
6.900000000000000000e+01,2.120000000000000000e+02,7.040000000000000000e+02,1.280000000000000000e+02,4.100000000000000000e+01,5.100000000000000000e+01,3.080000000000000000e+02,1.900000000000000000e+02,5.000000000000000000e-01,7.560038100000000000e+09
6.700000000000000000e+01,2.180000000000000000e+02,7.180000000000000000e+02,1.300000000000000000e+02,4.100000000000000000e+01,5.500000000000000000e+01,3.280000000000000000e+02,1.720000000000000000e+02,5.000000000000000000e-01,7.580659700000000000e+09
6.800000000000000000e+01,2.110000000000000000e+02,7.110000000000000000e+02,1.250000000000000000e+02,3.900000000000000000e+01,4.900000000000000000e+01,2.930000000000000000e+02,1.570000000000000000e+02,5.000000000000000000e-01,7.598281200000000000e+09
5.900000000000000000e+01,1.900000000000000000e+02,6.130000000000000000e+02,1.100000000000000000e+02,3.700000000000000000e+01,5.400000000000000000e+01,3.370000000000000000e+02,1.620000000000000000e+02,5.000000000000000000e-01,7.617133200000000000e+09
6.200000000000000000e+01,2.000000000000000000e+02,6.500000000000000000e+02,1.090000000000000000e+02,3.800000000000000000e+01,5.400000000000000000e+01,3.530000000000000000e+02,1.580000000000000000e+02,5.000000000000000000e-01,7.640514400000000000e+09
5.500000000000000000e+01,1.900000000000000000e+02,6.420000000000000000e+02,1.020000000000000000e+02,3.600000000000000000e+01,6.200000000000000000e+01,3.610000000000000000e+02,1.580000000000000000e+02,5.100000000000000089e-01,7.663039000000000000e+09
6.000000000000000000e+01,1.890000000000000000e+02,6.890000000000000000e+02,1.140000000000000000e+02,3.800000000000000000e+01,6.200000000000000000e+01,3.460000000000000000e+02,1.450000000000000000e+02,5.000000000000000000e-01,7.680631400000000000e+09
6.100000000000000000e+01,1.800000000000000000e+02,7.070000000000000000e+02,1.220000000000000000e+02,4.100000000000000000e+01,6.400000000000000000e+01,3.520000000000000000e+02,1.690000000000000000e+02,5.000000000000000000e-01,7.699943500000000000e+09
7.700000000000000000e+01,1.670000000000000000e+02,6.890000000000000000e+02,1.190000000000000000e+02,3.800000000000000000e+01,6.400000000000000000e+01,3.080000000000000000e+02,1.650000000000000000e+02,5.000000000000000000e-01,7.723047200000000000e+09
7.900000000000000000e+01,1.720000000000000000e+02,7.000000000000000000e+02,1.150000000000000000e+02,4.000000000000000000e+01,6.600000000000000000e+01,3.250000000000000000e+02,1.770000000000000000e+02,5.000000000000000000e-01,7.742154400000000000e+09
8.400000000000000000e+01,2.100000000000000000e+02,7.220000000000000000e+02,1.290000000000000000e+02,4.500000000000000000e+01,5.700000000000000000e+01,2.890000000000000000e+02,1.550000000000000000e+02,5.000000000000000000e-01,7.767236500000000000e+09
8.100000000000000000e+01,2.050000000000000000e+02,6.540000000000000000e+02,1.180000000000000000e+02,4.200000000000000000e+01,5.400000000000000000e+01,2.580000000000000000e+02,1.700000000000000000e+02,5.000000000000000000e-01,7.798464600000000000e+09
8.000000000000000000e+01,2.110000000000000000e+02,5.820000000000000000e+02,1.080000000000000000e+02,3.900000000000000000e+01,5.200000000000000000e+01,2.640000000000000000e+02,1.480000000000000000e+02,5.000000000000000000e-01,7.816045000000000000e+09
6.600000000000000000e+01,1.970000000000000000e+02,5.630000000000000000e+02,1.060000000000000000e+02,4.100000000000000000e+01,5.400000000000000000e+01,2.880000000000000000e+02,1.430000000000000000e+02,5.100000000000000089e-01,7.834004200000000000e+09
6.300000000000000000e+01,2.090000000000000000e+02,5.720000000000000000e+02,1.160000000000000000e+02,4.600000000000000000e+01,6.300000000000000000e+01,2.960000000000000000e+02,1.970000000000000000e+02,5.100000000000000089e-01,7.852257600000000000e+09
6.200000000000000000e+01,1.980000000000000000e+02,5.010000000000000000e+02,1.080000000000000000e+02,4.500000000000000000e+01,6.300000000000000000e+01,3.100000000000000000e+02,1.970000000000000000e+02,5.100000000000000089e-01,7.870018700000000000e+09
6.300000000000000000e+01,2.300000000000000000e+02,4.950000000000000000e+02,1.220000000000000000e+02,5.100000000000000000e+01,6.600000000000000000e+01,3.640000000000000000e+02,2.160000000000000000e+02,5.100000000000000089e-01,7.887907200000000000e+09
7.600000000000000000e+01,2.310000000000000000e+02,5.420000000000000000e+02,1.310000000000000000e+02,5.500000000000000000e+01,7.200000000000000000e+01,4.260000000000000000e+02,2.220000000000000000e+02,5.000000000000000000e-01,7.905354700000000000e+09
7.700000000000000000e+01,2.400000000000000000e+02,5.840000000000000000e+02,1.370000000000000000e+02,5.700000000000000000e+01,7.300000000000000000e+01,4.240000000000000000e+02,2.280000000000000000e+02,5.000000000000000000e-01,7.923357700000000000e+09
8.800000000000000000e+01,2.530000000000000000e+02,5.750000000000000000e+02,1.450000000000000000e+02,5.700000000000000000e+01,7.200000000000000000e+01,4.960000000000000000e+02,1.750000000000000000e+02,5.000000000000000000e-01,7.942510100000000000e+09
8.900000000000000000e+01,2.570000000000000000e+02,5.930000000000000000e+02,1.410000000000000000e+02,5.900000000000000000e+01,1.020000000000000000e+02,5.590000000000000000e+02,1.870000000000000000e+02,5.100000000000000089e-01,7.962582700000000000e+09
9.300000000000000000e+01,2.490000000000000000e+02,6.150000000000000000e+02,1.310000000000000000e+02,5.500000000000000000e+01,1.020000000000000000e+02,5.920000000000000000e+02,2.220000000000000000e+02,5.000000000000000000e-01,7.980032800000000000e+09
9.800000000000000000e+01,2.550000000000000000e+02,7.470000000000000000e+02,1.410000000000000000e+02,6.100000000000000000e+01,1.320000000000000000e+02,6.390000000000000000e+02,2.570000000000000000e+02,5.000000000000000000e-01,8.000453700000000000e+09
1.010000000000000000e+02,2.570000000000000000e+02,7.750000000000000000e+02,1.400000000000000000e+02,6.200000000000000000e+01,1.330000000000000000e+02,6.800000000000000000e+02,2.550000000000000000e+02,4.899999999999999911e-01,8.022348000000000000e+09
9.900000000000000000e+01,2.340000000000000000e+02,7.570000000000000000e+02,1.360000000000000000e+02,6.300000000000000000e+01,1.340000000000000000e+02,6.240000000000000000e+02,2.620000000000000000e+02,4.799999999999999822e-01,8.041441800000000000e+09
9.300000000000000000e+01,2.050000000000000000e+02,8.060000000000000000e+02,1.410000000000000000e+02,5.900000000000000000e+01,1.190000000000000000e+02,6.010000000000000000e+02,2.550000000000000000e+02,4.699999999999999734e-01,8.068959800000000000e+09
9.100000000000000000e+01,1.850000000000000000e+02,8.280000000000000000e+02,1.460000000000000000e+02,6.200000000000000000e+01,1.380000000000000000e+02,6.080000000000000000e+02,2.130000000000000000e+02,4.600000000000000200e-01,8.086821900000000000e+09
7.400000000000000000e+01,1.760000000000000000e+02,7.910000000000000000e+02,1.430000000000000000e+02,5.400000000000000000e+01,1.110000000000000000e+02,5.500000000000000000e+02,1.820000000000000000e+02,4.500000000000000111e-01,8.105743100000000000e+09
7.700000000000000000e+01,1.670000000000000000e+02,7.810000000000000000e+02,1.370000000000000000e+02,5.000000000000000000e+01,1.110000000000000000e+02,5.630000000000000000e+02,1.940000000000000000e+02,4.500000000000000111e-01,8.123782600000000000e+09
6.700000000000000000e+01,1.630000000000000000e+02,7.940000000000000000e+02,1.270000000000000000e+02,4.100000000000000000e+01,1.040000000000000000e+02,5.750000000000000000e+02,1.820000000000000000e+02,4.400000000000000022e-01,8.143840700000000000e+09
6.900000000000000000e+01,1.620000000000000000e+02,7.920000000000000000e+02,1.230000000000000000e+02,4.000000000000000000e+01,9.800000000000000000e+01,5.570000000000000000e+02,1.830000000000000000e+02,4.400000000000000022e-01,8.161301100000000000e+09
6.500000000000000000e+01,1.700000000000000000e+02,7.620000000000000000e+02,1.170000000000000000e+02,3.700000000000000000e+01,7.200000000000000000e+01,5.300000000000000000e+02,1.680000000000000000e+02,4.299999999999999933e-01,8.181843500000000000e+09
6.800000000000000000e+01,1.780000000000000000e+02,6.460000000000000000e+02,1.100000000000000000e+02,3.800000000000000000e+01,6.600000000000000000e+01,5.090000000000000000e+02,1.460000000000000000e+02,4.199999999999999845e-01,8.203178500000000000e+09
7.000000000000000000e+01,1.790000000000000000e+02,5.780000000000000000e+02,1.190000000000000000e+02,4.100000000000000000e+01,7.000000000000000000e+01,4.830000000000000000e+02,1.590000000000000000e+02,4.299999999999999933e-01,8.221721600000000000e+09
8.100000000000000000e+01,1.760000000000000000e+02,5.370000000000000000e+02,1.290000000000000000e+02,4.800000000000000000e+01,7.900000000000000000e+01,4.800000000000000000e+02,1.980000000000000000e+02,4.299999999999999933e-01,8.240407600000000000e+09
8.800000000000000000e+01,1.920000000000000000e+02,4.790000000000000000e+02,1.400000000000000000e+02,5.600000000000000000e+01,8.600000000000000000e+01,4.640000000000000000e+02,2.070000000000000000e+02,4.299999999999999933e-01,8.263033900000000000e+09
8.800000000000000000e+01,1.970000000000000000e+02,5.640000000000000000e+02,1.370000000000000000e+02,5.700000000000000000e+01,9.600000000000000000e+01,4.670000000000000000e+02,2.060000000000000000e+02,4.299999999999999933e-01,8.281331100000000000e+09
8.600000000000000000e+01,1.810000000000000000e+02,5.850000000000000000e+02,1.340000000000000000e+02,5.600000000000000000e+01,9.700000000000000000e+01,4.660000000000000000e+02,2.170000000000000000e+02,4.299999999999999933e-01,8.299981200000000000e+09
8.100000000000000000e+01,1.740000000000000000e+02,6.190000000000000000e+02,1.330000000000000000e+02,5.700000000000000000e+01,9.200000000000000000e+01,4.290000000000000000e+02,1.880000000000000000e+02,4.400000000000000022e-01,8.322117900000000000e+09
7.300000000000000000e+01,1.970000000000000000e+02,6.410000000000000000e+02,1.270000000000000000e+02,5.200000000000000000e+01,8.500000000000000000e+01,3.860000000000000000e+02,1.410000000000000000e+02,4.400000000000000022e-01,8.339918100000000000e+09
6.900000000000000000e+01,2.070000000000000000e+02,6.030000000000000000e+02,1.070000000000000000e+02,4.200000000000000000e+01,7.800000000000000000e+01,3.810000000000000000e+02,2.160000000000000000e+02,4.500000000000000111e-01,8.368460700000000000e+09
7.400000000000000000e+01,1.940000000000000000e+02,6.190000000000000000e+02,1.200000000000000000e+02,4.600000000000000000e+01,5.900000000000000000e+01,3.580000000000000000e+02,2.200000000000000000e+02,4.500000000000000111e-01,8.386156000000000000e+09
8.000000000000000000e+01,1.970000000000000000e+02,5.980000000000000000e+02,1.160000000000000000e+02,4.500000000000000000e+01,6.100000000000000000e+01,3.450000000000000000e+02,2.180000000000000000e+02,4.600000000000000200e-01,8.404578600000000000e+09
8.000000000000000000e+01,2.030000000000000000e+02,5.950000000000000000e+02,1.100000000000000000e+02,4.200000000000000000e+01,6.100000000000000000e+01,4.680000000000000000e+02,2.320000000000000000e+02,4.600000000000000200e-01,8.422336000000000000e+09
8.900000000000000000e+01,2.290000000000000000e+02,5.660000000000000000e+02,1.260000000000000000e+02,4.800000000000000000e+01,5.900000000000000000e+01,4.650000000000000000e+02,2.350000000000000000e+02,4.600000000000000200e-01,8.442053000000000000e+09
8.700000000000000000e+01,2.070000000000000000e+02,6.200000000000000000e+02,1.410000000000000000e+02,4.800000000000000000e+01,6.300000000000000000e+01,5.090000000000000000e+02,1.530000000000000000e+02,4.600000000000000200e-01,8.461471500000000000e+09
8.400000000000000000e+01,2.320000000000000000e+02,5.400000000000000000e+02,1.300000000000000000e+02,4.500000000000000000e+01,7.100000000000000000e+01,4.920000000000000000e+02,1.880000000000000000e+02,4.699999999999999734e-01,8.481645700000000000e+09
8.100000000000000000e+01,2.460000000000000000e+02,7.140000000000000000e+02,1.410000000000000000e+02,4.900000000000000000e+01,7.100000000000000000e+01,5.030000000000000000e+02,2.130000000000000000e+02,4.600000000000000200e-01,8.503844400000000000e+09
7.700000000000000000e+01,2.360000000000000000e+02,7.980000000000000000e+02,1.510000000000000000e+02,5.300000000000000000e+01,6.800000000000000000e+01,3.680000000000000000e+02,2.090000000000000000e+02,4.600000000000000200e-01,8.522309200000000000e+09
6.100000000000000000e+01,1.910000000000000000e+02,8.410000000000000000e+02,1.300000000000000000e+02,4.700000000000000000e+01,6.900000000000000000e+01,3.720000000000000000e+02,2.090000000000000000e+02,4.600000000000000200e-01,8.541821100000000000e+09
8.100000000000000000e+01,2.000000000000000000e+02,8.190000000000000000e+02,1.330000000000000000e+02,5.900000000000000000e+01,7.900000000000000000e+01,3.640000000000000000e+02,2.280000000000000000e+02,4.500000000000000111e-01,8.561781700000000000e+09
8.600000000000000000e+01,1.730000000000000000e+02,8.150000000000000000e+02,1.380000000000000000e+02,6.100000000000000000e+01,7.800000000000000000e+01,3.520000000000000000e+02,2.420000000000000000e+02,4.500000000000000111e-01,8.585867000000000000e+09
8.300000000000000000e+01,1.820000000000000000e+02,7.060000000000000000e+02,1.290000000000000000e+02,5.800000000000000000e+01,7.500000000000000000e+01,3.500000000000000000e+02,2.120000000000000000e+02,4.400000000000000022e-01,8.604184300000000000e+09
8.300000000000000000e+01,1.890000000000000000e+02,6.140000000000000000e+02,1.150000000000000000e+02,5.600000000000000000e+01,7.400000000000000000e+01,3.650000000000000000e+02,2.030000000000000000e+02,4.400000000000000022e-01,8.623271100000000000e+09
8.500000000000000000e+01,2.010000000000000000e+02,5.480000000000000000e+02,1.210000000000000000e+02,5.600000000000000000e+01,7.200000000000000000e+01,3.650000000000000000e+02,1.990000000000000000e+02,4.400000000000000022e-01,8.644741800000000000e+09
8.500000000000000000e+01,2.130000000000000000e+02,5.810000000000000000e+02,1.380000000000000000e+02,5.500000000000000000e+01,6.000000000000000000e+01,3.150000000000000000e+02,1.780000000000000000e+02,4.400000000000000022e-01,8.663595000000000000e+09
9.200000000000000000e+01,2.210000000000000000e+02,6.230000000000000000e+02,1.480000000000000000e+02,5.700000000000000000e+01,5.900000000000000000e+01,3.260000000000000000e+02,1.990000000000000000e+02,4.400000000000000022e-01,8.682652800000000000e+09
9.300000000000000000e+01,1.960000000000000000e+02,6.170000000000000000e+02,1.440000000000000000e+02,5.500000000000000000e+01,6.600000000000000000e+01,3.840000000000000000e+02,2.430000000000000000e+02,4.400000000000000022e-01,8.705250500000000000e+09
9.500000000000000000e+01,1.940000000000000000e+02,6.790000000000000000e+02,1.460000000000000000e+02,5.700000000000000000e+01,6.800000000000000000e+01,3.780000000000000000e+02,2.590000000000000000e+02,4.299999999999999933e-01,8.723244800000000000e+09
9.900000000000000000e+01,1.780000000000000000e+02,7.010000000000000000e+02,1.480000000000000000e+02,5.600000000000000000e+01,7.100000000000000000e+01,4.060000000000000000e+02,2.640000000000000000e+02,4.299999999999999933e-01,8.751621700000000000e+09
9.500000000000000000e+01,1.640000000000000000e+02,7.020000000000000000e+02,1.440000000000000000e+02,5.000000000000000000e+01,6.700000000000000000e+01,4.160000000000000000e+02,2.650000000000000000e+02,4.299999999999999933e-01,8.769374500000000000e+09
9.000000000000000000e+01,1.550000000000000000e+02,6.690000000000000000e+02,1.270000000000000000e+02,4.700000000000000000e+01,7.700000000000000000e+01,4.480000000000000000e+02,2.480000000000000000e+02,4.299999999999999933e-01,8.787045200000000000e+09
9.000000000000000000e+01,1.590000000000000000e+02,6.490000000000000000e+02,1.310000000000000000e+02,4.700000000000000000e+01,6.900000000000000000e+01,3.710000000000000000e+02,2.220000000000000000e+02,4.400000000000000022e-01,8.811507800000000000e+09
8.900000000000000000e+01,1.550000000000000000e+02,5.950000000000000000e+02,1.390000000000000000e+02,4.800000000000000000e+01,7.000000000000000000e+01,3.910000000000000000e+02,2.060000000000000000e+02,4.400000000000000022e-01,8.829212300000000000e+09
8.500000000000000000e+01,1.790000000000000000e+02,6.660000000000000000e+02,1.470000000000000000e+02,5.400000000000000000e+01,8.100000000000000000e+01,4.500000000000000000e+02,2.070000000000000000e+02,4.400000000000000022e-01,8.847133300000000000e+09
7.400000000000000000e+01,1.880000000000000000e+02,6.880000000000000000e+02,1.390000000000000000e+02,5.100000000000000000e+01,8.000000000000000000e+01,4.340000000000000000e+02,2.070000000000000000e+02,4.400000000000000022e-01,8.864956400000000000e+09
7.100000000000000000e+01,1.800000000000000000e+02,7.110000000000000000e+02,1.390000000000000000e+02,4.800000000000000000e+01,7.000000000000000000e+01,4.240000000000000000e+02,2.200000000000000000e+02,4.400000000000000022e-01,8.893715000000000000e+09
7.600000000000000000e+01,1.820000000000000000e+02,7.090000000000000000e+02,1.420000000000000000e+02,4.800000000000000000e+01,7.400000000000000000e+01,4.610000000000000000e+02,2.100000000000000000e+02,4.299999999999999933e-01,8.911387900000000000e+09
8.200000000000000000e+01,2.210000000000000000e+02,7.260000000000000000e+02,1.440000000000000000e+02,4.800000000000000000e+01,7.600000000000000000e+01,5.030000000000000000e+02,2.120000000000000000e+02,4.299999999999999933e-01,8.929757100000000000e+09
1.740000000000000000e+02,3.450000000000000000e+02,7.790000000000000000e+02,1.620000000000000000e+02,4.200000000000000000e+01,6.700000000000000000e+01,4.280000000000000000e+02,2.130000000000000000e+02,4.299999999999999933e-01,8.948949400000000000e+09
1.740000000000000000e+02,3.480000000000000000e+02,7.440000000000000000e+02,1.610000000000000000e+02,5.100000000000000000e+01,7.100000000000000000e+01,4.360000000000000000e+02,2.400000000000000000e+02,4.299999999999999933e-01,8.967388600000000000e+09
2.000000000000000000e+02,3.550000000000000000e+02,7.080000000000000000e+02,1.610000000000000000e+02,5.100000000000000000e+01,6.800000000000000000e+01,4.170000000000000000e+02,2.070000000000000000e+02,4.400000000000000022e-01,8.989618200000000000e+09
2.290000000000000000e+02,3.770000000000000000e+02,7.080000000000000000e+02,1.590000000000000000e+02,5.200000000000000000e+01,6.500000000000000000e+01,3.950000000000000000e+02,2.130000000000000000e+02,4.400000000000000022e-01,9.007701400000000000e+09
2.340000000000000000e+02,3.730000000000000000e+02,7.100000000000000000e+02,1.730000000000000000e+02,6.000000000000000000e+01,7.000000000000000000e+01,3.880000000000000000e+02,2.210000000000000000e+02,4.500000000000000111e-01,9.028250100000000000e+09
1.800000000000000000e+02,2.890000000000000000e+02,6.640000000000000000e+02,1.470000000000000000e+02,6.000000000000000000e+01,7.800000000000000000e+01,4.600000000000000000e+02,2.530000000000000000e+02,4.500000000000000111e-01,9.045552700000000000e+09
1.810000000000000000e+02,2.910000000000000000e+02,7.310000000000000000e+02,1.440000000000000000e+02,5.600000000000000000e+01,9.000000000000000000e+01,5.230000000000000000e+02,2.760000000000000000e+02,4.500000000000000111e-01,9.064505500000000000e+09
1.520000000000000000e+02,2.920000000000000000e+02,7.400000000000000000e+02,1.490000000000000000e+02,5.600000000000000000e+01,8.900000000000000000e+01,5.500000000000000000e+02,2.710000000000000000e+02,4.500000000000000111e-01,9.082563200000000000e+09
1.060000000000000000e+02,2.610000000000000000e+02,7.390000000000000000e+02,1.490000000000000000e+02,5.800000000000000000e+01,1.020000000000000000e+02,6.030000000000000000e+02,2.950000000000000000e+02,4.500000000000000111e-01,9.101507100000000000e+09
1.010000000000000000e+02,2.630000000000000000e+02,7.590000000000000000e+02,1.680000000000000000e+02,5.500000000000000000e+01,9.700000000000000000e+01,5.650000000000000000e+02,2.880000000000000000e+02,4.500000000000000111e-01,9.124868000000000000e+09
1.070000000000000000e+02,2.370000000000000000e+02,7.600000000000000000e+02,1.830000000000000000e+02,5.500000000000000000e+01,9.200000000000000000e+01,5.150000000000000000e+02,2.650000000000000000e+02,4.500000000000000111e-01,9.143341200000000000e+09
1.110000000000000000e+02,2.190000000000000000e+02,6.610000000000000000e+02,1.760000000000000000e+02,5.100000000000000000e+01,7.700000000000000000e+01,4.510000000000000000e+02,2.250000000000000000e+02,4.600000000000000200e-01,9.162443800000000000e+09
1.130000000000000000e+02,2.100000000000000000e+02,6.550000000000000000e+02,1.760000000000000000e+02,5.300000000000000000e+01,8.100000000000000000e+01,4.360000000000000000e+02,2.470000000000000000e+02,4.600000000000000200e-01,9.185656500000000000e+09
1.160000000000000000e+02,2.270000000000000000e+02,7.100000000000000000e+02,1.940000000000000000e+02,5.400000000000000000e+01,6.400000000000000000e+01,3.870000000000000000e+02,2.080000000000000000e+02,4.600000000000000200e-01,9.203474100000000000e+09
1.140000000000000000e+02,2.040000000000000000e+02,6.750000000000000000e+02,1.550000000000000000e+02,4.600000000000000000e+01,6.700000000000000000e+01,4.270000000000000000e+02,2.140000000000000000e+02,4.600000000000000200e-01,9.222804000000000000e+09
1.180000000000000000e+02,2.170000000000000000e+02,6.440000000000000000e+02,1.490000000000000000e+02,5.800000000000000000e+01,8.100000000000000000e+01,5.480000000000000000e+02,2.340000000000000000e+02,4.600000000000000200e-01,9.244509400000000000e+09
1.170000000000000000e+02,2.220000000000000000e+02,7.060000000000000000e+02,1.440000000000000000e+02,5.600000000000000000e+01,8.000000000000000000e+01,5.460000000000000000e+02,2.400000000000000000e+02,4.500000000000000111e-01,9.268756300000000000e+09
1.120000000000000000e+02,2.190000000000000000e+02,7.080000000000000000e+02,1.430000000000000000e+02,5.500000000000000000e+01,7.800000000000000000e+01,5.400000000000000000e+02,1.950000000000000000e+02,4.500000000000000111e-01,9.286996300000000000e+09
1.090000000000000000e+02,2.180000000000000000e+02,6.760000000000000000e+02,1.380000000000000000e+02,5.300000000000000000e+01,8.000000000000000000e+01,5.520000000000000000e+02,1.990000000000000000e+02,4.500000000000000111e-01,9.304437000000000000e+09
1.150000000000000000e+02,2.220000000000000000e+02,6.520000000000000000e+02,1.610000000000000000e+02,6.000000000000000000e+01,7.800000000000000000e+01,5.360000000000000000e+02,1.940000000000000000e+02,4.500000000000000111e-01,9.327743100000000000e+09
1.100000000000000000e+02,2.320000000000000000e+02,6.640000000000000000e+02,1.500000000000000000e+02,4.900000000000000000e+01,6.800000000000000000e+01,4.440000000000000000e+02,2.190000000000000000e+02,4.600000000000000200e-01,9.345541300000000000e+09
1.200000000000000000e+02,2.390000000000000000e+02,7.130000000000000000e+02,1.660000000000000000e+02,5.600000000000000000e+01,8.300000000000000000e+01,5.020000000000000000e+02,2.280000000000000000e+02,4.600000000000000200e-01,9.373648000000000000e+09
1.310000000000000000e+02,2.550000000000000000e+02,7.280000000000000000e+02,1.750000000000000000e+02,5.800000000000000000e+01,9.400000000000000000e+01,5.110000000000000000e+02,2.280000000000000000e+02,4.600000000000000200e-01,9.391374900000000000e+09
1.340000000000000000e+02,2.860000000000000000e+02,6.910000000000000000e+02,1.810000000000000000e+02,6.100000000000000000e+01,9.900000000000000000e+01,4.970000000000000000e+02,2.360000000000000000e+02,4.600000000000000200e-01,9.408767500000000000e+09
1.230000000000000000e+02,2.860000000000000000e+02,7.380000000000000000e+02,1.910000000000000000e+02,6.000000000000000000e+01,1.090000000000000000e+02,5.700000000000000000e+02,2.370000000000000000e+02,4.500000000000000111e-01,9.432577300000000000e+09
1.140000000000000000e+02,2.660000000000000000e+02,6.800000000000000000e+02,1.950000000000000000e+02,6.400000000000000000e+01,1.030000000000000000e+02,5.640000000000000000e+02,2.090000000000000000e+02,4.500000000000000111e-01,9.450397200000000000e+09
1.010000000000000000e+02,2.550000000000000000e+02,5.870000000000000000e+02,1.830000000000000000e+02,6.000000000000000000e+01,1.000000000000000000e+02,5.410000000000000000e+02,2.100000000000000000e+02,4.500000000000000111e-01,9.467665300000000000e+09
8.700000000000000000e+01,2.470000000000000000e+02,6.510000000000000000e+02,1.770000000000000000e+02,6.000000000000000000e+01,9.000000000000000000e+01,5.730000000000000000e+02,2.120000000000000000e+02,4.500000000000000111e-01,9.484677800000000000e+09
7.600000000000000000e+01,2.150000000000000000e+02,6.700000000000000000e+02,1.590000000000000000e+02,5.800000000000000000e+01,9.000000000000000000e+01,5.750000000000000000e+02,2.040000000000000000e+02,4.500000000000000111e-01,9.503258200000000000e+09
8.800000000000000000e+01,2.160000000000000000e+02,6.470000000000000000e+02,1.260000000000000000e+02,5.300000000000000000e+01,7.900000000000000000e+01,5.080000000000000000e+02,2.160000000000000000e+02,4.500000000000000111e-01,9.522387300000000000e+09
9.000000000000000000e+01,1.910000000000000000e+02,6.470000000000000000e+02,1.240000000000000000e+02,4.800000000000000000e+01,7.800000000000000000e+01,4.920000000000000000e+02,2.010000000000000000e+02,4.500000000000000111e-01,9.545075600000000000e+09
9.900000000000000000e+01,2.100000000000000000e+02,6.390000000000000000e+02,1.280000000000000000e+02,4.800000000000000000e+01,8.000000000000000000e+01,5.180000000000000000e+02,2.180000000000000000e+02,4.400000000000000022e-01,9.567708100000000000e+09
1.110000000000000000e+02,2.090000000000000000e+02,5.600000000000000000e+02,1.380000000000000000e+02,5.100000000000000000e+01,8.100000000000000000e+01,4.570000000000000000e+02,2.300000000000000000e+02,4.500000000000000111e-01,9.587468200000000000e+09
1.090000000000000000e+02,1.860000000000000000e+02,6.980000000000000000e+02,1.280000000000000000e+02,4.600000000000000000e+01,8.200000000000000000e+01,4.510000000000000000e+02,2.320000000000000000e+02,4.400000000000000022e-01,9.605109400000000000e+09
1.010000000000000000e+02,1.890000000000000000e+02,7.970000000000000000e+02,1.310000000000000000e+02,4.500000000000000000e+01,8.100000000000000000e+01,4.230000000000000000e+02,2.240000000000000000e+02,4.400000000000000022e-01,9.628535300000000000e+09
9.700000000000000000e+01,2.110000000000000000e+02,8.270000000000000000e+02,1.240000000000000000e+02,4.300000000000000000e+01,8.000000000000000000e+01,3.980000000000000000e+02,2.090000000000000000e+02,4.400000000000000022e-01,9.646815200000000000e+09
8.800000000000000000e+01,1.890000000000000000e+02,9.390000000000000000e+02,1.570000000000000000e+02,4.600000000000000000e+01,7.100000000000000000e+01,3.130000000000000000e+02,1.730000000000000000e+02,4.400000000000000022e-01,9.664017300000000000e+09
7.500000000000000000e+01,1.930000000000000000e+02,9.350000000000000000e+02,1.650000000000000000e+02,4.900000000000000000e+01,7.000000000000000000e+01,3.680000000000000000e+02,2.120000000000000000e+02,4.299999999999999933e-01,9.688624000000000000e+09
8.000000000000000000e+01,2.010000000000000000e+02,8.880000000000000000e+02,1.700000000000000000e+02,5.100000000000000000e+01,7.600000000000000000e+01,4.140000000000000000e+02,2.180000000000000000e+02,4.299999999999999933e-01,9.706973500000000000e+09
8.400000000000000000e+01,2.100000000000000000e+02,8.890000000000000000e+02,1.710000000000000000e+02,5.500000000000000000e+01,8.000000000000000000e+01,4.300000000000000000e+02,2.240000000000000000e+02,4.199999999999999845e-01,9.726259700000000000e+09
1.000000000000000000e+02,2.040000000000000000e+02,8.800000000000000000e+02,1.760000000000000000e+02,5.700000000000000000e+01,8.000000000000000000e+01,4.360000000000000000e+02,2.260000000000000000e+02,4.199999999999999845e-01,9.755812600000000000e+09
1.040000000000000000e+02,2.050000000000000000e+02,7.750000000000000000e+02,1.500000000000000000e+02,5.300000000000000000e+01,8.700000000000000000e+01,4.630000000000000000e+02,2.390000000000000000e+02,4.199999999999999845e-01,9.773485800000000000e+09
1.060000000000000000e+02,2.080000000000000000e+02,8.290000000000000000e+02,1.510000000000000000e+02,5.600000000000000000e+01,9.000000000000000000e+01,4.320000000000000000e+02,2.030000000000000000e+02,4.199999999999999845e-01,9.791174400000000000e+09
1.100000000000000000e+02,2.090000000000000000e+02,8.250000000000000000e+02,1.670000000000000000e+02,5.700000000000000000e+01,8.100000000000000000e+01,4.260000000000000000e+02,1.900000000000000000e+02,4.099999999999999756e-01,9.809261100000000000e+09
1.090000000000000000e+02,2.070000000000000000e+02,7.130000000000000000e+02,1.810000000000000000e+02,5.700000000000000000e+01,7.700000000000000000e+01,4.090000000000000000e+02,2.020000000000000000e+02,4.099999999999999756e-01,9.826814100000000000e+09
1.060000000000000000e+02,2.070000000000000000e+02,7.630000000000000000e+02,1.780000000000000000e+02,5.500000000000000000e+01,7.800000000000000000e+01,4.490000000000000000e+02,2.380000000000000000e+02,4.099999999999999756e-01,9.844610000000000000e+09
9.800000000000000000e+01,2.170000000000000000e+02,7.580000000000000000e+02,1.780000000000000000e+02,5.500000000000000000e+01,6.600000000000000000e+01,4.380000000000000000e+02,2.170000000000000000e+02,4.099999999999999756e-01,9.875802700000000000e+09
1.000000000000000000e+02,2.060000000000000000e+02,7.060000000000000000e+02,1.590000000000000000e+02,4.500000000000000000e+01,7.700000000000000000e+01,4.880000000000000000e+02,2.070000000000000000e+02,4.099999999999999756e-01,9.893478200000000000e+09
1.000000000000000000e+02,2.060000000000000000e+02,6.750000000000000000e+02,1.530000000000000000e+02,4.900000000000000000e+01,8.400000000000000000e+01,4.420000000000000000e+02,2.040000000000000000e+02,4.099999999999999756e-01,9.911042900000000000e+09
1.000000000000000000e+02,1.890000000000000000e+02,7.150000000000000000e+02,1.340000000000000000e+02,4.500000000000000000e+01,8.300000000000000000e+01,4.590000000000000000e+02,1.800000000000000000e+02,4.099999999999999756e-01,9.935535300000000000e+09
1.050000000000000000e+02,2.130000000000000000e+02,7.080000000000000000e+02,1.370000000000000000e+02,4.700000000000000000e+01,8.200000000000000000e+01,4.260000000000000000e+02,1.500000000000000000e+02,4.199999999999999845e-01,9.953389400000000000e+09
1.100000000000000000e+02,1.970000000000000000e+02,7.240000000000000000e+02,1.370000000000000000e+02,5.000000000000000000e+01,9.400000000000000000e+01,4.450000000000000000e+02,1.710000000000000000e+02,4.199999999999999845e-01,9.972318200000000000e+09
1.100000000000000000e+02,2.090000000000000000e+02,7.140000000000000000e+02,1.370000000000000000e+02,4.900000000000000000e+01,8.400000000000000000e+01,3.760000000000000000e+02,1.840000000000000000e+02,4.299999999999999933e-01,9.989146900000000000e+09
1.030000000000000000e+02,2.170000000000000000e+02,7.000000000000000000e+02,1.310000000000000000e+02,4.200000000000000000e+01,6.800000000000000000e+01,3.580000000000000000e+02,2.020000000000000000e+02,4.299999999999999933e-01,1.000613820000000000e+10
1.010000000000000000e+02,2.170000000000000000e+02,6.560000000000000000e+02,1.280000000000000000e+02,4.000000000000000000e+01,6.700000000000000000e+01,3.280000000000000000e+02,2.020000000000000000e+02,4.400000000000000022e-01,1.002492270000000000e+10
1.050000000000000000e+02,2.120000000000000000e+02,5.870000000000000000e+02,1.510000000000000000e+02,4.900000000000000000e+01,7.000000000000000000e+01,3.180000000000000000e+02,1.810000000000000000e+02,4.500000000000000111e-01,1.004824790000000000e+10
1.030000000000000000e+02,2.240000000000000000e+02,5.650000000000000000e+02,1.560000000000000000e+02,5.100000000000000000e+01,4.900000000000000000e+01,2.900000000000000000e+02,2.330000000000000000e+02,4.500000000000000111e-01,1.006605300000000000e+10
