3.800000000000000000e+01,1.690000000000000000e+02,3.320000000000000000e+02,3.600000000000000000e+01,2.900000000000000000e+01,2.500000000000000000e+01,2.500000000000000000e+01,2.800000000000000000e+01,5.200000000000000178e-01,4.777928000000000000e+08
3.700000000000000000e+01,1.760000000000000000e+02,4.040000000000000000e+02,3.800000000000000000e+01,2.800000000000000000e+01,2.500000000000000000e+01,2.300000000000000000e+01,2.600000000000000000e+01,5.200000000000000178e-01,5.095318000000000000e+08
3.700000000000000000e+01,1.600000000000000000e+02,4.320000000000000000e+02,4.400000000000000000e+01,2.900000000000000000e+01,2.200000000000000000e+01,2.200000000000000000e+01,2.500000000000000000e+01,5.200000000000000178e-01,1.039698300000000000e+09
3.900000000000000000e+01,1.770000000000000000e+02,4.130000000000000000e+02,4.400000000000000000e+01,2.700000000000000000e+01,2.000000000000000000e+01,2.100000000000000000e+01,2.400000000000000000e+01,5.300000000000000266e-01,1.056948600000000000e+09
3.900000000000000000e+01,1.790000000000000000e+02,3.670000000000000000e+02,4.000000000000000000e+01,2.400000000000000000e+01,2.500000000000000000e+01,2.100000000000000000e+01,2.500000000000000000e+01,5.300000000000000266e-01,1.075052500000000000e+09
4.000000000000000000e+01,1.840000000000000000e+02,3.960000000000000000e+02,3.900000000000000000e+01,2.300000000000000000e+01,2.600000000000000000e+01,2.000000000000000000e+01,2.600000000000000000e+01,5.400000000000000355e-01,1.094254800000000000e+09
4.500000000000000000e+01,1.850000000000000000e+02,3.460000000000000000e+02,4.500000000000000000e+01,2.500000000000000000e+01,2.500000000000000000e+01,2.100000000000000000e+01,2.600000000000000000e+01,5.400000000000000355e-01,1.114435900000000000e+09
4.200000000000000000e+01,1.830000000000000000e+02,3.010000000000000000e+02,3.600000000000000000e+01,2.300000000000000000e+01,2.500000000000000000e+01,2.200000000000000000e+01,2.800000000000000000e+01,5.400000000000000355e-01,1.133678100000000000e+09
4.700000000000000000e+01,1.920000000000000000e+02,2.790000000000000000e+02,3.500000000000000000e+01,2.400000000000000000e+01,3.000000000000000000e+01,2.400000000000000000e+01,2.800000000000000000e+01,5.400000000000000355e-01,1.153141700000000000e+09
4.800000000000000000e+01,2.090000000000000000e+02,2.860000000000000000e+02,3.500000000000000000e+01,2.300000000000000000e+01,2.600000000000000000e+01,2.500000000000000000e+01,2.600000000000000000e+01,5.400000000000000355e-01,1.173412500000000000e+09
4.800000000000000000e+01,1.970000000000000000e+02,2.350000000000000000e+02,3.900000000000000000e+01,2.300000000000000000e+01,2.500000000000000000e+01,2.500000000000000000e+01,2.600000000000000000e+01,5.500000000000000444e-01,1.193805800000000000e+09
4.500000000000000000e+01,2.080000000000000000e+02,2.840000000000000000e+02,3.200000000000000000e+01,2.100000000000000000e+01,2.500000000000000000e+01,2.300000000000000000e+01,2.500000000000000000e+01,5.500000000000000444e-01,1.214577100000000000e+09
4.500000000000000000e+01,2.240000000000000000e+02,3.070000000000000000e+02,3.700000000000000000e+01,2.100000000000000000e+01,2.500000000000000000e+01,2.300000000000000000e+01,2.500000000000000000e+01,5.500000000000000444e-01,1.233962900000000000e+09
4.600000000000000000e+01,2.260000000000000000e+02,3.040000000000000000e+02,3.600000000000000000e+01,2.200000000000000000e+01,2.400000000000000000e+01,2.400000000000000000e+01,2.400000000000000000e+01,5.500000000000000444e-01,1.253827600000000000e+09
4.400000000000000000e+01,2.080000000000000000e+02,3.300000000000000000e+02,3.600000000000000000e+01,2.400000000000000000e+01,2.500000000000000000e+01,2.400000000000000000e+01,2.400000000000000000e+01,5.500000000000000444e-01,1.274017200000000000e+09
4.200000000000000000e+01,2.130000000000000000e+02,3.400000000000000000e+02,3.500000000000000000e+01,2.400000000000000000e+01,2.500000000000000000e+01,2.400000000000000000e+01,2.300000000000000000e+01,5.500000000000000444e-01,1.293531400000000000e+09
4.200000000000000000e+01,2.200000000000000000e+02,3.670000000000000000e+02,3.800000000000000000e+01,2.700000000000000000e+01,2.700000000000000000e+01,2.400000000000000000e+01,2.500000000000000000e+01,5.500000000000000444e-01,1.313966100000000000e+09
4.200000000000000000e+01,2.060000000000000000e+02,3.800000000000000000e+02,3.700000000000000000e+01,2.700000000000000000e+01,2.600000000000000000e+01,2.300000000000000000e+01,2.400000000000000000e+01,5.500000000000000444e-01,1.334269200000000000e+09
4.500000000000000000e+01,2.050000000000000000e+02,3.880000000000000000e+02,4.400000000000000000e+01,2.600000000000000000e+01,2.800000000000000000e+01,2.200000000000000000e+01,2.600000000000000000e+01,5.600000000000000533e-01,1.363663300000000000e+09
4.700000000000000000e+01,2.090000000000000000e+02,3.760000000000000000e+02,4.500000000000000000e+01,2.500000000000000000e+01,2.500000000000000000e+01,2.000000000000000000e+01,2.700000000000000000e+01,5.600000000000000533e-01,1.384479200000000000e+09
4.900000000000000000e+01,1.980000000000000000e+02,3.940000000000000000e+02,4.600000000000000000e+01,2.800000000000000000e+01,2.600000000000000000e+01,2.200000000000000000e+01,2.800000000000000000e+01,5.600000000000000533e-01,1.406020300000000000e+09
5.500000000000000000e+01,2.140000000000000000e+02,3.180000000000000000e+02,4.300000000000000000e+01,2.500000000000000000e+01,2.600000000000000000e+01,2.200000000000000000e+01,2.900000000000000000e+01,5.600000000000000533e-01,1.429214100000000000e+09
5.200000000000000000e+01,2.050000000000000000e+02,2.880000000000000000e+02,4.000000000000000000e+01,2.700000000000000000e+01,2.800000000000000000e+01,2.300000000000000000e+01,2.900000000000000000e+01,5.600000000000000533e-01,1.455072900000000000e+09
4.300000000000000000e+01,2.180000000000000000e+02,3.470000000000000000e+02,3.500000000000000000e+01,2.600000000000000000e+01,2.500000000000000000e+01,2.300000000000000000e+01,2.700000000000000000e+01,5.600000000000000533e-01,1.479133000000000000e+09
4.700000000000000000e+01,2.180000000000000000e+02,3.600000000000000000e+02,3.800000000000000000e+01,2.400000000000000000e+01,2.500000000000000000e+01,2.400000000000000000e+01,2.800000000000000000e+01,5.600000000000000533e-01,1.503827300000000000e+09
4.600000000000000000e+01,2.390000000000000000e+02,3.520000000000000000e+02,3.600000000000000000e+01,2.300000000000000000e+01,2.300000000000000000e+01,2.200000000000000000e+01,2.700000000000000000e+01,5.600000000000000533e-01,1.531069600000000000e+09
4.500000000000000000e+01,2.390000000000000000e+02,3.550000000000000000e+02,4.500000000000000000e+01,2.600000000000000000e+01,2.500000000000000000e+01,2.300000000000000000e+01,2.600000000000000000e+01,5.699999999999999512e-01,1.553899500000000000e+09
4.600000000000000000e+01,2.660000000000000000e+02,3.620000000000000000e+02,4.600000000000000000e+01,2.500000000000000000e+01,2.600000000000000000e+01,2.200000000000000000e+01,2.600000000000000000e+01,5.699999999999999512e-01,1.577810000000000000e+09
5.600000000000000000e+01,2.910000000000000000e+02,3.680000000000000000e+02,4.700000000000000000e+01,2.800000000000000000e+01,2.500000000000000000e+01,2.200000000000000000e+01,2.600000000000000000e+01,5.699999999999999512e-01,1.601464100000000000e+09
5.100000000000000000e+01,2.890000000000000000e+02,3.980000000000000000e+02,4.600000000000000000e+01,2.900000000000000000e+01,2.600000000000000000e+01,2.000000000000000000e+01,2.300000000000000000e+01,5.699999999999999512e-01,1.624699000000000000e+09
5.200000000000000000e+01,3.010000000000000000e+02,3.770000000000000000e+02,4.700000000000000000e+01,2.900000000000000000e+01,2.700000000000000000e+01,2.300000000000000000e+01,2.600000000000000000e+01,5.699999999999999512e-01,1.647249000000000000e+09
4.700000000000000000e+01,2.840000000000000000e+02,3.770000000000000000e+02,3.900000000000000000e+01,2.700000000000000000e+01,2.400000000000000000e+01,2.200000000000000000e+01,2.500000000000000000e+01,5.699999999999999512e-01,1.667988500000000000e+09
4.500000000000000000e+01,2.600000000000000000e+02,3.800000000000000000e+02,3.800000000000000000e+01,2.700000000000000000e+01,2.300000000000000000e+01,2.200000000000000000e+01,2.500000000000000000e+01,5.699999999999999512e-01,1.691044600000000000e+09
3.300000000000000000e+01,2.150000000000000000e+02,3.180000000000000000e+02,3.600000000000000000e+01,2.400000000000000000e+01,2.300000000000000000e+01,2.200000000000000000e+01,2.500000000000000000e+01,5.799999999999999600e-01,1.712950600000000000e+09
3.600000000000000000e+01,2.100000000000000000e+02,2.740000000000000000e+02,3.800000000000000000e+01,2.200000000000000000e+01,2.100000000000000000e+01,2.400000000000000000e+01,2.700000000000000000e+01,5.799999999999999600e-01,1.738495500000000000e+09
4.900000000000000000e+01,2.490000000000000000e+02,3.360000000000000000e+02,4.600000000000000000e+01,2.300000000000000000e+01,2.300000000000000000e+01,2.300000000000000000e+01,2.600000000000000000e+01,5.799999999999999600e-01,1.761143500000000000e+09
5.200000000000000000e+01,2.700000000000000000e+02,3.600000000000000000e+02,4.600000000000000000e+01,2.400000000000000000e+01,2.300000000000000000e+01,2.300000000000000000e+01,6.100000000000000000e+01,5.799999999999999600e-01,1.784268200000000000e+09
6.000000000000000000e+01,3.490000000000000000e+02,3.890000000000000000e+02,4.900000000000000000e+01,2.800000000000000000e+01,2.400000000000000000e+01,2.500000000000000000e+01,1.210000000000000000e+02,5.799999999999999600e-01,1.806589900000000000e+09
6.100000000000000000e+01,3.560000000000000000e+02,4.100000000000000000e+02,4.900000000000000000e+01,2.900000000000000000e+01,2.600000000000000000e+01,4.900000000000000000e+01,1.430000000000000000e+02,5.799999999999999600e-01,1.829902600000000000e+09
7.000000000000000000e+01,4.260000000000000000e+02,5.300000000000000000e+02,5.700000000000000000e+01,3.500000000000000000e+01,3.300000000000000000e+01,8.200000000000000000e+01,1.550000000000000000e+02,5.799999999999999600e-01,1.852699900000000000e+09
7.200000000000000000e+01,4.110000000000000000e+02,5.530000000000000000e+02,6.500000000000000000e+01,3.800000000000000000e+01,3.700000000000000000e+01,9.000000000000000000e+01,2.090000000000000000e+02,5.799999999999999600e-01,1.875026200000000000e+09
8.300000000000000000e+01,4.230000000000000000e+02,5.930000000000000000e+02,6.900000000000000000e+01,4.100000000000000000e+01,3.900000000000000000e+01,1.050000000000000000e+02,2.240000000000000000e+02,5.699999999999999512e-01,1.898460500000000000e+09
1.100000000000000000e+02,4.690000000000000000e+02,6.370000000000000000e+02,8.100000000000000000e+01,4.500000000000000000e+01,4.300000000000000000e+01,1.490000000000000000e+02,2.070000000000000000e+02,5.699999999999999512e-01,1.919510200000000000e+09
1.130000000000000000e+02,5.010000000000000000e+02,6.270000000000000000e+02,8.100000000000000000e+01,4.800000000000000000e+01,8.900000000000000000e+01,1.940000000000000000e+02,2.410000000000000000e+02,5.600000000000000533e-01,1.942157500000000000e+09
1.100000000000000000e+02,4.500000000000000000e+02,5.650000000000000000e+02,7.500000000000000000e+01,5.200000000000000000e+01,1.090000000000000000e+02,1.950000000000000000e+02,2.460000000000000000e+02,5.600000000000000533e-01,1.963048000000000000e+09
1.060000000000000000e+02,4.470000000000000000e+02,5.440000000000000000e+02,7.000000000000000000e+01,5.000000000000000000e+01,1.170000000000000000e+02,1.990000000000000000e+02,2.120000000000000000e+02,5.500000000000000444e-01,1.984596600000000000e+09
1.010000000000000000e+02,4.330000000000000000e+02,4.990000000000000000e+02,6.700000000000000000e+01,4.900000000000000000e+01,1.530000000000000000e+02,2.190000000000000000e+02,2.310000000000000000e+02,5.500000000000000444e-01,2.005852900000000000e+09
7.900000000000000000e+01,3.260000000000000000e+02,4.240000000000000000e+02,5.600000000000000000e+01,6.200000000000000000e+01,2.430000000000000000e+02,2.360000000000000000e+02,3.160000000000000000e+02,5.400000000000000355e-01,2.027366800000000000e+09
7.800000000000000000e+01,2.970000000000000000e+02,4.210000000000000000e+02,5.600000000000000000e+01,6.000000000000000000e+01,2.430000000000000000e+02,2.240000000000000000e+02,2.950000000000000000e+02,5.300000000000000266e-01,2.048458200000000000e+09
7.700000000000000000e+01,2.980000000000000000e+02,4.230000000000000000e+02,6.200000000000000000e+01,5.900000000000000000e+01,2.560000000000000000e+02,3.300000000000000000e+02,3.320000000000000000e+02,5.200000000000000178e-01,2.069802000000000000e+09
7.700000000000000000e+01,3.480000000000000000e+02,3.950000000000000000e+02,6.100000000000000000e+01,6.200000000000000000e+01,2.950000000000000000e+02,3.580000000000000000e+02,3.370000000000000000e+02,5.100000000000000089e-01,2.092368400000000000e+09
7.100000000000000000e+01,3.410000000000000000e+02,3.570000000000000000e+02,6.000000000000000000e+01,6.700000000000000000e+01,3.200000000000000000e+02,4.070000000000000000e+02,3.350000000000000000e+02,5.000000000000000000e-01,2.115003700000000000e+09
6.800000000000000000e+01,3.730000000000000000e+02,4.140000000000000000e+02,6.800000000000000000e+01,6.000000000000000000e+01,3.050000000000000000e+02,4.140000000000000000e+02,2.740000000000000000e+02,4.899999999999999911e-01,2.138802500000000000e+09
7.000000000000000000e+01,3.790000000000000000e+02,4.090000000000000000e+02,6.800000000000000000e+01,5.800000000000000000e+01,3.040000000000000000e+02,4.140000000000000000e+02,2.750000000000000000e+02,4.899999999999999911e-01,2.160900900000000000e+09
8.400000000000000000e+01,4.240000000000000000e+02,3.570000000000000000e+02,6.900000000000000000e+01,5.800000000000000000e+01,2.920000000000000000e+02,3.540000000000000000e+02,2.830000000000000000e+02,4.799999999999999822e-01,2.184108100000000000e+09
1.000000000000000000e+02,3.960000000000000000e+02,4.810000000000000000e+02,8.300000000000000000e+01,6.600000000000000000e+01,2.500000000000000000e+02,3.520000000000000000e+02,3.060000000000000000e+02,4.799999999999999822e-01,2.206410700000000000e+09
1.020000000000000000e+02,4.000000000000000000e+02,5.480000000000000000e+02,8.500000000000000000e+01,6.300000000000000000e+01,2.070000000000000000e+02,2.840000000000000000e+02,2.860000000000000000e+02,4.699999999999999734e-01,2.227707500000000000e+09
1.020000000000000000e+02,4.630000000000000000e+02,5.970000000000000000e+02,8.200000000000000000e+01,5.700000000000000000e+01,1.540000000000000000e+02,3.030000000000000000e+02,2.680000000000000000e+02,4.699999999999999734e-01,2.250387800000000000e+09
1.030000000000000000e+02,4.730000000000000000e+02,6.220000000000000000e+02,8.300000000000000000e+01,5.700000000000000000e+01,1.400000000000000000e+02,2.930000000000000000e+02,2.560000000000000000e+02,4.600000000000000200e-01,2.272324900000000000e+09
9.100000000000000000e+01,4.340000000000000000e+02,6.220000000000000000e+02,7.700000000000000000e+01,5.400000000000000000e+01,1.350000000000000000e+02,2.730000000000000000e+02,1.800000000000000000e+02,4.600000000000000200e-01,2.293767300000000000e+09
7.900000000000000000e+01,4.280000000000000000e+02,5.670000000000000000e+02,6.900000000000000000e+01,4.300000000000000000e+01,1.370000000000000000e+02,2.540000000000000000e+02,1.210000000000000000e+02,4.699999999999999734e-01,2.314972100000000000e+09
8.400000000000000000e+01,4.180000000000000000e+02,5.300000000000000000e+02,7.100000000000000000e+01,4.100000000000000000e+01,1.210000000000000000e+02,2.500000000000000000e+02,1.660000000000000000e+02,4.699999999999999734e-01,2.336785800000000000e+09
7.700000000000000000e+01,3.030000000000000000e+02,4.080000000000000000e+02,6.600000000000000000e+01,3.800000000000000000e+01,8.300000000000000000e+01,1.680000000000000000e+02,1.700000000000000000e+02,4.799999999999999822e-01,2.358221800000000000e+09
7.200000000000000000e+01,2.450000000000000000e+02,3.780000000000000000e+02,7.100000000000000000e+01,4.300000000000000000e+01,7.600000000000000000e+01,1.510000000000000000e+02,1.780000000000000000e+02,4.799999999999999822e-01,2.379369600000000000e+09
7.300000000000000000e+01,2.680000000000000000e+02,3.770000000000000000e+02,7.100000000000000000e+01,4.300000000000000000e+01,6.700000000000000000e+01,1.420000000000000000e+02,2.340000000000000000e+02,4.799999999999999822e-01,2.401266000000000000e+09
6.200000000000000000e+01,2.410000000000000000e+02,3.000000000000000000e+02,5.600000000000000000e+01,3.900000000000000000e+01,6.100000000000000000e+01,1.460000000000000000e+02,2.870000000000000000e+02,4.799999999999999822e-01,2.426297700000000000e+09
6.300000000000000000e+01,2.670000000000000000e+02,3.670000000000000000e+02,6.200000000000000000e+01,4.600000000000000000e+01,6.200000000000000000e+01,1.770000000000000000e+02,2.970000000000000000e+02,4.799999999999999822e-01,2.447230700000000000e+09
6.100000000000000000e+01,2.660000000000000000e+02,3.670000000000000000e+02,5.700000000000000000e+01,4.700000000000000000e+01,8.200000000000000000e+01,1.850000000000000000e+02,3.590000000000000000e+02,4.699999999999999734e-01,2.468283700000000000e+09
6.200000000000000000e+01,2.710000000000000000e+02,3.480000000000000000e+02,4.800000000000000000e+01,5.100000000000000000e+01,1.310000000000000000e+02,2.240000000000000000e+02,3.760000000000000000e+02,4.699999999999999734e-01,2.491443500000000000e+09
6.200000000000000000e+01,2.600000000000000000e+02,3.180000000000000000e+02,4.600000000000000000e+01,4.900000000000000000e+01,1.450000000000000000e+02,2.960000000000000000e+02,3.650000000000000000e+02,4.699999999999999734e-01,2.513873200000000000e+09
6.300000000000000000e+01,2.520000000000000000e+02,3.530000000000000000e+02,5.300000000000000000e+01,5.000000000000000000e+01,1.480000000000000000e+02,3.000000000000000000e+02,3.580000000000000000e+02,4.699999999999999734e-01,2.535687400000000000e+09
6.100000000000000000e+01,2.570000000000000000e+02,2.940000000000000000e+02,5.300000000000000000e+01,4.500000000000000000e+01,1.460000000000000000e+02,2.950000000000000000e+02,3.400000000000000000e+02,4.600000000000000200e-01,2.556650300000000000e+09
7.300000000000000000e+01,2.730000000000000000e+02,3.980000000000000000e+02,7.000000000000000000e+01,4.800000000000000000e+01,1.370000000000000000e+02,2.980000000000000000e+02,2.980000000000000000e+02,4.500000000000000111e-01,2.577711800000000000e+09
9.200000000000000000e+01,3.030000000000000000e+02,4.790000000000000000e+02,8.100000000000000000e+01,4.600000000000000000e+01,9.700000000000000000e+01,2.930000000000000000e+02,2.990000000000000000e+02,4.500000000000000111e-01,2.599004000000000000e+09
1.160000000000000000e+02,4.450000000000000000e+02,5.730000000000000000e+02,1.060000000000000000e+02,5.600000000000000000e+01,8.000000000000000000e+01,2.220000000000000000e+02,3.040000000000000000e+02,4.500000000000000111e-01,2.620466300000000000e+09
1.180000000000000000e+02,4.630000000000000000e+02,5.920000000000000000e+02,1.090000000000000000e+02,5.600000000000000000e+01,6.900000000000000000e+01,1.950000000000000000e+02,2.720000000000000000e+02,4.400000000000000022e-01,2.644158800000000000e+09
1.150000000000000000e+02,4.530000000000000000e+02,5.790000000000000000e+02,1.060000000000000000e+02,5.600000000000000000e+01,6.300000000000000000e+01,1.740000000000000000e+02,2.590000000000000000e+02,4.400000000000000022e-01,2.665941400000000000e+09
1.070000000000000000e+02,4.420000000000000000e+02,5.160000000000000000e+02,9.500000000000000000e+01,5.200000000000000000e+01,5.900000000000000000e+01,1.710000000000000000e+02,2.260000000000000000e+02,4.500000000000000111e-01,2.688745400000000000e+09
1.060000000000000000e+02,4.590000000000000000e+02,5.140000000000000000e+02,9.600000000000000000e+01,4.600000000000000000e+01,5.300000000000000000e+01,1.360000000000000000e+02,1.970000000000000000e+02,4.500000000000000111e-01,2.710914400000000000e+09
8.400000000000000000e+01,3.470000000000000000e+02,4.140000000000000000e+02,7.100000000000000000e+01,3.400000000000000000e+01,3.700000000000000000e+01,1.220000000000000000e+02,1.980000000000000000e+02,4.600000000000000200e-01,2.734386700000000000e+09
7.800000000000000000e+01,3.250000000000000000e+02,3.670000000000000000e+02,6.200000000000000000e+01,3.200000000000000000e+01,3.700000000000000000e+01,1.120000000000000000e+02,1.850000000000000000e+02,4.600000000000000200e-01,2.756278000000000000e+09
8.200000000000000000e+01,3.410000000000000000e+02,4.900000000000000000e+02,7.300000000000000000e+01,3.600000000000000000e+01,3.900000000000000000e+01,1.070000000000000000e+02,1.790000000000000000e+02,4.699999999999999734e-01,2.778074100000000000e+09
9.000000000000000000e+01,3.610000000000000000e+02,5.140000000000000000e+02,7.800000000000000000e+01,3.800000000000000000e+01,3.700000000000000000e+01,7.800000000000000000e+01,1.790000000000000000e+02,4.799999999999999822e-01,2.799185000000000000e+09
7.900000000000000000e+01,3.340000000000000000e+02,4.940000000000000000e+02,6.700000000000000000e+01,4.100000000000000000e+01,3.200000000000000000e+01,5.700000000000000000e+01,1.660000000000000000e+02,4.799999999999999822e-01,2.823653800000000000e+09
7.500000000000000000e+01,3.120000000000000000e+02,5.180000000000000000e+02,7.000000000000000000e+01,4.100000000000000000e+01,3.300000000000000000e+01,4.600000000000000000e+01,1.010000000000000000e+02,4.899999999999999911e-01,2.848953600000000000e+09
7.600000000000000000e+01,3.190000000000000000e+02,5.400000000000000000e+02,7.200000000000000000e+01,4.200000000000000000e+01,3.000000000000000000e+01,4.200000000000000000e+01,9.000000000000000000e+01,5.000000000000000000e-01,2.871968200000000000e+09
6.700000000000000000e+01,3.150000000000000000e+02,4.190000000000000000e+02,5.700000000000000000e+01,3.400000000000000000e+01,2.600000000000000000e+01,3.200000000000000000e+01,1.110000000000000000e+02,5.000000000000000000e-01,2.893942300000000000e+09
6.000000000000000000e+01,3.180000000000000000e+02,4.000000000000000000e+02,5.100000000000000000e+01,3.400000000000000000e+01,2.700000000000000000e+01,3.200000000000000000e+01,1.120000000000000000e+02,5.100000000000000089e-01,2.914571600000000000e+09
5.500000000000000000e+01,3.350000000000000000e+02,4.230000000000000000e+02,5.400000000000000000e+01,3.000000000000000000e+01,2.800000000000000000e+01,2.900000000000000000e+01,1.090000000000000000e+02,5.200000000000000178e-01,2.937362000000000000e+09
5.500000000000000000e+01,3.400000000000000000e+02,4.530000000000000000e+02,4.700000000000000000e+01,2.800000000000000000e+01,2.800000000000000000e+01,3.000000000000000000e+01,1.060000000000000000e+02,5.200000000000000178e-01,2.958963600000000000e+09
5.800000000000000000e+01,3.600000000000000000e+02,4.210000000000000000e+02,4.600000000000000000e+01,2.900000000000000000e+01,2.900000000000000000e+01,3.100000000000000000e+01,1.050000000000000000e+02,5.300000000000000266e-01,2.982104700000000000e+09
5.800000000000000000e+01,3.430000000000000000e+02,4.330000000000000000e+02,4.700000000000000000e+01,2.900000000000000000e+01,2.900000000000000000e+01,3.100000000000000000e+01,9.800000000000000000e+01,5.300000000000000266e-01,3.003676300000000000e+09
5.500000000000000000e+01,3.310000000000000000e+02,4.360000000000000000e+02,4.800000000000000000e+01,2.900000000000000000e+01,2.900000000000000000e+01,3.000000000000000000e+01,1.140000000000000000e+02,5.400000000000000355e-01,3.025493300000000000e+09
4.900000000000000000e+01,2.810000000000000000e+02,3.620000000000000000e+02,4.300000000000000000e+01,2.700000000000000000e+01,2.800000000000000000e+01,2.800000000000000000e+01,1.290000000000000000e+02,5.400000000000000355e-01,3.048010300000000000e+09
5.200000000000000000e+01,2.670000000000000000e+02,3.700000000000000000e+02,5.500000000000000000e+01,3.000000000000000000e+01,3.400000000000000000e+01,2.800000000000000000e+01,1.290000000000000000e+02,5.400000000000000355e-01,3.069656700000000000e+09
5.200000000000000000e+01,2.350000000000000000e+02,3.880000000000000000e+02,5.500000000000000000e+01,3.000000000000000000e+01,3.400000000000000000e+01,2.900000000000000000e+01,1.770000000000000000e+02,5.500000000000000444e-01,3.091325900000000000e+09
5.300000000000000000e+01,2.630000000000000000e+02,3.810000000000000000e+02,5.600000000000000000e+01,2.900000000000000000e+01,3.400000000000000000e+01,2.800000000000000000e+01,1.710000000000000000e+02,5.500000000000000444e-01,3.113105900000000000e+09
5.400000000000000000e+01,2.510000000000000000e+02,3.960000000000000000e+02,5.900000000000000000e+01,3.600000000000000000e+01,1.220000000000000000e+02,3.300000000000000000e+01,1.990000000000000000e+02,5.500000000000000444e-01,3.135222600000000000e+09
5.200000000000000000e+01,2.460000000000000000e+02,3.970000000000000000e+02,5.500000000000000000e+01,3.800000000000000000e+01,1.400000000000000000e+02,3.200000000000000000e+01,1.940000000000000000e+02,5.400000000000000355e-01,3.156386600000000000e+09
5.800000000000000000e+01,2.640000000000000000e+02,3.970000000000000000e+02,5.900000000000000000e+01,4.400000000000000000e+01,1.400000000000000000e+02,3.500000000000000000e+01,1.960000000000000000e+02,5.400000000000000355e-01,3.178285500000000000e+09
5.900000000000000000e+01,2.700000000000000000e+02,3.910000000000000000e+02,5.900000000000000000e+01,4.400000000000000000e+01,1.420000000000000000e+02,3.300000000000000000e+01,1.600000000000000000e+02,5.400000000000000355e-01,3.199426500000000000e+09
6.400000000000000000e+01,2.480000000000000000e+02,4.010000000000000000e+02,6.000000000000000000e+01,4.500000000000000000e+01,1.500000000000000000e+02,5.300000000000000000e+01,2.100000000000000000e+02,5.400000000000000355e-01,3.222114500000000000e+09
7.700000000000000000e+01,2.910000000000000000e+02,3.880000000000000000e+02,6.700000000000000000e+01,4.900000000000000000e+01,1.300000000000000000e+02,1.140000000000000000e+02,1.810000000000000000e+02,5.300000000000000266e-01,3.244798100000000000e+09
7.800000000000000000e+01,3.110000000000000000e+02,4.280000000000000000e+02,6.800000000000000000e+01,4.800000000000000000e+01,1.120000000000000000e+02,1.160000000000000000e+02,1.760000000000000000e+02,5.300000000000000266e-01,3.266897900000000000e+09
6.800000000000000000e+01,2.850000000000000000e+02,3.510000000000000000e+02,5.300000000000000000e+01,4.000000000000000000e+01,1.120000000000000000e+02,1.210000000000000000e+02,1.840000000000000000e+02,5.200000000000000178e-01,3.287612900000000000e+09
7.200000000000000000e+01,3.650000000000000000e+02,3.640000000000000000e+02,5.400000000000000000e+01,4.000000000000000000e+01,1.100000000000000000e+02,1.230000000000000000e+02,2.060000000000000000e+02,5.200000000000000178e-01,3.308838800000000000e+09
7.200000000000000000e+01,3.710000000000000000e+02,3.940000000000000000e+02,5.700000000000000000e+01,4.000000000000000000e+01,1.050000000000000000e+02,1.300000000000000000e+02,1.620000000000000000e+02,5.200000000000000178e-01,3.329467600000000000e+09
6.700000000000000000e+01,3.410000000000000000e+02,3.850000000000000000e+02,5.000000000000000000e+01,2.800000000000000000e+01,6.200000000000000000e+01,1.080000000000000000e+02,1.670000000000000000e+02,5.200000000000000178e-01,3.352142700000000000e+09
6.600000000000000000e+01,3.440000000000000000e+02,3.790000000000000000e+02,5.000000000000000000e+01,2.700000000000000000e+01,6.100000000000000000e+01,1.160000000000000000e+02,1.740000000000000000e+02,5.200000000000000178e-01,3.373034500000000000e+09
7.700000000000000000e+01,3.670000000000000000e+02,4.800000000000000000e+02,6.500000000000000000e+01,3.300000000000000000e+01,6.100000000000000000e+01,1.400000000000000000e+02,2.070000000000000000e+02,5.200000000000000178e-01,3.393044800000000000e+09
8.100000000000000000e+01,3.120000000000000000e+02,4.890000000000000000e+02,7.000000000000000000e+01,3.500000000000000000e+01,6.200000000000000000e+01,1.470000000000000000e+02,2.000000000000000000e+02,5.200000000000000178e-01,3.412821700000000000e+09
8.300000000000000000e+01,3.240000000000000000e+02,4.870000000000000000e+02,7.000000000000000000e+01,3.700000000000000000e+01,5.300000000000000000e+01,1.430000000000000000e+02,2.030000000000000000e+02,5.200000000000000178e-01,3.433491700000000000e+09
7.700000000000000000e+01,3.160000000000000000e+02,4.770000000000000000e+02,6.500000000000000000e+01,3.500000000000000000e+01,4.100000000000000000e+01,1.330000000000000000e+02,2.170000000000000000e+02,5.200000000000000178e-01,3.453348300000000000e+09
7.900000000000000000e+01,3.240000000000000000e+02,4.650000000000000000e+02,6.900000000000000000e+01,3.900000000000000000e+01,6.300000000000000000e+01,1.340000000000000000e+02,2.230000000000000000e+02,5.200000000000000178e-01,3.473656200000000000e+09
6.800000000000000000e+01,2.910000000000000000e+02,3.550000000000000000e+02,5.600000000000000000e+01,3.500000000000000000e+01,6.500000000000000000e+01,1.370000000000000000e+02,2.260000000000000000e+02,5.100000000000000089e-01,3.495648100000000000e+09
5.600000000000000000e+01,2.490000000000000000e+02,3.070000000000000000e+02,4.600000000000000000e+01,3.600000000000000000e+01,7.300000000000000000e+01,1.450000000000000000e+02,2.210000000000000000e+02,5.100000000000000089e-01,3.517500300000000000e+09
5.100000000000000000e+01,2.080000000000000000e+02,2.880000000000000000e+02,4.300000000000000000e+01,3.200000000000000000e+01,7.300000000000000000e+01,1.420000000000000000e+02,2.220000000000000000e+02,5.100000000000000089e-01,3.541108800000000000e+09
4.800000000000000000e+01,2.050000000000000000e+02,2.800000000000000000e+02,3.900000000000000000e+01,3.200000000000000000e+01,7.200000000000000000e+01,1.450000000000000000e+02,2.620000000000000000e+02,5.100000000000000089e-01,3.563902000000000000e+09
4.800000000000000000e+01,1.520000000000000000e+02,2.260000000000000000e+02,3.200000000000000000e+01,2.900000000000000000e+01,6.300000000000000000e+01,1.490000000000000000e+02,2.590000000000000000e+02,5.000000000000000000e-01,3.586565900000000000e+09
5.200000000000000000e+01,1.560000000000000000e+02,2.270000000000000000e+02,3.200000000000000000e+01,2.900000000000000000e+01,6.000000000000000000e+01,1.550000000000000000e+02,2.530000000000000000e+02,4.899999999999999911e-01,3.611241900000000000e+09
5.400000000000000000e+01,1.540000000000000000e+02,2.260000000000000000e+02,3.600000000000000000e+01,2.700000000000000000e+01,4.600000000000000000e+01,1.500000000000000000e+02,2.570000000000000000e+02,4.799999999999999822e-01,3.635027200000000000e+09
6.000000000000000000e+01,2.200000000000000000e+02,3.020000000000000000e+02,4.100000000000000000e+01,3.400000000000000000e+01,5.000000000000000000e+01,1.490000000000000000e+02,2.540000000000000000e+02,4.799999999999999822e-01,3.656491300000000000e+09
6.600000000000000000e+01,3.120000000000000000e+02,3.350000000000000000e+02,4.300000000000000000e+01,3.400000000000000000e+01,5.000000000000000000e+01,1.380000000000000000e+02,1.890000000000000000e+02,4.799999999999999822e-01,3.678947300000000000e+09
7.200000000000000000e+01,4.010000000000000000e+02,4.260000000000000000e+02,4.900000000000000000e+01,3.700000000000000000e+01,4.200000000000000000e+01,1.250000000000000000e+02,1.790000000000000000e+02,4.799999999999999822e-01,3.700259700000000000e+09
7.400000000000000000e+01,4.100000000000000000e+02,4.640000000000000000e+02,5.800000000000000000e+01,3.900000000000000000e+01,4.000000000000000000e+01,7.600000000000000000e+01,1.300000000000000000e+02,4.799999999999999822e-01,3.721995200000000000e+09
8.800000000000000000e+01,4.090000000000000000e+02,5.670000000000000000e+02,8.700000000000000000e+01,5.100000000000000000e+01,4.500000000000000000e+01,5.300000000000000000e+01,9.900000000000000000e+01,4.799999999999999822e-01,3.744923200000000000e+09
8.700000000000000000e+01,4.030000000000000000e+02,5.530000000000000000e+02,9.100000000000000000e+01,5.000000000000000000e+01,4.300000000000000000e+01,4.200000000000000000e+01,7.300000000000000000e+01,4.899999999999999911e-01,3.766292700000000000e+09
9.000000000000000000e+01,3.590000000000000000e+02,5.820000000000000000e+02,9.600000000000000000e+01,5.400000000000000000e+01,4.100000000000000000e+01,3.800000000000000000e+01,5.800000000000000000e+01,5.000000000000000000e-01,3.787791500000000000e+09
9.000000000000000000e+01,3.350000000000000000e+02,5.670000000000000000e+02,1.020000000000000000e+02,5.200000000000000000e+01,3.900000000000000000e+01,3.600000000000000000e+01,5.600000000000000000e+01,5.000000000000000000e-01,3.808421900000000000e+09
8.900000000000000000e+01,4.330000000000000000e+02,6.100000000000000000e+02,1.050000000000000000e+02,5.500000000000000000e+01,4.900000000000000000e+01,3.400000000000000000e+01,5.800000000000000000e+01,5.100000000000000089e-01,3.830095200000000000e+09
9.900000000000000000e+01,4.940000000000000000e+02,5.410000000000000000e+02,9.300000000000000000e+01,5.000000000000000000e+01,4.700000000000000000e+01,3.200000000000000000e+01,6.100000000000000000e+01,5.200000000000000178e-01,3.851982200000000000e+09
1.040000000000000000e+02,5.300000000000000000e+02,5.330000000000000000e+02,9.100000000000000000e+01,5.000000000000000000e+01,4.500000000000000000e+01,3.100000000000000000e+01,9.100000000000000000e+01,5.300000000000000266e-01,3.873404200000000000e+09
1.050000000000000000e+02,5.430000000000000000e+02,5.590000000000000000e+02,9.000000000000000000e+01,5.400000000000000000e+01,4.700000000000000000e+01,3.200000000000000000e+01,9.300000000000000000e+01,5.400000000000000355e-01,3.897680600000000000e+09
1.060000000000000000e+02,5.290000000000000000e+02,5.600000000000000000e+02,8.900000000000000000e+01,5.700000000000000000e+01,4.900000000000000000e+01,3.200000000000000000e+01,9.300000000000000000e+01,5.500000000000000444e-01,3.923126300000000000e+09
1.170000000000000000e+02,5.220000000000000000e+02,6.730000000000000000e+02,1.100000000000000000e+02,5.800000000000000000e+01,3.900000000000000000e+01,3.600000000000000000e+01,9.200000000000000000e+01,5.600000000000000533e-01,3.949905200000000000e+09
1.100000000000000000e+02,4.990000000000000000e+02,7.290000000000000000e+02,1.090000000000000000e+02,5.700000000000000000e+01,4.000000000000000000e+01,3.600000000000000000e+01,8.900000000000000000e+01,5.600000000000000533e-01,3.972618500000000000e+09
1.070000000000000000e+02,4.590000000000000000e+02,7.510000000000000000e+02,1.070000000000000000e+02,6.000000000000000000e+01,4.100000000000000000e+01,3.600000000000000000e+01,5.900000000000000000e+01,5.600000000000000533e-01,3.993149600000000000e+09
1.320000000000000000e+02,5.090000000000000000e+02,8.090000000000000000e+02,1.520000000000000000e+02,7.300000000000000000e+01,4.800000000000000000e+01,4.000000000000000000e+01,6.300000000000000000e+01,5.500000000000000444e-01,4.016112300000000000e+09
1.810000000000000000e+02,6.480000000000000000e+02,8.680000000000000000e+02,1.750000000000000000e+02,9.100000000000000000e+01,5.700000000000000000e+01,4.600000000000000000e+01,7.500000000000000000e+01,5.400000000000000355e-01,4.040619800000000000e+09
2.110000000000000000e+02,7.480000000000000000e+02,9.250000000000000000e+02,2.020000000000000000e+02,1.120000000000000000e+02,6.600000000000000000e+01,5.200000000000000000e+01,8.600000000000000000e+01,5.300000000000000266e-01,4.061690600000000000e+09
2.240000000000000000e+02,8.360000000000000000e+02,9.720000000000000000e+02,2.300000000000000000e+02,1.380000000000000000e+02,7.900000000000000000e+01,5.900000000000000000e+01,9.300000000000000000e+01,5.200000000000000178e-01,4.084824300000000000e+09
2.380000000000000000e+02,9.060000000000000000e+02,1.129000000000000000e+03,2.670000000000000000e+02,1.530000000000000000e+02,8.500000000000000000e+01,6.300000000000000000e+01,1.090000000000000000e+02,5.000000000000000000e-01,4.109589300000000000e+09
2.410000000000000000e+02,9.270000000000000000e+02,1.094000000000000000e+03,2.720000000000000000e+02,1.700000000000000000e+02,9.800000000000000000e+01,6.400000000000000000e+01,1.100000000000000000e+02,4.799999999999999822e-01,4.132302200000000000e+09
2.170000000000000000e+02,9.120000000000000000e+02,1.148000000000000000e+03,4.120000000000000000e+02,2.560000000000000000e+02,1.200000000000000000e+02,6.300000000000000000e+01,1.010000000000000000e+02,4.500000000000000111e-01,4.154722300000000000e+09
1.860000000000000000e+02,8.000000000000000000e+02,1.028000000000000000e+03,4.810000000000000000e+02,3.660000000000000000e+02,1.350000000000000000e+02,6.400000000000000000e+01,9.800000000000000000e+01,4.199999999999999845e-01,4.176513100000000000e+09
1.680000000000000000e+02,7.190000000000000000e+02,9.660000000000000000e+02,4.910000000000000000e+02,4.180000000000000000e+02,1.430000000000000000e+02,6.000000000000000000e+01,9.000000000000000000e+01,3.900000000000000133e-01,4.197303800000000000e+09
1.520000000000000000e+02,6.210000000000000000e+02,7.630000000000000000e+02,5.460000000000000000e+02,5.770000000000000000e+02,1.630000000000000000e+02,6.700000000000000000e+01,7.900000000000000000e+01,3.599999999999999867e-01,4.218979100000000000e+09
1.340000000000000000e+02,5.380000000000000000e+02,7.490000000000000000e+02,7.040000000000000000e+02,6.810000000000000000e+02,1.910000000000000000e+02,7.300000000000000000e+01,8.300000000000000000e+01,3.300000000000000155e-01,4.241147500000000000e+09
1.120000000000000000e+02,3.610000000000000000e+02,5.480000000000000000e+02,6.510000000000000000e+02,6.630000000000000000e+02,1.780000000000000000e+02,7.100000000000000000e+01,8.100000000000000000e+01,2.899999999999999800e-01,4.264952600000000000e+09
1.100000000000000000e+02,3.720000000000000000e+02,5.170000000000000000e+02,6.090000000000000000e+02,6.180000000000000000e+02,1.660000000000000000e+02,6.500000000000000000e+01,7.100000000000000000e+01,2.600000000000000089e-01,4.296325000000000000e+09
1.000000000000000000e+02,3.170000000000000000e+02,4.530000000000000000e+02,5.920000000000000000e+02,6.020000000000000000e+02,1.530000000000000000e+02,6.200000000000000000e+01,6.900000000000000000e+01,2.399999999999999911e-01,4.320542200000000000e+09
8.900000000000000000e+01,3.160000000000000000e+02,3.860000000000000000e+02,5.490000000000000000e+02,4.640000000000000000e+02,1.320000000000000000e+02,5.200000000000000000e+01,5.600000000000000000e+01,2.200000000000000011e-01,4.345806200000000000e+09
6.800000000000000000e+01,2.970000000000000000e+02,3.430000000000000000e+02,3.190000000000000000e+02,2.970000000000000000e+02,7.500000000000000000e+01,3.500000000000000000e+01,3.800000000000000000e+01,2.099999999999999922e-01,4.376113800000000000e+09
7.200000000000000000e+01,2.880000000000000000e+02,3.530000000000000000e+02,2.650000000000000000e+02,2.720000000000000000e+02,7.100000000000000000e+01,3.400000000000000000e+01,4.100000000000000000e+01,2.000000000000000111e-01,4.398761600000000000e+09
6.500000000000000000e+01,2.250000000000000000e+02,3.330000000000000000e+02,2.290000000000000000e+02,2.420000000000000000e+02,6.800000000000000000e+01,3.500000000000000000e+01,7.200000000000000000e+01,1.900000000000000022e-01,4.424783300000000000e+09
6.700000000000000000e+01,2.280000000000000000e+02,3.510000000000000000e+02,2.330000000000000000e+02,1.800000000000000000e+02,6.700000000000000000e+01,9.300000000000000000e+01,1.520000000000000000e+02,1.900000000000000022e-01,4.448450000000000000e+09
8.500000000000000000e+01,2.140000000000000000e+02,4.230000000000000000e+02,1.790000000000000000e+02,1.400000000000000000e+02,7.000000000000000000e+01,1.890000000000000000e+02,2.380000000000000000e+02,2.000000000000000111e-01,4.475220600000000000e+09
1.110000000000000000e+02,2.080000000000000000e+02,4.010000000000000000e+02,1.420000000000000000e+02,8.900000000000000000e+01,6.200000000000000000e+01,2.060000000000000000e+02,3.120000000000000000e+02,2.099999999999999922e-01,4.498524500000000000e+09
1.550000000000000000e+02,2.500000000000000000e+02,5.110000000000000000e+02,1.430000000000000000e+02,8.400000000000000000e+01,6.200000000000000000e+01,2.270000000000000000e+02,3.770000000000000000e+02,2.200000000000000011e-01,4.523554900000000000e+09
1.720000000000000000e+02,3.350000000000000000e+02,5.140000000000000000e+02,1.280000000000000000e+02,8.100000000000000000e+01,6.400000000000000000e+01,2.490000000000000000e+02,4.150000000000000000e+02,2.399999999999999911e-01,4.545510600000000000e+09
2.220000000000000000e+02,4.730000000000000000e+02,5.620000000000000000e+02,1.380000000000000000e+02,1.020000000000000000e+02,9.000000000000000000e+01,2.580000000000000000e+02,4.560000000000000000e+02,2.500000000000000000e-01,4.567261300000000000e+09
2.230000000000000000e+02,5.050000000000000000e+02,5.520000000000000000e+02,1.250000000000000000e+02,9.900000000000000000e+01,8.700000000000000000e+01,2.230000000000000000e+02,4.270000000000000000e+02,2.700000000000000178e-01,4.592783400000000000e+09
2.760000000000000000e+02,7.440000000000000000e+02,6.110000000000000000e+02,1.560000000000000000e+02,1.080000000000000000e+02,8.800000000000000000e+01,2.410000000000000000e+02,4.090000000000000000e+02,2.899999999999999800e-01,4.617030800000000000e+09
2.850000000000000000e+02,8.500000000000000000e+02,5.580000000000000000e+02,1.780000000000000000e+02,1.160000000000000000e+02,8.900000000000000000e+01,2.460000000000000000e+02,4.310000000000000000e+02,3.099999999999999978e-01,4.641585000000000000e+09
2.860000000000000000e+02,8.570000000000000000e+02,6.040000000000000000e+02,1.780000000000000000e+02,1.160000000000000000e+02,9.300000000000000000e+01,2.290000000000000000e+02,3.960000000000000000e+02,3.300000000000000155e-01,4.667044800000000000e+09
2.670000000000000000e+02,9.020000000000000000e+02,5.970000000000000000e+02,1.580000000000000000e+02,9.000000000000000000e+01,1.080000000000000000e+02,2.720000000000000000e+02,3.860000000000000000e+02,3.400000000000000244e-01,4.688251600000000000e+09
3.130000000000000000e+02,9.680000000000000000e+02,6.490000000000000000e+02,1.730000000000000000e+02,9.100000000000000000e+01,1.280000000000000000e+02,3.070000000000000000e+02,4.450000000000000000e+02,3.599999999999999867e-01,4.715139800000000000e+09
2.760000000000000000e+02,8.650000000000000000e+02,5.970000000000000000e+02,1.420000000000000000e+02,8.700000000000000000e+01,1.340000000000000000e+02,2.920000000000000000e+02,4.270000000000000000e+02,3.699999999999999956e-01,4.736312200000000000e+09
2.640000000000000000e+02,8.580000000000000000e+02,5.720000000000000000e+02,1.380000000000000000e+02,1.540000000000000000e+02,1.420000000000000000e+02,2.920000000000000000e+02,3.720000000000000000e+02,3.800000000000000044e-01,4.758695500000000000e+09
2.840000000000000000e+02,9.140000000000000000e+02,5.580000000000000000e+02,1.620000000000000000e+02,1.860000000000000000e+02,1.550000000000000000e+02,2.960000000000000000e+02,3.970000000000000000e+02,3.900000000000000133e-01,4.783996700000000000e+09
3.370000000000000000e+02,8.460000000000000000e+02,6.480000000000000000e+02,2.940000000000000000e+02,2.030000000000000000e+02,1.360000000000000000e+02,2.700000000000000000e+02,3.590000000000000000e+02,3.900000000000000133e-01,4.807161700000000000e+09
3.100000000000000000e+02,7.990000000000000000e+02,6.560000000000000000e+02,3.580000000000000000e+02,2.130000000000000000e+02,1.170000000000000000e+02,2.210000000000000000e+02,3.440000000000000000e+02,3.800000000000000044e-01,4.829067300000000000e+09
3.030000000000000000e+02,7.610000000000000000e+02,6.730000000000000000e+02,3.750000000000000000e+02,2.450000000000000000e+02,1.110000000000000000e+02,2.260000000000000000e+02,3.450000000000000000e+02,3.699999999999999956e-01,4.849315400000000000e+09
3.560000000000000000e+02,7.440000000000000000e+02,7.050000000000000000e+02,3.820000000000000000e+02,2.180000000000000000e+02,1.080000000000000000e+02,2.210000000000000000e+02,3.540000000000000000e+02,3.699999999999999956e-01,4.871683100000000000e+09
4.210000000000000000e+02,6.430000000000000000e+02,7.800000000000000000e+02,3.870000000000000000e+02,2.120000000000000000e+02,9.800000000000000000e+01,2.310000000000000000e+02,4.970000000000000000e+02,3.599999999999999867e-01,4.894972000000000000e+09
5.130000000000000000e+02,5.920000000000000000e+02,7.770000000000000000e+02,3.740000000000000000e+02,2.540000000000000000e+02,1.300000000000000000e+02,2.020000000000000000e+02,5.270000000000000000e+02,3.400000000000000244e-01,4.918179600000000000e+09
5.550000000000000000e+02,5.730000000000000000e+02,7.400000000000000000e+02,3.380000000000000000e+02,2.710000000000000000e+02,1.340000000000000000e+02,2.030000000000000000e+02,5.110000000000000000e+02,3.300000000000000155e-01,4.941992800000000000e+09
5.770000000000000000e+02,5.780000000000000000e+02,7.440000000000000000e+02,3.380000000000000000e+02,2.490000000000000000e+02,1.350000000000000000e+02,2.010000000000000000e+02,5.310000000000000000e+02,3.200000000000000067e-01,4.967360400000000000e+09
5.660000000000000000e+02,5.580000000000000000e+02,8.190000000000000000e+02,3.890000000000000000e+02,2.580000000000000000e+02,1.350000000000000000e+02,1.990000000000000000e+02,5.230000000000000000e+02,2.999999999999999889e-01,4.999159700000000000e+09
5.100000000000000000e+02,6.600000000000000000e+02,8.080000000000000000e+02,3.960000000000000000e+02,2.500000000000000000e+02,1.250000000000000000e+02,1.830000000000000000e+02,3.710000000000000000e+02,2.800000000000000266e-01,5.028588300000000000e+09
4.550000000000000000e+02,7.520000000000000000e+02,7.750000000000000000e+02,3.350000000000000000e+02,1.940000000000000000e+02,8.700000000000000000e+01,1.680000000000000000e+02,3.300000000000000000e+02,2.700000000000000178e-01,5.063140600000000000e+09
4.290000000000000000e+02,8.640000000000000000e+02,7.680000000000000000e+02,3.030000000000000000e+02,1.550000000000000000e+02,7.600000000000000000e+01,1.540000000000000000e+02,3.260000000000000000e+02,2.500000000000000000e-01,5.092913400000000000e+09
4.070000000000000000e+02,9.150000000000000000e+02,7.730000000000000000e+02,3.080000000000000000e+02,1.410000000000000000e+02,6.800000000000000000e+01,1.280000000000000000e+02,2.870000000000000000e+02,2.500000000000000000e-01,5.125347700000000000e+09
3.770000000000000000e+02,8.880000000000000000e+02,7.740000000000000000e+02,2.630000000000000000e+02,1.180000000000000000e+02,5.700000000000000000e+01,9.900000000000000000e+01,2.920000000000000000e+02,2.500000000000000000e-01,5.158317900000000000e+09
3.680000000000000000e+02,8.330000000000000000e+02,7.260000000000000000e+02,2.420000000000000000e+02,1.170000000000000000e+02,5.400000000000000000e+01,7.900000000000000000e+01,2.780000000000000000e+02,2.600000000000000089e-01,5.189566200000000000e+09
2.970000000000000000e+02,8.610000000000000000e+02,7.060000000000000000e+02,2.430000000000000000e+02,1.160000000000000000e+02,5.500000000000000000e+01,7.500000000000000000e+01,2.480000000000000000e+02,2.600000000000000089e-01,5.215636700000000000e+09
2.560000000000000000e+02,7.500000000000000000e+02,7.290000000000000000e+02,2.530000000000000000e+02,1.150000000000000000e+02,5.800000000000000000e+01,5.900000000000000000e+01,2.070000000000000000e+02,2.600000000000000089e-01,5.240727000000000000e+09
2.600000000000000000e+02,6.780000000000000000e+02,7.480000000000000000e+02,2.330000000000000000e+02,1.170000000000000000e+02,6.100000000000000000e+01,6.000000000000000000e+01,2.010000000000000000e+02,2.600000000000000089e-01,5.268729400000000000e+09
3.270000000000000000e+02,7.190000000000000000e+02,7.530000000000000000e+02,2.030000000000000000e+02,1.350000000000000000e+02,5.900000000000000000e+01,5.800000000000000000e+01,1.740000000000000000e+02,2.600000000000000089e-01,5.293446900000000000e+09
4.310000000000000000e+02,8.320000000000000000e+02,7.910000000000000000e+02,2.040000000000000000e+02,1.250000000000000000e+02,6.300000000000000000e+01,6.500000000000000000e+01,1.800000000000000000e+02,2.700000000000000178e-01,5.320294100000000000e+09
4.240000000000000000e+02,8.150000000000000000e+02,7.930000000000000000e+02,1.950000000000000000e+02,1.310000000000000000e+02,6.100000000000000000e+01,6.100000000000000000e+01,1.750000000000000000e+02,2.899999999999999800e-01,5.345445300000000000e+09
4.350000000000000000e+02,7.920000000000000000e+02,8.440000000000000000e+02,2.000000000000000000e+02,1.360000000000000000e+02,5.800000000000000000e+01,6.200000000000000000e+01,1.520000000000000000e+02,2.999999999999999889e-01,5.368432700000000000e+09
4.820000000000000000e+02,8.600000000000000000e+02,8.830000000000000000e+02,2.120000000000000000e+02,1.510000000000000000e+02,6.700000000000000000e+01,6.900000000000000000e+01,1.910000000000000000e+02,3.099999999999999978e-01,5.392301900000000000e+09
4.820000000000000000e+02,8.570000000000000000e+02,8.630000000000000000e+02,2.260000000000000000e+02,1.420000000000000000e+02,7.700000000000000000e+01,8.600000000000000000e+01,2.380000000000000000e+02,3.200000000000000067e-01,5.415191800000000000e+09
3.960000000000000000e+02,7.320000000000000000e+02,8.980000000000000000e+02,2.190000000000000000e+02,1.380000000000000000e+02,7.600000000000000000e+01,8.200000000000000000e+01,2.400000000000000000e+02,3.300000000000000155e-01,5.438783400000000000e+09
3.780000000000000000e+02,6.170000000000000000e+02,8.600000000000000000e+02,2.630000000000000000e+02,1.850000000000000000e+02,1.160000000000000000e+02,9.200000000000000000e+01,2.400000000000000000e+02,3.300000000000000155e-01,5.459922600000000000e+09
4.000000000000000000e+02,6.040000000000000000e+02,8.240000000000000000e+02,2.790000000000000000e+02,2.110000000000000000e+02,1.250000000000000000e+02,9.900000000000000000e+01,2.610000000000000000e+02,3.200000000000000067e-01,5.485318700000000000e+09
3.370000000000000000e+02,4.520000000000000000e+02,7.270000000000000000e+02,2.590000000000000000e+02,2.020000000000000000e+02,1.360000000000000000e+02,9.500000000000000000e+01,2.370000000000000000e+02,3.200000000000000067e-01,5.506849100000000000e+09
3.170000000000000000e+02,3.890000000000000000e+02,6.150000000000000000e+02,2.270000000000000000e+02,1.890000000000000000e+02,1.320000000000000000e+02,8.100000000000000000e+01,1.790000000000000000e+02,3.300000000000000155e-01,5.528500000000000000e+09
3.340000000000000000e+02,4.020000000000000000e+02,4.340000000000000000e+02,2.200000000000000000e+02,1.920000000000000000e+02,1.320000000000000000e+02,8.700000000000000000e+01,1.790000000000000000e+02,3.400000000000000244e-01,5.551032800000000000e+09
3.390000000000000000e+02,5.080000000000000000e+02,4.060000000000000000e+02,1.540000000000000000e+02,1.360000000000000000e+02,9.700000000000000000e+01,7.700000000000000000e+01,1.810000000000000000e+02,3.499999999999999778e-01,5.572843100000000000e+09
2.780000000000000000e+02,5.790000000000000000e+02,3.520000000000000000e+02,8.700000000000000000e+01,8.000000000000000000e+01,8.700000000000000000e+01,7.100000000000000000e+01,1.460000000000000000e+02,3.499999999999999778e-01,5.594242700000000000e+09
2.950000000000000000e+02,6.690000000000000000e+02,3.640000000000000000e+02,1.070000000000000000e+02,9.100000000000000000e+01,6.500000000000000000e+01,9.400000000000000000e+01,1.640000000000000000e+02,3.599999999999999867e-01,5.617231700000000000e+09
2.590000000000000000e+02,6.550000000000000000e+02,3.510000000000000000e+02,1.040000000000000000e+02,8.700000000000000000e+01,6.000000000000000000e+01,9.400000000000000000e+01,1.540000000000000000e+02,3.699999999999999956e-01,5.638433500000000000e+09
2.510000000000000000e+02,7.670000000000000000e+02,3.970000000000000000e+02,1.200000000000000000e+02,7.800000000000000000e+01,5.600000000000000000e+01,9.500000000000000000e+01,1.480000000000000000e+02,3.699999999999999956e-01,5.660177000000000000e+09
3.290000000000000000e+02,7.220000000000000000e+02,4.200000000000000000e+02,1.330000000000000000e+02,8.100000000000000000e+01,6.200000000000000000e+01,1.280000000000000000e+02,1.500000000000000000e+02,3.800000000000000044e-01,5.682170100000000000e+09
4.530000000000000000e+02,8.400000000000000000e+02,4.610000000000000000e+02,1.520000000000000000e+02,8.400000000000000000e+01,6.200000000000000000e+01,1.410000000000000000e+02,2.240000000000000000e+02,3.900000000000000133e-01,5.708614400000000000e+09
4.630000000000000000e+02,8.440000000000000000e+02,5.230000000000000000e+02,1.810000000000000000e+02,8.500000000000000000e+01,6.100000000000000000e+01,1.290000000000000000e+02,2.210000000000000000e+02,4.099999999999999756e-01,5.729965600000000000e+09
4.730000000000000000e+02,8.260000000000000000e+02,6.120000000000000000e+02,2.110000000000000000e+02,9.300000000000000000e+01,5.900000000000000000e+01,1.300000000000000000e+02,2.280000000000000000e+02,4.400000000000000022e-01,5.752159400000000000e+09
4.860000000000000000e+02,8.510000000000000000e+02,6.400000000000000000e+02,2.350000000000000000e+02,1.090000000000000000e+02,8.700000000000000000e+01,2.200000000000000000e+02,2.570000000000000000e+02,4.500000000000000111e-01,5.772734200000000000e+09
5.120000000000000000e+02,8.940000000000000000e+02,7.290000000000000000e+02,2.490000000000000000e+02,1.170000000000000000e+02,8.800000000000000000e+01,2.080000000000000000e+02,2.770000000000000000e+02,4.500000000000000111e-01,5.794442200000000000e+09
4.270000000000000000e+02,7.740000000000000000e+02,7.190000000000000000e+02,2.590000000000000000e+02,1.270000000000000000e+02,9.400000000000000000e+01,2.480000000000000000e+02,2.490000000000000000e+02,4.500000000000000111e-01,5.818644100000000000e+09
4.160000000000000000e+02,7.040000000000000000e+02,7.170000000000000000e+02,2.510000000000000000e+02,1.120000000000000000e+02,8.900000000000000000e+01,2.590000000000000000e+02,2.470000000000000000e+02,4.500000000000000111e-01,5.855174700000000000e+09
4.190000000000000000e+02,7.560000000000000000e+02,7.170000000000000000e+02,2.410000000000000000e+02,1.110000000000000000e+02,9.400000000000000000e+01,2.760000000000000000e+02,2.490000000000000000e+02,4.400000000000000022e-01,5.877563700000000000e+09
4.350000000000000000e+02,6.240000000000000000e+02,7.270000000000000000e+02,2.190000000000000000e+02,1.030000000000000000e+02,7.600000000000000000e+01,2.160000000000000000e+02,2.220000000000000000e+02,4.400000000000000022e-01,5.900065400000000000e+09
3.540000000000000000e+02,5.260000000000000000e+02,6.290000000000000000e+02,1.930000000000000000e+02,9.100000000000000000e+01,7.600000000000000000e+01,2.200000000000000000e+02,2.060000000000000000e+02,4.400000000000000022e-01,5.929146100000000000e+09
3.500000000000000000e+02,4.670000000000000000e+02,5.980000000000000000e+02,1.600000000000000000e+02,7.300000000000000000e+01,1.220000000000000000e+02,1.820000000000000000e+02,1.910000000000000000e+02,4.500000000000000111e-01,5.952191600000000000e+09
3.510000000000000000e+02,5.070000000000000000e+02,6.830000000000000000e+02,1.340000000000000000e+02,7.300000000000000000e+01,1.280000000000000000e+02,1.660000000000000000e+02,1.770000000000000000e+02,4.500000000000000111e-01,5.989857800000000000e+09
3.450000000000000000e+02,4.820000000000000000e+02,6.320000000000000000e+02,1.410000000000000000e+02,7.400000000000000000e+01,1.300000000000000000e+02,1.360000000000000000e+02,1.720000000000000000e+02,4.500000000000000111e-01,6.015269500000000000e+09
2.970000000000000000e+02,4.750000000000000000e+02,5.770000000000000000e+02,1.410000000000000000e+02,6.100000000000000000e+01,1.250000000000000000e+02,1.250000000000000000e+02,1.730000000000000000e+02,4.500000000000000111e-01,6.039512800000000000e+09
2.750000000000000000e+02,5.400000000000000000e+02,6.120000000000000000e+02,1.510000000000000000e+02,6.600000000000000000e+01,1.220000000000000000e+02,1.060000000000000000e+02,1.560000000000000000e+02,4.500000000000000111e-01,6.062936800000000000e+09
2.840000000000000000e+02,6.620000000000000000e+02,6.000000000000000000e+02,1.650000000000000000e+02,6.900000000000000000e+01,6.900000000000000000e+01,7.400000000000000000e+01,1.810000000000000000e+02,4.500000000000000111e-01,6.086932900000000000e+09
2.680000000000000000e+02,6.640000000000000000e+02,4.810000000000000000e+02,1.910000000000000000e+02,8.100000000000000000e+01,7.700000000000000000e+01,8.300000000000000000e+01,2.010000000000000000e+02,4.600000000000000200e-01,6.107939100000000000e+09
3.640000000000000000e+02,8.140000000000000000e+02,4.950000000000000000e+02,2.310000000000000000e+02,1.050000000000000000e+02,7.900000000000000000e+01,9.100000000000000000e+01,2.220000000000000000e+02,4.699999999999999734e-01,6.132010800000000000e+09
4.050000000000000000e+02,1.066000000000000000e+03,6.050000000000000000e+02,2.760000000000000000e+02,1.270000000000000000e+02,9.300000000000000000e+01,9.700000000000000000e+01,2.260000000000000000e+02,4.799999999999999822e-01,6.154272000000000000e+09
4.300000000000000000e+02,1.088000000000000000e+03,6.690000000000000000e+02,2.900000000000000000e+02,1.270000000000000000e+02,9.400000000000000000e+01,9.700000000000000000e+01,2.300000000000000000e+02,4.799999999999999822e-01,6.179177900000000000e+09
4.450000000000000000e+02,1.130000000000000000e+03,7.080000000000000000e+02,2.840000000000000000e+02,1.290000000000000000e+02,9.500000000000000000e+01,9.100000000000000000e+01,1.910000000000000000e+02,4.699999999999999734e-01,6.199872400000000000e+09
4.490000000000000000e+02,1.149000000000000000e+03,7.720000000000000000e+02,2.680000000000000000e+02,1.250000000000000000e+02,8.400000000000000000e+01,7.900000000000000000e+01,1.700000000000000000e+02,4.600000000000000200e-01,6.222005700000000000e+09
4.100000000000000000e+02,1.113000000000000000e+03,7.890000000000000000e+02,2.380000000000000000e+02,1.180000000000000000e+02,9.000000000000000000e+01,8.700000000000000000e+01,1.680000000000000000e+02,4.600000000000000200e-01,6.242669300000000000e+09
4.050000000000000000e+02,9.530000000000000000e+02,7.330000000000000000e+02,1.850000000000000000e+02,1.090000000000000000e+02,9.000000000000000000e+01,9.300000000000000000e+01,1.740000000000000000e+02,4.600000000000000200e-01,6.263985700000000000e+09
4.760000000000000000e+02,1.048000000000000000e+03,6.590000000000000000e+02,2.190000000000000000e+02,1.320000000000000000e+02,9.900000000000000000e+01,1.020000000000000000e+02,2.280000000000000000e+02,4.600000000000000200e-01,6.286348600000000000e+09
5.090000000000000000e+02,1.070000000000000000e+03,6.980000000000000000e+02,2.560000000000000000e+02,1.380000000000000000e+02,9.800000000000000000e+01,1.030000000000000000e+02,2.570000000000000000e+02,4.400000000000000022e-01,6.308311800000000000e+09
5.230000000000000000e+02,1.098000000000000000e+03,6.830000000000000000e+02,3.230000000000000000e+02,1.530000000000000000e+02,1.060000000000000000e+02,1.100000000000000000e+02,2.650000000000000000e+02,4.299999999999999933e-01,6.331477100000000000e+09
4.990000000000000000e+02,1.132000000000000000e+03,6.300000000000000000e+02,3.230000000000000000e+02,1.410000000000000000e+02,9.300000000000000000e+01,9.400000000000000000e+01,2.490000000000000000e+02,4.099999999999999756e-01,6.355517000000000000e+09
5.770000000000000000e+02,1.139000000000000000e+03,7.120000000000000000e+02,3.330000000000000000e+02,1.440000000000000000e+02,9.000000000000000000e+01,9.900000000000000000e+01,2.700000000000000000e+02,4.000000000000000222e-01,6.380620700000000000e+09
5.210000000000000000e+02,1.040000000000000000e+03,7.790000000000000000e+02,3.080000000000000000e+02,1.250000000000000000e+02,8.100000000000000000e+01,9.000000000000000000e+01,2.260000000000000000e+02,3.900000000000000133e-01,6.406304700000000000e+09
4.630000000000000000e+02,9.830000000000000000e+02,7.380000000000000000e+02,2.820000000000000000e+02,1.160000000000000000e+02,7.900000000000000000e+01,9.000000000000000000e+01,1.940000000000000000e+02,3.800000000000000044e-01,6.430795500000000000e+09
4.400000000000000000e+02,9.730000000000000000e+02,6.450000000000000000e+02,2.070000000000000000e+02,9.300000000000000000e+01,7.100000000000000000e+01,8.500000000000000000e+01,1.820000000000000000e+02,3.900000000000000133e-01,6.452069600000000000e+09
4.640000000000000000e+02,8.840000000000000000e+02,7.040000000000000000e+02,1.900000000000000000e+02,9.400000000000000000e+01,8.200000000000000000e+01,9.300000000000000000e+01,2.250000000000000000e+02,4.000000000000000222e-01,6.474809900000000000e+09
3.350000000000000000e+02,9.250000000000000000e+02,6.150000000000000000e+02,1.700000000000000000e+02,7.900000000000000000e+01,7.400000000000000000e+01,7.900000000000000000e+01,2.030000000000000000e+02,4.099999999999999756e-01,6.496286200000000000e+09
3.030000000000000000e+02,9.360000000000000000e+02,5.130000000000000000e+02,1.570000000000000000e+02,8.100000000000000000e+01,1.860000000000000000e+02,1.560000000000000000e+02,2.420000000000000000e+02,4.199999999999999845e-01,6.519100500000000000e+09
2.940000000000000000e+02,8.490000000000000000e+02,4.650000000000000000e+02,1.510000000000000000e+02,8.200000000000000000e+01,2.180000000000000000e+02,2.040000000000000000e+02,2.800000000000000000e+02,4.199999999999999845e-01,6.541605500000000000e+09
2.830000000000000000e+02,7.770000000000000000e+02,4.880000000000000000e+02,1.520000000000000000e+02,8.800000000000000000e+01,2.300000000000000000e+02,2.110000000000000000e+02,2.840000000000000000e+02,4.199999999999999845e-01,6.564491900000000000e+09
1.970000000000000000e+02,7.330000000000000000e+02,4.140000000000000000e+02,1.480000000000000000e+02,8.900000000000000000e+01,2.350000000000000000e+02,2.130000000000000000e+02,2.530000000000000000e+02,4.299999999999999933e-01,6.585466300000000000e+09
1.610000000000000000e+02,5.830000000000000000e+02,5.060000000000000000e+02,1.420000000000000000e+02,8.700000000000000000e+01,2.640000000000000000e+02,2.180000000000000000e+02,2.370000000000000000e+02,4.400000000000000022e-01,6.607936000000000000e+09
1.720000000000000000e+02,5.240000000000000000e+02,5.780000000000000000e+02,1.390000000000000000e+02,9.700000000000000000e+01,2.450000000000000000e+02,1.770000000000000000e+02,2.290000000000000000e+02,4.500000000000000111e-01,6.631818100000000000e+09
1.610000000000000000e+02,5.040000000000000000e+02,5.880000000000000000e+02,1.420000000000000000e+02,1.040000000000000000e+02,2.570000000000000000e+02,1.280000000000000000e+02,1.930000000000000000e+02,4.600000000000000200e-01,6.654515500000000000e+09
2.040000000000000000e+02,6.020000000000000000e+02,7.170000000000000000e+02,1.720000000000000000e+02,1.370000000000000000e+02,2.520000000000000000e+02,1.200000000000000000e+02,1.940000000000000000e+02,4.600000000000000200e-01,6.675937200000000000e+09
2.660000000000000000e+02,7.180000000000000000e+02,8.450000000000000000e+02,3.210000000000000000e+02,1.740000000000000000e+02,2.570000000000000000e+02,1.230000000000000000e+02,1.940000000000000000e+02,4.600000000000000200e-01,6.697600300000000000e+09
2.790000000000000000e+02,6.930000000000000000e+02,8.190000000000000000e+02,3.320000000000000000e+02,1.780000000000000000e+02,2.310000000000000000e+02,1.120000000000000000e+02,2.200000000000000000e+02,4.400000000000000022e-01,6.718640100000000000e+09
2.730000000000000000e+02,7.330000000000000000e+02,8.360000000000000000e+02,3.470000000000000000e+02,1.830000000000000000e+02,1.930000000000000000e+02,1.100000000000000000e+02,2.070000000000000000e+02,4.199999999999999845e-01,6.743133300000000000e+09
3.560000000000000000e+02,8.700000000000000000e+02,9.130000000000000000e+02,3.830000000000000000e+02,1.990000000000000000e+02,1.570000000000000000e+02,1.150000000000000000e+02,2.050000000000000000e+02,4.000000000000000222e-01,6.765877500000000000e+09
4.350000000000000000e+02,9.090000000000000000e+02,9.100000000000000000e+02,3.680000000000000000e+02,1.780000000000000000e+02,2.620000000000000000e+02,1.620000000000000000e+02,2.840000000000000000e+02,3.800000000000000044e-01,6.788750400000000000e+09
4.570000000000000000e+02,9.590000000000000000e+02,8.350000000000000000e+02,2.460000000000000000e+02,1.430000000000000000e+02,3.110000000000000000e+02,1.680000000000000000e+02,2.800000000000000000e+02,3.599999999999999867e-01,6.813512500000000000e+09
4.710000000000000000e+02,9.550000000000000000e+02,7.840000000000000000e+02,2.320000000000000000e+02,1.870000000000000000e+02,3.610000000000000000e+02,1.890000000000000000e+02,3.810000000000000000e+02,3.499999999999999778e-01,6.848443500000000000e+09
4.960000000000000000e+02,9.390000000000000000e+02,7.170000000000000000e+02,2.230000000000000000e+02,1.930000000000000000e+02,3.950000000000000000e+02,2.670000000000000000e+02,4.270000000000000000e+02,3.499999999999999778e-01,6.873386000000000000e+09
4.900000000000000000e+02,8.390000000000000000e+02,6.040000000000000000e+02,1.830000000000000000e+02,2.020000000000000000e+02,4.620000000000000000e+02,2.900000000000000000e+02,5.260000000000000000e+02,3.499999999999999778e-01,6.899212300000000000e+09
5.170000000000000000e+02,7.240000000000000000e+02,4.220000000000000000e+02,1.770000000000000000e+02,2.000000000000000000e+02,4.730000000000000000e+02,2.920000000000000000e+02,5.000000000000000000e+02,3.499999999999999778e-01,6.920964200000000000e+09
5.230000000000000000e+02,4.960000000000000000e+02,3.090000000000000000e+02,1.720000000000000000e+02,2.060000000000000000e+02,6.040000000000000000e+02,3.230000000000000000e+02,5.200000000000000000e+02,3.400000000000000244e-01,6.944912000000000000e+09
6.740000000000000000e+02,4.810000000000000000e+02,2.770000000000000000e+02,1.650000000000000000e+02,1.750000000000000000e+02,6.340000000000000000e+02,3.270000000000000000e+02,4.600000000000000000e+02,3.499999999999999778e-01,6.966433200000000000e+09
6.790000000000000000e+02,4.210000000000000000e+02,2.320000000000000000e+02,1.350000000000000000e+02,1.530000000000000000e+02,6.440000000000000000e+02,3.020000000000000000e+02,4.370000000000000000e+02,3.599999999999999867e-01,6.989891300000000000e+09
6.530000000000000000e+02,5.860000000000000000e+02,1.580000000000000000e+02,7.700000000000000000e+01,1.110000000000000000e+02,6.180000000000000000e+02,2.750000000000000000e+02,3.160000000000000000e+02,3.699999999999999956e-01,7.015002200000000000e+09
6.040000000000000000e+02,6.030000000000000000e+02,1.330000000000000000e+02,8.100000000000000000e+01,1.230000000000000000e+02,6.290000000000000000e+02,2.710000000000000000e+02,3.070000000000000000e+02,3.900000000000000133e-01,7.042496200000000000e+09
5.590000000000000000e+02,6.070000000000000000e+02,1.020000000000000000e+02,7.700000000000000000e+01,1.100000000000000000e+02,5.320000000000000000e+02,2.510000000000000000e+02,3.000000000000000000e+02,4.099999999999999756e-01,7.064158100000000000e+09
3.670000000000000000e+02,6.830000000000000000e+02,1.150000000000000000e+02,7.000000000000000000e+01,8.300000000000000000e+01,4.830000000000000000e+02,2.510000000000000000e+02,2.770000000000000000e+02,4.299999999999999933e-01,7.086846500000000000e+09
3.910000000000000000e+02,7.460000000000000000e+02,1.490000000000000000e+02,8.500000000000000000e+01,9.600000000000000000e+01,4.760000000000000000e+02,2.190000000000000000e+02,2.540000000000000000e+02,4.500000000000000111e-01,7.108650000000000000e+09
4.500000000000000000e+02,6.630000000000000000e+02,1.590000000000000000e+02,1.100000000000000000e+02,9.900000000000000000e+01,4.740000000000000000e+02,2.320000000000000000e+02,2.490000000000000000e+02,4.600000000000000200e-01,7.130394100000000000e+09
4.870000000000000000e+02,6.870000000000000000e+02,1.780000000000000000e+02,1.270000000000000000e+02,8.300000000000000000e+01,3.960000000000000000e+02,2.020000000000000000e+02,2.970000000000000000e+02,4.699999999999999734e-01,7.153745800000000000e+09
5.340000000000000000e+02,7.400000000000000000e+02,1.880000000000000000e+02,1.290000000000000000e+02,8.500000000000000000e+01,3.320000000000000000e+02,1.800000000000000000e+02,2.950000000000000000e+02,4.699999999999999734e-01,7.177884700000000000e+09
5.370000000000000000e+02,6.790000000000000000e+02,1.830000000000000000e+02,1.340000000000000000e+02,9.000000000000000000e+01,3.130000000000000000e+02,1.890000000000000000e+02,2.940000000000000000e+02,4.699999999999999734e-01,7.205185500000000000e+09
5.160000000000000000e+02,6.170000000000000000e+02,1.560000000000000000e+02,1.240000000000000000e+02,8.300000000000000000e+01,2.860000000000000000e+02,1.970000000000000000e+02,2.970000000000000000e+02,4.699999999999999734e-01,7.230649200000000000e+09
4.820000000000000000e+02,5.440000000000000000e+02,1.390000000000000000e+02,1.060000000000000000e+02,7.400000000000000000e+01,2.660000000000000000e+02,1.900000000000000000e+02,2.930000000000000000e+02,4.699999999999999734e-01,7.255089400000000000e+09
4.240000000000000000e+02,5.360000000000000000e+02,1.160000000000000000e+02,1.070000000000000000e+02,1.100000000000000000e+02,2.740000000000000000e+02,1.980000000000000000e+02,2.380000000000000000e+02,4.799999999999999822e-01,7.278757000000000000e+09
4.120000000000000000e+02,5.360000000000000000e+02,1.240000000000000000e+02,1.130000000000000000e+02,1.220000000000000000e+02,2.550000000000000000e+02,1.960000000000000000e+02,2.330000000000000000e+02,4.799999999999999822e-01,7.301499900000000000e+09
4.020000000000000000e+02,5.550000000000000000e+02,1.480000000000000000e+02,1.170000000000000000e+02,1.230000000000000000e+02,2.400000000000000000e+02,2.010000000000000000e+02,2.290000000000000000e+02,4.799999999999999822e-01,7.322574300000000000e+09
4.320000000000000000e+02,6.210000000000000000e+02,1.490000000000000000e+02,1.150000000000000000e+02,1.200000000000000000e+02,1.950000000000000000e+02,1.920000000000000000e+02,2.300000000000000000e+02,4.799999999999999822e-01,7.343687200000000000e+09
5.320000000000000000e+02,6.150000000000000000e+02,1.430000000000000000e+02,1.120000000000000000e+02,1.240000000000000000e+02,1.750000000000000000e+02,2.060000000000000000e+02,3.040000000000000000e+02,4.799999999999999822e-01,7.365622500000000000e+09
5.570000000000000000e+02,5.950000000000000000e+02,1.370000000000000000e+02,8.300000000000000000e+01,1.170000000000000000e+02,3.810000000000000000e+02,2.890000000000000000e+02,3.180000000000000000e+02,4.699999999999999734e-01,7.387335600000000000e+09
6.450000000000000000e+02,6.820000000000000000e+02,1.210000000000000000e+02,1.010000000000000000e+02,1.400000000000000000e+02,4.120000000000000000e+02,3.260000000000000000e+02,3.460000000000000000e+02,4.699999999999999734e-01,7.409109000000000000e+09
6.950000000000000000e+02,7.810000000000000000e+02,1.250000000000000000e+02,1.110000000000000000e+02,1.460000000000000000e+02,4.250000000000000000e+02,3.770000000000000000e+02,3.860000000000000000e+02,4.699999999999999734e-01,7.430119700000000000e+09
7.330000000000000000e+02,7.890000000000000000e+02,1.380000000000000000e+02,1.280000000000000000e+02,1.640000000000000000e+02,4.560000000000000000e+02,4.430000000000000000e+02,4.110000000000000000e+02,4.699999999999999734e-01,7.453086900000000000e+09
6.700000000000000000e+02,8.910000000000000000e+02,1.420000000000000000e+02,1.280000000000000000e+02,1.650000000000000000e+02,4.640000000000000000e+02,4.530000000000000000e+02,3.830000000000000000e+02,4.799999999999999822e-01,7.475264900000000000e+09
6.410000000000000000e+02,8.740000000000000000e+02,1.440000000000000000e+02,1.330000000000000000e+02,1.520000000000000000e+02,3.180000000000000000e+02,4.520000000000000000e+02,3.980000000000000000e+02,4.799999999999999822e-01,7.496512700000000000e+09
5.370000000000000000e+02,7.860000000000000000e+02,1.440000000000000000e+02,1.150000000000000000e+02,1.220000000000000000e+02,2.810000000000000000e+02,4.430000000000000000e+02,3.610000000000000000e+02,4.899999999999999911e-01,7.519085400000000000e+09
4.620000000000000000e+02,6.400000000000000000e+02,1.290000000000000000e+02,1.080000000000000000e+02,1.110000000000000000e+02,2.650000000000000000e+02,3.850000000000000000e+02,3.130000000000000000e+02,4.899999999999999911e-01,7.541139500000000000e+09
3.190000000000000000e+02,5.540000000000000000e+02,1.820000000000000000e+02,1.100000000000000000e+02,9.400000000000000000e+01,2.080000000000000000e+02,2.980000000000000000e+02,2.460000000000000000e+02,4.899999999999999911e-01,7.564274600000000000e+09
2.700000000000000000e+02,3.910000000000000000e+02,2.580000000000000000e+02,1.710000000000000000e+02,9.500000000000000000e+01,1.660000000000000000e+02,2.670000000000000000e+02,2.090000000000000000e+02,5.000000000000000000e-01,7.586644100000000000e+09
2.480000000000000000e+02,4.650000000000000000e+02,3.190000000000000000e+02,1.940000000000000000e+02,9.600000000000000000e+01,1.380000000000000000e+02,1.670000000000000000e+02,1.230000000000000000e+02,5.000000000000000000e-01,7.608522500000000000e+09
1.940000000000000000e+02,4.470000000000000000e+02,3.840000000000000000e+02,2.150000000000000000e+02,1.020000000000000000e+02,9.900000000000000000e+01,1.030000000000000000e+02,9.900000000000000000e+01,5.100000000000000089e-01,7.631819300000000000e+09
1.610000000000000000e+02,5.100000000000000000e+02,4.500000000000000000e+02,2.520000000000000000e+02,1.270000000000000000e+02,7.500000000000000000e+01,7.800000000000000000e+01,8.700000000000000000e+01,5.100000000000000089e-01,7.653083200000000000e+09
1.850000000000000000e+02,5.830000000000000000e+02,5.640000000000000000e+02,2.590000000000000000e+02,1.240000000000000000e+02,6.000000000000000000e+01,6.800000000000000000e+01,8.300000000000000000e+01,5.100000000000000089e-01,7.674877000000000000e+09
1.780000000000000000e+02,5.810000000000000000e+02,5.930000000000000000e+02,2.610000000000000000e+02,1.390000000000000000e+02,5.700000000000000000e+01,5.800000000000000000e+01,6.100000000000000000e+01,5.000000000000000000e-01,7.695814800000000000e+09
1.620000000000000000e+02,5.980000000000000000e+02,6.300000000000000000e+02,2.640000000000000000e+02,1.350000000000000000e+02,5.100000000000000000e+01,5.500000000000000000e+01,8.200000000000000000e+01,4.899999999999999911e-01,7.716400300000000000e+09
1.910000000000000000e+02,6.020000000000000000e+02,7.350000000000000000e+02,2.750000000000000000e+02,1.350000000000000000e+02,6.000000000000000000e+01,1.880000000000000000e+02,3.640000000000000000e+02,4.799999999999999822e-01,7.737612100000000000e+09
2.210000000000000000e+02,7.350000000000000000e+02,7.730000000000000000e+02,2.900000000000000000e+02,1.280000000000000000e+02,1.640000000000000000e+02,2.080000000000000000e+02,5.630000000000000000e+02,4.600000000000000200e-01,7.772178600000000000e+09
2.350000000000000000e+02,7.800000000000000000e+02,8.010000000000000000e+02,3.160000000000000000e+02,1.390000000000000000e+02,1.800000000000000000e+02,2.450000000000000000e+02,6.330000000000000000e+02,4.400000000000000022e-01,7.798255100000000000e+09
2.400000000000000000e+02,1.016000000000000000e+03,8.540000000000000000e+02,3.160000000000000000e+02,1.390000000000000000e+02,1.850000000000000000e+02,2.560000000000000000e+02,6.660000000000000000e+02,4.199999999999999845e-01,7.824043200000000000e+09
2.410000000000000000e+02,1.054000000000000000e+03,8.930000000000000000e+02,3.000000000000000000e+02,1.360000000000000000e+02,1.900000000000000000e+02,2.630000000000000000e+02,6.710000000000000000e+02,4.099999999999999756e-01,7.846493100000000000e+09
2.290000000000000000e+02,1.115000000000000000e+03,8.490000000000000000e+02,2.810000000000000000e+02,1.290000000000000000e+02,1.890000000000000000e+02,2.000000000000000000e+02,5.800000000000000000e+02,3.900000000000000133e-01,7.869747900000000000e+09
2.050000000000000000e+02,1.059000000000000000e+03,7.920000000000000000e+02,2.270000000000000000e+02,1.150000000000000000e+02,1.130000000000000000e+02,1.810000000000000000e+02,3.920000000000000000e+02,3.699999999999999956e-01,7.890864900000000000e+09
1.630000000000000000e+02,1.016000000000000000e+03,7.160000000000000000e+02,1.730000000000000000e+02,9.600000000000000000e+01,8.500000000000000000e+01,1.260000000000000000e+02,2.680000000000000000e+02,3.599999999999999867e-01,7.913424100000000000e+09
1.500000000000000000e+02,8.030000000000000000e+02,6.560000000000000000e+02,1.410000000000000000e+02,7.500000000000000000e+01,7.200000000000000000e+01,1.040000000000000000e+02,1.720000000000000000e+02,3.499999999999999778e-01,7.937126600000000000e+09
1.440000000000000000e+02,7.350000000000000000e+02,5.800000000000000000e+02,1.480000000000000000e+02,8.600000000000000000e+01,6.400000000000000000e+01,8.500000000000000000e+01,1.460000000000000000e+02,3.499999999999999778e-01,7.958997800000000000e+09
1.050000000000000000e+02,6.270000000000000000e+02,4.790000000000000000e+02,1.370000000000000000e+02,9.000000000000000000e+01,6.300000000000000000e+01,5.800000000000000000e+01,9.900000000000000000e+01,3.499999999999999778e-01,7.981908000000000000e+09
9.300000000000000000e+01,5.540000000000000000e+02,4.800000000000000000e+02,1.390000000000000000e+02,8.900000000000000000e+01,5.500000000000000000e+01,5.100000000000000000e+01,9.300000000000000000e+01,3.599999999999999867e-01,8.003517200000000000e+09
1.210000000000000000e+02,5.400000000000000000e+02,4.770000000000000000e+02,1.320000000000000000e+02,9.300000000000000000e+01,5.600000000000000000e+01,5.100000000000000000e+01,1.030000000000000000e+02,3.699999999999999956e-01,8.024927700000000000e+09
1.390000000000000000e+02,5.660000000000000000e+02,4.120000000000000000e+02,1.020000000000000000e+02,8.300000000000000000e+01,5.700000000000000000e+01,4.600000000000000000e+01,1.240000000000000000e+02,3.800000000000000044e-01,8.045854000000000000e+09
1.440000000000000000e+02,5.540000000000000000e+02,3.650000000000000000e+02,9.800000000000000000e+01,7.400000000000000000e+01,5.000000000000000000e+01,3.700000000000000000e+01,1.240000000000000000e+02,3.900000000000000133e-01,8.067631800000000000e+09
1.820000000000000000e+02,6.420000000000000000e+02,3.880000000000000000e+02,9.800000000000000000e+01,7.900000000000000000e+01,5.400000000000000000e+01,3.700000000000000000e+01,1.220000000000000000e+02,4.099999999999999756e-01,8.089801000000000000e+09
1.930000000000000000e+02,6.480000000000000000e+02,3.930000000000000000e+02,9.900000000000000000e+01,7.800000000000000000e+01,5.800000000000000000e+01,4.300000000000000000e+01,1.180000000000000000e+02,4.199999999999999845e-01,8.116149200000000000e+09
2.100000000000000000e+02,6.460000000000000000e+02,4.160000000000000000e+02,1.170000000000000000e+02,7.600000000000000000e+01,6.200000000000000000e+01,5.000000000000000000e+01,1.070000000000000000e+02,4.400000000000000022e-01,8.137356000000000000e+09
2.400000000000000000e+02,6.470000000000000000e+02,4.140000000000000000e+02,1.250000000000000000e+02,8.800000000000000000e+01,6.400000000000000000e+01,5.200000000000000000e+01,7.900000000000000000e+01,4.500000000000000111e-01,8.157681100000000000e+09
2.900000000000000000e+02,6.640000000000000000e+02,4.300000000000000000e+02,1.380000000000000000e+02,1.000000000000000000e+02,6.900000000000000000e+01,5.800000000000000000e+01,8.700000000000000000e+01,4.600000000000000200e-01,8.183832000000000000e+09
3.070000000000000000e+02,6.120000000000000000e+02,4.020000000000000000e+02,1.330000000000000000e+02,9.200000000000000000e+01,6.600000000000000000e+01,7.500000000000000000e+01,9.600000000000000000e+01,4.699999999999999734e-01,8.205126900000000000e+09
3.400000000000000000e+02,6.920000000000000000e+02,3.810000000000000000e+02,1.350000000000000000e+02,8.800000000000000000e+01,6.400000000000000000e+01,7.400000000000000000e+01,1.170000000000000000e+02,4.799999999999999822e-01,8.227636100000000000e+09
3.930000000000000000e+02,6.900000000000000000e+02,2.880000000000000000e+02,1.180000000000000000e+02,8.400000000000000000e+01,6.100000000000000000e+01,7.400000000000000000e+01,1.250000000000000000e+02,4.899999999999999911e-01,8.247437300000000000e+09
3.750000000000000000e+02,6.460000000000000000e+02,3.480000000000000000e+02,1.150000000000000000e+02,7.400000000000000000e+01,6.100000000000000000e+01,7.300000000000000000e+01,1.240000000000000000e+02,5.000000000000000000e-01,8.267852400000000000e+09
3.530000000000000000e+02,6.940000000000000000e+02,3.210000000000000000e+02,9.800000000000000000e+01,5.500000000000000000e+01,6.000000000000000000e+01,7.300000000000000000e+01,1.230000000000000000e+02,5.100000000000000089e-01,8.289486100000000000e+09
3.240000000000000000e+02,6.420000000000000000e+02,3.940000000000000000e+02,1.020000000000000000e+02,5.100000000000000000e+01,5.800000000000000000e+01,5.500000000000000000e+01,1.150000000000000000e+02,5.200000000000000178e-01,8.313326700000000000e+09
2.840000000000000000e+02,5.380000000000000000e+02,4.230000000000000000e+02,9.800000000000000000e+01,5.600000000000000000e+01,6.300000000000000000e+01,5.200000000000000000e+01,9.100000000000000000e+01,5.200000000000000178e-01,8.336684400000000000e+09
1.740000000000000000e+02,5.350000000000000000e+02,4.350000000000000000e+02,9.700000000000000000e+01,5.600000000000000000e+01,6.200000000000000000e+01,4.600000000000000000e+01,7.400000000000000000e+01,5.300000000000000266e-01,8.358476900000000000e+09
1.850000000000000000e+02,5.850000000000000000e+02,4.010000000000000000e+02,9.800000000000000000e+01,5.500000000000000000e+01,6.200000000000000000e+01,4.300000000000000000e+01,7.300000000000000000e+01,5.400000000000000355e-01,8.379617100000000000e+09
1.470000000000000000e+02,4.590000000000000000e+02,4.170000000000000000e+02,9.800000000000000000e+01,6.900000000000000000e+01,6.200000000000000000e+01,3.800000000000000000e+01,6.100000000000000000e+01,5.500000000000000444e-01,8.400558800000000000e+09
1.810000000000000000e+02,5.250000000000000000e+02,3.830000000000000000e+02,9.600000000000000000e+01,7.100000000000000000e+01,7.000000000000000000e+01,4.200000000000000000e+01,6.000000000000000000e+01,5.500000000000000444e-01,8.421912000000000000e+09
1.870000000000000000e+02,5.160000000000000000e+02,3.490000000000000000e+02,8.900000000000000000e+01,6.700000000000000000e+01,6.300000000000000000e+01,4.100000000000000000e+01,5.600000000000000000e+01,5.600000000000000533e-01,8.443967000000000000e+09
1.940000000000000000e+02,5.250000000000000000e+02,3.350000000000000000e+02,8.800000000000000000e+01,6.600000000000000000e+01,6.500000000000000000e+01,4.300000000000000000e+01,4.800000000000000000e+01,5.699999999999999512e-01,8.464810500000000000e+09
1.790000000000000000e+02,4.740000000000000000e+02,3.010000000000000000e+02,8.500000000000000000e+01,6.300000000000000000e+01,6.600000000000000000e+01,4.500000000000000000e+01,6.900000000000000000e+01,5.699999999999999512e-01,8.486595900000000000e+09
1.790000000000000000e+02,4.670000000000000000e+02,3.390000000000000000e+02,7.900000000000000000e+01,5.200000000000000000e+01,6.000000000000000000e+01,4.100000000000000000e+01,7.000000000000000000e+01,5.699999999999999512e-01,8.509994100000000000e+09
1.490000000000000000e+02,3.820000000000000000e+02,3.350000000000000000e+02,8.400000000000000000e+01,4.800000000000000000e+01,5.000000000000000000e+01,3.800000000000000000e+01,7.900000000000000000e+01,5.799999999999999600e-01,8.531002900000000000e+09
1.430000000000000000e+02,4.360000000000000000e+02,4.220000000000000000e+02,9.000000000000000000e+01,5.200000000000000000e+01,5.000000000000000000e+01,4.200000000000000000e+01,8.200000000000000000e+01,5.799999999999999600e-01,8.552363300000000000e+09
1.280000000000000000e+02,3.830000000000000000e+02,4.270000000000000000e+02,9.400000000000000000e+01,5.300000000000000000e+01,4.600000000000000000e+01,3.700000000000000000e+01,8.300000000000000000e+01,5.899999999999999689e-01,8.574024100000000000e+09
1.150000000000000000e+02,3.460000000000000000e+02,4.890000000000000000e+02,9.500000000000000000e+01,5.800000000000000000e+01,4.600000000000000000e+01,3.400000000000000000e+01,6.600000000000000000e+01,5.899999999999999689e-01,8.595946700000000000e+09
1.130000000000000000e+02,3.440000000000000000e+02,4.640000000000000000e+02,8.800000000000000000e+01,5.600000000000000000e+01,4.900000000000000000e+01,3.600000000000000000e+01,6.200000000000000000e+01,5.899999999999999689e-01,8.617727600000000000e+09
1.020000000000000000e+02,3.390000000000000000e+02,4.770000000000000000e+02,8.500000000000000000e+01,5.900000000000000000e+01,4.800000000000000000e+01,3.600000000000000000e+01,4.800000000000000000e+01,5.899999999999999689e-01,8.638564700000000000e+09
1.070000000000000000e+02,2.840000000000000000e+02,4.080000000000000000e+02,8.200000000000000000e+01,5.700000000000000000e+01,4.700000000000000000e+01,3.200000000000000000e+01,4.700000000000000000e+01,5.899999999999999689e-01,8.660937500000000000e+09
1.350000000000000000e+02,2.510000000000000000e+02,3.920000000000000000e+02,7.800000000000000000e+01,5.600000000000000000e+01,4.900000000000000000e+01,3.500000000000000000e+01,7.800000000000000000e+01,5.999999999999999778e-01,8.684063500000000000e+09
1.330000000000000000e+02,2.660000000000000000e+02,3.290000000000000000e+02,7.500000000000000000e+01,5.500000000000000000e+01,4.400000000000000000e+01,3.700000000000000000e+01,7.900000000000000000e+01,5.999999999999999778e-01,8.704986400000000000e+09
1.430000000000000000e+02,2.890000000000000000e+02,3.160000000000000000e+02,7.800000000000000000e+01,5.300000000000000000e+01,4.200000000000000000e+01,3.500000000000000000e+01,8.800000000000000000e+01,5.999999999999999778e-01,8.726884900000000000e+09
1.780000000000000000e+02,3.460000000000000000e+02,3.120000000000000000e+02,7.500000000000000000e+01,5.100000000000000000e+01,4.500000000000000000e+01,5.000000000000000000e+01,1.200000000000000000e+02,5.999999999999999778e-01,8.751087800000000000e+09
1.900000000000000000e+02,3.320000000000000000e+02,3.150000000000000000e+02,7.800000000000000000e+01,5.200000000000000000e+01,4.900000000000000000e+01,5.400000000000000000e+01,1.360000000000000000e+02,5.899999999999999689e-01,8.772733600000000000e+09
1.790000000000000000e+02,3.420000000000000000e+02,3.330000000000000000e+02,7.700000000000000000e+01,5.000000000000000000e+01,4.600000000000000000e+01,6.000000000000000000e+01,1.270000000000000000e+02,5.899999999999999689e-01,8.797659100000000000e+09
1.780000000000000000e+02,3.320000000000000000e+02,3.620000000000000000e+02,6.800000000000000000e+01,5.100000000000000000e+01,4.800000000000000000e+01,5.900000000000000000e+01,1.400000000000000000e+02,5.899999999999999689e-01,8.824976200000000000e+09
1.940000000000000000e+02,3.010000000000000000e+02,3.520000000000000000e+02,6.600000000000000000e+01,5.800000000000000000e+01,9.200000000000000000e+01,6.300000000000000000e+01,1.360000000000000000e+02,5.899999999999999689e-01,8.851321600000000000e+09
1.680000000000000000e+02,2.390000000000000000e+02,3.320000000000000000e+02,7.900000000000000000e+01,6.200000000000000000e+01,1.260000000000000000e+02,5.100000000000000000e+01,1.160000000000000000e+02,5.799999999999999600e-01,8.873199300000000000e+09
1.430000000000000000e+02,2.300000000000000000e+02,3.190000000000000000e+02,8.200000000000000000e+01,6.000000000000000000e+01,1.420000000000000000e+02,5.000000000000000000e+01,1.110000000000000000e+02,5.799999999999999600e-01,8.895865200000000000e+09
1.330000000000000000e+02,2.750000000000000000e+02,3.390000000000000000e+02,8.400000000000000000e+01,6.000000000000000000e+01,1.460000000000000000e+02,4.200000000000000000e+01,1.060000000000000000e+02,5.799999999999999600e-01,8.917016800000000000e+09
1.360000000000000000e+02,3.190000000000000000e+02,2.920000000000000000e+02,8.600000000000000000e+01,5.900000000000000000e+01,1.490000000000000000e+02,4.300000000000000000e+01,8.700000000000000000e+01,5.699999999999999512e-01,8.940607400000000000e+09
1.000000000000000000e+02,3.250000000000000000e+02,3.280000000000000000e+02,8.600000000000000000e+01,5.200000000000000000e+01,1.260000000000000000e+02,3.600000000000000000e+01,8.600000000000000000e+01,5.699999999999999512e-01,8.962627000000000000e+09
1.040000000000000000e+02,3.180000000000000000e+02,3.250000000000000000e+02,7.100000000000000000e+01,4.100000000000000000e+01,9.300000000000000000e+01,3.700000000000000000e+01,7.800000000000000000e+01,5.699999999999999512e-01,8.985423800000000000e+09
1.000000000000000000e+02,3.070000000000000000e+02,3.840000000000000000e+02,7.000000000000000000e+01,5.700000000000000000e+01,7.200000000000000000e+01,3.200000000000000000e+01,5.400000000000000000e+01,5.699999999999999512e-01,9.006209800000000000e+09
9.600000000000000000e+01,2.510000000000000000e+02,3.640000000000000000e+02,7.900000000000000000e+01,6.500000000000000000e+01,6.800000000000000000e+01,3.200000000000000000e+01,4.400000000000000000e+01,5.699999999999999512e-01,9.028076300000000000e+09
9.800000000000000000e+01,1.790000000000000000e+02,4.210000000000000000e+02,8.300000000000000000e+01,6.200000000000000000e+01,6.100000000000000000e+01,3.200000000000000000e+01,4.200000000000000000e+01,5.699999999999999512e-01,9.051174200000000000e+09
1.150000000000000000e+02,2.150000000000000000e+02,3.890000000000000000e+02,9.800000000000000000e+01,6.500000000000000000e+01,6.100000000000000000e+01,3.300000000000000000e+01,3.900000000000000000e+01,5.699999999999999512e-01,9.075055200000000000e+09
1.140000000000000000e+02,2.270000000000000000e+02,4.800000000000000000e+02,1.470000000000000000e+02,9.400000000000000000e+01,6.900000000000000000e+01,3.700000000000000000e+01,3.500000000000000000e+01,5.699999999999999512e-01,9.097572000000000000e+09
1.150000000000000000e+02,2.400000000000000000e+02,4.610000000000000000e+02,1.560000000000000000e+02,8.900000000000000000e+01,6.200000000000000000e+01,3.800000000000000000e+01,3.600000000000000000e+01,5.699999999999999512e-01,9.118632200000000000e+09
1.460000000000000000e+02,3.400000000000000000e+02,4.880000000000000000e+02,1.650000000000000000e+02,8.800000000000000000e+01,5.700000000000000000e+01,3.700000000000000000e+01,4.800000000000000000e+01,5.699999999999999512e-01,9.140550800000000000e+09
1.930000000000000000e+02,4.720000000000000000e+02,4.970000000000000000e+02,1.750000000000000000e+02,8.900000000000000000e+01,5.500000000000000000e+01,4.000000000000000000e+01,6.500000000000000000e+01,5.699999999999999512e-01,9.162938800000000000e+09
2.240000000000000000e+02,6.230000000000000000e+02,5.060000000000000000e+02,1.850000000000000000e+02,9.600000000000000000e+01,5.600000000000000000e+01,4.100000000000000000e+01,7.900000000000000000e+01,5.699999999999999512e-01,9.184625200000000000e+09
2.790000000000000000e+02,7.880000000000000000e+02,4.760000000000000000e+02,1.520000000000000000e+02,6.900000000000000000e+01,4.000000000000000000e+01,3.900000000000000000e+01,8.500000000000000000e+01,5.699999999999999512e-01,9.207474000000000000e+09
3.030000000000000000e+02,8.290000000000000000e+02,4.530000000000000000e+02,1.480000000000000000e+02,6.900000000000000000e+01,3.700000000000000000e+01,3.700000000000000000e+01,8.700000000000000000e+01,5.699999999999999512e-01,9.228490500000000000e+09
3.020000000000000000e+02,8.370000000000000000e+02,4.400000000000000000e+02,1.440000000000000000e+02,7.100000000000000000e+01,4.100000000000000000e+01,3.900000000000000000e+01,8.800000000000000000e+01,5.699999999999999512e-01,9.248833100000000000e+09
2.950000000000000000e+02,8.340000000000000000e+02,4.140000000000000000e+02,1.420000000000000000e+02,7.100000000000000000e+01,4.200000000000000000e+01,4.200000000000000000e+01,8.800000000000000000e+01,5.699999999999999512e-01,9.270332200000000000e+09
3.380000000000000000e+02,7.460000000000000000e+02,4.440000000000000000e+02,1.260000000000000000e+02,5.800000000000000000e+01,4.000000000000000000e+01,4.300000000000000000e+01,8.000000000000000000e+01,5.699999999999999512e-01,9.291649200000000000e+09
2.980000000000000000e+02,6.010000000000000000e+02,4.200000000000000000e+02,2.240000000000000000e+02,6.700000000000000000e+01,5.100000000000000000e+01,4.800000000000000000e+01,7.400000000000000000e+01,5.699999999999999512e-01,9.312801700000000000e+09
2.990000000000000000e+02,6.360000000000000000e+02,4.520000000000000000e+02,2.340000000000000000e+02,7.300000000000000000e+01,6.500000000000000000e+01,5.600000000000000000e+01,8.300000000000000000e+01,5.600000000000000533e-01,9.332701400000000000e+09
3.100000000000000000e+02,5.960000000000000000e+02,4.260000000000000000e+02,2.470000000000000000e+02,7.200000000000000000e+01,6.700000000000000000e+01,5.900000000000000000e+01,9.100000000000000000e+01,5.600000000000000533e-01,9.352913600000000000e+09
3.020000000000000000e+02,5.180000000000000000e+02,3.820000000000000000e+02,2.550000000000000000e+02,6.900000000000000000e+01,6.800000000000000000e+01,5.500000000000000000e+01,8.600000000000000000e+01,5.600000000000000533e-01,9.374176600000000000e+09
2.220000000000000000e+02,5.020000000000000000e+02,3.550000000000000000e+02,2.690000000000000000e+02,8.000000000000000000e+01,7.300000000000000000e+01,5.800000000000000000e+01,8.600000000000000000e+01,5.600000000000000533e-01,9.395472700000000000e+09
2.280000000000000000e+02,4.670000000000000000e+02,3.190000000000000000e+02,2.170000000000000000e+02,8.100000000000000000e+01,6.700000000000000000e+01,5.500000000000000000e+01,9.000000000000000000e+01,5.600000000000000533e-01,9.420321200000000000e+09
2.220000000000000000e+02,3.540000000000000000e+02,2.630000000000000000e+02,2.070000000000000000e+02,7.400000000000000000e+01,5.700000000000000000e+01,4.900000000000000000e+01,9.200000000000000000e+01,5.699999999999999512e-01,9.442450800000000000e+09
2.080000000000000000e+02,3.550000000000000000e+02,2.950000000000000000e+02,2.020000000000000000e+02,7.000000000000000000e+01,5.300000000000000000e+01,4.700000000000000000e+01,9.800000000000000000e+01,5.600000000000000533e-01,9.462822500000000000e+09
1.890000000000000000e+02,3.300000000000000000e+02,2.980000000000000000e+02,2.050000000000000000e+02,8.600000000000000000e+01,6.700000000000000000e+01,5.100000000000000000e+01,9.700000000000000000e+01,5.600000000000000533e-01,9.483547800000000000e+09
2.180000000000000000e+02,4.090000000000000000e+02,2.900000000000000000e+02,2.090000000000000000e+02,7.800000000000000000e+01,6.400000000000000000e+01,5.100000000000000000e+01,1.010000000000000000e+02,5.600000000000000533e-01,9.504470100000000000e+09
2.300000000000000000e+02,4.650000000000000000e+02,2.770000000000000000e+02,2.180000000000000000e+02,7.600000000000000000e+01,6.400000000000000000e+01,4.900000000000000000e+01,1.050000000000000000e+02,5.600000000000000533e-01,9.528265000000000000e+09
2.330000000000000000e+02,5.080000000000000000e+02,3.630000000000000000e+02,2.380000000000000000e+02,7.700000000000000000e+01,6.000000000000000000e+01,4.500000000000000000e+01,1.060000000000000000e+02,5.600000000000000533e-01,9.549937900000000000e+09
2.300000000000000000e+02,5.200000000000000000e+02,3.780000000000000000e+02,2.470000000000000000e+02,8.200000000000000000e+01,6.100000000000000000e+01,4.800000000000000000e+01,1.080000000000000000e+02,5.500000000000000444e-01,9.570626900000000000e+09
2.840000000000000000e+02,6.080000000000000000e+02,4.210000000000000000e+02,2.520000000000000000e+02,7.400000000000000000e+01,4.500000000000000000e+01,4.700000000000000000e+01,1.230000000000000000e+02,5.500000000000000444e-01,9.592444700000000000e+09
3.090000000000000000e+02,5.570000000000000000e+02,4.200000000000000000e+02,2.470000000000000000e+02,7.900000000000000000e+01,5.400000000000000000e+01,5.000000000000000000e+01,1.300000000000000000e+02,5.500000000000000444e-01,9.612582500000000000e+09
3.070000000000000000e+02,5.410000000000000000e+02,4.300000000000000000e+02,2.250000000000000000e+02,8.100000000000000000e+01,5.600000000000000000e+01,5.400000000000000000e+01,1.410000000000000000e+02,5.500000000000000444e-01,9.632442800000000000e+09
2.970000000000000000e+02,5.140000000000000000e+02,3.990000000000000000e+02,2.270000000000000000e+02,8.500000000000000000e+01,5.600000000000000000e+01,5.300000000000000000e+01,1.370000000000000000e+02,5.500000000000000444e-01,9.654072400000000000e+09
3.340000000000000000e+02,5.120000000000000000e+02,4.120000000000000000e+02,2.130000000000000000e+02,8.900000000000000000e+01,5.600000000000000000e+01,5.000000000000000000e+01,1.310000000000000000e+02,5.500000000000000444e-01,9.676126900000000000e+09
3.120000000000000000e+02,4.890000000000000000e+02,5.410000000000000000e+02,2.200000000000000000e+02,8.800000000000000000e+01,5.700000000000000000e+01,4.700000000000000000e+01,1.300000000000000000e+02,5.400000000000000355e-01,9.700349700000000000e+09
3.000000000000000000e+02,5.240000000000000000e+02,6.100000000000000000e+02,2.380000000000000000e+02,9.400000000000000000e+01,6.200000000000000000e+01,5.000000000000000000e+01,1.370000000000000000e+02,5.300000000000000266e-01,9.725809800000000000e+09
3.280000000000000000e+02,5.260000000000000000e+02,6.020000000000000000e+02,2.630000000000000000e+02,1.040000000000000000e+02,6.900000000000000000e+01,5.300000000000000000e+01,1.350000000000000000e+02,5.300000000000000266e-01,9.756491200000000000e+09
3.720000000000000000e+02,5.400000000000000000e+02,6.580000000000000000e+02,2.610000000000000000e+02,1.030000000000000000e+02,7.000000000000000000e+01,5.600000000000000000e+01,1.460000000000000000e+02,5.200000000000000178e-01,9.779582000000000000e+09
3.470000000000000000e+02,5.890000000000000000e+02,6.350000000000000000e+02,3.180000000000000000e+02,1.280000000000000000e+02,7.400000000000000000e+01,5.700000000000000000e+01,1.560000000000000000e+02,5.100000000000000089e-01,9.803615400000000000e+09
3.570000000000000000e+02,6.190000000000000000e+02,5.000000000000000000e+02,3.090000000000000000e+02,1.300000000000000000e+02,7.800000000000000000e+01,6.400000000000000000e+01,1.910000000000000000e+02,5.000000000000000000e-01,9.828531000000000000e+09
3.670000000000000000e+02,6.220000000000000000e+02,5.820000000000000000e+02,2.930000000000000000e+02,1.240000000000000000e+02,6.600000000000000000e+01,5.700000000000000000e+01,1.850000000000000000e+02,4.899999999999999911e-01,9.849016600000000000e+09
4.830000000000000000e+02,6.860000000000000000e+02,6.480000000000000000e+02,3.140000000000000000e+02,1.310000000000000000e+02,6.600000000000000000e+01,6.500000000000000000e+01,1.950000000000000000e+02,4.699999999999999734e-01,9.873805200000000000e+09
5.450000000000000000e+02,7.590000000000000000e+02,6.590000000000000000e+02,3.240000000000000000e+02,1.410000000000000000e+02,6.500000000000000000e+01,6.500000000000000000e+01,2.000000000000000000e+02,4.600000000000000200e-01,9.895412100000000000e+09
5.580000000000000000e+02,7.760000000000000000e+02,7.480000000000000000e+02,2.640000000000000000e+02,1.130000000000000000e+02,6.000000000000000000e+01,6.500000000000000000e+01,1.990000000000000000e+02,4.500000000000000111e-01,9.919499500000000000e+09
5.920000000000000000e+02,8.280000000000000000e+02,7.870000000000000000e+02,2.630000000000000000e+02,1.090000000000000000e+02,5.700000000000000000e+01,6.100000000000000000e+01,1.670000000000000000e+02,4.400000000000000022e-01,9.941211000000000000e+09
6.230000000000000000e+02,8.420000000000000000e+02,6.680000000000000000e+02,2.720000000000000000e+02,1.150000000000000000e+02,5.600000000000000000e+01,6.200000000000000000e+01,1.630000000000000000e+02,4.299999999999999933e-01,9.964000600000000000e+09
5.670000000000000000e+02,7.740000000000000000e+02,6.270000000000000000e+02,2.780000000000000000e+02,1.270000000000000000e+02,5.000000000000000000e+01,5.700000000000000000e+01,1.510000000000000000e+02,4.199999999999999845e-01,9.986552200000000000e+09
5.000000000000000000e+02,7.860000000000000000e+02,5.880000000000000000e+02,2.930000000000000000e+02,1.260000000000000000e+02,5.200000000000000000e+01,5.700000000000000000e+01,1.470000000000000000e+02,4.000000000000000222e-01,1.000773880000000000e+10
5.060000000000000000e+02,7.720000000000000000e+02,5.340000000000000000e+02,3.020000000000000000e+02,1.290000000000000000e+02,5.400000000000000000e+01,5.800000000000000000e+01,1.310000000000000000e+02,3.900000000000000133e-01,1.002932590000000000e+10
4.560000000000000000e+02,6.450000000000000000e+02,4.980000000000000000e+02,3.070000000000000000e+02,1.320000000000000000e+02,5.200000000000000000e+01,5.400000000000000000e+01,1.240000000000000000e+02,3.800000000000000044e-01,1.005093120000000000e+10
4.360000000000000000e+02,6.480000000000000000e+02,5.410000000000000000e+02,3.030000000000000000e+02,1.290000000000000000e+02,5.000000000000000000e+01,5.300000000000000000e+01,1.390000000000000000e+02,3.800000000000000044e-01,1.007276740000000000e+10
3.790000000000000000e+02,6.630000000000000000e+02,5.190000000000000000e+02,2.580000000000000000e+02,1.050000000000000000e+02,4.600000000000000000e+01,4.500000000000000000e+01,1.290000000000000000e+02,3.800000000000000044e-01,1.009434520000000000e+10
3.520000000000000000e+02,5.740000000000000000e+02,5.190000000000000000e+02,2.280000000000000000e+02,9.800000000000000000e+01,4.700000000000000000e+01,4.500000000000000000e+01,1.210000000000000000e+02,3.800000000000000044e-01,1.011874340000000000e+10
3.350000000000000000e+02,5.310000000000000000e+02,4.910000000000000000e+02,2.180000000000000000e+02,9.700000000000000000e+01,4.800000000000000000e+01,5.100000000000000000e+01,1.260000000000000000e+02,3.800000000000000044e-01,1.014021080000000000e+10
3.800000000000000000e+02,5.630000000000000000e+02,4.970000000000000000e+02,1.940000000000000000e+02,9.100000000000000000e+01,4.600000000000000000e+01,5.100000000000000000e+01,1.360000000000000000e+02,3.900000000000000133e-01,1.016309810000000000e+10
3.250000000000000000e+02,5.140000000000000000e+02,5.050000000000000000e+02,1.880000000000000000e+02,9.100000000000000000e+01,5.100000000000000000e+01,5.300000000000000000e+01,1.240000000000000000e+02,3.900000000000000133e-01,1.018500200000000000e+10
3.490000000000000000e+02,5.210000000000000000e+02,4.970000000000000000e+02,1.930000000000000000e+02,1.000000000000000000e+02,5.100000000000000000e+01,5.100000000000000000e+01,1.210000000000000000e+02,4.000000000000000222e-01,1.020832180000000000e+10
3.950000000000000000e+02,5.580000000000000000e+02,4.340000000000000000e+02,1.900000000000000000e+02,1.000000000000000000e+02,5.100000000000000000e+01,5.400000000000000000e+01,1.630000000000000000e+02,4.000000000000000222e-01,1.022919020000000000e+10
4.070000000000000000e+02,6.120000000000000000e+02,4.050000000000000000e+02,1.850000000000000000e+02,9.600000000000000000e+01,4.600000000000000000e+01,4.600000000000000000e+01,1.820000000000000000e+02,4.099999999999999756e-01,1.025050230000000000e+10
3.730000000000000000e+02,5.920000000000000000e+02,4.660000000000000000e+02,1.830000000000000000e+02,9.700000000000000000e+01,4.600000000000000000e+01,4.600000000000000000e+01,1.660000000000000000e+02,4.199999999999999845e-01,1.027231460000000000e+10
3.830000000000000000e+02,6.510000000000000000e+02,4.360000000000000000e+02,1.930000000000000000e+02,9.800000000000000000e+01,4.300000000000000000e+01,4.800000000000000000e+01,1.840000000000000000e+02,4.299999999999999933e-01,1.029447590000000000e+10
3.740000000000000000e+02,6.850000000000000000e+02,4.840000000000000000e+02,2.030000000000000000e+02,8.500000000000000000e+01,4.600000000000000000e+01,5.100000000000000000e+01,2.020000000000000000e+02,4.400000000000000022e-01,1.032038790000000000e+10
5.190000000000000000e+02,7.380000000000000000e+02,5.370000000000000000e+02,2.030000000000000000e+02,9.000000000000000000e+01,5.900000000000000000e+01,6.900000000000000000e+01,2.080000000000000000e+02,4.500000000000000111e-01,1.034182750000000000e+10
5.790000000000000000e+02,7.420000000000000000e+02,5.330000000000000000e+02,2.270000000000000000e+02,1.070000000000000000e+02,6.500000000000000000e+01,7.500000000000000000e+01,2.170000000000000000e+02,4.500000000000000111e-01,1.036294420000000000e+10
5.760000000000000000e+02,7.640000000000000000e+02,4.690000000000000000e+02,2.290000000000000000e+02,1.090000000000000000e+02,6.700000000000000000e+01,7.700000000000000000e+01,2.210000000000000000e+02,4.600000000000000200e-01,1.038359550000000000e+10
5.730000000000000000e+02,7.380000000000000000e+02,4.650000000000000000e+02,2.120000000000000000e+02,1.020000000000000000e+02,6.700000000000000000e+01,7.500000000000000000e+01,2.090000000000000000e+02,4.600000000000000200e-01,1.040437470000000000e+10
6.390000000000000000e+02,7.800000000000000000e+02,4.970000000000000000e+02,2.180000000000000000e+02,1.080000000000000000e+02,6.800000000000000000e+01,7.800000000000000000e+01,2.100000000000000000e+02,4.699999999999999734e-01,1.042484260000000000e+10
5.090000000000000000e+02,7.560000000000000000e+02,4.790000000000000000e+02,1.990000000000000000e+02,1.080000000000000000e+02,6.500000000000000000e+01,7.400000000000000000e+01,2.210000000000000000e+02,4.799999999999999822e-01,1.044775150000000000e+10
4.330000000000000000e+02,7.230000000000000000e+02,4.960000000000000000e+02,1.760000000000000000e+02,9.900000000000000000e+01,6.700000000000000000e+01,7.000000000000000000e+01,1.960000000000000000e+02,4.799999999999999822e-01,1.046804320000000000e+10
4.250000000000000000e+02,7.440000000000000000e+02,5.130000000000000000e+02,2.270000000000000000e+02,1.110000000000000000e+02,6.800000000000000000e+01,7.100000000000000000e+01,2.310000000000000000e+02,4.899999999999999911e-01,1.049029740000000000e+10
4.370000000000000000e+02,7.520000000000000000e+02,5.570000000000000000e+02,2.380000000000000000e+02,1.220000000000000000e+02,7.700000000000000000e+01,8.200000000000000000e+01,2.600000000000000000e+02,4.899999999999999911e-01,1.051120250000000000e+10
3.550000000000000000e+02,8.260000000000000000e+02,6.480000000000000000e+02,2.700000000000000000e+02,1.240000000000000000e+02,7.800000000000000000e+01,8.700000000000000000e+01,2.680000000000000000e+02,4.899999999999999911e-01,1.053362600000000000e+10
3.970000000000000000e+02,8.500000000000000000e+02,6.890000000000000000e+02,2.980000000000000000e+02,1.360000000000000000e+02,8.000000000000000000e+01,8.600000000000000000e+01,2.590000000000000000e+02,4.799999999999999822e-01,1.055786880000000000e+10
3.970000000000000000e+02,8.570000000000000000e+02,7.000000000000000000e+02,3.080000000000000000e+02,1.390000000000000000e+02,8.100000000000000000e+01,8.500000000000000000e+01,2.630000000000000000e+02,4.699999999999999734e-01,1.058138560000000000e+10
4.330000000000000000e+02,8.370000000000000000e+02,7.020000000000000000e+02,3.190000000000000000e+02,1.370000000000000000e+02,8.100000000000000000e+01,8.200000000000000000e+01,2.340000000000000000e+02,4.600000000000000200e-01,1.060278730000000000e+10
4.730000000000000000e+02,8.680000000000000000e+02,7.170000000000000000e+02,3.300000000000000000e+02,1.310000000000000000e+02,7.400000000000000000e+01,7.500000000000000000e+01,2.090000000000000000e+02,4.500000000000000111e-01,1.062380410000000000e+10
4.560000000000000000e+02,8.040000000000000000e+02,6.210000000000000000e+02,2.990000000000000000e+02,1.320000000000000000e+02,7.200000000000000000e+01,6.700000000000000000e+01,1.870000000000000000e+02,4.400000000000000022e-01,1.064504470000000000e+10
4.810000000000000000e+02,8.150000000000000000e+02,6.050000000000000000e+02,2.840000000000000000e+02,1.250000000000000000e+02,6.700000000000000000e+01,6.300000000000000000e+01,1.550000000000000000e+02,4.299999999999999933e-01,1.066723960000000000e+10
4.780000000000000000e+02,9.110000000000000000e+02,6.360000000000000000e+02,2.940000000000000000e+02,1.260000000000000000e+02,6.400000000000000000e+01,6.500000000000000000e+01,1.500000000000000000e+02,4.199999999999999845e-01,1.068827080000000000e+10
4.590000000000000000e+02,9.750000000000000000e+02,7.120000000000000000e+02,2.740000000000000000e+02,1.270000000000000000e+02,6.100000000000000000e+01,7.000000000000000000e+01,1.670000000000000000e+02,4.000000000000000222e-01,1.071027820000000000e+10
4.570000000000000000e+02,1.016000000000000000e+03,6.680000000000000000e+02,2.510000000000000000e+02,1.240000000000000000e+02,6.300000000000000000e+01,7.400000000000000000e+01,1.760000000000000000e+02,3.900000000000000133e-01,1.073297470000000000e+10
4.640000000000000000e+02,9.790000000000000000e+02,6.610000000000000000e+02,2.610000000000000000e+02,1.240000000000000000e+02,6.200000000000000000e+01,7.400000000000000000e+01,1.730000000000000000e+02,3.800000000000000044e-01,1.075341220000000000e+10
4.200000000000000000e+02,9.240000000000000000e+02,6.150000000000000000e+02,2.810000000000000000e+02,1.200000000000000000e+02,5.600000000000000000e+01,6.800000000000000000e+01,1.710000000000000000e+02,3.599999999999999867e-01,1.077547410000000000e+10
4.040000000000000000e+02,8.320000000000000000e+02,5.540000000000000000e+02,2.620000000000000000e+02,1.120000000000000000e+02,5.300000000000000000e+01,6.500000000000000000e+01,1.660000000000000000e+02,3.599999999999999867e-01,1.079801450000000000e+10
3.900000000000000000e+02,7.700000000000000000e+02,4.650000000000000000e+02,2.330000000000000000e+02,9.900000000000000000e+01,5.400000000000000000e+01,6.300000000000000000e+01,1.450000000000000000e+02,3.699999999999999956e-01,1.081925710000000000e+10
3.240000000000000000e+02,6.720000000000000000e+02,4.250000000000000000e+02,2.490000000000000000e+02,9.800000000000000000e+01,4.700000000000000000e+01,5.300000000000000000e+01,1.110000000000000000e+02,3.699999999999999956e-01,1.083986340000000000e+10
2.970000000000000000e+02,6.470000000000000000e+02,4.060000000000000000e+02,2.160000000000000000e+02,8.500000000000000000e+01,4.500000000000000000e+01,5.200000000000000000e+01,1.070000000000000000e+02,3.800000000000000044e-01,1.086052040000000000e+10
2.340000000000000000e+02,6.010000000000000000e+02,4.040000000000000000e+02,1.690000000000000000e+02,6.600000000000000000e+01,4.400000000000000000e+01,5.000000000000000000e+01,8.900000000000000000e+01,3.800000000000000044e-01,1.088276920000000000e+10
2.380000000000000000e+02,5.440000000000000000e+02,3.900000000000000000e+02,1.510000000000000000e+02,5.700000000000000000e+01,4.400000000000000000e+01,5.100000000000000000e+01,9.000000000000000000e+01,4.000000000000000222e-01,1.090417150000000000e+10
2.240000000000000000e+02,4.990000000000000000e+02,3.260000000000000000e+02,1.480000000000000000e+02,5.200000000000000000e+01,4.200000000000000000e+01,4.600000000000000000e+01,8.500000000000000000e+01,4.099999999999999756e-01,1.092564370000000000e+10
2.020000000000000000e+02,4.200000000000000000e+02,3.610000000000000000e+02,1.180000000000000000e+02,5.300000000000000000e+01,4.700000000000000000e+01,4.800000000000000000e+01,8.800000000000000000e+01,4.199999999999999845e-01,1.094886070000000000e+10
2.140000000000000000e+02,4.500000000000000000e+02,3.990000000000000000e+02,1.630000000000000000e+02,7.900000000000000000e+01,6.300000000000000000e+01,5.900000000000000000e+01,9.900000000000000000e+01,4.299999999999999933e-01,1.097212480000000000e+10
3.180000000000000000e+02,5.680000000000000000e+02,4.610000000000000000e+02,2.390000000000000000e+02,9.600000000000000000e+01,7.200000000000000000e+01,6.400000000000000000e+01,9.700000000000000000e+01,4.400000000000000022e-01,1.099689810000000000e+10
3.270000000000000000e+02,6.020000000000000000e+02,5.130000000000000000e+02,2.570000000000000000e+02,9.700000000000000000e+01,7.200000000000000000e+01,6.400000000000000000e+01,9.700000000000000000e+01,4.500000000000000111e-01,1.101958780000000000e+10
3.300000000000000000e+02,5.900000000000000000e+02,5.490000000000000000e+02,2.550000000000000000e+02,9.900000000000000000e+01,7.400000000000000000e+01,6.600000000000000000e+01,9.600000000000000000e+01,4.600000000000000200e-01,1.104164530000000000e+10
3.360000000000000000e+02,6.650000000000000000e+02,5.640000000000000000e+02,2.530000000000000000e+02,1.000000000000000000e+02,7.400000000000000000e+01,6.700000000000000000e+01,9.600000000000000000e+01,4.699999999999999734e-01,1.106835570000000000e+10
3.250000000000000000e+02,6.960000000000000000e+02,5.100000000000000000e+02,2.340000000000000000e+02,8.000000000000000000e+01,6.800000000000000000e+01,6.000000000000000000e+01,7.600000000000000000e+01,4.799999999999999822e-01,1.110070970000000000e+10
2.150000000000000000e+02,6.870000000000000000e+02,4.840000000000000000e+02,1.670000000000000000e+02,6.400000000000000000e+01,7.700000000000000000e+01,6.500000000000000000e+01,7.500000000000000000e+01,4.899999999999999911e-01,1.112600960000000000e+10
1.800000000000000000e+02,6.640000000000000000e+02,4.430000000000000000e+02,2.070000000000000000e+02,8.700000000000000000e+01,1.240000000000000000e+02,8.100000000000000000e+01,7.100000000000000000e+01,5.000000000000000000e-01,1.115067120000000000e+10
2.180000000000000000e+02,7.230000000000000000e+02,4.220000000000000000e+02,2.320000000000000000e+02,9.400000000000000000e+01,1.350000000000000000e+02,8.800000000000000000e+01,8.300000000000000000e+01,5.000000000000000000e-01,1.117273540000000000e+10
2.230000000000000000e+02,6.820000000000000000e+02,3.810000000000000000e+02,2.350000000000000000e+02,9.200000000000000000e+01,1.340000000000000000e+02,8.500000000000000000e+01,7.900000000000000000e+01,5.000000000000000000e-01,1.119417090000000000e+10
2.070000000000000000e+02,6.100000000000000000e+02,4.440000000000000000e+02,2.260000000000000000e+02,9.100000000000000000e+01,1.290000000000000000e+02,8.100000000000000000e+01,7.400000000000000000e+01,5.000000000000000000e-01,1.121702670000000000e+10
2.080000000000000000e+02,4.810000000000000000e+02,4.480000000000000000e+02,2.210000000000000000e+02,8.900000000000000000e+01,1.200000000000000000e+02,7.200000000000000000e+01,6.600000000000000000e+01,5.000000000000000000e-01,1.124055700000000000e+10
2.270000000000000000e+02,5.160000000000000000e+02,4.600000000000000000e+02,1.620000000000000000e+02,6.400000000000000000e+01,7.100000000000000000e+01,5.200000000000000000e+01,6.700000000000000000e+01,5.100000000000000089e-01,1.126379470000000000e+10
2.540000000000000000e+02,4.970000000000000000e+02,4.440000000000000000e+02,1.180000000000000000e+02,4.900000000000000000e+01,4.200000000000000000e+01,3.800000000000000000e+01,5.500000000000000000e+01,5.200000000000000178e-01,1.128657410000000000e+10
2.680000000000000000e+02,4.730000000000000000e+02,4.520000000000000000e+02,1.260000000000000000e+02,6.000000000000000000e+01,4.500000000000000000e+01,4.100000000000000000e+01,5.600000000000000000e+01,5.300000000000000266e-01,1.130941380000000000e+10
2.790000000000000000e+02,5.080000000000000000e+02,3.920000000000000000e+02,1.220000000000000000e+02,6.000000000000000000e+01,4.300000000000000000e+01,3.900000000000000000e+01,5.300000000000000000e+01,5.300000000000000266e-01,1.133236520000000000e+10
2.930000000000000000e+02,5.820000000000000000e+02,3.520000000000000000e+02,1.290000000000000000e+02,6.000000000000000000e+01,4.500000000000000000e+01,4.100000000000000000e+01,6.100000000000000000e+01,5.400000000000000355e-01,1.135472630000000000e+10
2.980000000000000000e+02,6.640000000000000000e+02,3.190000000000000000e+02,1.550000000000000000e+02,7.000000000000000000e+01,4.300000000000000000e+01,4.200000000000000000e+01,6.400000000000000000e+01,5.500000000000000444e-01,1.137632710000000000e+10
2.420000000000000000e+02,6.160000000000000000e+02,3.970000000000000000e+02,1.600000000000000000e+02,6.900000000000000000e+01,4.200000000000000000e+01,4.100000000000000000e+01,6.000000000000000000e+01,5.500000000000000444e-01,1.139717220000000000e+10
2.060000000000000000e+02,6.040000000000000000e+02,4.130000000000000000e+02,1.520000000000000000e+02,6.200000000000000000e+01,4.000000000000000000e+01,3.800000000000000000e+01,5.600000000000000000e+01,5.500000000000000444e-01,1.142077660000000000e+10
1.810000000000000000e+02,5.800000000000000000e+02,4.350000000000000000e+02,1.570000000000000000e+02,6.800000000000000000e+01,4.700000000000000000e+01,4.100000000000000000e+01,5.400000000000000000e+01,5.600000000000000533e-01,1.144421800000000000e+10
1.690000000000000000e+02,5.780000000000000000e+02,4.320000000000000000e+02,1.500000000000000000e+02,6.900000000000000000e+01,4.300000000000000000e+01,3.800000000000000000e+01,5.300000000000000000e+01,5.600000000000000533e-01,1.146911250000000000e+10
1.350000000000000000e+02,4.300000000000000000e+02,4.360000000000000000e+02,1.300000000000000000e+02,6.300000000000000000e+01,5.800000000000000000e+01,4.300000000000000000e+01,5.300000000000000000e+01,5.699999999999999512e-01,1.149143300000000000e+10
1.580000000000000000e+02,4.040000000000000000e+02,3.520000000000000000e+02,1.320000000000000000e+02,6.700000000000000000e+01,6.300000000000000000e+01,4.500000000000000000e+01,5.800000000000000000e+01,5.699999999999999512e-01,1.151432960000000000e+10
1.640000000000000000e+02,4.000000000000000000e+02,3.130000000000000000e+02,1.270000000000000000e+02,6.500000000000000000e+01,6.300000000000000000e+01,4.400000000000000000e+01,5.700000000000000000e+01,5.699999999999999512e-01,1.153779640000000000e+10
1.670000000000000000e+02,3.710000000000000000e+02,2.770000000000000000e+02,1.310000000000000000e+02,6.100000000000000000e+01,6.100000000000000000e+01,4.200000000000000000e+01,5.800000000000000000e+01,5.799999999999999600e-01,1.156091650000000000e+10
1.620000000000000000e+02,2.760000000000000000e+02,2.540000000000000000e+02,1.350000000000000000e+02,5.700000000000000000e+01,6.700000000000000000e+01,4.500000000000000000e+01,4.800000000000000000e+01,5.799999999999999600e-01,1.158652160000000000e+10
1.510000000000000000e+02,2.500000000000000000e+02,2.370000000000000000e+02,1.360000000000000000e+02,5.600000000000000000e+01,6.200000000000000000e+01,4.300000000000000000e+01,4.200000000000000000e+01,5.799999999999999600e-01,1.161004390000000000e+10
1.200000000000000000e+02,2.870000000000000000e+02,2.400000000000000000e+02,1.270000000000000000e+02,5.200000000000000000e+01,5.700000000000000000e+01,4.000000000000000000e+01,3.200000000000000000e+01,5.799999999999999600e-01,1.163120070000000000e+10
1.410000000000000000e+02,3.930000000000000000e+02,2.370000000000000000e+02,1.220000000000000000e+02,5.200000000000000000e+01,5.600000000000000000e+01,4.000000000000000000e+01,3.500000000000000000e+01,5.899999999999999689e-01,1.165287640000000000e+10
1.700000000000000000e+02,4.110000000000000000e+02,2.690000000000000000e+02,1.130000000000000000e+02,4.400000000000000000e+01,5.400000000000000000e+01,4.200000000000000000e+01,4.600000000000000000e+01,5.899999999999999689e-01,1.167453710000000000e+10
1.590000000000000000e+02,4.420000000000000000e+02,2.600000000000000000e+02,9.200000000000000000e+01,4.100000000000000000e+01,4.400000000000000000e+01,3.700000000000000000e+01,4.500000000000000000e+01,5.999999999999999778e-01,1.170069000000000000e+10
1.950000000000000000e+02,4.520000000000000000e+02,2.450000000000000000e+02,6.500000000000000000e+01,3.600000000000000000e+01,3.700000000000000000e+01,3.500000000000000000e+01,5.100000000000000000e+01,5.999999999999999778e-01,1.172310510000000000e+10
1.930000000000000000e+02,4.440000000000000000e+02,2.360000000000000000e+02,6.900000000000000000e+01,4.300000000000000000e+01,3.800000000000000000e+01,3.500000000000000000e+01,5.300000000000000000e+01,5.999999999999999778e-01,1.174458310000000000e+10
1.890000000000000000e+02,4.150000000000000000e+02,2.260000000000000000e+02,7.200000000000000000e+01,4.000000000000000000e+01,3.800000000000000000e+01,3.700000000000000000e+01,5.300000000000000000e+01,5.999999999999999778e-01,1.176523490000000000e+10
1.790000000000000000e+02,4.010000000000000000e+02,2.280000000000000000e+02,6.900000000000000000e+01,4.600000000000000000e+01,4.000000000000000000e+01,3.600000000000000000e+01,4.700000000000000000e+01,5.999999999999999778e-01,1.178983620000000000e+10
1.760000000000000000e+02,3.330000000000000000e+02,2.040000000000000000e+02,7.800000000000000000e+01,5.200000000000000000e+01,5.000000000000000000e+01,3.600000000000000000e+01,4.600000000000000000e+01,5.999999999999999778e-01,1.181383000000000000e+10
1.320000000000000000e+02,3.280000000000000000e+02,2.400000000000000000e+02,8.900000000000000000e+01,5.400000000000000000e+01,4.900000000000000000e+01,3.300000000000000000e+01,3.900000000000000000e+01,5.999999999999999778e-01,1.183668770000000000e+10
1.310000000000000000e+02,3.040000000000000000e+02,2.400000000000000000e+02,9.800000000000000000e+01,5.300000000000000000e+01,5.600000000000000000e+01,3.600000000000000000e+01,3.800000000000000000e+01,5.999999999999999778e-01,1.185823260000000000e+10
1.050000000000000000e+02,2.180000000000000000e+02,2.420000000000000000e+02,1.070000000000000000e+02,6.000000000000000000e+01,7.600000000000000000e+01,3.500000000000000000e+01,4.000000000000000000e+01,5.999999999999999778e-01,1.188020550000000000e+10
6.500000000000000000e+01,1.740000000000000000e+02,1.930000000000000000e+02,1.040000000000000000e+02,6.100000000000000000e+01,1.170000000000000000e+02,3.200000000000000000e+01,3.400000000000000000e+01,5.999999999999999778e-01,1.190230730000000000e+10
5.700000000000000000e+01,1.620000000000000000e+02,3.570000000000000000e+02,1.020000000000000000e+02,6.500000000000000000e+01,1.280000000000000000e+02,4.400000000000000000e+01,4.500000000000000000e+01,5.999999999999999778e-01,1.192387630000000000e+10
