2.200000000000000000e+01,4.900000000000000000e+01,1.880000000000000000e+02,7.600000000000000000e+01,7.200000000000000000e+01,3.900000000000000000e+01,3.400000000000000000e+01,2.000000000000000000e+01,5.300000000000000266e-01,4.292171000000000000e+08
2.300000000000000000e+01,6.100000000000000000e+01,1.950000000000000000e+02,8.400000000000000000e+01,7.200000000000000000e+01,3.900000000000000000e+01,2.900000000000000000e+01,2.200000000000000000e+01,5.300000000000000266e-01,4.600787000000000000e+08
2.700000000000000000e+01,6.500000000000000000e+01,2.230000000000000000e+02,8.100000000000000000e+01,7.500000000000000000e+01,3.800000000000000000e+01,2.900000000000000000e+01,2.200000000000000000e+01,5.300000000000000266e-01,8.263661000000000000e+08
2.800000000000000000e+01,6.600000000000000000e+01,2.460000000000000000e+02,7.500000000000000000e+01,7.300000000000000000e+01,4.000000000000000000e+01,3.000000000000000000e+01,2.300000000000000000e+01,5.300000000000000266e-01,8.455299000000000000e+08
2.600000000000000000e+01,6.400000000000000000e+01,2.340000000000000000e+02,7.900000000000000000e+01,5.600000000000000000e+01,3.900000000000000000e+01,2.800000000000000000e+01,2.200000000000000000e+01,5.300000000000000266e-01,8.631580000000000000e+08
2.600000000000000000e+01,6.000000000000000000e+01,2.290000000000000000e+02,7.900000000000000000e+01,5.900000000000000000e+01,3.500000000000000000e+01,2.800000000000000000e+01,2.300000000000000000e+01,5.300000000000000266e-01,8.812316000000000000e+08
2.500000000000000000e+01,4.800000000000000000e+01,2.130000000000000000e+02,9.700000000000000000e+01,5.800000000000000000e+01,3.400000000000000000e+01,3.000000000000000000e+01,2.300000000000000000e+01,5.300000000000000266e-01,8.985945000000000000e+08
2.200000000000000000e+01,4.800000000000000000e+01,2.200000000000000000e+02,1.380000000000000000e+02,5.400000000000000000e+01,3.000000000000000000e+01,3.100000000000000000e+01,2.100000000000000000e+01,5.300000000000000266e-01,9.157589000000000000e+08
2.100000000000000000e+01,4.400000000000000000e+01,2.080000000000000000e+02,1.500000000000000000e+02,5.900000000000000000e+01,3.500000000000000000e+01,3.900000000000000000e+01,2.300000000000000000e+01,5.400000000000000355e-01,9.366331000000000000e+08
2.300000000000000000e+01,5.600000000000000000e+01,2.260000000000000000e+02,1.570000000000000000e+02,6.500000000000000000e+01,3.300000000000000000e+01,4.800000000000000000e+01,2.600000000000000000e+01,5.400000000000000355e-01,9.550616000000000000e+08
2.200000000000000000e+01,5.600000000000000000e+01,2.270000000000000000e+02,1.780000000000000000e+02,6.800000000000000000e+01,3.400000000000000000e+01,5.200000000000000000e+01,2.500000000000000000e+01,5.500000000000000444e-01,9.716794000000000000e+08
2.300000000000000000e+01,6.000000000000000000e+01,2.350000000000000000e+02,2.230000000000000000e+02,6.700000000000000000e+01,3.800000000000000000e+01,6.600000000000000000e+01,4.400000000000000000e+01,5.600000000000000533e-01,9.888029000000000000e+08
2.400000000000000000e+01,6.400000000000000000e+01,2.590000000000000000e+02,2.250000000000000000e+02,7.400000000000000000e+01,4.200000000000000000e+01,1.880000000000000000e+02,5.200000000000000000e+01,5.699999999999999512e-01,1.006309600000000000e+09
3.000000000000000000e+01,6.900000000000000000e+01,3.140000000000000000e+02,2.440000000000000000e+02,1.040000000000000000e+02,5.200000000000000000e+01,2.410000000000000000e+02,8.900000000000000000e+01,5.699999999999999512e-01,1.023245300000000000e+09
3.600000000000000000e+01,6.900000000000000000e+01,3.440000000000000000e+02,2.950000000000000000e+02,1.030000000000000000e+02,5.800000000000000000e+01,2.460000000000000000e+02,1.410000000000000000e+02,5.799999999999999600e-01,1.043030000000000000e+09
3.900000000000000000e+01,7.200000000000000000e+01,4.280000000000000000e+02,3.740000000000000000e+02,1.170000000000000000e+02,5.900000000000000000e+01,2.490000000000000000e+02,1.580000000000000000e+02,5.799999999999999600e-01,1.061034300000000000e+09
4.000000000000000000e+01,8.900000000000000000e+01,5.580000000000000000e+02,4.370000000000000000e+02,1.320000000000000000e+02,6.500000000000000000e+01,2.580000000000000000e+02,1.650000000000000000e+02,5.799999999999999600e-01,1.077846600000000000e+09
4.100000000000000000e+01,1.010000000000000000e+02,5.810000000000000000e+02,4.860000000000000000e+02,1.360000000000000000e+02,7.200000000000000000e+01,2.030000000000000000e+02,1.750000000000000000e+02,5.899999999999999689e-01,1.095276200000000000e+09
4.200000000000000000e+01,1.030000000000000000e+02,5.730000000000000000e+02,5.060000000000000000e+02,1.580000000000000000e+02,8.300000000000000000e+01,1.460000000000000000e+02,1.640000000000000000e+02,5.799999999999999600e-01,1.122551700000000000e+09
3.900000000000000000e+01,1.010000000000000000e+02,6.040000000000000000e+02,4.970000000000000000e+02,1.910000000000000000e+02,9.200000000000000000e+01,1.440000000000000000e+02,1.280000000000000000e+02,5.699999999999999512e-01,1.143845200000000000e+09
4.500000000000000000e+01,1.110000000000000000e+02,6.540000000000000000e+02,4.480000000000000000e+02,2.040000000000000000e+02,9.800000000000000000e+01,1.430000000000000000e+02,1.290000000000000000e+02,5.600000000000000533e-01,1.161555100000000000e+09
5.200000000000000000e+01,1.000000000000000000e+02,6.100000000000000000e+02,3.740000000000000000e+02,2.130000000000000000e+02,1.020000000000000000e+02,1.240000000000000000e+02,1.380000000000000000e+02,5.400000000000000355e-01,1.178605900000000000e+09
5.300000000000000000e+01,8.600000000000000000e+01,6.200000000000000000e+02,3.370000000000000000e+02,2.160000000000000000e+02,1.020000000000000000e+02,9.700000000000000000e+01,1.260000000000000000e+02,5.200000000000000178e-01,1.195131700000000000e+09
5.500000000000000000e+01,9.300000000000000000e+01,6.850000000000000000e+02,2.970000000000000000e+02,2.000000000000000000e+02,9.200000000000000000e+01,8.200000000000000000e+01,1.220000000000000000e+02,5.000000000000000000e-01,1.211765900000000000e+09
5.800000000000000000e+01,1.000000000000000000e+02,8.010000000000000000e+02,3.020000000000000000e+02,1.740000000000000000e+02,8.200000000000000000e+01,1.010000000000000000e+02,1.230000000000000000e+02,4.799999999999999822e-01,1.232168200000000000e+09
5.500000000000000000e+01,9.700000000000000000e+01,8.130000000000000000e+02,3.430000000000000000e+02,1.580000000000000000e+02,8.100000000000000000e+01,1.220000000000000000e+02,1.160000000000000000e+02,4.600000000000000200e-01,1.250312300000000000e+09
4.900000000000000000e+01,9.900000000000000000e+01,8.290000000000000000e+02,3.270000000000000000e+02,1.370000000000000000e+02,7.800000000000000000e+01,1.360000000000000000e+02,1.220000000000000000e+02,4.400000000000000022e-01,1.268156200000000000e+09
4.800000000000000000e+01,1.060000000000000000e+02,8.440000000000000000e+02,3.160000000000000000e+02,1.270000000000000000e+02,7.700000000000000000e+01,1.430000000000000000e+02,1.970000000000000000e+02,4.299999999999999933e-01,1.285422300000000000e+09
4.900000000000000000e+01,1.030000000000000000e+02,8.690000000000000000e+02,3.240000000000000000e+02,1.050000000000000000e+02,7.600000000000000000e+01,1.510000000000000000e+02,2.500000000000000000e+02,4.099999999999999756e-01,1.303219300000000000e+09
5.200000000000000000e+01,1.320000000000000000e+02,8.610000000000000000e+02,3.030000000000000000e+02,1.010000000000000000e+02,8.200000000000000000e+01,1.660000000000000000e+02,2.550000000000000000e+02,4.000000000000000222e-01,1.322850000000000000e+09
6.000000000000000000e+01,1.880000000000000000e+02,8.660000000000000000e+02,2.440000000000000000e+02,9.000000000000000000e+01,7.600000000000000000e+01,1.610000000000000000e+02,2.980000000000000000e+02,3.900000000000000133e-01,1.342562900000000000e+09
7.400000000000000000e+01,2.070000000000000000e+02,9.560000000000000000e+02,2.480000000000000000e+02,9.000000000000000000e+01,9.400000000000000000e+01,1.650000000000000000e+02,3.790000000000000000e+02,3.800000000000000044e-01,1.360698600000000000e+09
8.300000000000000000e+01,2.180000000000000000e+02,9.620000000000000000e+02,2.140000000000000000e+02,1.030000000000000000e+02,1.070000000000000000e+02,1.730000000000000000e+02,3.920000000000000000e+02,3.699999999999999956e-01,1.378626900000000000e+09
1.030000000000000000e+02,2.630000000000000000e+02,9.130000000000000000e+02,2.040000000000000000e+02,1.110000000000000000e+02,1.090000000000000000e+02,1.780000000000000000e+02,4.840000000000000000e+02,3.599999999999999867e-01,1.398142000000000000e+09
1.090000000000000000e+02,2.660000000000000000e+02,8.790000000000000000e+02,1.820000000000000000e+02,1.080000000000000000e+02,1.090000000000000000e+02,1.650000000000000000e+02,5.050000000000000000e+02,3.599999999999999867e-01,1.416459400000000000e+09
1.130000000000000000e+02,2.410000000000000000e+02,9.250000000000000000e+02,1.630000000000000000e+02,1.150000000000000000e+02,1.170000000000000000e+02,1.630000000000000000e+02,5.020000000000000000e+02,3.499999999999999778e-01,1.435784400000000000e+09
1.060000000000000000e+02,2.400000000000000000e+02,8.310000000000000000e+02,1.690000000000000000e+02,1.290000000000000000e+02,1.010000000000000000e+02,1.490000000000000000e+02,4.520000000000000000e+02,3.400000000000000244e-01,1.453529300000000000e+09
1.000000000000000000e+02,2.290000000000000000e+02,8.140000000000000000e+02,1.640000000000000000e+02,1.530000000000000000e+02,8.300000000000000000e+01,1.410000000000000000e+02,4.200000000000000000e+02,3.300000000000000155e-01,1.470282200000000000e+09
7.900000000000000000e+01,1.850000000000000000e+02,8.070000000000000000e+02,1.720000000000000000e+02,1.620000000000000000e+02,9.200000000000000000e+01,1.530000000000000000e+02,2.940000000000000000e+02,3.200000000000000067e-01,1.487960100000000000e+09
7.500000000000000000e+01,1.700000000000000000e+02,7.230000000000000000e+02,1.810000000000000000e+02,1.950000000000000000e+02,1.010000000000000000e+02,2.810000000000000000e+02,2.560000000000000000e+02,2.999999999999999889e-01,1.505929400000000000e+09
6.100000000000000000e+01,1.610000000000000000e+02,6.110000000000000000e+02,1.880000000000000000e+02,1.990000000000000000e+02,9.400000000000000000e+01,2.980000000000000000e+02,2.080000000000000000e+02,2.899999999999999800e-01,1.524153100000000000e+09
6.400000000000000000e+01,1.650000000000000000e+02,5.370000000000000000e+02,1.710000000000000000e+02,1.890000000000000000e+02,9.100000000000000000e+01,3.020000000000000000e+02,2.070000000000000000e+02,2.800000000000000266e-01,1.545261700000000000e+09
6.000000000000000000e+01,1.800000000000000000e+02,5.500000000000000000e+02,1.720000000000000000e+02,1.660000000000000000e+02,9.000000000000000000e+01,3.030000000000000000e+02,1.970000000000000000e+02,2.800000000000000266e-01,1.562872300000000000e+09
6.100000000000000000e+01,1.730000000000000000e+02,6.060000000000000000e+02,1.540000000000000000e+02,1.860000000000000000e+02,1.110000000000000000e+02,3.030000000000000000e+02,1.660000000000000000e+02,2.800000000000000266e-01,1.580423200000000000e+09
5.400000000000000000e+01,1.790000000000000000e+02,6.890000000000000000e+02,1.450000000000000000e+02,1.670000000000000000e+02,1.210000000000000000e+02,1.740000000000000000e+02,1.590000000000000000e+02,2.700000000000000178e-01,1.598000500000000000e+09
5.200000000000000000e+01,1.710000000000000000e+02,6.410000000000000000e+02,1.380000000000000000e+02,1.560000000000000000e+02,1.190000000000000000e+02,1.330000000000000000e+02,1.650000000000000000e+02,2.700000000000000178e-01,1.615627100000000000e+09
5.500000000000000000e+01,1.940000000000000000e+02,7.050000000000000000e+02,1.520000000000000000e+02,1.560000000000000000e+02,1.260000000000000000e+02,1.200000000000000000e+02,1.440000000000000000e+02,2.600000000000000089e-01,1.638914100000000000e+09
5.800000000000000000e+01,2.280000000000000000e+02,8.210000000000000000e+02,1.460000000000000000e+02,1.510000000000000000e+02,1.370000000000000000e+02,1.140000000000000000e+02,1.440000000000000000e+02,2.600000000000000089e-01,1.659448900000000000e+09
5.500000000000000000e+01,2.710000000000000000e+02,8.070000000000000000e+02,1.360000000000000000e+02,1.100000000000000000e+02,1.660000000000000000e+02,9.000000000000000000e+01,1.500000000000000000e+02,2.500000000000000000e-01,1.676835900000000000e+09
5.800000000000000000e+01,2.740000000000000000e+02,7.470000000000000000e+02,1.300000000000000000e+02,8.900000000000000000e+01,1.760000000000000000e+02,9.700000000000000000e+01,1.750000000000000000e+02,2.600000000000000089e-01,1.694040300000000000e+09
6.500000000000000000e+01,2.870000000000000000e+02,7.500000000000000000e+02,1.360000000000000000e+02,1.180000000000000000e+02,2.200000000000000000e+02,1.140000000000000000e+02,2.460000000000000000e+02,2.600000000000000089e-01,1.711339300000000000e+09
5.900000000000000000e+01,2.630000000000000000e+02,6.940000000000000000e+02,1.160000000000000000e+02,1.310000000000000000e+02,2.280000000000000000e+02,1.210000000000000000e+02,2.400000000000000000e+02,2.500000000000000000e-01,1.731433300000000000e+09
5.800000000000000000e+01,2.300000000000000000e+02,4.880000000000000000e+02,1.010000000000000000e+02,1.360000000000000000e+02,2.310000000000000000e+02,1.300000000000000000e+02,2.510000000000000000e+02,2.500000000000000000e-01,1.750043300000000000e+09
5.600000000000000000e+01,1.730000000000000000e+02,4.070000000000000000e+02,9.700000000000000000e+01,1.680000000000000000e+02,2.090000000000000000e+02,1.280000000000000000e+02,2.530000000000000000e+02,2.500000000000000000e-01,1.768652600000000000e+09
5.000000000000000000e+01,1.530000000000000000e+02,3.730000000000000000e+02,1.230000000000000000e+02,2.100000000000000000e+02,2.040000000000000000e+02,1.210000000000000000e+02,2.370000000000000000e+02,2.399999999999999911e-01,1.785814900000000000e+09
4.500000000000000000e+01,1.290000000000000000e+02,3.700000000000000000e+02,1.250000000000000000e+02,2.160000000000000000e+02,1.920000000000000000e+02,1.090000000000000000e+02,1.530000000000000000e+02,2.399999999999999911e-01,1.802817900000000000e+09
4.500000000000000000e+01,1.220000000000000000e+02,4.400000000000000000e+02,1.260000000000000000e+02,2.100000000000000000e+02,1.850000000000000000e+02,1.090000000000000000e+02,1.380000000000000000e+02,2.399999999999999911e-01,1.820958700000000000e+09
4.200000000000000000e+01,1.030000000000000000e+02,4.420000000000000000e+02,1.270000000000000000e+02,2.090000000000000000e+02,1.790000000000000000e+02,9.100000000000000000e+01,1.140000000000000000e+02,2.399999999999999911e-01,1.841010600000000000e+09
4.000000000000000000e+01,1.080000000000000000e+02,4.400000000000000000e+02,1.300000000000000000e+02,2.280000000000000000e+02,1.720000000000000000e+02,7.900000000000000000e+01,9.400000000000000000e+01,2.399999999999999911e-01,1.860640100000000000e+09
3.900000000000000000e+01,1.140000000000000000e+02,4.570000000000000000e+02,1.310000000000000000e+02,2.430000000000000000e+02,1.740000000000000000e+02,8.000000000000000000e+01,9.300000000000000000e+01,2.399999999999999911e-01,1.880990800000000000e+09
4.200000000000000000e+01,1.230000000000000000e+02,4.870000000000000000e+02,1.300000000000000000e+02,2.290000000000000000e+02,1.610000000000000000e+02,8.200000000000000000e+01,1.020000000000000000e+02,2.399999999999999911e-01,1.902076500000000000e+09
3.700000000000000000e+01,1.160000000000000000e+02,4.030000000000000000e+02,1.470000000000000000e+02,2.450000000000000000e+02,1.550000000000000000e+02,6.900000000000000000e+01,1.040000000000000000e+02,2.399999999999999911e-01,1.923243800000000000e+09
3.600000000000000000e+01,1.130000000000000000e+02,3.990000000000000000e+02,1.530000000000000000e+02,2.480000000000000000e+02,1.480000000000000000e+02,7.200000000000000000e+01,9.900000000000000000e+01,2.399999999999999911e-01,1.945068000000000000e+09
3.800000000000000000e+01,1.070000000000000000e+02,4.060000000000000000e+02,1.550000000000000000e+02,2.200000000000000000e+02,1.450000000000000000e+02,7.700000000000000000e+01,1.140000000000000000e+02,2.500000000000000000e-01,1.969105200000000000e+09
3.700000000000000000e+01,9.400000000000000000e+01,4.160000000000000000e+02,1.410000000000000000e+02,2.140000000000000000e+02,1.380000000000000000e+02,8.200000000000000000e+01,1.060000000000000000e+02,2.500000000000000000e-01,1.992959300000000000e+09
2.900000000000000000e+01,7.800000000000000000e+01,4.110000000000000000e+02,1.290000000000000000e+02,2.080000000000000000e+02,1.030000000000000000e+02,7.700000000000000000e+01,9.900000000000000000e+01,2.500000000000000000e-01,2.015333000000000000e+09
3.000000000000000000e+01,8.300000000000000000e+01,4.570000000000000000e+02,1.170000000000000000e+02,1.960000000000000000e+02,1.070000000000000000e+02,8.000000000000000000e+01,1.000000000000000000e+02,2.600000000000000089e-01,2.036676000000000000e+09
3.800000000000000000e+01,9.400000000000000000e+01,4.840000000000000000e+02,1.220000000000000000e+02,2.170000000000000000e+02,1.260000000000000000e+02,8.000000000000000000e+01,1.390000000000000000e+02,2.600000000000000089e-01,2.061437600000000000e+09
3.500000000000000000e+01,9.000000000000000000e+01,4.640000000000000000e+02,1.280000000000000000e+02,2.290000000000000000e+02,1.270000000000000000e+02,7.300000000000000000e+01,1.200000000000000000e+02,2.600000000000000089e-01,2.080513100000000000e+09
4.000000000000000000e+01,9.700000000000000000e+01,4.590000000000000000e+02,1.290000000000000000e+02,1.770000000000000000e+02,1.110000000000000000e+02,6.800000000000000000e+01,1.210000000000000000e+02,2.600000000000000089e-01,2.101771300000000000e+09
4.000000000000000000e+01,1.020000000000000000e+02,4.580000000000000000e+02,1.310000000000000000e+02,1.870000000000000000e+02,1.180000000000000000e+02,5.800000000000000000e+01,1.180000000000000000e+02,2.700000000000000178e-01,2.123384400000000000e+09
4.200000000000000000e+01,9.700000000000000000e+01,4.540000000000000000e+02,1.280000000000000000e+02,1.850000000000000000e+02,1.150000000000000000e+02,2.100000000000000000e+02,1.150000000000000000e+02,2.700000000000000178e-01,2.147031300000000000e+09
3.600000000000000000e+01,8.500000000000000000e+01,4.470000000000000000e+02,1.530000000000000000e+02,1.830000000000000000e+02,9.900000000000000000e+01,2.610000000000000000e+02,5.400000000000000000e+01,2.800000000000000266e-01,2.166467200000000000e+09
4.500000000000000000e+01,1.050000000000000000e+02,4.810000000000000000e+02,1.710000000000000000e+02,1.940000000000000000e+02,1.180000000000000000e+02,2.670000000000000000e+02,5.400000000000000000e+01,2.899999999999999800e-01,2.185373200000000000e+09
4.100000000000000000e+01,1.010000000000000000e+02,4.680000000000000000e+02,1.670000000000000000e+02,2.080000000000000000e+02,1.160000000000000000e+02,2.680000000000000000e+02,4.600000000000000000e+01,2.899999999999999800e-01,2.203838200000000000e+09
4.100000000000000000e+01,1.070000000000000000e+02,4.770000000000000000e+02,1.690000000000000000e+02,2.010000000000000000e+02,1.100000000000000000e+02,2.700000000000000000e+02,4.300000000000000000e+01,2.999999999999999889e-01,2.225554600000000000e+09
4.200000000000000000e+01,1.250000000000000000e+02,4.900000000000000000e+02,1.710000000000000000e+02,1.980000000000000000e+02,1.130000000000000000e+02,1.860000000000000000e+02,4.400000000000000000e+01,2.999999999999999889e-01,2.248455000000000000e+09
4.000000000000000000e+01,1.280000000000000000e+02,5.620000000000000000e+02,1.400000000000000000e+02,1.760000000000000000e+02,1.140000000000000000e+02,1.110000000000000000e+02,3.900000000000000000e+01,3.099999999999999978e-01,2.267045500000000000e+09
3.200000000000000000e+01,1.260000000000000000e+02,5.940000000000000000e+02,1.250000000000000000e+02,1.360000000000000000e+02,8.500000000000000000e+01,1.060000000000000000e+02,3.300000000000000000e+01,3.200000000000000067e-01,2.285137700000000000e+09
3.800000000000000000e+01,1.560000000000000000e+02,6.160000000000000000e+02,1.590000000000000000e+02,1.140000000000000000e+02,8.000000000000000000e+01,1.050000000000000000e+02,3.100000000000000000e+01,3.300000000000000155e-01,2.304683900000000000e+09
4.100000000000000000e+01,1.510000000000000000e+02,6.420000000000000000e+02,1.650000000000000000e+02,1.540000000000000000e+02,7.800000000000000000e+01,1.060000000000000000e+02,3.200000000000000000e+01,3.400000000000000244e-01,2.325869200000000000e+09
3.900000000000000000e+01,1.390000000000000000e+02,6.540000000000000000e+02,1.700000000000000000e+02,1.720000000000000000e+02,8.400000000000000000e+01,9.500000000000000000e+01,2.800000000000000000e+01,3.400000000000000244e-01,2.348006800000000000e+09
4.100000000000000000e+01,1.550000000000000000e+02,6.520000000000000000e+02,1.790000000000000000e+02,1.750000000000000000e+02,1.000000000000000000e+02,9.100000000000000000e+01,2.900000000000000000e+01,3.400000000000000244e-01,2.367063500000000000e+09
4.400000000000000000e+01,1.570000000000000000e+02,6.450000000000000000e+02,1.780000000000000000e+02,1.690000000000000000e+02,1.030000000000000000e+02,8.300000000000000000e+01,2.900000000000000000e+01,3.400000000000000244e-01,2.387743900000000000e+09
4.300000000000000000e+01,1.420000000000000000e+02,6.570000000000000000e+02,1.490000000000000000e+02,1.680000000000000000e+02,1.050000000000000000e+02,9.000000000000000000e+01,2.900000000000000000e+01,3.400000000000000244e-01,2.408504100000000000e+09
4.100000000000000000e+01,1.430000000000000000e+02,6.660000000000000000e+02,1.410000000000000000e+02,1.370000000000000000e+02,1.140000000000000000e+02,9.600000000000000000e+01,2.700000000000000000e+01,3.400000000000000244e-01,2.429104700000000000e+09
4.200000000000000000e+01,1.520000000000000000e+02,6.850000000000000000e+02,1.460000000000000000e+02,1.110000000000000000e+02,1.150000000000000000e+02,9.700000000000000000e+01,2.500000000000000000e+01,3.400000000000000244e-01,2.450710300000000000e+09
4.800000000000000000e+01,1.630000000000000000e+02,6.440000000000000000e+02,1.480000000000000000e+02,1.440000000000000000e+02,9.400000000000000000e+01,9.400000000000000000e+01,3.600000000000000000e+01,3.400000000000000244e-01,2.469999800000000000e+09
4.500000000000000000e+01,1.810000000000000000e+02,6.540000000000000000e+02,1.450000000000000000e+02,1.500000000000000000e+02,1.220000000000000000e+02,1.050000000000000000e+02,3.800000000000000000e+01,3.400000000000000244e-01,2.489853500000000000e+09
4.400000000000000000e+01,1.930000000000000000e+02,6.420000000000000000e+02,1.770000000000000000e+02,1.510000000000000000e+02,1.280000000000000000e+02,1.040000000000000000e+02,3.900000000000000000e+01,3.400000000000000244e-01,2.508910500000000000e+09
4.800000000000000000e+01,2.000000000000000000e+02,6.270000000000000000e+02,1.870000000000000000e+02,1.500000000000000000e+02,1.240000000000000000e+02,1.070000000000000000e+02,4.200000000000000000e+01,3.300000000000000155e-01,2.529417500000000000e+09
4.900000000000000000e+01,1.920000000000000000e+02,6.820000000000000000e+02,1.930000000000000000e+02,1.470000000000000000e+02,1.190000000000000000e+02,1.120000000000000000e+02,4.300000000000000000e+01,3.300000000000000155e-01,2.550052400000000000e+09
4.400000000000000000e+01,1.740000000000000000e+02,6.930000000000000000e+02,1.930000000000000000e+02,1.400000000000000000e+02,1.390000000000000000e+02,1.220000000000000000e+02,4.700000000000000000e+01,3.300000000000000155e-01,2.568842800000000000e+09
4.800000000000000000e+01,1.530000000000000000e+02,7.000000000000000000e+02,2.030000000000000000e+02,1.400000000000000000e+02,1.250000000000000000e+02,1.350000000000000000e+02,4.600000000000000000e+01,3.300000000000000155e-01,2.588880600000000000e+09
4.700000000000000000e+01,1.230000000000000000e+02,6.910000000000000000e+02,1.700000000000000000e+02,1.370000000000000000e+02,1.250000000000000000e+02,1.320000000000000000e+02,4.500000000000000000e+01,3.300000000000000155e-01,2.607773900000000000e+09
4.400000000000000000e+01,1.250000000000000000e+02,7.220000000000000000e+02,1.890000000000000000e+02,1.310000000000000000e+02,1.250000000000000000e+02,1.260000000000000000e+02,4.400000000000000000e+01,3.400000000000000244e-01,2.627463600000000000e+09
4.300000000000000000e+01,1.350000000000000000e+02,6.390000000000000000e+02,1.920000000000000000e+02,1.260000000000000000e+02,1.240000000000000000e+02,1.250000000000000000e+02,4.400000000000000000e+01,3.400000000000000244e-01,2.649543400000000000e+09
4.800000000000000000e+01,1.360000000000000000e+02,6.900000000000000000e+02,1.880000000000000000e+02,8.600000000000000000e+01,1.120000000000000000e+02,1.230000000000000000e+02,4.500000000000000000e+01,3.400000000000000244e-01,2.669134300000000000e+09
5.000000000000000000e+01,1.650000000000000000e+02,6.800000000000000000e+02,1.900000000000000000e+02,8.800000000000000000e+01,1.370000000000000000e+02,1.160000000000000000e+02,5.000000000000000000e+01,3.400000000000000244e-01,2.687998300000000000e+09
4.900000000000000000e+01,1.760000000000000000e+02,6.910000000000000000e+02,1.920000000000000000e+02,1.060000000000000000e+02,1.450000000000000000e+02,1.190000000000000000e+02,6.000000000000000000e+01,3.400000000000000244e-01,2.707847000000000000e+09
5.300000000000000000e+01,2.010000000000000000e+02,6.710000000000000000e+02,1.750000000000000000e+02,1.070000000000000000e+02,1.510000000000000000e+02,1.220000000000000000e+02,6.200000000000000000e+01,3.400000000000000244e-01,2.728578300000000000e+09
5.500000000000000000e+01,1.910000000000000000e+02,6.640000000000000000e+02,1.620000000000000000e+02,1.100000000000000000e+02,1.520000000000000000e+02,1.150000000000000000e+02,6.900000000000000000e+01,3.400000000000000244e-01,2.748224500000000000e+09
5.000000000000000000e+01,1.890000000000000000e+02,6.370000000000000000e+02,1.700000000000000000e+02,1.020000000000000000e+02,1.590000000000000000e+02,1.100000000000000000e+02,6.100000000000000000e+01,3.499999999999999778e-01,2.768583600000000000e+09
4.700000000000000000e+01,1.630000000000000000e+02,6.510000000000000000e+02,1.410000000000000000e+02,9.100000000000000000e+01,1.280000000000000000e+02,9.300000000000000000e+01,7.300000000000000000e+01,3.499999999999999778e-01,2.789216400000000000e+09
5.000000000000000000e+01,1.560000000000000000e+02,6.490000000000000000e+02,1.560000000000000000e+02,9.100000000000000000e+01,1.260000000000000000e+02,9.100000000000000000e+01,6.900000000000000000e+01,3.499999999999999778e-01,2.809217500000000000e+09
5.200000000000000000e+01,1.300000000000000000e+02,6.340000000000000000e+02,1.470000000000000000e+02,9.200000000000000000e+01,1.230000000000000000e+02,9.600000000000000000e+01,7.400000000000000000e+01,3.599999999999999867e-01,2.828645400000000000e+09
4.700000000000000000e+01,1.370000000000000000e+02,6.300000000000000000e+02,1.460000000000000000e+02,9.800000000000000000e+01,1.230000000000000000e+02,1.020000000000000000e+02,6.900000000000000000e+01,3.699999999999999956e-01,2.850248700000000000e+09
4.900000000000000000e+01,1.360000000000000000e+02,5.840000000000000000e+02,1.340000000000000000e+02,1.070000000000000000e+02,1.060000000000000000e+02,9.700000000000000000e+01,7.300000000000000000e+01,3.699999999999999956e-01,2.870269400000000000e+09
4.900000000000000000e+01,1.400000000000000000e+02,5.860000000000000000e+02,1.490000000000000000e+02,1.040000000000000000e+02,1.080000000000000000e+02,9.600000000000000000e+01,7.100000000000000000e+01,3.800000000000000044e-01,2.890514500000000000e+09
4.300000000000000000e+01,1.390000000000000000e+02,6.120000000000000000e+02,1.510000000000000000e+02,8.900000000000000000e+01,1.370000000000000000e+02,9.600000000000000000e+01,7.100000000000000000e+01,3.800000000000000044e-01,2.911384400000000000e+09
3.700000000000000000e+01,1.280000000000000000e+02,5.960000000000000000e+02,1.510000000000000000e+02,8.600000000000000000e+01,1.380000000000000000e+02,8.700000000000000000e+01,6.500000000000000000e+01,3.900000000000000133e-01,2.931577600000000000e+09
4.000000000000000000e+01,1.280000000000000000e+02,6.760000000000000000e+02,1.490000000000000000e+02,1.180000000000000000e+02,1.430000000000000000e+02,8.800000000000000000e+01,6.800000000000000000e+01,3.900000000000000133e-01,2.953346200000000000e+09
4.400000000000000000e+01,1.490000000000000000e+02,6.790000000000000000e+02,1.520000000000000000e+02,1.170000000000000000e+02,1.450000000000000000e+02,9.100000000000000000e+01,6.400000000000000000e+01,4.000000000000000222e-01,2.971511300000000000e+09
4.800000000000000000e+01,1.530000000000000000e+02,6.510000000000000000e+02,1.460000000000000000e+02,1.170000000000000000e+02,1.680000000000000000e+02,1.020000000000000000e+02,5.700000000000000000e+01,4.000000000000000222e-01,2.992077600000000000e+09
4.800000000000000000e+01,1.490000000000000000e+02,6.510000000000000000e+02,1.280000000000000000e+02,1.200000000000000000e+02,1.440000000000000000e+02,1.010000000000000000e+02,7.100000000000000000e+01,3.900000000000000133e-01,3.011901900000000000e+09
4.800000000000000000e+01,1.500000000000000000e+02,6.510000000000000000e+02,1.320000000000000000e+02,1.240000000000000000e+02,1.370000000000000000e+02,9.800000000000000000e+01,7.600000000000000000e+01,3.900000000000000133e-01,3.033478000000000000e+09
5.700000000000000000e+01,1.890000000000000000e+02,6.200000000000000000e+02,1.480000000000000000e+02,1.070000000000000000e+02,1.300000000000000000e+02,9.600000000000000000e+01,7.200000000000000000e+01,4.000000000000000222e-01,3.052052300000000000e+09
5.700000000000000000e+01,1.760000000000000000e+02,6.370000000000000000e+02,1.620000000000000000e+02,1.070000000000000000e+02,1.420000000000000000e+02,1.020000000000000000e+02,7.900000000000000000e+01,3.900000000000000133e-01,3.070341300000000000e+09
5.700000000000000000e+01,1.790000000000000000e+02,6.710000000000000000e+02,1.690000000000000000e+02,1.120000000000000000e+02,1.310000000000000000e+02,8.500000000000000000e+01,8.200000000000000000e+01,3.900000000000000133e-01,3.089157400000000000e+09
6.200000000000000000e+01,1.900000000000000000e+02,6.430000000000000000e+02,1.860000000000000000e+02,1.230000000000000000e+02,1.260000000000000000e+02,9.200000000000000000e+01,9.400000000000000000e+01,3.900000000000000133e-01,3.106624800000000000e+09
6.200000000000000000e+01,1.880000000000000000e+02,6.710000000000000000e+02,1.880000000000000000e+02,1.250000000000000000e+02,1.310000000000000000e+02,9.000000000000000000e+01,9.500000000000000000e+01,3.800000000000000044e-01,3.123932300000000000e+09
5.800000000000000000e+01,1.680000000000000000e+02,7.060000000000000000e+02,1.820000000000000000e+02,1.140000000000000000e+02,1.360000000000000000e+02,8.900000000000000000e+01,1.070000000000000000e+02,3.699999999999999956e-01,3.145959800000000000e+09
5.600000000000000000e+01,1.790000000000000000e+02,7.140000000000000000e+02,1.810000000000000000e+02,1.110000000000000000e+02,1.260000000000000000e+02,2.100000000000000000e+02,1.040000000000000000e+02,3.699999999999999956e-01,3.164120100000000000e+09
5.500000000000000000e+01,1.990000000000000000e+02,7.440000000000000000e+02,1.740000000000000000e+02,1.220000000000000000e+02,1.110000000000000000e+02,2.660000000000000000e+02,1.010000000000000000e+02,3.599999999999999867e-01,3.182267100000000000e+09
5.100000000000000000e+01,1.920000000000000000e+02,8.250000000000000000e+02,1.610000000000000000e+02,1.140000000000000000e+02,1.020000000000000000e+02,2.690000000000000000e+02,8.000000000000000000e+01,3.599999999999999867e-01,3.200393500000000000e+09
5.900000000000000000e+01,2.040000000000000000e+02,7.840000000000000000e+02,1.490000000000000000e+02,1.080000000000000000e+02,9.500000000000000000e+01,2.730000000000000000e+02,8.700000000000000000e+01,3.499999999999999778e-01,3.218192500000000000e+09
5.500000000000000000e+01,1.890000000000000000e+02,7.750000000000000000e+02,1.440000000000000000e+02,1.040000000000000000e+02,8.600000000000000000e+01,2.780000000000000000e+02,7.200000000000000000e+01,3.499999999999999778e-01,3.238885500000000000e+09
5.700000000000000000e+01,1.750000000000000000e+02,7.830000000000000000e+02,1.330000000000000000e+02,1.270000000000000000e+02,8.900000000000000000e+01,1.980000000000000000e+02,8.100000000000000000e+01,3.400000000000000244e-01,3.257265600000000000e+09
5.700000000000000000e+01,1.680000000000000000e+02,7.460000000000000000e+02,1.320000000000000000e+02,1.200000000000000000e+02,1.020000000000000000e+02,1.220000000000000000e+02,1.020000000000000000e+02,3.300000000000000155e-01,3.276445300000000000e+09
6.300000000000000000e+01,1.820000000000000000e+02,6.840000000000000000e+02,1.280000000000000000e+02,1.170000000000000000e+02,1.020000000000000000e+02,1.080000000000000000e+02,1.010000000000000000e+02,3.300000000000000155e-01,3.294168000000000000e+09
5.800000000000000000e+01,1.600000000000000000e+02,7.820000000000000000e+02,1.320000000000000000e+02,1.160000000000000000e+02,1.120000000000000000e+02,1.080000000000000000e+02,9.800000000000000000e+01,3.200000000000000067e-01,3.311915600000000000e+09
6.600000000000000000e+01,1.670000000000000000e+02,7.590000000000000000e+02,1.280000000000000000e+02,1.210000000000000000e+02,1.180000000000000000e+02,9.700000000000000000e+01,1.020000000000000000e+02,3.200000000000000067e-01,3.331936400000000000e+09
6.800000000000000000e+01,1.790000000000000000e+02,7.210000000000000000e+02,1.230000000000000000e+02,1.200000000000000000e+02,1.250000000000000000e+02,1.050000000000000000e+02,1.220000000000000000e+02,3.099999999999999978e-01,3.350788300000000000e+09
6.800000000000000000e+01,1.530000000000000000e+02,7.060000000000000000e+02,1.230000000000000000e+02,1.220000000000000000e+02,1.120000000000000000e+02,9.800000000000000000e+01,1.190000000000000000e+02,3.099999999999999978e-01,3.370586800000000000e+09
6.300000000000000000e+01,1.280000000000000000e+02,6.820000000000000000e+02,1.430000000000000000e+02,1.220000000000000000e+02,1.180000000000000000e+02,1.030000000000000000e+02,1.220000000000000000e+02,2.999999999999999889e-01,3.390116700000000000e+09
6.100000000000000000e+01,1.390000000000000000e+02,6.210000000000000000e+02,1.590000000000000000e+02,1.240000000000000000e+02,1.440000000000000000e+02,8.800000000000000000e+01,1.170000000000000000e+02,3.099999999999999978e-01,3.407591500000000000e+09
6.100000000000000000e+01,1.390000000000000000e+02,5.680000000000000000e+02,1.600000000000000000e+02,1.390000000000000000e+02,1.570000000000000000e+02,9.400000000000000000e+01,1.270000000000000000e+02,3.099999999999999978e-01,3.427806500000000000e+09
5.600000000000000000e+01,1.350000000000000000e+02,5.490000000000000000e+02,1.580000000000000000e+02,1.300000000000000000e+02,1.510000000000000000e+02,8.300000000000000000e+01,1.150000000000000000e+02,3.200000000000000067e-01,3.446775100000000000e+09
5.600000000000000000e+01,1.370000000000000000e+02,5.500000000000000000e+02,1.580000000000000000e+02,1.230000000000000000e+02,1.720000000000000000e+02,1.100000000000000000e+02,1.030000000000000000e+02,3.300000000000000155e-01,3.465083800000000000e+09
5.300000000000000000e+01,1.420000000000000000e+02,5.290000000000000000e+02,1.380000000000000000e+02,1.210000000000000000e+02,3.130000000000000000e+02,1.360000000000000000e+02,1.360000000000000000e+02,3.400000000000000244e-01,3.483172000000000000e+09
6.200000000000000000e+01,1.420000000000000000e+02,4.890000000000000000e+02,1.270000000000000000e+02,1.340000000000000000e+02,4.180000000000000000e+02,1.630000000000000000e+02,1.890000000000000000e+02,3.400000000000000244e-01,3.500541500000000000e+09
6.300000000000000000e+01,1.250000000000000000e+02,5.130000000000000000e+02,1.190000000000000000e+02,1.280000000000000000e+02,4.660000000000000000e+02,1.830000000000000000e+02,2.830000000000000000e+02,3.499999999999999778e-01,3.519861600000000000e+09
6.100000000000000000e+01,1.170000000000000000e+02,5.260000000000000000e+02,1.190000000000000000e+02,1.220000000000000000e+02,5.150000000000000000e+02,2.140000000000000000e+02,3.050000000000000000e+02,3.599999999999999867e-01,3.540557600000000000e+09
6.500000000000000000e+01,1.030000000000000000e+02,4.900000000000000000e+02,1.090000000000000000e+02,1.200000000000000000e+02,5.300000000000000000e+02,2.120000000000000000e+02,3.560000000000000000e+02,3.699999999999999956e-01,3.558435200000000000e+09
7.200000000000000000e+01,9.700000000000000000e+01,4.670000000000000000e+02,1.070000000000000000e+02,1.240000000000000000e+02,5.910000000000000000e+02,2.270000000000000000e+02,4.290000000000000000e+02,3.699999999999999956e-01,3.576152100000000000e+09
7.400000000000000000e+01,7.900000000000000000e+01,4.110000000000000000e+02,8.500000000000000000e+01,1.110000000000000000e+02,5.710000000000000000e+02,3.320000000000000000e+02,5.690000000000000000e+02,3.800000000000000044e-01,3.594662200000000000e+09
7.100000000000000000e+01,8.200000000000000000e+01,4.000000000000000000e+02,9.300000000000000000e+01,1.150000000000000000e+02,5.990000000000000000e+02,3.530000000000000000e+02,5.510000000000000000e+02,3.699999999999999956e-01,3.614377600000000000e+09
7.900000000000000000e+01,8.200000000000000000e+01,4.580000000000000000e+02,9.000000000000000000e+01,1.100000000000000000e+02,5.740000000000000000e+02,3.990000000000000000e+02,6.170000000000000000e+02,3.699999999999999956e-01,3.637743100000000000e+09
8.600000000000000000e+01,8.900000000000000000e+01,5.510000000000000000e+02,8.700000000000000000e+01,1.120000000000000000e+02,6.530000000000000000e+02,4.480000000000000000e+02,6.480000000000000000e+02,3.599999999999999867e-01,3.656982600000000000e+09
1.160000000000000000e+02,8.900000000000000000e+01,5.640000000000000000e+02,8.500000000000000000e+01,1.140000000000000000e+02,5.600000000000000000e+02,5.430000000000000000e+02,7.450000000000000000e+02,3.499999999999999778e-01,3.675016400000000000e+09
1.290000000000000000e+02,9.100000000000000000e+01,5.590000000000000000e+02,8.700000000000000000e+01,1.210000000000000000e+02,6.680000000000000000e+02,6.520000000000000000e+02,7.160000000000000000e+02,3.499999999999999778e-01,3.691762600000000000e+09
1.340000000000000000e+02,8.600000000000000000e+01,5.200000000000000000e+02,6.700000000000000000e+01,1.210000000000000000e+02,6.910000000000000000e+02,7.280000000000000000e+02,7.560000000000000000e+02,3.499999999999999778e-01,3.709458100000000000e+09
1.380000000000000000e+02,1.190000000000000000e+02,4.820000000000000000e+02,7.500000000000000000e+01,1.270000000000000000e+02,7.130000000000000000e+02,7.530000000000000000e+02,7.660000000000000000e+02,3.599999999999999867e-01,3.730617700000000000e+09
1.540000000000000000e+02,1.450000000000000000e+02,4.050000000000000000e+02,8.400000000000000000e+01,1.350000000000000000e+02,6.970000000000000000e+02,7.800000000000000000e+02,7.330000000000000000e+02,3.599999999999999867e-01,3.751740100000000000e+09
1.320000000000000000e+02,1.470000000000000000e+02,4.060000000000000000e+02,8.500000000000000000e+01,1.470000000000000000e+02,6.870000000000000000e+02,7.210000000000000000e+02,6.200000000000000000e+02,3.599999999999999867e-01,3.769732200000000000e+09
1.260000000000000000e+02,1.460000000000000000e+02,4.220000000000000000e+02,8.800000000000000000e+01,1.480000000000000000e+02,5.630000000000000000e+02,5.860000000000000000e+02,5.600000000000000000e+02,3.599999999999999867e-01,3.786691900000000000e+09
1.230000000000000000e+02,1.560000000000000000e+02,4.190000000000000000e+02,9.800000000000000000e+01,1.360000000000000000e+02,4.720000000000000000e+02,4.920000000000000000e+02,5.070000000000000000e+02,3.599999999999999867e-01,4.010389900000000000e+09
1.210000000000000000e+02,1.490000000000000000e+02,4.070000000000000000e+02,1.060000000000000000e+02,1.620000000000000000e+02,4.340000000000000000e+02,4.110000000000000000e+02,4.050000000000000000e+02,3.599999999999999867e-01,4.028890600000000000e+09
9.200000000000000000e+01,1.320000000000000000e+02,3.930000000000000000e+02,1.010000000000000000e+02,1.530000000000000000e+02,3.020000000000000000e+02,2.940000000000000000e+02,3.830000000000000000e+02,3.599999999999999867e-01,4.048629100000000000e+09
9.000000000000000000e+01,1.280000000000000000e+02,4.060000000000000000e+02,1.080000000000000000e+02,1.380000000000000000e+02,3.050000000000000000e+02,2.790000000000000000e+02,3.510000000000000000e+02,3.599999999999999867e-01,4.065587200000000000e+09
7.300000000000000000e+01,1.280000000000000000e+02,4.070000000000000000e+02,1.020000000000000000e+02,1.310000000000000000e+02,2.330000000000000000e+02,2.640000000000000000e+02,2.940000000000000000e+02,3.599999999999999867e-01,4.082780400000000000e+09
8.100000000000000000e+01,1.150000000000000000e+02,4.230000000000000000e+02,9.300000000000000000e+01,1.320000000000000000e+02,2.210000000000000000e+02,2.390000000000000000e+02,3.510000000000000000e+02,3.499999999999999778e-01,4.099753700000000000e+09
7.200000000000000000e+01,8.800000000000000000e+01,3.920000000000000000e+02,7.200000000000000000e+01,8.900000000000000000e+01,1.990000000000000000e+02,2.560000000000000000e+02,3.390000000000000000e+02,3.499999999999999778e-01,4.115986100000000000e+09
7.000000000000000000e+01,7.000000000000000000e+01,3.280000000000000000e+02,6.300000000000000000e+01,8.400000000000000000e+01,1.940000000000000000e+02,2.580000000000000000e+02,3.430000000000000000e+02,3.400000000000000244e-01,4.138211100000000000e+09
6.900000000000000000e+01,6.800000000000000000e+01,2.690000000000000000e+02,6.900000000000000000e+01,8.700000000000000000e+01,1.750000000000000000e+02,2.530000000000000000e+02,3.110000000000000000e+02,3.300000000000000155e-01,4.155676000000000000e+09
6.900000000000000000e+01,8.200000000000000000e+01,3.100000000000000000e+02,6.900000000000000000e+01,8.900000000000000000e+01,1.770000000000000000e+02,2.300000000000000000e+02,3.040000000000000000e+02,3.200000000000000067e-01,4.172970300000000000e+09
5.400000000000000000e+01,8.500000000000000000e+01,2.970000000000000000e+02,7.100000000000000000e+01,9.100000000000000000e+01,1.540000000000000000e+02,2.170000000000000000e+02,1.870000000000000000e+02,3.200000000000000067e-01,4.189431000000000000e+09
5.800000000000000000e+01,8.500000000000000000e+01,3.030000000000000000e+02,6.900000000000000000e+01,9.100000000000000000e+01,1.390000000000000000e+02,1.960000000000000000e+02,1.950000000000000000e+02,3.200000000000000067e-01,4.206028900000000000e+09
6.300000000000000000e+01,8.600000000000000000e+01,3.330000000000000000e+02,7.100000000000000000e+01,9.800000000000000000e+01,1.490000000000000000e+02,2.090000000000000000e+02,1.790000000000000000e+02,3.200000000000000067e-01,4.224377500000000000e+09
6.200000000000000000e+01,8.400000000000000000e+01,3.690000000000000000e+02,6.100000000000000000e+01,9.600000000000000000e+01,1.380000000000000000e+02,1.870000000000000000e+02,1.720000000000000000e+02,3.200000000000000067e-01,4.243755100000000000e+09
5.900000000000000000e+01,8.100000000000000000e+01,3.350000000000000000e+02,6.800000000000000000e+01,1.180000000000000000e+02,1.270000000000000000e+02,1.880000000000000000e+02,1.630000000000000000e+02,3.200000000000000067e-01,4.260938800000000000e+09
5.500000000000000000e+01,9.300000000000000000e+01,3.310000000000000000e+02,7.500000000000000000e+01,1.190000000000000000e+02,1.100000000000000000e+02,1.990000000000000000e+02,1.430000000000000000e+02,3.300000000000000155e-01,4.278365900000000000e+09
4.900000000000000000e+01,1.010000000000000000e+02,3.360000000000000000e+02,7.900000000000000000e+01,1.200000000000000000e+02,9.700000000000000000e+01,1.730000000000000000e+02,1.070000000000000000e+02,3.300000000000000155e-01,4.295791200000000000e+09
4.000000000000000000e+01,1.000000000000000000e+02,3.040000000000000000e+02,8.400000000000000000e+01,1.160000000000000000e+02,6.900000000000000000e+01,1.380000000000000000e+02,9.000000000000000000e+01,3.400000000000000244e-01,4.313700600000000000e+09
3.800000000000000000e+01,1.080000000000000000e+02,2.870000000000000000e+02,8.100000000000000000e+01,1.150000000000000000e+02,5.500000000000000000e+01,1.650000000000000000e+02,1.250000000000000000e+02,3.400000000000000244e-01,4.332426500000000000e+09
3.700000000000000000e+01,1.070000000000000000e+02,3.030000000000000000e+02,7.700000000000000000e+01,8.900000000000000000e+01,5.300000000000000000e+01,1.620000000000000000e+02,1.300000000000000000e+02,3.499999999999999778e-01,4.352935200000000000e+09
3.300000000000000000e+01,9.500000000000000000e+01,2.900000000000000000e+02,6.600000000000000000e+01,1.040000000000000000e+02,4.900000000000000000e+01,1.340000000000000000e+02,1.250000000000000000e+02,3.499999999999999778e-01,4.370294900000000000e+09
3.500000000000000000e+01,8.400000000000000000e+01,2.890000000000000000e+02,6.500000000000000000e+01,1.130000000000000000e+02,5.200000000000000000e+01,2.240000000000000000e+02,1.250000000000000000e+02,3.499999999999999778e-01,4.387448800000000000e+09
3.700000000000000000e+01,8.600000000000000000e+01,2.820000000000000000e+02,5.900000000000000000e+01,1.140000000000000000e+02,5.400000000000000000e+01,2.500000000000000000e+02,1.280000000000000000e+02,3.499999999999999778e-01,4.404953000000000000e+09
3.700000000000000000e+01,9.200000000000000000e+01,2.520000000000000000e+02,6.100000000000000000e+01,1.340000000000000000e+02,5.800000000000000000e+01,2.630000000000000000e+02,1.120000000000000000e+02,3.599999999999999867e-01,4.421868700000000000e+09
3.900000000000000000e+01,8.400000000000000000e+01,2.020000000000000000e+02,6.300000000000000000e+01,1.320000000000000000e+02,5.700000000000000000e+01,2.620000000000000000e+02,1.070000000000000000e+02,3.599999999999999867e-01,4.443375300000000000e+09
4.100000000000000000e+01,8.900000000000000000e+01,2.230000000000000000e+02,6.300000000000000000e+01,1.070000000000000000e+02,5.200000000000000000e+01,2.620000000000000000e+02,1.120000000000000000e+02,3.599999999999999867e-01,4.462347900000000000e+09
3.900000000000000000e+01,9.000000000000000000e+01,2.130000000000000000e+02,6.300000000000000000e+01,9.500000000000000000e+01,4.400000000000000000e+01,1.920000000000000000e+02,1.100000000000000000e+02,3.699999999999999956e-01,4.479766300000000000e+09
4.000000000000000000e+01,8.900000000000000000e+01,2.250000000000000000e+02,6.800000000000000000e+01,1.190000000000000000e+02,4.500000000000000000e+01,1.600000000000000000e+02,1.160000000000000000e+02,3.699999999999999956e-01,4.496765900000000000e+09
3.800000000000000000e+01,7.500000000000000000e+01,2.600000000000000000e+02,7.900000000000000000e+01,1.230000000000000000e+02,4.500000000000000000e+01,1.070000000000000000e+02,9.600000000000000000e+01,3.699999999999999956e-01,4.515317600000000000e+09
3.800000000000000000e+01,7.800000000000000000e+01,2.510000000000000000e+02,7.800000000000000000e+01,1.260000000000000000e+02,4.600000000000000000e+01,1.240000000000000000e+02,9.300000000000000000e+01,3.699999999999999956e-01,4.535048300000000000e+09
3.700000000000000000e+01,7.100000000000000000e+01,2.280000000000000000e+02,9.000000000000000000e+01,1.320000000000000000e+02,4.700000000000000000e+01,1.140000000000000000e+02,8.900000000000000000e+01,3.699999999999999956e-01,4.554580100000000000e+09
3.800000000000000000e+01,6.700000000000000000e+01,2.190000000000000000e+02,8.700000000000000000e+01,1.330000000000000000e+02,5.100000000000000000e+01,1.110000000000000000e+02,8.300000000000000000e+01,3.699999999999999956e-01,4.573445200000000000e+09
3.600000000000000000e+01,9.000000000000000000e+01,2.260000000000000000e+02,1.050000000000000000e+02,1.140000000000000000e+02,4.900000000000000000e+01,1.330000000000000000e+02,7.800000000000000000e+01,3.800000000000000044e-01,4.592852400000000000e+09
3.600000000000000000e+01,9.100000000000000000e+01,2.490000000000000000e+02,9.900000000000000000e+01,9.200000000000000000e+01,4.700000000000000000e+01,1.300000000000000000e+02,7.800000000000000000e+01,3.900000000000000133e-01,4.611400500000000000e+09
4.100000000000000000e+01,9.700000000000000000e+01,2.740000000000000000e+02,1.000000000000000000e+02,9.900000000000000000e+01,5.100000000000000000e+01,1.110000000000000000e+02,8.100000000000000000e+01,3.900000000000000133e-01,4.629478200000000000e+09
4.200000000000000000e+01,9.700000000000000000e+01,2.850000000000000000e+02,1.030000000000000000e+02,9.600000000000000000e+01,5.100000000000000000e+01,1.140000000000000000e+02,7.500000000000000000e+01,4.000000000000000222e-01,4.649178000000000000e+09
4.300000000000000000e+01,1.010000000000000000e+02,2.970000000000000000e+02,1.090000000000000000e+02,9.600000000000000000e+01,4.800000000000000000e+01,1.160000000000000000e+02,7.500000000000000000e+01,4.099999999999999756e-01,4.667033900000000000e+09
4.100000000000000000e+01,8.100000000000000000e+01,2.870000000000000000e+02,8.700000000000000000e+01,1.140000000000000000e+02,4.600000000000000000e+01,8.400000000000000000e+01,6.900000000000000000e+01,4.099999999999999756e-01,4.684017300000000000e+09
4.400000000000000000e+01,9.300000000000000000e+01,2.480000000000000000e+02,8.200000000000000000e+01,1.150000000000000000e+02,5.000000000000000000e+01,7.900000000000000000e+01,7.300000000000000000e+01,4.099999999999999756e-01,4.701354900000000000e+09
3.800000000000000000e+01,8.600000000000000000e+01,2.250000000000000000e+02,7.800000000000000000e+01,1.010000000000000000e+02,4.300000000000000000e+01,8.000000000000000000e+01,7.800000000000000000e+01,4.199999999999999845e-01,4.719152900000000000e+09
3.600000000000000000e+01,1.000000000000000000e+02,2.160000000000000000e+02,6.500000000000000000e+01,1.040000000000000000e+02,4.500000000000000000e+01,6.400000000000000000e+01,7.700000000000000000e+01,4.199999999999999845e-01,4.740031900000000000e+09
3.400000000000000000e+01,9.500000000000000000e+01,1.840000000000000000e+02,6.400000000000000000e+01,1.140000000000000000e+02,4.500000000000000000e+01,6.200000000000000000e+01,8.100000000000000000e+01,4.199999999999999845e-01,4.758838900000000000e+09
3.200000000000000000e+01,9.200000000000000000e+01,2.360000000000000000e+02,8.000000000000000000e+01,1.010000000000000000e+02,4.900000000000000000e+01,6.200000000000000000e+01,7.800000000000000000e+01,4.299999999999999933e-01,4.775833200000000000e+09
3.200000000000000000e+01,8.100000000000000000e+01,2.220000000000000000e+02,7.700000000000000000e+01,8.500000000000000000e+01,4.300000000000000000e+01,7.800000000000000000e+01,7.800000000000000000e+01,4.299999999999999933e-01,4.792758300000000000e+09
3.100000000000000000e+01,7.800000000000000000e+01,2.360000000000000000e+02,9.200000000000000000e+01,1.210000000000000000e+02,4.500000000000000000e+01,7.200000000000000000e+01,6.200000000000000000e+01,4.299999999999999933e-01,4.810445500000000000e+09
2.900000000000000000e+01,5.700000000000000000e+01,2.410000000000000000e+02,8.800000000000000000e+01,1.210000000000000000e+02,4.400000000000000000e+01,8.500000000000000000e+01,6.300000000000000000e+01,4.299999999999999933e-01,4.829659700000000000e+09
2.900000000000000000e+01,6.000000000000000000e+01,2.690000000000000000e+02,8.400000000000000000e+01,1.150000000000000000e+02,4.500000000000000000e+01,8.300000000000000000e+01,5.700000000000000000e+01,4.299999999999999933e-01,4.848879200000000000e+09
3.200000000000000000e+01,6.300000000000000000e+01,2.250000000000000000e+02,7.000000000000000000e+01,1.140000000000000000e+02,4.200000000000000000e+01,7.900000000000000000e+01,6.900000000000000000e+01,4.299999999999999933e-01,4.867419400000000000e+09
2.700000000000000000e+01,5.600000000000000000e+01,2.360000000000000000e+02,7.600000000000000000e+01,1.160000000000000000e+02,4.100000000000000000e+01,7.600000000000000000e+01,6.200000000000000000e+01,4.299999999999999933e-01,4.885346800000000000e+09
2.800000000000000000e+01,4.900000000000000000e+01,2.210000000000000000e+02,6.000000000000000000e+01,8.500000000000000000e+01,4.200000000000000000e+01,8.600000000000000000e+01,7.000000000000000000e+01,4.299999999999999933e-01,4.902582800000000000e+09
3.000000000000000000e+01,5.400000000000000000e+01,2.370000000000000000e+02,7.300000000000000000e+01,8.300000000000000000e+01,4.400000000000000000e+01,8.200000000000000000e+01,6.900000000000000000e+01,4.299999999999999933e-01,4.920934900000000000e+09
3.100000000000000000e+01,5.600000000000000000e+01,2.320000000000000000e+02,7.200000000000000000e+01,8.100000000000000000e+01,4.200000000000000000e+01,8.200000000000000000e+01,6.900000000000000000e+01,4.299999999999999933e-01,4.941866400000000000e+09
2.900000000000000000e+01,5.300000000000000000e+01,2.530000000000000000e+02,7.400000000000000000e+01,8.200000000000000000e+01,4.400000000000000000e+01,8.300000000000000000e+01,7.100000000000000000e+01,4.299999999999999933e-01,4.959989300000000000e+09
3.000000000000000000e+01,5.700000000000000000e+01,2.750000000000000000e+02,7.200000000000000000e+01,8.300000000000000000e+01,4.400000000000000000e+01,7.300000000000000000e+01,7.100000000000000000e+01,4.299999999999999933e-01,4.977454500000000000e+09
3.000000000000000000e+01,6.300000000000000000e+01,2.910000000000000000e+02,7.300000000000000000e+01,7.700000000000000000e+01,4.400000000000000000e+01,6.200000000000000000e+01,7.100000000000000000e+01,4.299999999999999933e-01,4.994732700000000000e+09
3.000000000000000000e+01,6.300000000000000000e+01,2.770000000000000000e+02,7.600000000000000000e+01,7.300000000000000000e+01,3.900000000000000000e+01,5.600000000000000000e+01,7.100000000000000000e+01,4.299999999999999933e-01,5.013882100000000000e+09
3.000000000000000000e+01,6.400000000000000000e+01,2.510000000000000000e+02,8.500000000000000000e+01,8.400000000000000000e+01,4.600000000000000000e+01,6.000000000000000000e+01,7.000000000000000000e+01,4.299999999999999933e-01,5.034497900000000000e+09
3.000000000000000000e+01,7.100000000000000000e+01,2.510000000000000000e+02,1.060000000000000000e+02,1.050000000000000000e+02,5.300000000000000000e+01,6.100000000000000000e+01,5.200000000000000000e+01,4.299999999999999933e-01,5.054382600000000000e+09
3.200000000000000000e+01,8.000000000000000000e+01,2.420000000000000000e+02,1.310000000000000000e+02,1.240000000000000000e+02,5.300000000000000000e+01,5.900000000000000000e+01,4.700000000000000000e+01,4.400000000000000022e-01,5.071584500000000000e+09
3.100000000000000000e+01,9.100000000000000000e+01,2.360000000000000000e+02,1.420000000000000000e+02,1.390000000000000000e+02,5.300000000000000000e+01,5.600000000000000000e+01,4.600000000000000000e+01,4.400000000000000022e-01,5.089216100000000000e+09
3.200000000000000000e+01,1.010000000000000000e+02,2.730000000000000000e+02,1.390000000000000000e+02,1.440000000000000000e+02,5.600000000000000000e+01,5.100000000000000000e+01,4.700000000000000000e+01,4.500000000000000111e-01,5.106778100000000000e+09
3.100000000000000000e+01,1.050000000000000000e+02,3.310000000000000000e+02,1.340000000000000000e+02,1.380000000000000000e+02,5.000000000000000000e+01,4.500000000000000000e+01,4.700000000000000000e+01,4.500000000000000111e-01,5.125416800000000000e+09
2.900000000000000000e+01,1.000000000000000000e+02,3.260000000000000000e+02,1.190000000000000000e+02,1.210000000000000000e+02,4.000000000000000000e+01,4.500000000000000000e+01,4.900000000000000000e+01,4.500000000000000111e-01,5.145443300000000000e+09
2.900000000000000000e+01,9.500000000000000000e+01,3.160000000000000000e+02,9.100000000000000000e+01,1.020000000000000000e+02,4.300000000000000000e+01,4.600000000000000000e+01,5.000000000000000000e+01,4.500000000000000111e-01,5.164581600000000000e+09
2.900000000000000000e+01,8.900000000000000000e+01,3.220000000000000000e+02,6.900000000000000000e+01,1.060000000000000000e+02,4.500000000000000000e+01,6.300000000000000000e+01,5.000000000000000000e+01,4.500000000000000111e-01,5.181959600000000000e+09
2.700000000000000000e+01,7.900000000000000000e+01,3.050000000000000000e+02,6.300000000000000000e+01,1.050000000000000000e+02,4.400000000000000000e+01,2.370000000000000000e+02,4.900000000000000000e+01,4.500000000000000111e-01,5.199157000000000000e+09
2.800000000000000000e+01,7.000000000000000000e+01,2.500000000000000000e+02,6.700000000000000000e+01,1.000000000000000000e+02,4.500000000000000000e+01,2.680000000000000000e+02,4.800000000000000000e+01,4.500000000000000111e-01,5.216651300000000000e+09
3.000000000000000000e+01,7.300000000000000000e+01,2.860000000000000000e+02,6.700000000000000000e+01,9.900000000000000000e+01,4.600000000000000000e+01,2.700000000000000000e+02,4.900000000000000000e+01,4.500000000000000111e-01,5.237007200000000000e+09
2.800000000000000000e+01,8.200000000000000000e+01,2.960000000000000000e+02,7.100000000000000000e+01,9.300000000000000000e+01,4.400000000000000000e+01,2.710000000000000000e+02,4.900000000000000000e+01,4.400000000000000022e-01,5.257401400000000000e+09
2.800000000000000000e+01,8.400000000000000000e+01,3.050000000000000000e+02,8.100000000000000000e+01,8.100000000000000000e+01,4.500000000000000000e+01,2.700000000000000000e+02,3.600000000000000000e+01,4.400000000000000022e-01,5.275349700000000000e+09
2.700000000000000000e+01,7.700000000000000000e+01,3.100000000000000000e+02,8.300000000000000000e+01,7.100000000000000000e+01,4.200000000000000000e+01,1.500000000000000000e+02,3.500000000000000000e+01,4.400000000000000022e-01,5.292250400000000000e+09
2.600000000000000000e+01,8.200000000000000000e+01,3.230000000000000000e+02,7.800000000000000000e+01,8.500000000000000000e+01,4.100000000000000000e+01,8.000000000000000000e+01,3.500000000000000000e+01,4.400000000000000022e-01,5.309512500000000000e+09
2.800000000000000000e+01,8.100000000000000000e+01,3.090000000000000000e+02,7.200000000000000000e+01,9.100000000000000000e+01,3.700000000000000000e+01,7.400000000000000000e+01,4.200000000000000000e+01,4.400000000000000022e-01,5.327582400000000000e+09
2.900000000000000000e+01,7.200000000000000000e+01,3.190000000000000000e+02,7.000000000000000000e+01,9.700000000000000000e+01,3.600000000000000000e+01,7.200000000000000000e+01,4.200000000000000000e+01,4.400000000000000022e-01,5.347162000000000000e+09
3.100000000000000000e+01,7.000000000000000000e+01,3.050000000000000000e+02,8.400000000000000000e+01,1.000000000000000000e+02,3.700000000000000000e+01,6.200000000000000000e+01,4.600000000000000000e+01,4.400000000000000022e-01,5.366497300000000000e+09
3.100000000000000000e+01,7.700000000000000000e+01,2.840000000000000000e+02,8.300000000000000000e+01,1.000000000000000000e+02,3.900000000000000000e+01,5.100000000000000000e+01,4.600000000000000000e+01,4.400000000000000022e-01,5.384021300000000000e+09
3.200000000000000000e+01,7.200000000000000000e+01,2.850000000000000000e+02,8.700000000000000000e+01,9.000000000000000000e+01,4.000000000000000000e+01,5.100000000000000000e+01,4.600000000000000000e+01,4.400000000000000022e-01,5.401347100000000000e+09
2.900000000000000000e+01,6.800000000000000000e+01,2.530000000000000000e+02,9.500000000000000000e+01,7.900000000000000000e+01,4.100000000000000000e+01,5.000000000000000000e+01,3.400000000000000000e+01,4.500000000000000111e-01,5.419609100000000000e+09
2.700000000000000000e+01,6.200000000000000000e+01,2.240000000000000000e+02,9.300000000000000000e+01,7.400000000000000000e+01,4.200000000000000000e+01,4.400000000000000000e+01,4.700000000000000000e+01,4.500000000000000111e-01,5.443563200000000000e+09
2.300000000000000000e+01,5.800000000000000000e+01,2.320000000000000000e+02,7.700000000000000000e+01,6.000000000000000000e+01,3.800000000000000000e+01,4.400000000000000000e+01,4.400000000000000000e+01,4.600000000000000200e-01,5.462157100000000000e+09
2.500000000000000000e+01,5.800000000000000000e+01,2.470000000000000000e+02,8.100000000000000000e+01,5.900000000000000000e+01,3.900000000000000000e+01,4.500000000000000000e+01,4.400000000000000000e+01,4.600000000000000200e-01,5.479479300000000000e+09
2.500000000000000000e+01,6.900000000000000000e+01,2.470000000000000000e+02,7.900000000000000000e+01,6.300000000000000000e+01,4.200000000000000000e+01,4.200000000000000000e+01,4.400000000000000000e+01,4.699999999999999734e-01,5.496789700000000000e+09
2.300000000000000000e+01,6.900000000000000000e+01,3.060000000000000000e+02,7.200000000000000000e+01,6.200000000000000000e+01,4.100000000000000000e+01,4.200000000000000000e+01,4.400000000000000000e+01,4.699999999999999734e-01,5.514915900000000000e+09
2.300000000000000000e+01,7.000000000000000000e+01,2.990000000000000000e+02,7.600000000000000000e+01,7.000000000000000000e+01,5.300000000000000000e+01,4.900000000000000000e+01,2.800000000000000000e+01,4.699999999999999734e-01,5.534067700000000000e+09
3.000000000000000000e+01,7.900000000000000000e+01,2.790000000000000000e+02,7.000000000000000000e+01,7.200000000000000000e+01,5.200000000000000000e+01,4.500000000000000000e+01,5.000000000000000000e+01,4.799999999999999822e-01,5.553138800000000000e+09
2.900000000000000000e+01,7.100000000000000000e+01,2.600000000000000000e+02,6.000000000000000000e+01,7.500000000000000000e+01,5.000000000000000000e+01,4.200000000000000000e+01,5.200000000000000000e+01,4.799999999999999822e-01,5.570530900000000000e+09
2.900000000000000000e+01,6.000000000000000000e+01,2.530000000000000000e+02,5.600000000000000000e+01,7.400000000000000000e+01,4.700000000000000000e+01,4.300000000000000000e+01,5.300000000000000000e+01,4.799999999999999822e-01,5.589522900000000000e+09
3.000000000000000000e+01,6.100000000000000000e+01,2.230000000000000000e+02,6.600000000000000000e+01,7.400000000000000000e+01,4.900000000000000000e+01,4.600000000000000000e+01,5.400000000000000000e+01,4.799999999999999822e-01,5.608057500000000000e+09
3.100000000000000000e+01,7.000000000000000000e+01,2.380000000000000000e+02,5.900000000000000000e+01,8.200000000000000000e+01,4.200000000000000000e+01,4.000000000000000000e+01,5.300000000000000000e+01,4.799999999999999822e-01,5.628193400000000000e+09
2.700000000000000000e+01,5.600000000000000000e+01,2.440000000000000000e+02,6.600000000000000000e+01,8.200000000000000000e+01,4.600000000000000000e+01,4.200000000000000000e+01,3.300000000000000000e+01,4.799999999999999822e-01,5.646899000000000000e+09
2.900000000000000000e+01,8.100000000000000000e+01,2.690000000000000000e+02,7.700000000000000000e+01,8.600000000000000000e+01,4.700000000000000000e+01,4.600000000000000000e+01,3.000000000000000000e+01,4.699999999999999734e-01,5.665072500000000000e+09
2.900000000000000000e+01,8.100000000000000000e+01,2.720000000000000000e+02,7.900000000000000000e+01,8.500000000000000000e+01,4.600000000000000000e+01,4.000000000000000000e+01,2.500000000000000000e+01,4.699999999999999734e-01,5.683082100000000000e+09
2.900000000000000000e+01,7.700000000000000000e+01,2.540000000000000000e+02,7.900000000000000000e+01,8.700000000000000000e+01,4.500000000000000000e+01,4.100000000000000000e+01,2.400000000000000000e+01,4.699999999999999734e-01,5.700591800000000000e+09
2.800000000000000000e+01,7.200000000000000000e+01,2.460000000000000000e+02,8.100000000000000000e+01,9.900000000000000000e+01,4.100000000000000000e+01,4.100000000000000000e+01,4.000000000000000000e+01,4.699999999999999734e-01,5.720634500000000000e+09
2.900000000000000000e+01,8.300000000000000000e+01,2.430000000000000000e+02,9.900000000000000000e+01,9.900000000000000000e+01,3.400000000000000000e+01,4.400000000000000000e+01,4.200000000000000000e+01,4.699999999999999734e-01,5.740472500000000000e+09
2.700000000000000000e+01,6.100000000000000000e+01,2.450000000000000000e+02,9.100000000000000000e+01,9.500000000000000000e+01,3.300000000000000000e+01,4.400000000000000000e+01,4.300000000000000000e+01,4.699999999999999734e-01,5.758788600000000000e+09
2.800000000000000000e+01,7.100000000000000000e+01,2.430000000000000000e+02,9.100000000000000000e+01,9.500000000000000000e+01,3.400000000000000000e+01,4.500000000000000000e+01,4.300000000000000000e+01,4.799999999999999822e-01,5.779722200000000000e+09
2.900000000000000000e+01,7.600000000000000000e+01,2.550000000000000000e+02,1.020000000000000000e+02,9.300000000000000000e+01,3.300000000000000000e+01,4.000000000000000000e+01,4.300000000000000000e+01,4.799999999999999822e-01,5.799212600000000000e+09
2.800000000000000000e+01,7.900000000000000000e+01,2.620000000000000000e+02,1.040000000000000000e+02,8.800000000000000000e+01,3.200000000000000000e+01,3.900000000000000000e+01,2.800000000000000000e+01,4.799999999999999822e-01,5.817092500000000000e+09
2.500000000000000000e+01,8.000000000000000000e+01,2.850000000000000000e+02,1.020000000000000000e+02,8.900000000000000000e+01,3.600000000000000000e+01,3.500000000000000000e+01,2.600000000000000000e+01,4.899999999999999911e-01,5.836757500000000000e+09
2.600000000000000000e+01,8.100000000000000000e+01,2.580000000000000000e+02,1.050000000000000000e+02,8.600000000000000000e+01,3.800000000000000000e+01,3.400000000000000000e+01,2.400000000000000000e+01,4.899999999999999911e-01,5.857092800000000000e+09
2.700000000000000000e+01,8.300000000000000000e+01,2.410000000000000000e+02,1.070000000000000000e+02,8.400000000000000000e+01,3.600000000000000000e+01,3.200000000000000000e+01,2.400000000000000000e+01,4.899999999999999911e-01,5.876133000000000000e+09
2.500000000000000000e+01,8.000000000000000000e+01,2.080000000000000000e+02,9.100000000000000000e+01,1.020000000000000000e+02,3.700000000000000000e+01,3.300000000000000000e+01,2.400000000000000000e+01,5.000000000000000000e-01,5.895520700000000000e+09
2.400000000000000000e+01,7.600000000000000000e+01,2.210000000000000000e+02,8.800000000000000000e+01,1.070000000000000000e+02,4.200000000000000000e+01,3.700000000000000000e+01,2.600000000000000000e+01,5.000000000000000000e-01,5.914445100000000000e+09
2.400000000000000000e+01,7.100000000000000000e+01,2.200000000000000000e+02,7.100000000000000000e+01,1.010000000000000000e+02,4.200000000000000000e+01,3.900000000000000000e+01,2.600000000000000000e+01,5.000000000000000000e-01,5.935899200000000000e+09
2.400000000000000000e+01,7.000000000000000000e+01,2.150000000000000000e+02,7.200000000000000000e+01,1.020000000000000000e+02,4.400000000000000000e+01,3.700000000000000000e+01,2.400000000000000000e+01,5.000000000000000000e-01,5.956233000000000000e+09
2.200000000000000000e+01,5.700000000000000000e+01,2.280000000000000000e+02,7.100000000000000000e+01,1.040000000000000000e+02,4.800000000000000000e+01,4.400000000000000000e+01,2.500000000000000000e+01,4.899999999999999911e-01,5.974963400000000000e+09
2.200000000000000000e+01,7.200000000000000000e+01,2.580000000000000000e+02,7.700000000000000000e+01,9.300000000000000000e+01,4.800000000000000000e+01,4.200000000000000000e+01,2.400000000000000000e+01,5.000000000000000000e-01,5.992911600000000000e+09
2.100000000000000000e+01,7.000000000000000000e+01,2.330000000000000000e+02,7.700000000000000000e+01,7.600000000000000000e+01,5.000000000000000000e+01,3.800000000000000000e+01,2.300000000000000000e+01,5.000000000000000000e-01,6.010939200000000000e+09
2.200000000000000000e+01,6.700000000000000000e+01,2.460000000000000000e+02,7.300000000000000000e+01,7.400000000000000000e+01,5.000000000000000000e+01,4.000000000000000000e+01,2.200000000000000000e+01,5.000000000000000000e-01,6.032345800000000000e+09
2.400000000000000000e+01,9.200000000000000000e+01,2.520000000000000000e+02,8.700000000000000000e+01,1.000000000000000000e+02,5.300000000000000000e+01,4.100000000000000000e+01,2.400000000000000000e+01,5.000000000000000000e-01,6.052205200000000000e+09
2.400000000000000000e+01,9.300000000000000000e+01,2.460000000000000000e+02,9.100000000000000000e+01,1.020000000000000000e+02,5.100000000000000000e+01,3.600000000000000000e+01,2.500000000000000000e+01,4.899999999999999911e-01,6.070394100000000000e+09
2.800000000000000000e+01,8.200000000000000000e+01,2.360000000000000000e+02,8.900000000000000000e+01,1.070000000000000000e+02,5.600000000000000000e+01,4.000000000000000000e+01,2.600000000000000000e+01,4.899999999999999911e-01,6.090448500000000000e+09
3.000000000000000000e+01,9.800000000000000000e+01,2.670000000000000000e+02,9.400000000000000000e+01,1.030000000000000000e+02,5.000000000000000000e+01,4.200000000000000000e+01,2.500000000000000000e+01,4.899999999999999911e-01,6.108658700000000000e+09
2.900000000000000000e+01,9.500000000000000000e+01,2.410000000000000000e+02,9.500000000000000000e+01,1.060000000000000000e+02,5.000000000000000000e+01,3.800000000000000000e+01,2.500000000000000000e+01,4.899999999999999911e-01,6.126369800000000000e+09
2.700000000000000000e+01,8.100000000000000000e+01,3.320000000000000000e+02,8.600000000000000000e+01,8.200000000000000000e+01,4.600000000000000000e+01,1.990000000000000000e+02,2.500000000000000000e+01,4.899999999999999911e-01,6.146718700000000000e+09
2.600000000000000000e+01,8.200000000000000000e+01,3.340000000000000000e+02,8.000000000000000000e+01,7.600000000000000000e+01,4.500000000000000000e+01,2.370000000000000000e+02,2.200000000000000000e+01,5.000000000000000000e-01,6.165156400000000000e+09
2.300000000000000000e+01,8.100000000000000000e+01,3.180000000000000000e+02,7.300000000000000000e+01,7.600000000000000000e+01,3.800000000000000000e+01,2.380000000000000000e+02,2.200000000000000000e+01,5.000000000000000000e-01,6.182992500000000000e+09
2.200000000000000000e+01,6.400000000000000000e+01,3.140000000000000000e+02,7.000000000000000000e+01,8.000000000000000000e+01,4.000000000000000000e+01,2.380000000000000000e+02,2.300000000000000000e+01,4.899999999999999911e-01,6.200865200000000000e+09
2.300000000000000000e+01,6.500000000000000000e+01,3.160000000000000000e+02,7.100000000000000000e+01,7.600000000000000000e+01,3.700000000000000000e+01,2.400000000000000000e+02,2.300000000000000000e+01,4.899999999999999911e-01,6.220314700000000000e+09
2.100000000000000000e+01,5.300000000000000000e+01,2.280000000000000000e+02,7.300000000000000000e+01,7.700000000000000000e+01,3.600000000000000000e+01,1.420000000000000000e+02,2.000000000000000000e+01,4.899999999999999911e-01,6.241231300000000000e+09
2.300000000000000000e+01,5.600000000000000000e+01,2.850000000000000000e+02,7.900000000000000000e+01,8.100000000000000000e+01,4.300000000000000000e+01,6.000000000000000000e+01,2.200000000000000000e+01,4.799999999999999822e-01,6.259751600000000000e+09
2.200000000000000000e+01,5.800000000000000000e+01,2.970000000000000000e+02,8.100000000000000000e+01,7.700000000000000000e+01,4.800000000000000000e+01,5.600000000000000000e+01,2.200000000000000000e+01,4.799999999999999822e-01,6.277373300000000000e+09
2.400000000000000000e+01,5.700000000000000000e+01,2.910000000000000000e+02,8.600000000000000000e+01,8.200000000000000000e+01,5.700000000000000000e+01,5.400000000000000000e+01,2.200000000000000000e+01,4.799999999999999822e-01,6.294692300000000000e+09
2.400000000000000000e+01,5.300000000000000000e+01,2.930000000000000000e+02,8.500000000000000000e+01,8.100000000000000000e+01,6.000000000000000000e+01,4.300000000000000000e+01,2.300000000000000000e+01,4.799999999999999822e-01,6.311942500000000000e+09
2.400000000000000000e+01,6.100000000000000000e+01,3.280000000000000000e+02,7.900000000000000000e+01,8.200000000000000000e+01,5.900000000000000000e+01,3.700000000000000000e+01,2.300000000000000000e+01,4.799999999999999822e-01,6.330252300000000000e+09
2.600000000000000000e+01,6.100000000000000000e+01,2.820000000000000000e+02,7.100000000000000000e+01,8.200000000000000000e+01,5.500000000000000000e+01,3.700000000000000000e+01,2.400000000000000000e+01,4.799999999999999822e-01,6.353403300000000000e+09
2.500000000000000000e+01,6.200000000000000000e+01,2.790000000000000000e+02,8.700000000000000000e+01,7.500000000000000000e+01,5.100000000000000000e+01,3.300000000000000000e+01,2.300000000000000000e+01,4.799999999999999822e-01,6.372125200000000000e+09
2.500000000000000000e+01,7.100000000000000000e+01,2.760000000000000000e+02,8.300000000000000000e+01,5.700000000000000000e+01,3.800000000000000000e+01,3.500000000000000000e+01,2.200000000000000000e+01,4.799999999999999822e-01,6.390256700000000000e+09
2.500000000000000000e+01,7.200000000000000000e+01,2.590000000000000000e+02,8.000000000000000000e+01,5.700000000000000000e+01,3.300000000000000000e+01,3.600000000000000000e+01,2.100000000000000000e+01,4.899999999999999911e-01,6.407578800000000000e+09
2.700000000000000000e+01,7.900000000000000000e+01,3.240000000000000000e+02,1.150000000000000000e+02,5.900000000000000000e+01,4.100000000000000000e+01,4.300000000000000000e+01,2.300000000000000000e+01,5.000000000000000000e-01,6.426209900000000000e+09
2.500000000000000000e+01,7.900000000000000000e+01,3.620000000000000000e+02,1.380000000000000000e+02,5.900000000000000000e+01,4.000000000000000000e+01,4.400000000000000000e+01,2.200000000000000000e+01,5.100000000000000089e-01,6.446017300000000000e+09
2.600000000000000000e+01,8.300000000000000000e+01,4.210000000000000000e+02,1.430000000000000000e+02,5.700000000000000000e+01,3.700000000000000000e+01,5.300000000000000000e+01,2.300000000000000000e+01,5.200000000000000178e-01,6.464607800000000000e+09
2.700000000000000000e+01,8.000000000000000000e+01,4.350000000000000000e+02,1.430000000000000000e+02,5.800000000000000000e+01,3.800000000000000000e+01,5.900000000000000000e+01,2.400000000000000000e+01,5.300000000000000266e-01,6.483310000000000000e+09
2.900000000000000000e+01,8.500000000000000000e+01,4.960000000000000000e+02,1.450000000000000000e+02,6.900000000000000000e+01,4.100000000000000000e+01,6.100000000000000000e+01,2.700000000000000000e+01,5.300000000000000266e-01,6.503336600000000000e+09
2.700000000000000000e+01,7.800000000000000000e+01,4.390000000000000000e+02,1.310000000000000000e+02,7.700000000000000000e+01,3.300000000000000000e+01,5.500000000000000000e+01,2.300000000000000000e+01,5.400000000000000355e-01,6.521394400000000000e+09
2.600000000000000000e+01,8.800000000000000000e+01,4.110000000000000000e+02,1.260000000000000000e+02,7.800000000000000000e+01,3.700000000000000000e+01,6.100000000000000000e+01,2.500000000000000000e+01,5.400000000000000355e-01,6.543891500000000000e+09
2.700000000000000000e+01,8.700000000000000000e+01,3.560000000000000000e+02,1.170000000000000000e+02,8.000000000000000000e+01,4.000000000000000000e+01,5.700000000000000000e+01,2.500000000000000000e+01,5.500000000000000444e-01,6.562020700000000000e+09
2.800000000000000000e+01,8.700000000000000000e+01,3.400000000000000000e+02,1.280000000000000000e+02,8.600000000000000000e+01,4.500000000000000000e+01,5.800000000000000000e+01,2.700000000000000000e+01,5.500000000000000444e-01,6.580169600000000000e+09
2.600000000000000000e+01,8.300000000000000000e+01,2.450000000000000000e+02,1.280000000000000000e+02,7.800000000000000000e+01,4.200000000000000000e+01,5.500000000000000000e+01,2.400000000000000000e+01,5.600000000000000533e-01,6.598692300000000000e+09
2.800000000000000000e+01,8.500000000000000000e+01,2.480000000000000000e+02,1.210000000000000000e+02,7.300000000000000000e+01,4.400000000000000000e+01,6.200000000000000000e+01,2.600000000000000000e+01,5.600000000000000533e-01,6.618808200000000000e+09
2.800000000000000000e+01,8.000000000000000000e+01,2.700000000000000000e+02,1.120000000000000000e+02,7.400000000000000000e+01,4.000000000000000000e+01,5.600000000000000000e+01,2.400000000000000000e+01,5.600000000000000533e-01,6.640986000000000000e+09
2.800000000000000000e+01,7.600000000000000000e+01,2.700000000000000000e+02,1.280000000000000000e+02,7.500000000000000000e+01,3.900000000000000000e+01,5.400000000000000000e+01,2.400000000000000000e+01,5.600000000000000533e-01,6.659481100000000000e+09
2.500000000000000000e+01,7.500000000000000000e+01,2.650000000000000000e+02,1.180000000000000000e+02,6.700000000000000000e+01,4.100000000000000000e+01,4.500000000000000000e+01,2.400000000000000000e+01,5.600000000000000533e-01,6.678607600000000000e+09
2.400000000000000000e+01,7.300000000000000000e+01,2.790000000000000000e+02,1.130000000000000000e+02,6.500000000000000000e+01,4.400000000000000000e+01,5.200000000000000000e+01,2.500000000000000000e+01,5.600000000000000533e-01,6.696800400000000000e+09
2.200000000000000000e+01,6.700000000000000000e+01,2.850000000000000000e+02,1.140000000000000000e+02,6.300000000000000000e+01,4.500000000000000000e+01,4.700000000000000000e+01,2.500000000000000000e+01,5.600000000000000533e-01,6.715171300000000000e+09
2.300000000000000000e+01,6.300000000000000000e+01,2.650000000000000000e+02,1.040000000000000000e+02,6.000000000000000000e+01,4.800000000000000000e+01,5.000000000000000000e+01,2.600000000000000000e+01,5.600000000000000533e-01,6.736171700000000000e+09
2.400000000000000000e+01,6.700000000000000000e+01,2.930000000000000000e+02,9.200000000000000000e+01,5.800000000000000000e+01,4.900000000000000000e+01,5.800000000000000000e+01,2.700000000000000000e+01,5.600000000000000533e-01,6.756475100000000000e+09
2.300000000000000000e+01,6.300000000000000000e+01,3.070000000000000000e+02,9.000000000000000000e+01,5.900000000000000000e+01,4.500000000000000000e+01,5.600000000000000000e+01,2.500000000000000000e+01,5.600000000000000533e-01,6.774624600000000000e+09
2.600000000000000000e+01,6.700000000000000000e+01,3.020000000000000000e+02,9.700000000000000000e+01,7.200000000000000000e+01,4.400000000000000000e+01,4.900000000000000000e+01,2.400000000000000000e+01,5.600000000000000533e-01,6.791806900000000000e+09
2.500000000000000000e+01,7.000000000000000000e+01,2.840000000000000000e+02,1.010000000000000000e+02,7.200000000000000000e+01,4.000000000000000000e+01,5.200000000000000000e+01,2.300000000000000000e+01,5.600000000000000533e-01,6.809940000000000000e+09
2.700000000000000000e+01,7.200000000000000000e+01,2.780000000000000000e+02,1.000000000000000000e+02,7.000000000000000000e+01,3.700000000000000000e+01,4.900000000000000000e+01,2.200000000000000000e+01,5.600000000000000533e-01,6.829070100000000000e+09
2.600000000000000000e+01,7.400000000000000000e+01,2.900000000000000000e+02,9.800000000000000000e+01,7.700000000000000000e+01,4.000000000000000000e+01,4.400000000000000000e+01,2.200000000000000000e+01,5.600000000000000533e-01,6.853212400000000000e+09
2.900000000000000000e+01,8.100000000000000000e+01,2.680000000000000000e+02,1.000000000000000000e+02,8.300000000000000000e+01,4.400000000000000000e+01,4.700000000000000000e+01,2.300000000000000000e+01,5.600000000000000533e-01,6.872175700000000000e+09
2.900000000000000000e+01,7.900000000000000000e+01,3.160000000000000000e+02,9.600000000000000000e+01,8.400000000000000000e+01,4.100000000000000000e+01,5.200000000000000000e+01,2.600000000000000000e+01,5.500000000000000444e-01,6.891965900000000000e+09
3.200000000000000000e+01,9.200000000000000000e+01,3.220000000000000000e+02,8.600000000000000000e+01,8.500000000000000000e+01,4.600000000000000000e+01,4.900000000000000000e+01,2.900000000000000000e+01,5.500000000000000444e-01,6.909884300000000000e+09
3.000000000000000000e+01,8.800000000000000000e+01,3.230000000000000000e+02,8.700000000000000000e+01,8.500000000000000000e+01,4.800000000000000000e+01,5.000000000000000000e+01,2.900000000000000000e+01,5.400000000000000355e-01,6.928627400000000000e+09
3.100000000000000000e+01,8.700000000000000000e+01,2.870000000000000000e+02,8.100000000000000000e+01,8.300000000000000000e+01,4.600000000000000000e+01,5.200000000000000000e+01,2.900000000000000000e+01,5.400000000000000355e-01,6.949605100000000000e+09
2.900000000000000000e+01,8.100000000000000000e+01,2.940000000000000000e+02,7.500000000000000000e+01,7.300000000000000000e+01,4.000000000000000000e+01,5.000000000000000000e+01,2.700000000000000000e+01,5.400000000000000355e-01,6.969797100000000000e+09
2.900000000000000000e+01,8.800000000000000000e+01,2.370000000000000000e+02,7.300000000000000000e+01,7.400000000000000000e+01,4.300000000000000000e+01,4.800000000000000000e+01,2.700000000000000000e+01,5.300000000000000266e-01,6.990141100000000000e+09
2.700000000000000000e+01,8.000000000000000000e+01,2.670000000000000000e+02,7.200000000000000000e+01,7.400000000000000000e+01,4.800000000000000000e+01,5.500000000000000000e+01,2.600000000000000000e+01,5.300000000000000266e-01,7.008662200000000000e+09
2.800000000000000000e+01,7.700000000000000000e+01,2.580000000000000000e+02,7.000000000000000000e+01,7.700000000000000000e+01,4.800000000000000000e+01,5.500000000000000000e+01,2.600000000000000000e+01,5.200000000000000178e-01,7.027258500000000000e+09
3.100000000000000000e+01,9.400000000000000000e+01,2.910000000000000000e+02,7.300000000000000000e+01,7.400000000000000000e+01,5.000000000000000000e+01,5.000000000000000000e+01,2.800000000000000000e+01,5.200000000000000178e-01,7.050793300000000000e+09
3.200000000000000000e+01,9.900000000000000000e+01,3.140000000000000000e+02,8.400000000000000000e+01,1.040000000000000000e+02,5.200000000000000000e+01,5.000000000000000000e+01,2.800000000000000000e+01,5.100000000000000089e-01,7.077017200000000000e+09
3.100000000000000000e+01,9.600000000000000000e+01,3.270000000000000000e+02,8.300000000000000000e+01,1.000000000000000000e+02,5.100000000000000000e+01,6.400000000000000000e+01,2.500000000000000000e+01,5.100000000000000089e-01,7.096948700000000000e+09
3.100000000000000000e+01,9.300000000000000000e+01,3.060000000000000000e+02,8.800000000000000000e+01,9.500000000000000000e+01,4.600000000000000000e+01,2.170000000000000000e+02,2.300000000000000000e+01,5.100000000000000089e-01,7.116063800000000000e+09
3.200000000000000000e+01,9.300000000000000000e+01,3.440000000000000000e+02,1.040000000000000000e+02,1.040000000000000000e+02,4.500000000000000000e+01,2.440000000000000000e+02,2.400000000000000000e+01,5.100000000000000089e-01,7.138061400000000000e+09
2.900000000000000000e+01,7.200000000000000000e+01,3.340000000000000000e+02,1.080000000000000000e+02,1.140000000000000000e+02,4.000000000000000000e+01,2.450000000000000000e+02,2.100000000000000000e+01,5.000000000000000000e-01,7.158148400000000000e+09
2.500000000000000000e+01,6.400000000000000000e+01,3.160000000000000000e+02,1.090000000000000000e+02,9.600000000000000000e+01,3.800000000000000000e+01,2.480000000000000000e+02,2.200000000000000000e+01,5.000000000000000000e-01,7.176503600000000000e+09
2.500000000000000000e+01,6.000000000000000000e+01,3.000000000000000000e+02,1.100000000000000000e+02,9.200000000000000000e+01,3.700000000000000000e+01,2.460000000000000000e+02,2.300000000000000000e+01,5.000000000000000000e-01,7.196044800000000000e+09
2.700000000000000000e+01,5.500000000000000000e+01,2.980000000000000000e+02,1.100000000000000000e+02,1.000000000000000000e+02,3.700000000000000000e+01,1.310000000000000000e+02,2.300000000000000000e+01,5.000000000000000000e-01,7.216980800000000000e+09
2.400000000000000000e+01,6.200000000000000000e+01,2.780000000000000000e+02,1.000000000000000000e+02,8.600000000000000000e+01,3.500000000000000000e+01,7.400000000000000000e+01,2.300000000000000000e+01,4.899999999999999911e-01,7.238192600000000000e+09
2.200000000000000000e+01,6.400000000000000000e+01,2.510000000000000000e+02,8.400000000000000000e+01,8.100000000000000000e+01,3.200000000000000000e+01,6.800000000000000000e+01,2.300000000000000000e+01,5.000000000000000000e-01,7.256086200000000000e+09
2.600000000000000000e+01,7.000000000000000000e+01,2.350000000000000000e+02,7.600000000000000000e+01,7.600000000000000000e+01,3.400000000000000000e+01,5.900000000000000000e+01,2.300000000000000000e+01,5.000000000000000000e-01,7.274992500000000000e+09
2.500000000000000000e+01,7.300000000000000000e+01,2.590000000000000000e+02,7.600000000000000000e+01,7.900000000000000000e+01,3.300000000000000000e+01,5.700000000000000000e+01,2.300000000000000000e+01,5.000000000000000000e-01,7.293104300000000000e+09
2.400000000000000000e+01,8.400000000000000000e+01,2.660000000000000000e+02,8.600000000000000000e+01,7.100000000000000000e+01,3.600000000000000000e+01,5.300000000000000000e+01,2.200000000000000000e+01,5.000000000000000000e-01,7.312647200000000000e+09
2.600000000000000000e+01,8.700000000000000000e+01,2.620000000000000000e+02,8.900000000000000000e+01,8.200000000000000000e+01,3.800000000000000000e+01,4.400000000000000000e+01,2.100000000000000000e+01,5.000000000000000000e-01,7.331403900000000000e+09
2.700000000000000000e+01,9.200000000000000000e+01,2.500000000000000000e+02,1.140000000000000000e+02,7.300000000000000000e+01,4.100000000000000000e+01,5.200000000000000000e+01,2.100000000000000000e+01,5.000000000000000000e-01,7.351495900000000000e+09
2.600000000000000000e+01,8.500000000000000000e+01,2.510000000000000000e+02,1.180000000000000000e+02,7.100000000000000000e+01,4.100000000000000000e+01,4.800000000000000000e+01,1.900000000000000000e+01,5.100000000000000089e-01,7.369398300000000000e+09
2.500000000000000000e+01,8.500000000000000000e+01,2.400000000000000000e+02,1.250000000000000000e+02,6.900000000000000000e+01,4.100000000000000000e+01,4.700000000000000000e+01,1.800000000000000000e+01,5.100000000000000089e-01,7.387958800000000000e+09
2.600000000000000000e+01,8.500000000000000000e+01,2.480000000000000000e+02,1.160000000000000000e+02,7.100000000000000000e+01,3.900000000000000000e+01,4.900000000000000000e+01,2.100000000000000000e+01,5.200000000000000178e-01,7.405140000000000000e+09
2.600000000000000000e+01,7.600000000000000000e+01,2.550000000000000000e+02,1.130000000000000000e+02,8.100000000000000000e+01,4.100000000000000000e+01,5.300000000000000000e+01,2.200000000000000000e+01,5.200000000000000178e-01,7.426569000000000000e+09
2.600000000000000000e+01,7.400000000000000000e+01,2.840000000000000000e+02,8.800000000000000000e+01,8.100000000000000000e+01,3.900000000000000000e+01,4.400000000000000000e+01,2.200000000000000000e+01,5.200000000000000178e-01,7.448948700000000000e+09
2.600000000000000000e+01,8.000000000000000000e+01,3.090000000000000000e+02,8.400000000000000000e+01,8.300000000000000000e+01,4.100000000000000000e+01,5.600000000000000000e+01,2.300000000000000000e+01,5.200000000000000178e-01,7.467808500000000000e+09
2.800000000000000000e+01,7.900000000000000000e+01,3.040000000000000000e+02,7.800000000000000000e+01,8.900000000000000000e+01,4.500000000000000000e+01,5.600000000000000000e+01,2.400000000000000000e+01,5.200000000000000178e-01,7.485780900000000000e+09
2.800000000000000000e+01,8.000000000000000000e+01,2.750000000000000000e+02,7.700000000000000000e+01,9.300000000000000000e+01,4.600000000000000000e+01,5.500000000000000000e+01,2.300000000000000000e+01,5.300000000000000266e-01,7.503421200000000000e+09
3.100000000000000000e+01,8.000000000000000000e+01,2.580000000000000000e+02,7.300000000000000000e+01,8.000000000000000000e+01,4.100000000000000000e+01,5.300000000000000000e+01,2.300000000000000000e+01,5.200000000000000178e-01,7.522930600000000000e+09
3.100000000000000000e+01,7.600000000000000000e+01,2.270000000000000000e+02,7.800000000000000000e+01,8.100000000000000000e+01,4.400000000000000000e+01,5.400000000000000000e+01,2.400000000000000000e+01,5.200000000000000178e-01,7.542543900000000000e+09
2.900000000000000000e+01,7.400000000000000000e+01,2.000000000000000000e+02,7.500000000000000000e+01,7.900000000000000000e+01,4.000000000000000000e+01,4.100000000000000000e+01,2.200000000000000000e+01,5.200000000000000178e-01,7.562356400000000000e+09
3.000000000000000000e+01,8.100000000000000000e+01,2.120000000000000000e+02,7.500000000000000000e+01,7.100000000000000000e+01,3.900000000000000000e+01,4.400000000000000000e+01,2.400000000000000000e+01,5.200000000000000178e-01,7.580428700000000000e+09
2.800000000000000000e+01,7.000000000000000000e+01,2.900000000000000000e+02,7.900000000000000000e+01,6.500000000000000000e+01,3.600000000000000000e+01,4.700000000000000000e+01,2.300000000000000000e+01,5.200000000000000178e-01,7.597974100000000000e+09
2.800000000000000000e+01,7.300000000000000000e+01,3.620000000000000000e+02,7.900000000000000000e+01,6.300000000000000000e+01,4.400000000000000000e+01,5.200000000000000000e+01,2.600000000000000000e+01,5.200000000000000178e-01,7.619928000000000000e+09
2.800000000000000000e+01,7.700000000000000000e+01,3.850000000000000000e+02,8.200000000000000000e+01,7.600000000000000000e+01,4.500000000000000000e+01,5.000000000000000000e+01,2.700000000000000000e+01,5.200000000000000178e-01,7.642054500000000000e+09
3.000000000000000000e+01,9.100000000000000000e+01,4.070000000000000000e+02,9.100000000000000000e+01,7.900000000000000000e+01,5.100000000000000000e+01,6.000000000000000000e+01,2.900000000000000000e+01,5.200000000000000178e-01,7.661047000000000000e+09
2.900000000000000000e+01,8.700000000000000000e+01,4.070000000000000000e+02,9.200000000000000000e+01,7.500000000000000000e+01,4.900000000000000000e+01,5.600000000000000000e+01,2.700000000000000000e+01,5.200000000000000178e-01,7.678904600000000000e+09
3.000000000000000000e+01,8.700000000000000000e+01,3.850000000000000000e+02,9.100000000000000000e+01,8.500000000000000000e+01,5.200000000000000000e+01,5.600000000000000000e+01,2.900000000000000000e+01,5.200000000000000178e-01,7.697102800000000000e+09
2.600000000000000000e+01,8.700000000000000000e+01,3.110000000000000000e+02,9.300000000000000000e+01,8.500000000000000000e+01,4.800000000000000000e+01,6.200000000000000000e+01,2.600000000000000000e+01,5.200000000000000178e-01,7.715354300000000000e+09
2.500000000000000000e+01,8.200000000000000000e+01,2.780000000000000000e+02,8.800000000000000000e+01,7.200000000000000000e+01,4.700000000000000000e+01,7.300000000000000000e+01,2.400000000000000000e+01,5.200000000000000178e-01,7.735974300000000000e+09
2.400000000000000000e+01,6.600000000000000000e+01,2.500000000000000000e+02,7.600000000000000000e+01,6.700000000000000000e+01,4.100000000000000000e+01,6.800000000000000000e+01,2.500000000000000000e+01,5.200000000000000178e-01,7.755817400000000000e+09
2.300000000000000000e+01,6.300000000000000000e+01,2.440000000000000000e+02,7.200000000000000000e+01,7.600000000000000000e+01,4.100000000000000000e+01,6.900000000000000000e+01,2.300000000000000000e+01,5.200000000000000178e-01,7.773232700000000000e+09
2.300000000000000000e+01,6.500000000000000000e+01,1.930000000000000000e+02,7.300000000000000000e+01,7.100000000000000000e+01,3.600000000000000000e+01,6.500000000000000000e+01,2.100000000000000000e+01,5.200000000000000178e-01,7.790308300000000000e+09
2.500000000000000000e+01,7.000000000000000000e+01,2.550000000000000000e+02,7.500000000000000000e+01,8.100000000000000000e+01,4.200000000000000000e+01,5.500000000000000000e+01,2.200000000000000000e+01,5.200000000000000178e-01,7.808537000000000000e+09
2.500000000000000000e+01,8.400000000000000000e+01,2.750000000000000000e+02,7.100000000000000000e+01,7.900000000000000000e+01,3.800000000000000000e+01,4.100000000000000000e+01,2.300000000000000000e+01,5.100000000000000089e-01,7.828909100000000000e+09
2.600000000000000000e+01,8.500000000000000000e+01,2.700000000000000000e+02,7.300000000000000000e+01,8.000000000000000000e+01,3.700000000000000000e+01,3.300000000000000000e+01,2.100000000000000000e+01,5.100000000000000089e-01,7.848334400000000000e+09
2.500000000000000000e+01,8.400000000000000000e+01,2.530000000000000000e+02,7.400000000000000000e+01,8.200000000000000000e+01,3.900000000000000000e+01,3.200000000000000000e+01,2.100000000000000000e+01,5.100000000000000089e-01,7.866686600000000000e+09
2.400000000000000000e+01,7.900000000000000000e+01,2.620000000000000000e+02,6.900000000000000000e+01,7.300000000000000000e+01,3.800000000000000000e+01,3.500000000000000000e+01,2.400000000000000000e+01,5.100000000000000089e-01,7.884951200000000000e+09
2.500000000000000000e+01,7.800000000000000000e+01,2.180000000000000000e+02,6.600000000000000000e+01,6.000000000000000000e+01,3.200000000000000000e+01,4.500000000000000000e+01,2.300000000000000000e+01,5.100000000000000089e-01,7.903727500000000000e+09
2.500000000000000000e+01,6.500000000000000000e+01,2.020000000000000000e+02,6.900000000000000000e+01,6.600000000000000000e+01,3.500000000000000000e+01,4.600000000000000000e+01,2.300000000000000000e+01,5.100000000000000089e-01,7.922643800000000000e+09
2.400000000000000000e+01,6.600000000000000000e+01,1.900000000000000000e+02,7.300000000000000000e+01,7.800000000000000000e+01,3.900000000000000000e+01,4.900000000000000000e+01,2.100000000000000000e+01,5.000000000000000000e-01,7.944082000000000000e+09
2.700000000000000000e+01,6.800000000000000000e+01,1.870000000000000000e+02,7.600000000000000000e+01,7.100000000000000000e+01,3.500000000000000000e+01,4.800000000000000000e+01,2.100000000000000000e+01,5.000000000000000000e-01,7.962146900000000000e+09
2.900000000000000000e+01,7.500000000000000000e+01,1.970000000000000000e+02,8.100000000000000000e+01,7.600000000000000000e+01,3.900000000000000000e+01,4.800000000000000000e+01,1.900000000000000000e+01,5.000000000000000000e-01,7.979945700000000000e+09
2.800000000000000000e+01,6.700000000000000000e+01,2.010000000000000000e+02,9.600000000000000000e+01,7.600000000000000000e+01,3.600000000000000000e+01,3.800000000000000000e+01,1.900000000000000000e+01,5.000000000000000000e-01,7.998425000000000000e+09
2.900000000000000000e+01,7.000000000000000000e+01,2.050000000000000000e+02,1.030000000000000000e+02,8.300000000000000000e+01,3.800000000000000000e+01,3.600000000000000000e+01,1.900000000000000000e+01,5.000000000000000000e-01,8.016903600000000000e+09
3.100000000000000000e+01,7.700000000000000000e+01,2.350000000000000000e+02,1.050000000000000000e+02,7.800000000000000000e+01,3.700000000000000000e+01,3.600000000000000000e+01,2.100000000000000000e+01,5.100000000000000089e-01,8.034730100000000000e+09
2.900000000000000000e+01,7.700000000000000000e+01,2.470000000000000000e+02,1.070000000000000000e+02,7.700000000000000000e+01,3.800000000000000000e+01,3.500000000000000000e+01,2.100000000000000000e+01,5.100000000000000089e-01,8.055294100000000000e+09
2.700000000000000000e+01,7.100000000000000000e+01,2.390000000000000000e+02,1.010000000000000000e+02,7.700000000000000000e+01,3.800000000000000000e+01,1.890000000000000000e+02,2.000000000000000000e+01,5.100000000000000089e-01,8.075771200000000000e+09
2.900000000000000000e+01,7.200000000000000000e+01,2.450000000000000000e+02,8.400000000000000000e+01,7.700000000000000000e+01,4.000000000000000000e+01,2.450000000000000000e+02,2.200000000000000000e+01,5.100000000000000089e-01,8.094340500000000000e+09
2.800000000000000000e+01,7.200000000000000000e+01,2.430000000000000000e+02,8.400000000000000000e+01,7.900000000000000000e+01,4.100000000000000000e+01,2.510000000000000000e+02,2.200000000000000000e+01,5.100000000000000089e-01,8.111913500000000000e+09
2.800000000000000000e+01,5.200000000000000000e+01,2.330000000000000000e+02,7.400000000000000000e+01,7.100000000000000000e+01,4.000000000000000000e+01,2.530000000000000000e+02,2.200000000000000000e+01,5.100000000000000089e-01,8.131000700000000000e+09
2.900000000000000000e+01,5.500000000000000000e+01,2.310000000000000000e+02,8.100000000000000000e+01,8.400000000000000000e+01,4.300000000000000000e+01,2.560000000000000000e+02,2.300000000000000000e+01,5.100000000000000089e-01,8.151928600000000000e+09
3.000000000000000000e+01,7.000000000000000000e+01,2.460000000000000000e+02,9.400000000000000000e+01,1.020000000000000000e+02,4.900000000000000000e+01,1.780000000000000000e+02,2.300000000000000000e+01,5.100000000000000089e-01,8.170109100000000000e+09
2.800000000000000000e+01,7.900000000000000000e+01,2.810000000000000000e+02,1.140000000000000000e+02,1.140000000000000000e+02,5.500000000000000000e+01,8.900000000000000000e+01,2.400000000000000000e+01,5.100000000000000089e-01,8.188740200000000000e+09
2.600000000000000000e+01,8.900000000000000000e+01,3.070000000000000000e+02,1.090000000000000000e+02,1.100000000000000000e+02,5.700000000000000000e+01,7.100000000000000000e+01,2.300000000000000000e+01,5.100000000000000089e-01,8.207590400000000000e+09
2.500000000000000000e+01,9.500000000000000000e+01,3.020000000000000000e+02,1.120000000000000000e+02,1.160000000000000000e+02,5.900000000000000000e+01,6.400000000000000000e+01,2.400000000000000000e+01,5.000000000000000000e-01,8.225581900000000000e+09
2.600000000000000000e+01,9.400000000000000000e+01,3.030000000000000000e+02,1.030000000000000000e+02,1.090000000000000000e+02,5.800000000000000000e+01,5.300000000000000000e+01,2.400000000000000000e+01,5.000000000000000000e-01,8.245961200000000000e+09
2.500000000000000000e+01,8.300000000000000000e+01,2.900000000000000000e+02,9.300000000000000000e+01,9.700000000000000000e+01,5.300000000000000000e+01,5.100000000000000000e+01,2.400000000000000000e+01,5.000000000000000000e-01,8.264602600000000000e+09
2.600000000000000000e+01,8.200000000000000000e+01,2.670000000000000000e+02,6.700000000000000000e+01,8.100000000000000000e+01,4.700000000000000000e+01,4.300000000000000000e+01,2.300000000000000000e+01,5.000000000000000000e-01,8.284526400000000000e+09
2.800000000000000000e+01,7.000000000000000000e+01,2.380000000000000000e+02,6.400000000000000000e+01,8.500000000000000000e+01,5.200000000000000000e+01,4.200000000000000000e+01,2.400000000000000000e+01,4.899999999999999911e-01,8.302582800000000000e+09
2.700000000000000000e+01,6.300000000000000000e+01,2.220000000000000000e+02,7.800000000000000000e+01,8.000000000000000000e+01,4.900000000000000000e+01,4.000000000000000000e+01,2.600000000000000000e+01,4.899999999999999911e-01,8.320884900000000000e+09
2.700000000000000000e+01,6.000000000000000000e+01,2.160000000000000000e+02,7.300000000000000000e+01,7.900000000000000000e+01,4.900000000000000000e+01,3.600000000000000000e+01,2.400000000000000000e+01,4.899999999999999911e-01,8.341439600000000000e+09
2.900000000000000000e+01,7.600000000000000000e+01,2.060000000000000000e+02,6.900000000000000000e+01,8.400000000000000000e+01,5.000000000000000000e+01,2.500000000000000000e+01,2.400000000000000000e+01,4.899999999999999911e-01,8.359864300000000000e+09
2.800000000000000000e+01,6.900000000000000000e+01,1.700000000000000000e+02,8.600000000000000000e+01,8.900000000000000000e+01,4.800000000000000000e+01,3.000000000000000000e+01,2.400000000000000000e+01,4.899999999999999911e-01,8.378168900000000000e+09
2.800000000000000000e+01,7.300000000000000000e+01,1.580000000000000000e+02,9.100000000000000000e+01,8.100000000000000000e+01,3.700000000000000000e+01,3.000000000000000000e+01,2.400000000000000000e+01,4.899999999999999911e-01,8.396138700000000000e+09
2.800000000000000000e+01,7.700000000000000000e+01,1.630000000000000000e+02,7.800000000000000000e+01,8.000000000000000000e+01,3.600000000000000000e+01,2.900000000000000000e+01,2.000000000000000000e+01,4.899999999999999911e-01,8.414911500000000000e+09
2.700000000000000000e+01,8.000000000000000000e+01,2.140000000000000000e+02,9.300000000000000000e+01,1.150000000000000000e+02,4.300000000000000000e+01,2.900000000000000000e+01,2.200000000000000000e+01,4.899999999999999911e-01,8.435757800000000000e+09
2.600000000000000000e+01,6.900000000000000000e+01,2.160000000000000000e+02,9.400000000000000000e+01,1.130000000000000000e+02,4.400000000000000000e+01,3.700000000000000000e+01,2.400000000000000000e+01,4.899999999999999911e-01,8.455208600000000000e+09
2.600000000000000000e+01,6.800000000000000000e+01,2.240000000000000000e+02,8.300000000000000000e+01,1.100000000000000000e+02,4.300000000000000000e+01,3.300000000000000000e+01,2.300000000000000000e+01,4.899999999999999911e-01,8.474034600000000000e+09
2.400000000000000000e+01,6.400000000000000000e+01,2.630000000000000000e+02,1.000000000000000000e+02,1.110000000000000000e+02,4.400000000000000000e+01,3.500000000000000000e+01,2.300000000000000000e+01,4.899999999999999911e-01,8.491892600000000000e+09
2.300000000000000000e+01,6.100000000000000000e+01,2.740000000000000000e+02,1.000000000000000000e+02,1.190000000000000000e+02,4.500000000000000000e+01,3.600000000000000000e+01,2.500000000000000000e+01,5.000000000000000000e-01,8.509593900000000000e+09
2.400000000000000000e+01,5.900000000000000000e+01,2.360000000000000000e+02,9.100000000000000000e+01,9.400000000000000000e+01,3.600000000000000000e+01,3.500000000000000000e+01,2.500000000000000000e+01,5.000000000000000000e-01,8.529617500000000000e+09
2.000000000000000000e+01,5.900000000000000000e+01,2.450000000000000000e+02,9.300000000000000000e+01,8.700000000000000000e+01,3.200000000000000000e+01,3.000000000000000000e+01,2.100000000000000000e+01,5.000000000000000000e-01,8.549574700000000000e+09
2.000000000000000000e+01,6.200000000000000000e+01,2.270000000000000000e+02,8.900000000000000000e+01,8.700000000000000000e+01,3.800000000000000000e+01,2.900000000000000000e+01,2.400000000000000000e+01,5.000000000000000000e-01,8.569491700000000000e+09
2.000000000000000000e+01,6.200000000000000000e+01,1.910000000000000000e+02,6.300000000000000000e+01,9.700000000000000000e+01,3.700000000000000000e+01,3.000000000000000000e+01,2.500000000000000000e+01,5.000000000000000000e-01,8.587452500000000000e+09
2.100000000000000000e+01,7.400000000000000000e+01,1.740000000000000000e+02,6.200000000000000000e+01,9.900000000000000000e+01,3.400000000000000000e+01,3.200000000000000000e+01,2.400000000000000000e+01,4.899999999999999911e-01,8.604764900000000000e+09
1.900000000000000000e+01,7.100000000000000000e+01,1.670000000000000000e+02,6.000000000000000000e+01,9.200000000000000000e+01,3.400000000000000000e+01,3.700000000000000000e+01,2.400000000000000000e+01,4.899999999999999911e-01,8.623800500000000000e+09
2.200000000000000000e+01,7.100000000000000000e+01,1.530000000000000000e+02,7.000000000000000000e+01,9.500000000000000000e+01,4.000000000000000000e+01,3.700000000000000000e+01,2.600000000000000000e+01,4.899999999999999911e-01,8.644303100000000000e+09
2.300000000000000000e+01,8.700000000000000000e+01,1.550000000000000000e+02,7.200000000000000000e+01,1.070000000000000000e+02,3.900000000000000000e+01,3.900000000000000000e+01,2.500000000000000000e+01,4.899999999999999911e-01,8.664370700000000000e+09
2.400000000000000000e+01,8.800000000000000000e+01,1.540000000000000000e+02,7.500000000000000000e+01,1.000000000000000000e+02,4.200000000000000000e+01,3.700000000000000000e+01,2.500000000000000000e+01,4.899999999999999911e-01,8.682089000000000000e+09
2.300000000000000000e+01,8.200000000000000000e+01,1.510000000000000000e+02,9.900000000000000000e+01,9.100000000000000000e+01,4.500000000000000000e+01,3.700000000000000000e+01,2.600000000000000000e+01,4.899999999999999911e-01,8.713783400000000000e+09
2.600000000000000000e+01,8.400000000000000000e+01,1.720000000000000000e+02,1.050000000000000000e+02,9.500000000000000000e+01,5.200000000000000000e+01,4.700000000000000000e+01,2.900000000000000000e+01,4.899999999999999911e-01,8.732699000000000000e+09
2.400000000000000000e+01,8.200000000000000000e+01,1.800000000000000000e+02,9.900000000000000000e+01,8.900000000000000000e+01,4.800000000000000000e+01,4.700000000000000000e+01,2.800000000000000000e+01,4.899999999999999911e-01,8.753332100000000000e+09
2.300000000000000000e+01,6.500000000000000000e+01,1.750000000000000000e+02,1.030000000000000000e+02,8.300000000000000000e+01,4.300000000000000000e+01,4.400000000000000000e+01,2.600000000000000000e+01,4.899999999999999911e-01,8.771751300000000000e+09
2.300000000000000000e+01,6.600000000000000000e+01,1.600000000000000000e+02,1.090000000000000000e+02,8.200000000000000000e+01,4.100000000000000000e+01,4.400000000000000000e+01,2.800000000000000000e+01,5.000000000000000000e-01,8.790065300000000000e+09
2.600000000000000000e+01,8.200000000000000000e+01,1.780000000000000000e+02,9.600000000000000000e+01,8.100000000000000000e+01,3.900000000000000000e+01,4.200000000000000000e+01,2.700000000000000000e+01,5.000000000000000000e-01,8.808006700000000000e+09
2.500000000000000000e+01,9.600000000000000000e+01,2.220000000000000000e+02,9.600000000000000000e+01,7.600000000000000000e+01,3.300000000000000000e+01,3.000000000000000000e+01,2.600000000000000000e+01,5.000000000000000000e-01,8.828746900000000000e+09
2.900000000000000000e+01,9.700000000000000000e+01,2.160000000000000000e+02,9.500000000000000000e+01,8.600000000000000000e+01,3.800000000000000000e+01,3.800000000000000000e+01,2.700000000000000000e+01,5.100000000000000089e-01,8.849527500000000000e+09
2.900000000000000000e+01,1.040000000000000000e+02,2.140000000000000000e+02,8.800000000000000000e+01,9.100000000000000000e+01,4.000000000000000000e+01,4.000000000000000000e+01,2.800000000000000000e+01,5.100000000000000089e-01,8.869505200000000000e+09
3.100000000000000000e+01,1.010000000000000000e+02,2.080000000000000000e+02,7.800000000000000000e+01,9.300000000000000000e+01,4.000000000000000000e+01,3.900000000000000000e+01,2.800000000000000000e+01,5.100000000000000089e-01,8.890115000000000000e+09
2.800000000000000000e+01,9.000000000000000000e+01,2.100000000000000000e+02,7.100000000000000000e+01,9.000000000000000000e+01,4.300000000000000000e+01,4.100000000000000000e+01,2.700000000000000000e+01,5.100000000000000089e-01,8.908590200000000000e+09
2.900000000000000000e+01,7.800000000000000000e+01,1.900000000000000000e+02,6.200000000000000000e+01,9.600000000000000000e+01,4.300000000000000000e+01,4.100000000000000000e+01,2.500000000000000000e+01,5.100000000000000089e-01,8.927886800000000000e+09
2.500000000000000000e+01,7.400000000000000000e+01,2.150000000000000000e+02,7.400000000000000000e+01,9.600000000000000000e+01,4.100000000000000000e+01,3.900000000000000000e+01,2.400000000000000000e+01,5.100000000000000089e-01,8.947441700000000000e+09
2.700000000000000000e+01,6.100000000000000000e+01,2.180000000000000000e+02,8.500000000000000000e+01,9.200000000000000000e+01,4.100000000000000000e+01,5.000000000000000000e+01,2.500000000000000000e+01,5.100000000000000089e-01,8.967216700000000000e+09
2.500000000000000000e+01,5.900000000000000000e+01,2.250000000000000000e+02,9.100000000000000000e+01,9.200000000000000000e+01,4.400000000000000000e+01,5.100000000000000000e+01,2.600000000000000000e+01,5.100000000000000089e-01,8.984913500000000000e+09
2.500000000000000000e+01,5.100000000000000000e+01,2.120000000000000000e+02,8.900000000000000000e+01,8.900000000000000000e+01,4.200000000000000000e+01,5.100000000000000000e+01,2.500000000000000000e+01,5.100000000000000089e-01,9.003698600000000000e+09
2.200000000000000000e+01,5.000000000000000000e+01,1.920000000000000000e+02,9.700000000000000000e+01,9.500000000000000000e+01,4.400000000000000000e+01,5.100000000000000000e+01,2.400000000000000000e+01,5.100000000000000089e-01,9.023868400000000000e+09
2.500000000000000000e+01,5.600000000000000000e+01,1.690000000000000000e+02,8.600000000000000000e+01,9.900000000000000000e+01,4.500000000000000000e+01,4.700000000000000000e+01,2.400000000000000000e+01,5.100000000000000089e-01,9.044349300000000000e+09
2.300000000000000000e+01,5.800000000000000000e+01,1.750000000000000000e+02,7.600000000000000000e+01,9.400000000000000000e+01,4.900000000000000000e+01,4.400000000000000000e+01,2.200000000000000000e+01,5.100000000000000089e-01,9.064124400000000000e+09
2.400000000000000000e+01,5.800000000000000000e+01,1.860000000000000000e+02,7.300000000000000000e+01,8.800000000000000000e+01,4.600000000000000000e+01,2.170000000000000000e+02,2.100000000000000000e+01,5.000000000000000000e-01,9.083089100000000000e+09
2.400000000000000000e+01,5.700000000000000000e+01,1.860000000000000000e+02,7.600000000000000000e+01,9.400000000000000000e+01,5.000000000000000000e+01,2.450000000000000000e+02,2.300000000000000000e+01,5.000000000000000000e-01,9.101754200000000000e+09
2.400000000000000000e+01,5.100000000000000000e+01,1.630000000000000000e+02,5.900000000000000000e+01,8.200000000000000000e+01,4.200000000000000000e+01,2.480000000000000000e+02,2.200000000000000000e+01,5.000000000000000000e-01,9.119812900000000000e+09
2.400000000000000000e+01,5.900000000000000000e+01,1.560000000000000000e+02,7.500000000000000000e+01,7.100000000000000000e+01,4.600000000000000000e+01,2.510000000000000000e+02,2.200000000000000000e+01,5.000000000000000000e-01,9.141477700000000000e+09
2.300000000000000000e+01,6.200000000000000000e+01,1.630000000000000000e+02,8.500000000000000000e+01,6.600000000000000000e+01,4.600000000000000000e+01,2.510000000000000000e+02,2.500000000000000000e+01,5.000000000000000000e-01,9.162968400000000000e+09
2.400000000000000000e+01,6.400000000000000000e+01,1.470000000000000000e+02,9.000000000000000000e+01,9.200000000000000000e+01,5.100000000000000000e+01,1.370000000000000000e+02,2.500000000000000000e+01,5.000000000000000000e-01,9.180457500000000000e+09
2.300000000000000000e+01,6.200000000000000000e+01,1.320000000000000000e+02,9.200000000000000000e+01,8.800000000000000000e+01,4.900000000000000000e+01,7.500000000000000000e+01,2.500000000000000000e+01,5.000000000000000000e-01,9.198931100000000000e+09
2.400000000000000000e+01,6.600000000000000000e+01,1.440000000000000000e+02,9.600000000000000000e+01,9.100000000000000000e+01,5.700000000000000000e+01,6.300000000000000000e+01,2.500000000000000000e+01,5.000000000000000000e-01,9.216995800000000000e+09
2.300000000000000000e+01,5.500000000000000000e+01,1.380000000000000000e+02,9.100000000000000000e+01,9.800000000000000000e+01,5.600000000000000000e+01,5.500000000000000000e+01,2.700000000000000000e+01,5.000000000000000000e-01,9.238930600000000000e+09
2.400000000000000000e+01,5.400000000000000000e+01,1.260000000000000000e+02,8.900000000000000000e+01,1.010000000000000000e+02,5.400000000000000000e+01,4.700000000000000000e+01,2.400000000000000000e+01,5.000000000000000000e-01,9.258022700000000000e+09
2.300000000000000000e+01,5.800000000000000000e+01,1.380000000000000000e+02,8.300000000000000000e+01,8.800000000000000000e+01,5.100000000000000000e+01,3.600000000000000000e+01,2.500000000000000000e+01,5.000000000000000000e-01,9.276658800000000000e+09
2.500000000000000000e+01,6.900000000000000000e+01,1.740000000000000000e+02,7.500000000000000000e+01,8.800000000000000000e+01,5.000000000000000000e+01,3.600000000000000000e+01,2.700000000000000000e+01,5.100000000000000089e-01,9.295575600000000000e+09
2.400000000000000000e+01,6.800000000000000000e+01,1.660000000000000000e+02,8.000000000000000000e+01,9.400000000000000000e+01,4.200000000000000000e+01,3.400000000000000000e+01,2.800000000000000000e+01,5.100000000000000089e-01,9.314349400000000000e+09
2.300000000000000000e+01,6.700000000000000000e+01,1.680000000000000000e+02,8.200000000000000000e+01,9.100000000000000000e+01,3.700000000000000000e+01,3.400000000000000000e+01,2.600000000000000000e+01,5.100000000000000089e-01,9.334777900000000000e+09
2.400000000000000000e+01,6.100000000000000000e+01,1.570000000000000000e+02,7.200000000000000000e+01,9.200000000000000000e+01,3.800000000000000000e+01,3.000000000000000000e+01,2.800000000000000000e+01,5.100000000000000089e-01,9.352776700000000000e+09
2.500000000000000000e+01,5.500000000000000000e+01,1.480000000000000000e+02,7.000000000000000000e+01,8.700000000000000000e+01,3.500000000000000000e+01,3.000000000000000000e+01,2.700000000000000000e+01,5.000000000000000000e-01,9.372313500000000000e+09
2.400000000000000000e+01,4.500000000000000000e+01,1.340000000000000000e+02,8.300000000000000000e+01,9.000000000000000000e+01,3.600000000000000000e+01,3.500000000000000000e+01,2.500000000000000000e+01,5.000000000000000000e-01,9.390604600000000000e+09
2.500000000000000000e+01,4.500000000000000000e+01,1.620000000000000000e+02,7.900000000000000000e+01,8.000000000000000000e+01,3.400000000000000000e+01,3.500000000000000000e+01,2.500000000000000000e+01,5.000000000000000000e-01,9.409257100000000000e+09
2.500000000000000000e+01,4.800000000000000000e+01,1.730000000000000000e+02,7.000000000000000000e+01,8.700000000000000000e+01,3.800000000000000000e+01,3.700000000000000000e+01,2.700000000000000000e+01,5.000000000000000000e-01,9.428735600000000000e+09
2.400000000000000000e+01,4.800000000000000000e+01,1.770000000000000000e+02,7.900000000000000000e+01,7.900000000000000000e+01,3.600000000000000000e+01,3.800000000000000000e+01,2.500000000000000000e+01,5.000000000000000000e-01,9.449467800000000000e+09
2.400000000000000000e+01,5.800000000000000000e+01,1.850000000000000000e+02,7.900000000000000000e+01,7.700000000000000000e+01,3.800000000000000000e+01,4.000000000000000000e+01,2.500000000000000000e+01,5.000000000000000000e-01,9.468721500000000000e+09
2.400000000000000000e+01,6.500000000000000000e+01,1.820000000000000000e+02,6.500000000000000000e+01,8.500000000000000000e+01,4.800000000000000000e+01,3.800000000000000000e+01,3.100000000000000000e+01,5.000000000000000000e-01,9.487282100000000000e+09
2.400000000000000000e+01,7.900000000000000000e+01,1.710000000000000000e+02,6.500000000000000000e+01,9.900000000000000000e+01,5.400000000000000000e+01,3.800000000000000000e+01,3.000000000000000000e+01,5.000000000000000000e-01,9.505901200000000000e+09
2.900000000000000000e+01,8.500000000000000000e+01,2.090000000000000000e+02,7.000000000000000000e+01,9.500000000000000000e+01,5.300000000000000000e+01,3.700000000000000000e+01,3.000000000000000000e+01,4.899999999999999911e-01,9.526187500000000000e+09
2.800000000000000000e+01,8.600000000000000000e+01,2.200000000000000000e+02,6.600000000000000000e+01,9.600000000000000000e+01,5.100000000000000000e+01,3.900000000000000000e+01,3.000000000000000000e+01,4.899999999999999911e-01,9.547821900000000000e+09
2.600000000000000000e+01,8.000000000000000000e+01,2.080000000000000000e+02,6.900000000000000000e+01,9.500000000000000000e+01,5.000000000000000000e+01,3.400000000000000000e+01,2.900000000000000000e+01,4.899999999999999911e-01,9.567082500000000000e+09
2.700000000000000000e+01,7.700000000000000000e+01,2.200000000000000000e+02,7.500000000000000000e+01,8.900000000000000000e+01,4.100000000000000000e+01,3.200000000000000000e+01,2.300000000000000000e+01,4.899999999999999911e-01,9.585075200000000000e+09
2.800000000000000000e+01,6.200000000000000000e+01,2.110000000000000000e+02,7.400000000000000000e+01,8.000000000000000000e+01,3.400000000000000000e+01,3.200000000000000000e+01,2.400000000000000000e+01,4.899999999999999911e-01,9.603757300000000000e+09
2.400000000000000000e+01,6.600000000000000000e+01,1.700000000000000000e+02,7.300000000000000000e+01,6.900000000000000000e+01,3.700000000000000000e+01,3.100000000000000000e+01,2.300000000000000000e+01,4.899999999999999911e-01,9.621579600000000000e+09
2.500000000000000000e+01,7.100000000000000000e+01,1.570000000000000000e+02,7.300000000000000000e+01,7.300000000000000000e+01,4.000000000000000000e+01,2.900000000000000000e+01,2.400000000000000000e+01,4.899999999999999911e-01,9.643151800000000000e+09
2.600000000000000000e+01,8.100000000000000000e+01,1.750000000000000000e+02,7.600000000000000000e+01,7.700000000000000000e+01,3.800000000000000000e+01,3.400000000000000000e+01,2.400000000000000000e+01,4.899999999999999911e-01,9.664204100000000000e+09
2.500000000000000000e+01,7.700000000000000000e+01,1.510000000000000000e+02,7.400000000000000000e+01,7.300000000000000000e+01,4.000000000000000000e+01,3.700000000000000000e+01,2.400000000000000000e+01,4.899999999999999911e-01,9.683242500000000000e+09
2.200000000000000000e+01,8.100000000000000000e+01,1.760000000000000000e+02,6.900000000000000000e+01,6.500000000000000000e+01,4.000000000000000000e+01,3.600000000000000000e+01,2.300000000000000000e+01,4.899999999999999911e-01,9.701746600000000000e+09
2.000000000000000000e+01,8.100000000000000000e+01,1.880000000000000000e+02,6.700000000000000000e+01,7.200000000000000000e+01,4.300000000000000000e+01,3.500000000000000000e+01,2.200000000000000000e+01,4.899999999999999911e-01,9.721431300000000000e+09
2.100000000000000000e+01,8.600000000000000000e+01,2.180000000000000000e+02,9.600000000000000000e+01,7.100000000000000000e+01,4.000000000000000000e+01,4.000000000000000000e+01,2.200000000000000000e+01,5.000000000000000000e-01,9.745838200000000000e+09
2.100000000000000000e+01,8.000000000000000000e+01,2.130000000000000000e+02,9.800000000000000000e+01,7.000000000000000000e+01,4.400000000000000000e+01,3.500000000000000000e+01,2.400000000000000000e+01,5.000000000000000000e-01,9.764622900000000000e+09
2.000000000000000000e+01,8.300000000000000000e+01,2.110000000000000000e+02,1.040000000000000000e+02,6.600000000000000000e+01,4.400000000000000000e+01,3.400000000000000000e+01,2.100000000000000000e+01,5.100000000000000089e-01,9.784896700000000000e+09
2.300000000000000000e+01,8.900000000000000000e+01,2.000000000000000000e+02,1.050000000000000000e+02,6.700000000000000000e+01,4.300000000000000000e+01,3.900000000000000000e+01,2.100000000000000000e+01,5.100000000000000089e-01,9.805509500000000000e+09
2.400000000000000000e+01,8.600000000000000000e+01,1.860000000000000000e+02,1.110000000000000000e+02,6.900000000000000000e+01,3.600000000000000000e+01,3.900000000000000000e+01,2.100000000000000000e+01,5.200000000000000178e-01,9.825390800000000000e+09
2.200000000000000000e+01,7.900000000000000000e+01,1.720000000000000000e+02,8.200000000000000000e+01,6.600000000000000000e+01,3.500000000000000000e+01,3.500000000000000000e+01,1.900000000000000000e+01,5.200000000000000178e-01,9.846969900000000000e+09
2.200000000000000000e+01,8.200000000000000000e+01,1.760000000000000000e+02,7.700000000000000000e+01,6.700000000000000000e+01,4.100000000000000000e+01,4.100000000000000000e+01,2.100000000000000000e+01,5.200000000000000178e-01,9.866904700000000000e+09
2.300000000000000000e+01,8.400000000000000000e+01,1.910000000000000000e+02,8.400000000000000000e+01,7.800000000000000000e+01,4.500000000000000000e+01,3.900000000000000000e+01,2.400000000000000000e+01,5.300000000000000266e-01,9.885278300000000000e+09
2.200000000000000000e+01,7.000000000000000000e+01,1.840000000000000000e+02,8.700000000000000000e+01,9.900000000000000000e+01,5.000000000000000000e+01,3.600000000000000000e+01,2.500000000000000000e+01,5.300000000000000266e-01,9.903515300000000000e+09
2.300000000000000000e+01,6.600000000000000000e+01,1.880000000000000000e+02,7.600000000000000000e+01,9.800000000000000000e+01,5.100000000000000000e+01,3.600000000000000000e+01,2.800000000000000000e+01,5.300000000000000266e-01,9.922426300000000000e+09
2.500000000000000000e+01,7.100000000000000000e+01,1.710000000000000000e+02,7.600000000000000000e+01,1.090000000000000000e+02,5.700000000000000000e+01,3.400000000000000000e+01,3.000000000000000000e+01,5.300000000000000266e-01,9.943081400000000000e+09
2.600000000000000000e+01,6.900000000000000000e+01,1.610000000000000000e+02,8.800000000000000000e+01,1.120000000000000000e+02,5.200000000000000000e+01,3.100000000000000000e+01,2.800000000000000000e+01,5.300000000000000266e-01,9.962338100000000000e+09
2.600000000000000000e+01,6.300000000000000000e+01,1.370000000000000000e+02,8.000000000000000000e+01,1.240000000000000000e+02,4.800000000000000000e+01,3.200000000000000000e+01,2.700000000000000000e+01,5.300000000000000266e-01,9.980734400000000000e+09
2.500000000000000000e+01,6.600000000000000000e+01,1.350000000000000000e+02,7.700000000000000000e+01,1.150000000000000000e+02,4.600000000000000000e+01,3.100000000000000000e+01,2.600000000000000000e+01,5.200000000000000178e-01,9.998980300000000000e+09
2.600000000000000000e+01,6.800000000000000000e+01,1.320000000000000000e+02,8.300000000000000000e+01,1.110000000000000000e+02,4.600000000000000000e+01,3.100000000000000000e+01,2.500000000000000000e+01,5.200000000000000178e-01,1.001994460000000000e+10
2.600000000000000000e+01,6.000000000000000000e+01,1.360000000000000000e+02,8.900000000000000000e+01,9.800000000000000000e+01,4.000000000000000000e+01,3.900000000000000000e+01,2.400000000000000000e+01,5.200000000000000178e-01,1.004189320000000000e+10
2.700000000000000000e+01,5.800000000000000000e+01,1.600000000000000000e+02,8.000000000000000000e+01,9.500000000000000000e+01,3.800000000000000000e+01,4.300000000000000000e+01,2.400000000000000000e+01,5.100000000000000089e-01,1.006183360000000000e+10
2.600000000000000000e+01,5.800000000000000000e+01,1.890000000000000000e+02,8.000000000000000000e+01,8.600000000000000000e+01,4.700000000000000000e+01,1.980000000000000000e+02,2.300000000000000000e+01,5.100000000000000089e-01,1.008110240000000000e+10
2.700000000000000000e+01,5.700000000000000000e+01,2.010000000000000000e+02,8.300000000000000000e+01,7.700000000000000000e+01,4.900000000000000000e+01,2.590000000000000000e+02,2.400000000000000000e+01,5.100000000000000089e-01,1.009943300000000000e+10
2.500000000000000000e+01,5.100000000000000000e+01,1.970000000000000000e+02,7.600000000000000000e+01,7.600000000000000000e+01,4.800000000000000000e+01,2.610000000000000000e+02,2.200000000000000000e+01,5.100000000000000089e-01,1.011939980000000000e+10
2.800000000000000000e+01,6.400000000000000000e+01,2.070000000000000000e+02,7.600000000000000000e+01,8.400000000000000000e+01,5.300000000000000000e+01,2.650000000000000000e+02,2.800000000000000000e+01,5.100000000000000089e-01,1.014032350000000000e+10
