8.300000000000000000e+01,4.260000000000000000e+02,8.370000000000000000e+02,2.990000000000000000e+02,7.100000000000000000e+01,1.230000000000000000e+02,5.200000000000000000e+01,5.200000000000000000e+01,5.799999999999999600e-01,9.519568000000000000e+08
8.300000000000000000e+01,4.420000000000000000e+02,8.180000000000000000e+02,3.280000000000000000e+02,1.130000000000000000e+02,1.050000000000000000e+02,5.400000000000000000e+01,4.900000000000000000e+01,5.600000000000000533e-01,9.804211000000000000e+08
8.300000000000000000e+01,4.190000000000000000e+02,8.730000000000000000e+02,3.330000000000000000e+02,1.850000000000000000e+02,1.360000000000000000e+02,5.600000000000000000e+01,4.900000000000000000e+01,5.300000000000000266e-01,1.286833300000000000e+09
9.000000000000000000e+01,4.530000000000000000e+02,8.840000000000000000e+02,3.450000000000000000e+02,2.100000000000000000e+02,1.370000000000000000e+02,5.800000000000000000e+01,5.300000000000000000e+01,5.100000000000000089e-01,1.303553200000000000e+09
9.400000000000000000e+01,4.400000000000000000e+02,8.080000000000000000e+02,3.540000000000000000e+02,2.510000000000000000e+02,1.490000000000000000e+02,5.600000000000000000e+01,5.600000000000000000e+01,4.799999999999999822e-01,1.320250400000000000e+09
8.700000000000000000e+01,3.850000000000000000e+02,7.420000000000000000e+02,3.310000000000000000e+02,2.650000000000000000e+02,1.380000000000000000e+02,5.400000000000000000e+01,5.600000000000000000e+01,4.400000000000000022e-01,1.338858800000000000e+09
8.200000000000000000e+01,3.640000000000000000e+02,7.530000000000000000e+02,2.960000000000000000e+02,2.670000000000000000e+02,1.450000000000000000e+02,5.200000000000000000e+01,5.500000000000000000e+01,4.099999999999999756e-01,1.356392900000000000e+09
7.800000000000000000e+01,3.550000000000000000e+02,7.020000000000000000e+02,2.420000000000000000e+02,2.290000000000000000e+02,1.260000000000000000e+02,4.900000000000000000e+01,5.000000000000000000e+01,3.800000000000000044e-01,1.373745700000000000e+09
6.500000000000000000e+01,3.080000000000000000e+02,6.230000000000000000e+02,2.170000000000000000e+02,2.080000000000000000e+02,1.160000000000000000e+02,4.300000000000000000e+01,5.100000000000000000e+01,3.499999999999999778e-01,1.390668200000000000e+09
6.900000000000000000e+01,2.660000000000000000e+02,7.320000000000000000e+02,1.780000000000000000e+02,1.530000000000000000e+02,1.000000000000000000e+02,4.000000000000000000e+01,1.280000000000000000e+02,3.200000000000000067e-01,1.407714600000000000e+09
8.300000000000000000e+01,2.410000000000000000e+02,6.920000000000000000e+02,1.560000000000000000e+02,1.250000000000000000e+02,9.800000000000000000e+01,4.800000000000000000e+01,3.440000000000000000e+02,2.999999999999999889e-01,1.424070100000000000e+09
1.020000000000000000e+02,1.750000000000000000e+02,6.550000000000000000e+02,1.430000000000000000e+02,8.300000000000000000e+01,9.800000000000000000e+01,9.600000000000000000e+01,4.410000000000000000e+02,2.899999999999999800e-01,1.440441400000000000e+09
1.240000000000000000e+02,1.480000000000000000e+02,6.150000000000000000e+02,1.190000000000000000e+02,5.200000000000000000e+01,1.050000000000000000e+02,9.600000000000000000e+01,5.050000000000000000e+02,2.800000000000000266e-01,1.457491200000000000e+09
1.270000000000000000e+02,1.360000000000000000e+02,6.400000000000000000e+02,1.180000000000000000e+02,4.700000000000000000e+01,1.390000000000000000e+02,1.010000000000000000e+02,5.570000000000000000e+02,2.800000000000000266e-01,1.474818300000000000e+09
1.220000000000000000e+02,1.250000000000000000e+02,5.010000000000000000e+02,1.030000000000000000e+02,4.500000000000000000e+01,1.430000000000000000e+02,1.020000000000000000e+02,5.780000000000000000e+02,2.800000000000000266e-01,1.491591200000000000e+09
1.110000000000000000e+02,1.310000000000000000e+02,5.220000000000000000e+02,7.200000000000000000e+01,3.900000000000000000e+01,1.500000000000000000e+02,1.040000000000000000e+02,5.120000000000000000e+02,2.899999999999999800e-01,1.508245000000000000e+09
1.050000000000000000e+02,2.070000000000000000e+02,5.340000000000000000e+02,1.020000000000000000e+02,4.100000000000000000e+01,1.450000000000000000e+02,9.900000000000000000e+01,4.770000000000000000e+02,2.999999999999999889e-01,1.524519100000000000e+09
8.400000000000000000e+01,2.150000000000000000e+02,4.710000000000000000e+02,9.700000000000000000e+01,4.300000000000000000e+01,1.720000000000000000e+02,1.020000000000000000e+02,4.930000000000000000e+02,3.099999999999999978e-01,1.542395200000000000e+09
8.800000000000000000e+01,2.160000000000000000e+02,4.270000000000000000e+02,9.700000000000000000e+01,4.400000000000000000e+01,1.690000000000000000e+02,1.020000000000000000e+02,4.810000000000000000e+02,3.200000000000000067e-01,1.560076600000000000e+09
8.700000000000000000e+01,2.140000000000000000e+02,4.410000000000000000e+02,9.900000000000000000e+01,4.500000000000000000e+01,1.740000000000000000e+02,1.070000000000000000e+02,5.130000000000000000e+02,3.300000000000000155e-01,1.578080800000000000e+09
1.010000000000000000e+02,2.330000000000000000e+02,4.260000000000000000e+02,1.340000000000000000e+02,5.100000000000000000e+01,1.760000000000000000e+02,1.130000000000000000e+02,4.920000000000000000e+02,3.300000000000000155e-01,1.594793900000000000e+09
8.900000000000000000e+01,1.670000000000000000e+02,4.290000000000000000e+02,1.350000000000000000e+02,5.100000000000000000e+01,1.870000000000000000e+02,8.900000000000000000e+01,4.850000000000000000e+02,3.400000000000000244e-01,1.611569000000000000e+09
8.500000000000000000e+01,1.600000000000000000e+02,4.440000000000000000e+02,1.420000000000000000e+02,5.200000000000000000e+01,1.760000000000000000e+02,9.300000000000000000e+01,4.780000000000000000e+02,3.400000000000000244e-01,1.628774900000000000e+09
9.800000000000000000e+01,1.690000000000000000e+02,4.450000000000000000e+02,1.370000000000000000e+02,5.300000000000000000e+01,1.890000000000000000e+02,1.200000000000000000e+02,4.620000000000000000e+02,3.400000000000000244e-01,1.645132000000000000e+09
1.000000000000000000e+02,1.810000000000000000e+02,4.740000000000000000e+02,1.390000000000000000e+02,5.300000000000000000e+01,2.130000000000000000e+02,1.150000000000000000e+02,4.760000000000000000e+02,3.400000000000000244e-01,1.661657600000000000e+09
9.000000000000000000e+01,1.730000000000000000e+02,4.780000000000000000e+02,1.250000000000000000e+02,4.900000000000000000e+01,2.100000000000000000e+02,1.050000000000000000e+02,4.770000000000000000e+02,3.499999999999999778e-01,1.679187100000000000e+09
9.200000000000000000e+01,1.810000000000000000e+02,4.410000000000000000e+02,1.030000000000000000e+02,4.500000000000000000e+01,2.150000000000000000e+02,1.060000000000000000e+02,4.730000000000000000e+02,3.499999999999999778e-01,1.696034700000000000e+09
9.200000000000000000e+01,1.770000000000000000e+02,4.370000000000000000e+02,9.400000000000000000e+01,4.300000000000000000e+01,2.330000000000000000e+02,1.450000000000000000e+02,4.570000000000000000e+02,3.499999999999999778e-01,1.712849700000000000e+09
7.900000000000000000e+01,1.750000000000000000e+02,4.270000000000000000e+02,9.400000000000000000e+01,3.900000000000000000e+01,2.310000000000000000e+02,1.620000000000000000e+02,4.760000000000000000e+02,3.499999999999999778e-01,1.729720800000000000e+09
7.600000000000000000e+01,1.850000000000000000e+02,3.950000000000000000e+02,1.260000000000000000e+02,4.400000000000000000e+01,2.120000000000000000e+02,1.670000000000000000e+02,3.940000000000000000e+02,3.499999999999999778e-01,1.747734600000000000e+09
7.300000000000000000e+01,1.660000000000000000e+02,3.540000000000000000e+02,1.210000000000000000e+02,3.900000000000000000e+01,2.120000000000000000e+02,1.690000000000000000e+02,3.910000000000000000e+02,3.599999999999999867e-01,1.766774800000000000e+09
7.500000000000000000e+01,1.530000000000000000e+02,4.150000000000000000e+02,1.300000000000000000e+02,4.000000000000000000e+01,1.940000000000000000e+02,1.670000000000000000e+02,3.570000000000000000e+02,3.599999999999999867e-01,1.784978600000000000e+09
8.000000000000000000e+01,1.520000000000000000e+02,4.310000000000000000e+02,1.340000000000000000e+02,3.700000000000000000e+01,1.550000000000000000e+02,1.300000000000000000e+02,3.240000000000000000e+02,3.599999999999999867e-01,1.803496300000000000e+09
7.200000000000000000e+01,1.450000000000000000e+02,4.740000000000000000e+02,1.370000000000000000e+02,4.000000000000000000e+01,1.160000000000000000e+02,7.600000000000000000e+01,2.610000000000000000e+02,3.699999999999999956e-01,1.821831000000000000e+09
7.200000000000000000e+01,1.500000000000000000e+02,5.280000000000000000e+02,1.190000000000000000e+02,3.600000000000000000e+01,9.300000000000000000e+01,6.200000000000000000e+01,2.410000000000000000e+02,3.800000000000000044e-01,1.838267700000000000e+09
7.300000000000000000e+01,1.360000000000000000e+02,5.580000000000000000e+02,1.160000000000000000e+02,3.600000000000000000e+01,8.200000000000000000e+01,5.600000000000000000e+01,2.270000000000000000e+02,3.900000000000000133e-01,1.855005100000000000e+09
6.500000000000000000e+01,1.240000000000000000e+02,5.390000000000000000e+02,1.060000000000000000e+02,3.300000000000000000e+01,7.800000000000000000e+01,5.100000000000000000e+01,2.160000000000000000e+02,4.000000000000000222e-01,1.871383100000000000e+09
4.900000000000000000e+01,1.310000000000000000e+02,5.650000000000000000e+02,1.050000000000000000e+02,3.400000000000000000e+01,5.400000000000000000e+01,4.600000000000000000e+01,1.390000000000000000e+02,4.099999999999999756e-01,1.889017600000000000e+09
4.900000000000000000e+01,1.300000000000000000e+02,5.700000000000000000e+02,1.040000000000000000e+02,3.200000000000000000e+01,7.000000000000000000e+01,5.900000000000000000e+01,1.280000000000000000e+02,4.199999999999999845e-01,1.906258200000000000e+09
5.700000000000000000e+01,1.000000000000000000e+02,5.180000000000000000e+02,1.070000000000000000e+02,3.400000000000000000e+01,8.700000000000000000e+01,6.300000000000000000e+01,1.450000000000000000e+02,4.299999999999999933e-01,1.923414800000000000e+09
5.400000000000000000e+01,9.800000000000000000e+01,4.890000000000000000e+02,9.500000000000000000e+01,3.100000000000000000e+01,9.000000000000000000e+01,6.300000000000000000e+01,1.460000000000000000e+02,4.500000000000000111e-01,1.942748300000000000e+09
5.500000000000000000e+01,1.150000000000000000e+02,5.360000000000000000e+02,1.040000000000000000e+02,3.400000000000000000e+01,8.800000000000000000e+01,6.300000000000000000e+01,1.480000000000000000e+02,4.600000000000000200e-01,1.961847400000000000e+09
5.600000000000000000e+01,1.060000000000000000e+02,6.090000000000000000e+02,1.040000000000000000e+02,3.600000000000000000e+01,1.040000000000000000e+02,6.500000000000000000e+01,1.540000000000000000e+02,4.699999999999999734e-01,1.979365900000000000e+09
5.600000000000000000e+01,1.050000000000000000e+02,6.200000000000000000e+02,1.060000000000000000e+02,3.600000000000000000e+01,1.140000000000000000e+02,8.100000000000000000e+01,1.740000000000000000e+02,4.799999999999999822e-01,1.996560000000000000e+09
6.000000000000000000e+01,1.370000000000000000e+02,6.830000000000000000e+02,1.270000000000000000e+02,4.600000000000000000e+01,1.030000000000000000e+02,7.800000000000000000e+01,1.740000000000000000e+02,4.899999999999999911e-01,2.013012300000000000e+09
6.000000000000000000e+01,1.480000000000000000e+02,6.830000000000000000e+02,1.350000000000000000e+02,4.800000000000000000e+01,1.010000000000000000e+02,7.700000000000000000e+01,1.730000000000000000e+02,4.899999999999999911e-01,2.029710200000000000e+09
6.500000000000000000e+01,1.470000000000000000e+02,6.740000000000000000e+02,1.300000000000000000e+02,4.900000000000000000e+01,1.010000000000000000e+02,8.100000000000000000e+01,1.960000000000000000e+02,5.000000000000000000e-01,2.045939900000000000e+09
6.500000000000000000e+01,1.500000000000000000e+02,6.340000000000000000e+02,1.510000000000000000e+02,5.100000000000000000e+01,9.100000000000000000e+01,8.500000000000000000e+01,1.900000000000000000e+02,5.000000000000000000e-01,2.063960000000000000e+09
6.500000000000000000e+01,1.490000000000000000e+02,6.040000000000000000e+02,1.520000000000000000e+02,5.100000000000000000e+01,5.700000000000000000e+01,5.500000000000000000e+01,1.580000000000000000e+02,5.100000000000000089e-01,2.081287000000000000e+09
5.000000000000000000e+01,1.320000000000000000e+02,5.240000000000000000e+02,1.210000000000000000e+02,3.900000000000000000e+01,5.400000000000000000e+01,5.800000000000000000e+01,1.460000000000000000e+02,5.100000000000000089e-01,2.099362000000000000e+09
5.300000000000000000e+01,1.500000000000000000e+02,5.340000000000000000e+02,1.190000000000000000e+02,4.100000000000000000e+01,7.700000000000000000e+01,7.600000000000000000e+01,1.460000000000000000e+02,5.100000000000000089e-01,2.117679200000000000e+09
4.800000000000000000e+01,1.490000000000000000e+02,5.080000000000000000e+02,1.150000000000000000e+02,3.700000000000000000e+01,8.600000000000000000e+01,7.200000000000000000e+01,1.260000000000000000e+02,5.200000000000000178e-01,2.135309000000000000e+09
4.400000000000000000e+01,1.450000000000000000e+02,4.570000000000000000e+02,8.800000000000000000e+01,3.200000000000000000e+01,7.800000000000000000e+01,6.600000000000000000e+01,1.190000000000000000e+02,5.200000000000000178e-01,2.155173200000000000e+09
5.000000000000000000e+01,1.490000000000000000e+02,4.750000000000000000e+02,8.900000000000000000e+01,3.300000000000000000e+01,7.800000000000000000e+01,6.400000000000000000e+01,1.200000000000000000e+02,5.200000000000000178e-01,2.178985400000000000e+09
5.400000000000000000e+01,1.340000000000000000e+02,4.550000000000000000e+02,9.400000000000000000e+01,3.300000000000000000e+01,8.200000000000000000e+01,6.300000000000000000e+01,1.150000000000000000e+02,5.300000000000000266e-01,2.200645200000000000e+09
4.900000000000000000e+01,1.060000000000000000e+02,4.550000000000000000e+02,8.600000000000000000e+01,2.900000000000000000e+01,7.600000000000000000e+01,3.800000000000000000e+01,1.100000000000000000e+02,5.300000000000000266e-01,2.219589400000000000e+09
4.900000000000000000e+01,9.200000000000000000e+01,4.210000000000000000e+02,8.700000000000000000e+01,2.900000000000000000e+01,6.700000000000000000e+01,3.600000000000000000e+01,1.200000000000000000e+02,5.400000000000000355e-01,2.240438700000000000e+09
5.400000000000000000e+01,1.230000000000000000e+02,4.880000000000000000e+02,1.140000000000000000e+02,3.600000000000000000e+01,7.000000000000000000e+01,3.500000000000000000e+01,1.290000000000000000e+02,5.400000000000000355e-01,2.259301400000000000e+09
4.600000000000000000e+01,1.250000000000000000e+02,4.660000000000000000e+02,1.090000000000000000e+02,3.500000000000000000e+01,7.100000000000000000e+01,3.400000000000000000e+01,1.240000000000000000e+02,5.500000000000000444e-01,2.278783700000000000e+09
4.600000000000000000e+01,1.240000000000000000e+02,5.790000000000000000e+02,1.390000000000000000e+02,3.700000000000000000e+01,6.600000000000000000e+01,2.900000000000000000e+01,1.340000000000000000e+02,5.600000000000000533e-01,2.297932900000000000e+09
4.600000000000000000e+01,1.220000000000000000e+02,5.770000000000000000e+02,1.420000000000000000e+02,3.700000000000000000e+01,4.600000000000000000e+01,3.000000000000000000e+01,1.290000000000000000e+02,5.600000000000000533e-01,2.315767100000000000e+09
4.500000000000000000e+01,1.300000000000000000e+02,7.120000000000000000e+02,1.480000000000000000e+02,4.100000000000000000e+01,4.200000000000000000e+01,3.000000000000000000e+01,1.080000000000000000e+02,5.600000000000000533e-01,2.333328400000000000e+09
4.200000000000000000e+01,1.110000000000000000e+02,7.410000000000000000e+02,1.340000000000000000e+02,3.700000000000000000e+01,6.300000000000000000e+01,3.200000000000000000e+01,9.700000000000000000e+01,5.699999999999999512e-01,2.351420200000000000e+09
5.000000000000000000e+01,1.500000000000000000e+02,7.730000000000000000e+02,1.540000000000000000e+02,4.400000000000000000e+01,6.400000000000000000e+01,3.200000000000000000e+01,9.500000000000000000e+01,5.600000000000000533e-01,2.370278500000000000e+09
4.700000000000000000e+01,1.510000000000000000e+02,6.830000000000000000e+02,1.270000000000000000e+02,4.100000000000000000e+01,6.400000000000000000e+01,3.100000000000000000e+01,7.100000000000000000e+01,5.600000000000000533e-01,2.389028100000000000e+09
5.800000000000000000e+01,1.660000000000000000e+02,8.090000000000000000e+02,1.320000000000000000e+02,4.500000000000000000e+01,6.700000000000000000e+01,3.000000000000000000e+01,1.020000000000000000e+02,5.600000000000000533e-01,2.407328500000000000e+09
5.700000000000000000e+01,1.730000000000000000e+02,6.910000000000000000e+02,1.300000000000000000e+02,4.200000000000000000e+01,6.700000000000000000e+01,2.800000000000000000e+01,9.200000000000000000e+01,5.600000000000000533e-01,2.425715600000000000e+09
5.800000000000000000e+01,1.700000000000000000e+02,6.060000000000000000e+02,1.240000000000000000e+02,4.100000000000000000e+01,5.100000000000000000e+01,2.600000000000000000e+01,1.060000000000000000e+02,5.600000000000000533e-01,2.443866300000000000e+09
5.500000000000000000e+01,1.370000000000000000e+02,5.830000000000000000e+02,1.040000000000000000e+02,3.600000000000000000e+01,5.000000000000000000e+01,2.800000000000000000e+01,1.150000000000000000e+02,5.699999999999999512e-01,2.461611500000000000e+09
5.800000000000000000e+01,1.630000000000000000e+02,6.650000000000000000e+02,1.140000000000000000e+02,3.600000000000000000e+01,5.100000000000000000e+01,3.100000000000000000e+01,1.370000000000000000e+02,5.600000000000000533e-01,2.480867500000000000e+09
4.500000000000000000e+01,1.480000000000000000e+02,5.690000000000000000e+02,1.040000000000000000e+02,3.300000000000000000e+01,4.600000000000000000e+01,2.900000000000000000e+01,1.560000000000000000e+02,5.600000000000000533e-01,2.499252100000000000e+09
4.600000000000000000e+01,1.400000000000000000e+02,5.520000000000000000e+02,9.800000000000000000e+01,3.400000000000000000e+01,5.100000000000000000e+01,2.900000000000000000e+01,1.590000000000000000e+02,5.600000000000000533e-01,2.518073300000000000e+09
5.300000000000000000e+01,1.540000000000000000e+02,5.890000000000000000e+02,1.190000000000000000e+02,3.800000000000000000e+01,4.100000000000000000e+01,3.000000000000000000e+01,1.470000000000000000e+02,5.600000000000000533e-01,2.536511700000000000e+09
4.900000000000000000e+01,1.720000000000000000e+02,5.580000000000000000e+02,1.170000000000000000e+02,3.800000000000000000e+01,5.500000000000000000e+01,2.900000000000000000e+01,1.540000000000000000e+02,5.600000000000000533e-01,2.555106700000000000e+09
4.500000000000000000e+01,1.480000000000000000e+02,4.560000000000000000e+02,1.000000000000000000e+02,3.600000000000000000e+01,5.500000000000000000e+01,2.600000000000000000e+01,1.450000000000000000e+02,5.600000000000000533e-01,2.572624000000000000e+09
4.600000000000000000e+01,1.490000000000000000e+02,3.490000000000000000e+02,9.600000000000000000e+01,3.300000000000000000e+01,5.600000000000000000e+01,2.800000000000000000e+01,1.250000000000000000e+02,5.699999999999999512e-01,2.590588300000000000e+09
4.700000000000000000e+01,1.630000000000000000e+02,3.730000000000000000e+02,9.900000000000000000e+01,3.500000000000000000e+01,5.200000000000000000e+01,2.800000000000000000e+01,1.270000000000000000e+02,5.699999999999999512e-01,2.608092900000000000e+09
3.700000000000000000e+01,1.570000000000000000e+02,4.340000000000000000e+02,8.600000000000000000e+01,3.200000000000000000e+01,5.100000000000000000e+01,2.800000000000000000e+01,1.290000000000000000e+02,5.699999999999999512e-01,2.626106100000000000e+09
4.100000000000000000e+01,1.350000000000000000e+02,4.410000000000000000e+02,7.900000000000000000e+01,3.200000000000000000e+01,3.800000000000000000e+01,3.000000000000000000e+01,1.260000000000000000e+02,5.699999999999999512e-01,2.646911700000000000e+09
4.700000000000000000e+01,1.420000000000000000e+02,4.490000000000000000e+02,1.050000000000000000e+02,4.100000000000000000e+01,4.200000000000000000e+01,3.000000000000000000e+01,1.360000000000000000e+02,5.699999999999999512e-01,2.665719200000000000e+09
4.800000000000000000e+01,1.440000000000000000e+02,4.780000000000000000e+02,1.160000000000000000e+02,6.400000000000000000e+01,4.600000000000000000e+01,3.000000000000000000e+01,1.330000000000000000e+02,5.699999999999999512e-01,2.683478800000000000e+09
5.200000000000000000e+01,1.390000000000000000e+02,5.410000000000000000e+02,1.250000000000000000e+02,8.200000000000000000e+01,5.100000000000000000e+01,3.400000000000000000e+01,1.430000000000000000e+02,5.699999999999999512e-01,2.701153500000000000e+09
5.500000000000000000e+01,1.310000000000000000e+02,5.970000000000000000e+02,1.300000000000000000e+02,1.200000000000000000e+02,5.100000000000000000e+01,3.600000000000000000e+01,1.490000000000000000e+02,5.600000000000000533e-01,2.719392900000000000e+09
5.500000000000000000e+01,1.340000000000000000e+02,6.120000000000000000e+02,1.450000000000000000e+02,1.370000000000000000e+02,5.500000000000000000e+01,3.400000000000000000e+01,1.400000000000000000e+02,5.600000000000000533e-01,2.737201000000000000e+09
6.200000000000000000e+01,1.890000000000000000e+02,8.130000000000000000e+02,1.710000000000000000e+02,1.910000000000000000e+02,6.100000000000000000e+01,3.900000000000000000e+01,1.250000000000000000e+02,5.400000000000000355e-01,2.756118300000000000e+09
6.700000000000000000e+01,2.220000000000000000e+02,9.290000000000000000e+02,2.100000000000000000e+02,2.150000000000000000e+02,6.100000000000000000e+01,3.900000000000000000e+01,1.080000000000000000e+02,5.200000000000000178e-01,2.774193700000000000e+09
8.000000000000000000e+01,2.480000000000000000e+02,1.080000000000000000e+03,2.490000000000000000e+02,2.150000000000000000e+02,7.000000000000000000e+01,3.900000000000000000e+01,9.500000000000000000e+01,5.000000000000000000e-01,2.792299800000000000e+09
1.160000000000000000e+02,2.890000000000000000e+02,1.090000000000000000e+03,3.880000000000000000e+02,2.150000000000000000e+02,8.700000000000000000e+01,4.400000000000000000e+01,9.300000000000000000e+01,4.699999999999999734e-01,2.810417700000000000e+09
1.240000000000000000e+02,3.050000000000000000e+02,1.116000000000000000e+03,4.160000000000000000e+02,2.140000000000000000e+02,8.500000000000000000e+01,4.600000000000000000e+01,9.000000000000000000e+01,4.500000000000000111e-01,2.828137600000000000e+09
1.220000000000000000e+02,2.860000000000000000e+02,1.079000000000000000e+03,4.970000000000000000e+02,1.730000000000000000e+02,8.200000000000000000e+01,4.400000000000000000e+01,8.300000000000000000e+01,4.299999999999999933e-01,2.845752200000000000e+09
1.340000000000000000e+02,3.280000000000000000e+02,1.039000000000000000e+03,5.850000000000000000e+02,1.840000000000000000e+02,9.700000000000000000e+01,5.400000000000000000e+01,8.800000000000000000e+01,4.000000000000000222e-01,2.864103700000000000e+09
1.600000000000000000e+02,4.040000000000000000e+02,9.520000000000000000e+02,6.640000000000000000e+02,2.090000000000000000e+02,1.050000000000000000e+02,5.900000000000000000e+01,9.200000000000000000e+01,3.699999999999999956e-01,2.882601500000000000e+09
1.520000000000000000e+02,4.570000000000000000e+02,9.420000000000000000e+02,6.630000000000000000e+02,2.050000000000000000e+02,1.070000000000000000e+02,6.100000000000000000e+01,8.900000000000000000e+01,3.499999999999999778e-01,2.901428000000000000e+09
1.570000000000000000e+02,4.950000000000000000e+02,1.072000000000000000e+03,6.940000000000000000e+02,2.150000000000000000e+02,1.260000000000000000e+02,6.300000000000000000e+01,9.100000000000000000e+01,3.200000000000000067e-01,2.919634800000000000e+09
1.770000000000000000e+02,5.430000000000000000e+02,1.121000000000000000e+03,6.780000000000000000e+02,2.220000000000000000e+02,1.330000000000000000e+02,6.900000000000000000e+01,1.060000000000000000e+02,2.999999999999999889e-01,2.937160300000000000e+09
1.720000000000000000e+02,5.120000000000000000e+02,1.109000000000000000e+03,6.170000000000000000e+02,1.960000000000000000e+02,1.250000000000000000e+02,6.300000000000000000e+01,1.020000000000000000e+02,2.700000000000000178e-01,2.955251300000000000e+09
1.630000000000000000e+02,4.480000000000000000e+02,1.144000000000000000e+03,5.370000000000000000e+02,1.790000000000000000e+02,1.280000000000000000e+02,6.300000000000000000e+01,9.900000000000000000e+01,2.600000000000000089e-01,2.974431200000000000e+09
1.810000000000000000e+02,4.390000000000000000e+02,1.202000000000000000e+03,5.870000000000000000e+02,2.040000000000000000e+02,1.340000000000000000e+02,6.600000000000000000e+01,1.050000000000000000e+02,2.399999999999999911e-01,2.992774100000000000e+09
1.910000000000000000e+02,4.590000000000000000e+02,1.123000000000000000e+03,5.650000000000000000e+02,1.940000000000000000e+02,1.280000000000000000e+02,6.800000000000000000e+01,1.090000000000000000e+02,2.300000000000000100e-01,3.011335700000000000e+09
1.900000000000000000e+02,4.400000000000000000e+02,1.044000000000000000e+03,5.430000000000000000e+02,2.040000000000000000e+02,1.260000000000000000e+02,6.900000000000000000e+01,1.030000000000000000e+02,2.200000000000000011e-01,3.031461900000000000e+09
1.990000000000000000e+02,4.500000000000000000e+02,1.063000000000000000e+03,5.570000000000000000e+02,2.000000000000000000e+02,1.300000000000000000e+02,7.000000000000000000e+01,1.050000000000000000e+02,2.099999999999999922e-01,3.049696100000000000e+09
1.950000000000000000e+02,4.610000000000000000e+02,9.720000000000000000e+02,5.780000000000000000e+02,2.080000000000000000e+02,1.360000000000000000e+02,6.800000000000000000e+01,1.050000000000000000e+02,2.000000000000000111e-01,3.067832500000000000e+09
1.740000000000000000e+02,4.220000000000000000e+02,9.270000000000000000e+02,4.930000000000000000e+02,1.880000000000000000e+02,1.270000000000000000e+02,6.400000000000000000e+01,9.500000000000000000e+01,1.900000000000000022e-01,3.086060400000000000e+09
1.780000000000000000e+02,4.060000000000000000e+02,9.000000000000000000e+02,5.190000000000000000e+02,1.990000000000000000e+02,1.260000000000000000e+02,6.700000000000000000e+01,1.000000000000000000e+02,1.799999999999999933e-01,3.104723700000000000e+09
1.680000000000000000e+02,3.850000000000000000e+02,8.790000000000000000e+02,5.280000000000000000e+02,1.960000000000000000e+02,1.370000000000000000e+02,6.500000000000000000e+01,9.700000000000000000e+01,1.799999999999999933e-01,3.122526600000000000e+09
1.600000000000000000e+02,3.860000000000000000e+02,8.470000000000000000e+02,5.280000000000000000e+02,1.990000000000000000e+02,1.410000000000000000e+02,6.500000000000000000e+01,9.900000000000000000e+01,1.700000000000000122e-01,3.140407100000000000e+09
1.510000000000000000e+02,4.170000000000000000e+02,8.920000000000000000e+02,5.520000000000000000e+02,1.870000000000000000e+02,1.250000000000000000e+02,6.400000000000000000e+01,9.400000000000000000e+01,1.700000000000000122e-01,3.159526500000000000e+09
1.450000000000000000e+02,3.970000000000000000e+02,9.670000000000000000e+02,5.100000000000000000e+02,1.720000000000000000e+02,1.190000000000000000e+02,5.900000000000000000e+01,8.800000000000000000e+01,1.700000000000000122e-01,3.178739900000000000e+09
1.190000000000000000e+02,3.610000000000000000e+02,1.042000000000000000e+03,5.020000000000000000e+02,1.670000000000000000e+02,1.090000000000000000e+02,5.000000000000000000e+01,7.400000000000000000e+01,1.600000000000000033e-01,3.196483700000000000e+09
1.130000000000000000e+02,3.610000000000000000e+02,1.036000000000000000e+03,4.980000000000000000e+02,1.520000000000000000e+02,9.900000000000000000e+01,4.300000000000000000e+01,6.800000000000000000e+01,1.600000000000000033e-01,3.214452300000000000e+09
1.060000000000000000e+02,3.740000000000000000e+02,1.093000000000000000e+03,5.150000000000000000e+02,1.480000000000000000e+02,9.200000000000000000e+01,4.200000000000000000e+01,6.100000000000000000e+01,1.600000000000000033e-01,3.233252500000000000e+09
1.110000000000000000e+02,3.650000000000000000e+02,1.099000000000000000e+03,4.540000000000000000e+02,1.370000000000000000e+02,8.500000000000000000e+01,4.200000000000000000e+01,6.000000000000000000e+01,1.600000000000000033e-01,3.252185400000000000e+09
1.400000000000000000e+02,4.130000000000000000e+02,1.017000000000000000e+03,4.980000000000000000e+02,1.520000000000000000e+02,9.700000000000000000e+01,5.200000000000000000e+01,7.800000000000000000e+01,1.600000000000000033e-01,3.269351800000000000e+09
1.380000000000000000e+02,4.200000000000000000e+02,9.400000000000000000e+02,4.660000000000000000e+02,1.370000000000000000e+02,9.500000000000000000e+01,5.000000000000000000e+01,7.500000000000000000e+01,1.600000000000000033e-01,3.286905600000000000e+09
1.500000000000000000e+02,4.000000000000000000e+02,9.380000000000000000e+02,4.670000000000000000e+02,1.610000000000000000e+02,1.020000000000000000e+02,5.400000000000000000e+01,8.400000000000000000e+01,1.700000000000000122e-01,3.306548300000000000e+09
1.500000000000000000e+02,4.060000000000000000e+02,8.770000000000000000e+02,4.130000000000000000e+02,1.560000000000000000e+02,1.020000000000000000e+02,5.300000000000000000e+01,8.300000000000000000e+01,1.700000000000000122e-01,3.324126100000000000e+09
1.440000000000000000e+02,3.940000000000000000e+02,8.910000000000000000e+02,4.270000000000000000e+02,1.530000000000000000e+02,1.030000000000000000e+02,5.000000000000000000e+01,8.000000000000000000e+01,1.700000000000000122e-01,3.342191700000000000e+09
1.100000000000000000e+02,3.780000000000000000e+02,9.250000000000000000e+02,3.840000000000000000e+02,1.370000000000000000e+02,9.400000000000000000e+01,3.900000000000000000e+01,6.300000000000000000e+01,1.700000000000000122e-01,3.359257600000000000e+09
1.110000000000000000e+02,3.690000000000000000e+02,9.410000000000000000e+02,3.610000000000000000e+02,1.440000000000000000e+02,1.110000000000000000e+02,4.200000000000000000e+01,6.400000000000000000e+01,1.700000000000000122e-01,3.377003100000000000e+09
8.700000000000000000e+01,3.840000000000000000e+02,9.800000000000000000e+02,3.200000000000000000e+02,1.100000000000000000e+02,9.600000000000000000e+01,3.500000000000000000e+01,5.000000000000000000e+01,1.700000000000000122e-01,3.393960900000000000e+09
8.900000000000000000e+01,3.530000000000000000e+02,9.950000000000000000e+02,3.130000000000000000e+02,1.140000000000000000e+02,9.000000000000000000e+01,3.400000000000000000e+01,5.300000000000000000e+01,1.700000000000000122e-01,3.412082100000000000e+09
8.900000000000000000e+01,3.630000000000000000e+02,9.520000000000000000e+02,3.280000000000000000e+02,1.220000000000000000e+02,9.500000000000000000e+01,3.500000000000000000e+01,5.400000000000000000e+01,1.700000000000000122e-01,3.430130000000000000e+09
9.900000000000000000e+01,3.500000000000000000e+02,9.010000000000000000e+02,3.310000000000000000e+02,1.220000000000000000e+02,9.500000000000000000e+01,3.900000000000000000e+01,5.900000000000000000e+01,1.700000000000000122e-01,3.447702600000000000e+09
1.120000000000000000e+02,3.650000000000000000e+02,8.630000000000000000e+02,3.310000000000000000e+02,1.140000000000000000e+02,8.200000000000000000e+01,4.100000000000000000e+01,6.600000000000000000e+01,1.799999999999999933e-01,3.464769300000000000e+09
1.200000000000000000e+02,3.950000000000000000e+02,9.260000000000000000e+02,3.280000000000000000e+02,1.250000000000000000e+02,8.000000000000000000e+01,4.500000000000000000e+01,7.000000000000000000e+01,1.799999999999999933e-01,3.482471500000000000e+09
1.250000000000000000e+02,4.360000000000000000e+02,9.120000000000000000e+02,3.370000000000000000e+02,1.280000000000000000e+02,9.700000000000000000e+01,4.800000000000000000e+01,7.200000000000000000e+01,1.799999999999999933e-01,3.499701100000000000e+09
1.280000000000000000e+02,4.060000000000000000e+02,9.780000000000000000e+02,3.650000000000000000e+02,1.390000000000000000e+02,9.400000000000000000e+01,5.100000000000000000e+01,7.500000000000000000e+01,1.799999999999999933e-01,3.517967000000000000e+09
1.240000000000000000e+02,4.000000000000000000e+02,1.034000000000000000e+03,3.830000000000000000e+02,1.390000000000000000e+02,9.100000000000000000e+01,4.700000000000000000e+01,7.300000000000000000e+01,1.799999999999999933e-01,3.534923800000000000e+09
1.080000000000000000e+02,3.750000000000000000e+02,1.014000000000000000e+03,4.020000000000000000e+02,1.430000000000000000e+02,8.700000000000000000e+01,4.500000000000000000e+01,6.400000000000000000e+01,1.799999999999999933e-01,3.552951800000000000e+09
1.130000000000000000e+02,3.730000000000000000e+02,8.940000000000000000e+02,4.310000000000000000e+02,1.440000000000000000e+02,1.040000000000000000e+02,4.400000000000000000e+01,6.700000000000000000e+01,1.799999999999999933e-01,3.572607500000000000e+09
1.010000000000000000e+02,3.470000000000000000e+02,9.110000000000000000e+02,4.260000000000000000e+02,1.330000000000000000e+02,8.700000000000000000e+01,4.100000000000000000e+01,5.900000000000000000e+01,1.799999999999999933e-01,3.589766500000000000e+09
9.900000000000000000e+01,3.450000000000000000e+02,8.370000000000000000e+02,3.780000000000000000e+02,1.240000000000000000e+02,8.500000000000000000e+01,4.100000000000000000e+01,5.800000000000000000e+01,1.799999999999999933e-01,3.606702300000000000e+09
1.050000000000000000e+02,3.380000000000000000e+02,7.300000000000000000e+02,3.390000000000000000e+02,1.240000000000000000e+02,8.600000000000000000e+01,4.000000000000000000e+01,5.800000000000000000e+01,1.900000000000000022e-01,3.625395900000000000e+09
1.060000000000000000e+02,3.400000000000000000e+02,7.470000000000000000e+02,3.140000000000000000e+02,1.150000000000000000e+02,8.400000000000000000e+01,4.200000000000000000e+01,5.900000000000000000e+01,1.900000000000000022e-01,3.643649100000000000e+09
8.900000000000000000e+01,2.880000000000000000e+02,7.620000000000000000e+02,2.940000000000000000e+02,9.800000000000000000e+01,6.400000000000000000e+01,3.700000000000000000e+01,4.900000000000000000e+01,2.000000000000000111e-01,3.662155300000000000e+09
9.200000000000000000e+01,2.720000000000000000e+02,8.140000000000000000e+02,3.110000000000000000e+02,1.020000000000000000e+02,7.000000000000000000e+01,3.800000000000000000e+01,5.100000000000000000e+01,2.099999999999999922e-01,3.679372000000000000e+09
9.600000000000000000e+01,2.850000000000000000e+02,8.350000000000000000e+02,3.110000000000000000e+02,9.700000000000000000e+01,8.200000000000000000e+01,3.200000000000000000e+01,5.300000000000000000e+01,2.200000000000000011e-01,3.696901900000000000e+09
8.600000000000000000e+01,2.830000000000000000e+02,8.060000000000000000e+02,3.030000000000000000e+02,8.900000000000000000e+01,8.700000000000000000e+01,3.600000000000000000e+01,5.200000000000000000e+01,2.399999999999999911e-01,3.714520200000000000e+09
8.300000000000000000e+01,2.670000000000000000e+02,8.530000000000000000e+02,3.020000000000000000e+02,9.200000000000000000e+01,8.800000000000000000e+01,3.300000000000000000e+01,5.000000000000000000e+01,2.500000000000000000e-01,3.732223300000000000e+09
8.500000000000000000e+01,2.800000000000000000e+02,9.080000000000000000e+02,3.170000000000000000e+02,1.030000000000000000e+02,8.800000000000000000e+01,3.400000000000000000e+01,5.200000000000000000e+01,2.600000000000000089e-01,3.749868300000000000e+09
7.900000000000000000e+01,2.730000000000000000e+02,8.780000000000000000e+02,2.870000000000000000e+02,9.700000000000000000e+01,8.400000000000000000e+01,3.500000000000000000e+01,5.000000000000000000e+01,2.700000000000000178e-01,3.769977400000000000e+09
7.000000000000000000e+01,2.540000000000000000e+02,8.110000000000000000e+02,2.750000000000000000e+02,9.700000000000000000e+01,7.100000000000000000e+01,3.700000000000000000e+01,4.600000000000000000e+01,2.899999999999999800e-01,3.794363500000000000e+09
6.700000000000000000e+01,2.370000000000000000e+02,8.520000000000000000e+02,2.900000000000000000e+02,1.100000000000000000e+02,7.100000000000000000e+01,3.700000000000000000e+01,4.400000000000000000e+01,2.999999999999999889e-01,3.812785600000000000e+09
7.600000000000000000e+01,2.620000000000000000e+02,8.580000000000000000e+02,2.970000000000000000e+02,1.060000000000000000e+02,7.000000000000000000e+01,3.700000000000000000e+01,4.700000000000000000e+01,3.099999999999999978e-01,3.832004900000000000e+09
7.500000000000000000e+01,2.350000000000000000e+02,8.310000000000000000e+02,2.330000000000000000e+02,9.200000000000000000e+01,7.100000000000000000e+01,3.800000000000000000e+01,4.400000000000000000e+01,3.200000000000000067e-01,3.851188900000000000e+09
7.600000000000000000e+01,2.510000000000000000e+02,7.670000000000000000e+02,2.490000000000000000e+02,9.400000000000000000e+01,6.700000000000000000e+01,3.800000000000000000e+01,4.300000000000000000e+01,3.300000000000000155e-01,3.870488700000000000e+09
7.100000000000000000e+01,2.510000000000000000e+02,7.890000000000000000e+02,2.420000000000000000e+02,9.300000000000000000e+01,6.700000000000000000e+01,3.500000000000000000e+01,4.000000000000000000e+01,3.400000000000000244e-01,3.888878800000000000e+09
7.200000000000000000e+01,2.660000000000000000e+02,7.310000000000000000e+02,2.470000000000000000e+02,8.300000000000000000e+01,5.800000000000000000e+01,3.000000000000000000e+01,3.700000000000000000e+01,3.499999999999999778e-01,3.906845600000000000e+09
6.500000000000000000e+01,2.420000000000000000e+02,6.710000000000000000e+02,2.370000000000000000e+02,8.700000000000000000e+01,6.500000000000000000e+01,3.200000000000000000e+01,3.500000000000000000e+01,3.499999999999999778e-01,3.936576800000000000e+09
6.200000000000000000e+01,2.390000000000000000e+02,6.880000000000000000e+02,2.450000000000000000e+02,9.200000000000000000e+01,6.100000000000000000e+01,3.100000000000000000e+01,3.800000000000000000e+01,3.599999999999999867e-01,3.954981600000000000e+09
6.100000000000000000e+01,2.160000000000000000e+02,7.030000000000000000e+02,2.430000000000000000e+02,9.200000000000000000e+01,6.200000000000000000e+01,3.100000000000000000e+01,3.900000000000000000e+01,3.699999999999999956e-01,3.973555000000000000e+09
5.900000000000000000e+01,2.480000000000000000e+02,6.880000000000000000e+02,2.380000000000000000e+02,8.700000000000000000e+01,5.900000000000000000e+01,3.100000000000000000e+01,3.600000000000000000e+01,3.800000000000000044e-01,3.991317300000000000e+09
5.700000000000000000e+01,2.250000000000000000e+02,7.030000000000000000e+02,2.170000000000000000e+02,9.100000000000000000e+01,5.900000000000000000e+01,3.200000000000000000e+01,3.600000000000000000e+01,3.900000000000000133e-01,4.009256900000000000e+09
6.100000000000000000e+01,2.280000000000000000e+02,6.900000000000000000e+02,2.030000000000000000e+02,8.700000000000000000e+01,5.700000000000000000e+01,3.300000000000000000e+01,3.800000000000000000e+01,3.900000000000000133e-01,4.028511100000000000e+09
5.800000000000000000e+01,2.350000000000000000e+02,5.840000000000000000e+02,1.860000000000000000e+02,7.700000000000000000e+01,5.000000000000000000e+01,3.100000000000000000e+01,3.200000000000000000e+01,4.000000000000000222e-01,4.056899200000000000e+09
5.000000000000000000e+01,2.150000000000000000e+02,5.010000000000000000e+02,1.610000000000000000e+02,7.300000000000000000e+01,4.900000000000000000e+01,2.800000000000000000e+01,3.000000000000000000e+01,4.099999999999999756e-01,4.075017300000000000e+09
4.800000000000000000e+01,1.750000000000000000e+02,4.170000000000000000e+02,1.410000000000000000e+02,6.900000000000000000e+01,5.000000000000000000e+01,2.800000000000000000e+01,2.900000000000000000e+01,4.299999999999999933e-01,4.093449500000000000e+09
5.300000000000000000e+01,1.630000000000000000e+02,4.140000000000000000e+02,1.350000000000000000e+02,5.800000000000000000e+01,4.800000000000000000e+01,2.800000000000000000e+01,3.100000000000000000e+01,4.400000000000000022e-01,4.111312900000000000e+09
5.900000000000000000e+01,1.810000000000000000e+02,3.590000000000000000e+02,1.420000000000000000e+02,5.800000000000000000e+01,5.000000000000000000e+01,2.600000000000000000e+01,3.400000000000000000e+01,4.500000000000000111e-01,4.130570400000000000e+09
5.900000000000000000e+01,1.960000000000000000e+02,3.340000000000000000e+02,1.410000000000000000e+02,5.900000000000000000e+01,5.200000000000000000e+01,2.400000000000000000e+01,3.500000000000000000e+01,4.699999999999999734e-01,4.149680400000000000e+09
5.800000000000000000e+01,2.090000000000000000e+02,3.200000000000000000e+02,1.680000000000000000e+02,1.280000000000000000e+02,5.200000000000000000e+01,2.500000000000000000e+01,3.400000000000000000e+01,4.699999999999999734e-01,4.168895600000000000e+09
5.800000000000000000e+01,2.010000000000000000e+02,3.320000000000000000e+02,1.720000000000000000e+02,1.380000000000000000e+02,5.200000000000000000e+01,2.700000000000000000e+01,3.500000000000000000e+01,4.799999999999999822e-01,4.186857400000000000e+09
6.000000000000000000e+01,2.810000000000000000e+02,3.830000000000000000e+02,1.680000000000000000e+02,1.400000000000000000e+02,5.900000000000000000e+01,3.200000000000000000e+01,3.800000000000000000e+01,4.899999999999999911e-01,4.206560800000000000e+09
4.400000000000000000e+01,2.640000000000000000e+02,3.720000000000000000e+02,1.540000000000000000e+02,1.400000000000000000e+02,4.800000000000000000e+01,2.900000000000000000e+01,3.000000000000000000e+01,5.000000000000000000e-01,4.230675200000000000e+09
4.100000000000000000e+01,2.460000000000000000e+02,3.650000000000000000e+02,1.700000000000000000e+02,1.400000000000000000e+02,5.000000000000000000e+01,3.300000000000000000e+01,2.900000000000000000e+01,5.000000000000000000e-01,4.250399900000000000e+09
5.200000000000000000e+01,2.460000000000000000e+02,4.220000000000000000e+02,1.450000000000000000e+02,9.600000000000000000e+01,5.000000000000000000e+01,3.300000000000000000e+01,3.400000000000000000e+01,5.100000000000000089e-01,4.268651200000000000e+09
5.500000000000000000e+01,2.650000000000000000e+02,5.100000000000000000e+02,1.530000000000000000e+02,8.300000000000000000e+01,5.300000000000000000e+01,3.500000000000000000e+01,3.400000000000000000e+01,5.200000000000000178e-01,4.288632600000000000e+09
4.400000000000000000e+01,1.940000000000000000e+02,4.310000000000000000e+02,1.470000000000000000e+02,7.400000000000000000e+01,5.100000000000000000e+01,3.200000000000000000e+01,3.000000000000000000e+01,5.200000000000000178e-01,4.307640600000000000e+09
4.500000000000000000e+01,1.850000000000000000e+02,4.910000000000000000e+02,1.450000000000000000e+02,7.100000000000000000e+01,5.000000000000000000e+01,3.300000000000000000e+01,3.300000000000000000e+01,5.300000000000000266e-01,4.328125100000000000e+09
4.500000000000000000e+01,1.880000000000000000e+02,5.720000000000000000e+02,1.310000000000000000e+02,7.000000000000000000e+01,5.000000000000000000e+01,3.100000000000000000e+01,3.300000000000000000e+01,5.300000000000000266e-01,4.350291900000000000e+09
4.500000000000000000e+01,1.890000000000000000e+02,6.080000000000000000e+02,1.260000000000000000e+02,5.100000000000000000e+01,6.000000000000000000e+01,3.100000000000000000e+01,6.600000000000000000e+01,5.300000000000000266e-01,4.368760600000000000e+09
4.200000000000000000e+01,1.530000000000000000e+02,5.550000000000000000e+02,1.060000000000000000e+02,4.400000000000000000e+01,5.600000000000000000e+01,2.800000000000000000e+01,6.800000000000000000e+01,5.300000000000000266e-01,4.395094800000000000e+09
4.400000000000000000e+01,1.750000000000000000e+02,5.680000000000000000e+02,1.010000000000000000e+02,4.300000000000000000e+01,5.200000000000000000e+01,2.800000000000000000e+01,7.300000000000000000e+01,5.400000000000000355e-01,4.412519300000000000e+09
4.400000000000000000e+01,1.840000000000000000e+02,5.200000000000000000e+02,1.010000000000000000e+02,3.700000000000000000e+01,6.100000000000000000e+01,3.200000000000000000e+01,7.300000000000000000e+01,5.400000000000000355e-01,4.430010500000000000e+09
4.700000000000000000e+01,1.800000000000000000e+02,4.640000000000000000e+02,9.800000000000000000e+01,3.800000000000000000e+01,7.000000000000000000e+01,3.200000000000000000e+01,7.600000000000000000e+01,5.500000000000000444e-01,4.450357000000000000e+09
3.600000000000000000e+01,1.630000000000000000e+02,3.700000000000000000e+02,9.000000000000000000e+01,3.200000000000000000e+01,6.900000000000000000e+01,3.000000000000000000e+01,6.200000000000000000e+01,5.600000000000000533e-01,4.470123700000000000e+09
3.700000000000000000e+01,1.730000000000000000e+02,3.840000000000000000e+02,8.800000000000000000e+01,3.400000000000000000e+01,6.900000000000000000e+01,3.000000000000000000e+01,6.700000000000000000e+01,5.600000000000000533e-01,4.488661700000000000e+09
3.600000000000000000e+01,1.370000000000000000e+02,3.460000000000000000e+02,1.060000000000000000e+02,3.800000000000000000e+01,6.900000000000000000e+01,2.900000000000000000e+01,6.200000000000000000e+01,5.699999999999999512e-01,4.506956400000000000e+09
3.400000000000000000e+01,1.320000000000000000e+02,3.280000000000000000e+02,1.000000000000000000e+02,4.000000000000000000e+01,6.200000000000000000e+01,2.200000000000000000e+01,6.000000000000000000e+01,5.699999999999999512e-01,4.529934300000000000e+09
3.300000000000000000e+01,1.380000000000000000e+02,3.030000000000000000e+02,9.900000000000000000e+01,3.900000000000000000e+01,5.700000000000000000e+01,2.300000000000000000e+01,5.800000000000000000e+01,5.699999999999999512e-01,4.551134400000000000e+09
3.200000000000000000e+01,1.560000000000000000e+02,3.270000000000000000e+02,1.950000000000000000e+02,5.500000000000000000e+01,4.600000000000000000e+01,2.300000000000000000e+01,4.400000000000000000e+01,5.799999999999999600e-01,4.569636300000000000e+09
3.400000000000000000e+01,1.600000000000000000e+02,3.220000000000000000e+02,2.080000000000000000e+02,6.100000000000000000e+01,4.800000000000000000e+01,2.600000000000000000e+01,3.000000000000000000e+01,5.799999999999999600e-01,4.589204700000000000e+09
3.300000000000000000e+01,1.660000000000000000e+02,3.220000000000000000e+02,2.010000000000000000e+02,6.000000000000000000e+01,4.900000000000000000e+01,2.400000000000000000e+01,2.800000000000000000e+01,5.899999999999999689e-01,4.607649900000000000e+09
3.200000000000000000e+01,1.510000000000000000e+02,3.230000000000000000e+02,2.030000000000000000e+02,6.000000000000000000e+01,4.900000000000000000e+01,2.500000000000000000e+01,2.700000000000000000e+01,5.899999999999999689e-01,4.628896200000000000e+09
3.000000000000000000e+01,1.840000000000000000e+02,3.350000000000000000e+02,2.020000000000000000e+02,5.800000000000000000e+01,4.000000000000000000e+01,2.500000000000000000e+01,2.300000000000000000e+01,5.999999999999999778e-01,4.651383700000000000e+09
3.300000000000000000e+01,1.750000000000000000e+02,3.040000000000000000e+02,1.100000000000000000e+02,4.700000000000000000e+01,4.200000000000000000e+01,2.600000000000000000e+01,2.300000000000000000e+01,5.999999999999999778e-01,4.671405700000000000e+09
3.000000000000000000e+01,1.770000000000000000e+02,4.430000000000000000e+02,1.080000000000000000e+02,4.700000000000000000e+01,5.100000000000000000e+01,2.600000000000000000e+01,2.200000000000000000e+01,6.099999999999999867e-01,4.691119000000000000e+09
3.000000000000000000e+01,1.660000000000000000e+02,4.540000000000000000e+02,1.220000000000000000e+02,4.500000000000000000e+01,4.900000000000000000e+01,2.500000000000000000e+01,2.200000000000000000e+01,6.099999999999999867e-01,4.709236300000000000e+09
3.000000000000000000e+01,1.710000000000000000e+02,4.490000000000000000e+02,1.270000000000000000e+02,4.400000000000000000e+01,4.800000000000000000e+01,2.400000000000000000e+01,2.200000000000000000e+01,6.099999999999999867e-01,4.729030800000000000e+09
2.900000000000000000e+01,1.560000000000000000e+02,4.230000000000000000e+02,1.260000000000000000e+02,4.800000000000000000e+01,5.100000000000000000e+01,2.400000000000000000e+01,2.200000000000000000e+01,6.199999999999999956e-01,4.751123800000000000e+09
2.300000000000000000e+01,1.490000000000000000e+02,4.110000000000000000e+02,1.230000000000000000e+02,4.400000000000000000e+01,5.000000000000000000e+01,2.100000000000000000e+01,2.200000000000000000e+01,6.199999999999999956e-01,4.769114600000000000e+09
2.800000000000000000e+01,1.500000000000000000e+02,2.660000000000000000e+02,1.360000000000000000e+02,3.700000000000000000e+01,4.600000000000000000e+01,2.100000000000000000e+01,2.300000000000000000e+01,6.300000000000000044e-01,4.787366500000000000e+09
3.000000000000000000e+01,1.830000000000000000e+02,2.580000000000000000e+02,1.270000000000000000e+02,3.800000000000000000e+01,4.800000000000000000e+01,2.200000000000000000e+01,2.500000000000000000e+01,6.300000000000000044e-01,4.813613500000000000e+09
3.400000000000000000e+01,1.850000000000000000e+02,2.970000000000000000e+02,1.270000000000000000e+02,3.900000000000000000e+01,4.700000000000000000e+01,2.500000000000000000e+01,2.700000000000000000e+01,6.300000000000000044e-01,4.836330600000000000e+09
3.600000000000000000e+01,1.800000000000000000e+02,3.030000000000000000e+02,1.240000000000000000e+02,3.600000000000000000e+01,4.600000000000000000e+01,2.700000000000000000e+01,2.600000000000000000e+01,6.300000000000000044e-01,4.855670500000000000e+09
3.600000000000000000e+01,1.870000000000000000e+02,3.050000000000000000e+02,1.320000000000000000e+02,4.000000000000000000e+01,4.700000000000000000e+01,3.100000000000000000e+01,2.700000000000000000e+01,6.300000000000000044e-01,4.873598700000000000e+09
3.300000000000000000e+01,1.740000000000000000e+02,2.500000000000000000e+02,9.500000000000000000e+01,3.700000000000000000e+01,4.000000000000000000e+01,2.900000000000000000e+01,2.600000000000000000e+01,6.300000000000000044e-01,4.891959500000000000e+09
3.100000000000000000e+01,1.570000000000000000e+02,2.440000000000000000e+02,9.000000000000000000e+01,3.800000000000000000e+01,4.400000000000000000e+01,2.900000000000000000e+01,2.500000000000000000e+01,6.300000000000000044e-01,4.911595000000000000e+09
3.200000000000000000e+01,1.610000000000000000e+02,2.240000000000000000e+02,8.800000000000000000e+01,4.300000000000000000e+01,5.200000000000000000e+01,3.100000000000000000e+01,2.500000000000000000e+01,6.300000000000000044e-01,4.929472000000000000e+09
3.300000000000000000e+01,1.440000000000000000e+02,2.570000000000000000e+02,1.060000000000000000e+02,4.200000000000000000e+01,5.200000000000000000e+01,2.900000000000000000e+01,2.500000000000000000e+01,6.300000000000000044e-01,4.948975500000000000e+09
3.300000000000000000e+01,1.360000000000000000e+02,2.540000000000000000e+02,8.800000000000000000e+01,4.000000000000000000e+01,5.000000000000000000e+01,2.600000000000000000e+01,2.300000000000000000e+01,6.300000000000000044e-01,4.971757100000000000e+09
3.300000000000000000e+01,1.610000000000000000e+02,2.440000000000000000e+02,9.300000000000000000e+01,5.000000000000000000e+01,5.100000000000000000e+01,2.600000000000000000e+01,2.200000000000000000e+01,6.300000000000000044e-01,4.990390000000000000e+09
3.700000000000000000e+01,1.540000000000000000e+02,2.650000000000000000e+02,9.100000000000000000e+01,5.200000000000000000e+01,4.400000000000000000e+01,2.600000000000000000e+01,2.200000000000000000e+01,6.199999999999999956e-01,5.011072600000000000e+09
3.500000000000000000e+01,1.850000000000000000e+02,3.270000000000000000e+02,1.150000000000000000e+02,4.600000000000000000e+01,5.200000000000000000e+01,2.500000000000000000e+01,2.300000000000000000e+01,6.199999999999999956e-01,5.039850400000000000e+09
3.500000000000000000e+01,1.850000000000000000e+02,3.130000000000000000e+02,1.050000000000000000e+02,4.700000000000000000e+01,5.500000000000000000e+01,2.800000000000000000e+01,2.300000000000000000e+01,6.199999999999999956e-01,5.057759300000000000e+09
3.500000000000000000e+01,1.810000000000000000e+02,3.290000000000000000e+02,1.140000000000000000e+02,4.900000000000000000e+01,5.500000000000000000e+01,2.800000000000000000e+01,2.300000000000000000e+01,6.199999999999999956e-01,5.074649900000000000e+09
3.600000000000000000e+01,1.590000000000000000e+02,3.250000000000000000e+02,1.150000000000000000e+02,4.300000000000000000e+01,5.600000000000000000e+01,3.000000000000000000e+01,2.500000000000000000e+01,6.199999999999999956e-01,5.099555700000000000e+09
3.100000000000000000e+01,1.640000000000000000e+02,3.190000000000000000e+02,1.150000000000000000e+02,4.200000000000000000e+01,5.800000000000000000e+01,2.800000000000000000e+01,2.500000000000000000e+01,6.199999999999999956e-01,5.117475600000000000e+09
2.500000000000000000e+01,1.170000000000000000e+02,2.680000000000000000e+02,9.500000000000000000e+01,4.700000000000000000e+01,5.200000000000000000e+01,2.700000000000000000e+01,2.100000000000000000e+01,6.199999999999999956e-01,5.135914900000000000e+09
2.500000000000000000e+01,1.300000000000000000e+02,3.410000000000000000e+02,1.000000000000000000e+02,4.600000000000000000e+01,5.200000000000000000e+01,2.400000000000000000e+01,2.300000000000000000e+01,6.199999999999999956e-01,5.153296500000000000e+09
2.900000000000000000e+01,2.030000000000000000e+02,3.560000000000000000e+02,1.030000000000000000e+02,4.400000000000000000e+01,5.200000000000000000e+01,2.500000000000000000e+01,2.400000000000000000e+01,6.199999999999999956e-01,5.172661000000000000e+09
2.900000000000000000e+01,2.030000000000000000e+02,3.610000000000000000e+02,1.090000000000000000e+02,4.200000000000000000e+01,4.900000000000000000e+01,2.400000000000000000e+01,2.300000000000000000e+01,6.199999999999999956e-01,5.190465000000000000e+09
2.900000000000000000e+01,2.080000000000000000e+02,3.370000000000000000e+02,1.220000000000000000e+02,3.900000000000000000e+01,4.700000000000000000e+01,2.500000000000000000e+01,2.300000000000000000e+01,6.199999999999999956e-01,5.211314800000000000e+09
2.900000000000000000e+01,2.050000000000000000e+02,3.540000000000000000e+02,1.290000000000000000e+02,3.300000000000000000e+01,4.100000000000000000e+01,2.200000000000000000e+01,2.200000000000000000e+01,6.300000000000000044e-01,5.228933100000000000e+09
3.100000000000000000e+01,2.050000000000000000e+02,2.710000000000000000e+02,1.180000000000000000e+02,3.200000000000000000e+01,4.300000000000000000e+01,2.200000000000000000e+01,2.100000000000000000e+01,6.300000000000000044e-01,5.248637400000000000e+09
2.900000000000000000e+01,1.560000000000000000e+02,2.300000000000000000e+02,1.100000000000000000e+02,3.100000000000000000e+01,4.600000000000000000e+01,2.100000000000000000e+01,2.000000000000000000e+01,6.300000000000000044e-01,5.271893800000000000e+09
2.700000000000000000e+01,1.540000000000000000e+02,2.190000000000000000e+02,9.800000000000000000e+01,3.000000000000000000e+01,4.700000000000000000e+01,2.200000000000000000e+01,1.900000000000000000e+01,6.300000000000000044e-01,5.289272200000000000e+09
3.000000000000000000e+01,1.290000000000000000e+02,2.480000000000000000e+02,7.900000000000000000e+01,3.300000000000000000e+01,4.600000000000000000e+01,2.100000000000000000e+01,2.200000000000000000e+01,6.300000000000000044e-01,5.309109400000000000e+09
3.100000000000000000e+01,1.450000000000000000e+02,1.790000000000000000e+02,7.000000000000000000e+01,4.100000000000000000e+01,4.300000000000000000e+01,2.300000000000000000e+01,2.200000000000000000e+01,6.199999999999999956e-01,5.331354800000000000e+09
3.000000000000000000e+01,1.440000000000000000e+02,2.060000000000000000e+02,8.300000000000000000e+01,4.600000000000000000e+01,4.500000000000000000e+01,2.500000000000000000e+01,2.200000000000000000e+01,6.199999999999999956e-01,5.349593800000000000e+09
3.000000000000000000e+01,1.450000000000000000e+02,2.400000000000000000e+02,8.100000000000000000e+01,4.800000000000000000e+01,4.600000000000000000e+01,2.700000000000000000e+01,2.100000000000000000e+01,6.199999999999999956e-01,5.369459000000000000e+09
3.100000000000000000e+01,1.500000000000000000e+02,2.680000000000000000e+02,9.000000000000000000e+01,4.900000000000000000e+01,4.600000000000000000e+01,2.600000000000000000e+01,2.200000000000000000e+01,6.199999999999999956e-01,5.391161400000000000e+09
2.800000000000000000e+01,1.510000000000000000e+02,2.480000000000000000e+02,9.100000000000000000e+01,5.000000000000000000e+01,5.000000000000000000e+01,2.600000000000000000e+01,2.000000000000000000e+01,6.199999999999999956e-01,5.410406700000000000e+09
2.800000000000000000e+01,1.570000000000000000e+02,2.760000000000000000e+02,8.200000000000000000e+01,7.600000000000000000e+01,6.300000000000000000e+01,2.900000000000000000e+01,2.300000000000000000e+01,6.099999999999999867e-01,5.429422400000000000e+09
2.900000000000000000e+01,1.530000000000000000e+02,3.010000000000000000e+02,8.700000000000000000e+01,9.900000000000000000e+01,6.500000000000000000e+01,3.100000000000000000e+01,2.700000000000000000e+01,6.099999999999999867e-01,5.451312500000000000e+09
3.300000000000000000e+01,1.380000000000000000e+02,3.900000000000000000e+02,1.150000000000000000e+02,1.190000000000000000e+02,6.400000000000000000e+01,3.300000000000000000e+01,2.900000000000000000e+01,5.999999999999999778e-01,5.469464400000000000e+09
5.900000000000000000e+01,1.990000000000000000e+02,5.600000000000000000e+02,1.560000000000000000e+02,1.420000000000000000e+02,6.900000000000000000e+01,3.600000000000000000e+01,4.100000000000000000e+01,5.899999999999999689e-01,5.489905000000000000e+09
7.300000000000000000e+01,2.320000000000000000e+02,6.650000000000000000e+02,1.930000000000000000e+02,1.580000000000000000e+02,8.000000000000000000e+01,4.600000000000000000e+01,4.800000000000000000e+01,5.699999999999999512e-01,5.511625800000000000e+09
9.000000000000000000e+01,2.470000000000000000e+02,8.760000000000000000e+02,2.480000000000000000e+02,1.520000000000000000e+02,7.400000000000000000e+01,4.500000000000000000e+01,5.300000000000000000e+01,5.500000000000000444e-01,5.530502200000000000e+09
9.400000000000000000e+01,2.580000000000000000e+02,8.990000000000000000e+02,2.650000000000000000e+02,1.410000000000000000e+02,8.100000000000000000e+01,4.400000000000000000e+01,5.300000000000000000e+01,5.400000000000000355e-01,5.556082900000000000e+09
1.010000000000000000e+02,2.850000000000000000e+02,9.670000000000000000e+02,2.920000000000000000e+02,1.500000000000000000e+02,1.140000000000000000e+02,8.500000000000000000e+01,6.000000000000000000e+01,5.200000000000000178e-01,5.574972100000000000e+09
1.050000000000000000e+02,3.100000000000000000e+02,1.015000000000000000e+03,3.190000000000000000e+02,1.410000000000000000e+02,1.460000000000000000e+02,9.600000000000000000e+01,6.600000000000000000e+01,5.000000000000000000e-01,5.593845100000000000e+09
9.900000000000000000e+01,3.170000000000000000e+02,1.146000000000000000e+03,3.520000000000000000e+02,1.270000000000000000e+02,1.520000000000000000e+02,9.800000000000000000e+01,6.200000000000000000e+01,4.699999999999999734e-01,5.611985100000000000e+09
9.300000000000000000e+01,3.350000000000000000e+02,1.070000000000000000e+03,3.490000000000000000e+02,1.250000000000000000e+02,1.510000000000000000e+02,9.900000000000000000e+01,5.900000000000000000e+01,4.500000000000000111e-01,5.639651000000000000e+09
9.600000000000000000e+01,3.500000000000000000e+02,1.172000000000000000e+03,3.680000000000000000e+02,1.300000000000000000e+02,1.770000000000000000e+02,1.110000000000000000e+02,6.200000000000000000e+01,4.199999999999999845e-01,5.657354600000000000e+09
1.160000000000000000e+02,3.920000000000000000e+02,1.147000000000000000e+03,4.590000000000000000e+02,1.200000000000000000e+02,1.740000000000000000e+02,9.200000000000000000e+01,6.900000000000000000e+01,4.000000000000000222e-01,5.675216300000000000e+09
1.330000000000000000e+02,3.750000000000000000e+02,1.119000000000000000e+03,5.450000000000000000e+02,1.270000000000000000e+02,1.540000000000000000e+02,8.700000000000000000e+01,7.200000000000000000e+01,3.800000000000000044e-01,5.693150500000000000e+09
1.440000000000000000e+02,4.250000000000000000e+02,1.056000000000000000e+03,5.390000000000000000e+02,1.300000000000000000e+02,1.450000000000000000e+02,8.400000000000000000e+01,8.000000000000000000e+01,3.599999999999999867e-01,5.714440700000000000e+09
1.730000000000000000e+02,4.630000000000000000e+02,1.194000000000000000e+03,5.980000000000000000e+02,1.540000000000000000e+02,1.550000000000000000e+02,8.700000000000000000e+01,9.900000000000000000e+01,3.400000000000000244e-01,5.736433700000000000e+09
1.830000000000000000e+02,4.580000000000000000e+02,1.195000000000000000e+03,5.930000000000000000e+02,1.620000000000000000e+02,1.260000000000000000e+02,7.300000000000000000e+01,1.020000000000000000e+02,3.200000000000000067e-01,5.754388700000000000e+09
1.920000000000000000e+02,4.650000000000000000e+02,1.253000000000000000e+03,5.690000000000000000e+02,1.780000000000000000e+02,1.220000000000000000e+02,6.900000000000000000e+01,1.090000000000000000e+02,3.099999999999999978e-01,5.781992600000000000e+09
1.810000000000000000e+02,4.860000000000000000e+02,1.307000000000000000e+03,5.420000000000000000e+02,1.770000000000000000e+02,1.160000000000000000e+02,6.400000000000000000e+01,1.050000000000000000e+02,2.999999999999999889e-01,5.800882600000000000e+09
1.880000000000000000e+02,4.880000000000000000e+02,1.222000000000000000e+03,5.590000000000000000e+02,1.930000000000000000e+02,1.190000000000000000e+02,6.400000000000000000e+01,1.070000000000000000e+02,2.800000000000000266e-01,5.819213800000000000e+09
1.680000000000000000e+02,4.530000000000000000e+02,1.104000000000000000e+03,5.500000000000000000e+02,1.980000000000000000e+02,1.180000000000000000e+02,6.200000000000000000e+01,9.800000000000000000e+01,2.700000000000000178e-01,5.840944000000000000e+09
1.870000000000000000e+02,5.380000000000000000e+02,1.039000000000000000e+03,6.700000000000000000e+02,2.420000000000000000e+02,1.350000000000000000e+02,7.300000000000000000e+01,1.110000000000000000e+02,2.600000000000000089e-01,5.859040800000000000e+09
1.740000000000000000e+02,5.110000000000000000e+02,1.007000000000000000e+03,6.580000000000000000e+02,2.320000000000000000e+02,1.310000000000000000e+02,6.600000000000000000e+01,1.030000000000000000e+02,2.399999999999999911e-01,5.876334700000000000e+09
1.780000000000000000e+02,5.100000000000000000e+02,9.780000000000000000e+02,6.430000000000000000e+02,2.380000000000000000e+02,1.330000000000000000e+02,7.000000000000000000e+01,1.050000000000000000e+02,2.300000000000000100e-01,5.894918200000000000e+09
1.710000000000000000e+02,4.930000000000000000e+02,1.021000000000000000e+03,6.220000000000000000e+02,2.280000000000000000e+02,1.340000000000000000e+02,6.900000000000000000e+01,1.010000000000000000e+02,2.200000000000000011e-01,5.913731400000000000e+09
1.960000000000000000e+02,5.850000000000000000e+02,1.025000000000000000e+03,6.290000000000000000e+02,2.330000000000000000e+02,1.410000000000000000e+02,7.300000000000000000e+01,1.070000000000000000e+02,2.000000000000000111e-01,5.931906100000000000e+09
1.840000000000000000e+02,5.240000000000000000e+02,1.037000000000000000e+03,5.100000000000000000e+02,1.910000000000000000e+02,1.260000000000000000e+02,6.500000000000000000e+01,9.600000000000000000e+01,1.900000000000000022e-01,5.954407900000000000e+09
1.810000000000000000e+02,5.160000000000000000e+02,1.089000000000000000e+03,4.960000000000000000e+02,1.950000000000000000e+02,1.170000000000000000e+02,6.900000000000000000e+01,9.700000000000000000e+01,1.799999999999999933e-01,5.973269100000000000e+09
1.740000000000000000e+02,4.910000000000000000e+02,1.009000000000000000e+03,4.390000000000000000e+02,1.800000000000000000e+02,1.140000000000000000e+02,6.200000000000000000e+01,9.100000000000000000e+01,1.700000000000000122e-01,5.991985800000000000e+09
1.790000000000000000e+02,4.640000000000000000e+02,9.840000000000000000e+02,4.810000000000000000e+02,1.890000000000000000e+02,1.160000000000000000e+02,6.500000000000000000e+01,9.500000000000000000e+01,1.600000000000000033e-01,6.014351300000000000e+09
1.520000000000000000e+02,3.250000000000000000e+02,9.980000000000000000e+02,4.200000000000000000e+02,1.620000000000000000e+02,9.800000000000000000e+01,6.300000000000000000e+01,8.700000000000000000e+01,1.499999999999999944e-01,6.033870600000000000e+09
1.560000000000000000e+02,3.190000000000000000e+02,1.016000000000000000e+03,5.140000000000000000e+02,1.630000000000000000e+02,9.900000000000000000e+01,6.500000000000000000e+01,9.400000000000000000e+01,1.499999999999999944e-01,6.051894600000000000e+09
1.620000000000000000e+02,3.650000000000000000e+02,9.350000000000000000e+02,5.530000000000000000e+02,1.620000000000000000e+02,1.010000000000000000e+02,6.500000000000000000e+01,9.500000000000000000e+01,1.499999999999999944e-01,6.073768100000000000e+09
1.610000000000000000e+02,3.650000000000000000e+02,9.480000000000000000e+02,5.710000000000000000e+02,1.650000000000000000e+02,1.000000000000000000e+02,6.700000000000000000e+01,9.600000000000000000e+01,1.499999999999999944e-01,6.092612000000000000e+09
1.610000000000000000e+02,3.600000000000000000e+02,9.790000000000000000e+02,5.480000000000000000e+02,1.530000000000000000e+02,9.600000000000000000e+01,6.300000000000000000e+01,9.200000000000000000e+01,1.600000000000000033e-01,6.111775900000000000e+09
1.630000000000000000e+02,3.630000000000000000e+02,9.010000000000000000e+02,5.490000000000000000e+02,1.560000000000000000e+02,1.070000000000000000e+02,6.100000000000000000e+01,9.100000000000000000e+01,1.600000000000000033e-01,6.136290800000000000e+09
1.390000000000000000e+02,3.340000000000000000e+02,8.690000000000000000e+02,4.490000000000000000e+02,1.370000000000000000e+02,9.800000000000000000e+01,5.300000000000000000e+01,7.400000000000000000e+01,1.700000000000000122e-01,6.155373300000000000e+09
1.250000000000000000e+02,2.890000000000000000e+02,8.200000000000000000e+02,3.610000000000000000e+02,1.180000000000000000e+02,9.300000000000000000e+01,4.500000000000000000e+01,6.400000000000000000e+01,1.799999999999999933e-01,6.173802700000000000e+09
1.320000000000000000e+02,3.120000000000000000e+02,8.200000000000000000e+02,3.410000000000000000e+02,1.210000000000000000e+02,9.200000000000000000e+01,4.500000000000000000e+01,6.400000000000000000e+01,1.799999999999999933e-01,6.194393300000000000e+09
1.140000000000000000e+02,3.070000000000000000e+02,8.200000000000000000e+02,3.200000000000000000e+02,1.150000000000000000e+02,8.300000000000000000e+01,4.000000000000000000e+01,5.600000000000000000e+01,1.900000000000000022e-01,6.223802500000000000e+09
1.090000000000000000e+02,3.110000000000000000e+02,9.580000000000000000e+02,3.020000000000000000e+02,1.100000000000000000e+02,8.000000000000000000e+01,3.700000000000000000e+01,5.400000000000000000e+01,2.000000000000000111e-01,6.240770500000000000e+09
1.080000000000000000e+02,3.190000000000000000e+02,9.490000000000000000e+02,3.050000000000000000e+02,1.190000000000000000e+02,8.100000000000000000e+01,4.000000000000000000e+01,5.600000000000000000e+01,2.099999999999999922e-01,6.258540700000000000e+09
1.010000000000000000e+02,2.870000000000000000e+02,9.800000000000000000e+02,3.070000000000000000e+02,1.200000000000000000e+02,8.300000000000000000e+01,4.000000000000000000e+01,5.600000000000000000e+01,2.099999999999999922e-01,6.275899300000000000e+09
8.400000000000000000e+01,2.360000000000000000e+02,9.230000000000000000e+02,2.800000000000000000e+02,1.080000000000000000e+02,8.200000000000000000e+01,3.700000000000000000e+01,5.200000000000000000e+01,2.200000000000000011e-01,6.294031000000000000e+09
8.700000000000000000e+01,2.430000000000000000e+02,8.720000000000000000e+02,2.910000000000000000e+02,1.070000000000000000e+02,8.400000000000000000e+01,3.800000000000000000e+01,5.000000000000000000e+01,2.300000000000000100e-01,6.315067400000000000e+09
6.800000000000000000e+01,1.970000000000000000e+02,6.920000000000000000e+02,2.640000000000000000e+02,9.700000000000000000e+01,7.800000000000000000e+01,3.600000000000000000e+01,4.200000000000000000e+01,2.500000000000000000e-01,6.336793600000000000e+09
6.200000000000000000e+01,1.890000000000000000e+02,6.080000000000000000e+02,2.260000000000000000e+02,8.100000000000000000e+01,7.200000000000000000e+01,3.200000000000000000e+01,3.700000000000000000e+01,2.700000000000000178e-01,6.358429700000000000e+09
5.600000000000000000e+01,1.970000000000000000e+02,4.780000000000000000e+02,2.070000000000000000e+02,6.900000000000000000e+01,6.500000000000000000e+01,2.900000000000000000e+01,3.300000000000000000e+01,2.899999999999999800e-01,6.377336400000000000e+09
5.100000000000000000e+01,2.040000000000000000e+02,4.760000000000000000e+02,1.990000000000000000e+02,6.500000000000000000e+01,6.300000000000000000e+01,2.800000000000000000e+01,2.900000000000000000e+01,3.099999999999999978e-01,6.394733200000000000e+09
3.900000000000000000e+01,1.870000000000000000e+02,4.630000000000000000e+02,1.300000000000000000e+02,5.500000000000000000e+01,5.800000000000000000e+01,2.400000000000000000e+01,2.500000000000000000e+01,3.300000000000000155e-01,6.413460500000000000e+09
3.400000000000000000e+01,1.860000000000000000e+02,4.140000000000000000e+02,9.300000000000000000e+01,5.400000000000000000e+01,4.000000000000000000e+01,2.200000000000000000e+01,2.300000000000000000e+01,3.499999999999999778e-01,6.433744800000000000e+09
3.200000000000000000e+01,1.870000000000000000e+02,3.640000000000000000e+02,8.700000000000000000e+01,4.900000000000000000e+01,3.500000000000000000e+01,2.200000000000000000e+01,2.200000000000000000e+01,3.699999999999999956e-01,6.452155200000000000e+09
3.600000000000000000e+01,1.950000000000000000e+02,3.530000000000000000e+02,8.200000000000000000e+01,4.700000000000000000e+01,3.600000000000000000e+01,2.300000000000000000e+01,2.400000000000000000e+01,3.900000000000000133e-01,6.471870800000000000e+09
3.300000000000000000e+01,1.810000000000000000e+02,3.030000000000000000e+02,1.400000000000000000e+02,6.000000000000000000e+01,4.300000000000000000e+01,2.400000000000000000e+01,2.200000000000000000e+01,4.199999999999999845e-01,6.493827400000000000e+09
3.000000000000000000e+01,2.020000000000000000e+02,2.090000000000000000e+02,1.470000000000000000e+02,6.300000000000000000e+01,5.400000000000000000e+01,2.600000000000000000e+01,2.300000000000000000e+01,4.500000000000000111e-01,6.511335400000000000e+09
3.600000000000000000e+01,2.140000000000000000e+02,3.640000000000000000e+02,1.640000000000000000e+02,7.300000000000000000e+01,5.700000000000000000e+01,2.800000000000000000e+01,2.800000000000000000e+01,4.699999999999999734e-01,6.531487900000000000e+09
3.800000000000000000e+01,2.080000000000000000e+02,4.230000000000000000e+02,1.760000000000000000e+02,8.100000000000000000e+01,5.800000000000000000e+01,2.900000000000000000e+01,2.700000000000000000e+01,4.899999999999999911e-01,6.553723600000000000e+09
3.600000000000000000e+01,1.900000000000000000e+02,4.360000000000000000e+02,1.800000000000000000e+02,8.400000000000000000e+01,6.100000000000000000e+01,3.000000000000000000e+01,3.000000000000000000e+01,5.000000000000000000e-01,6.571858700000000000e+09
3.800000000000000000e+01,2.030000000000000000e+02,4.470000000000000000e+02,1.460000000000000000e+02,7.400000000000000000e+01,5.300000000000000000e+01,2.900000000000000000e+01,3.000000000000000000e+01,5.100000000000000089e-01,6.606943200000000000e+09
3.800000000000000000e+01,1.650000000000000000e+02,4.870000000000000000e+02,1.300000000000000000e+02,6.900000000000000000e+01,4.000000000000000000e+01,2.700000000000000000e+01,2.900000000000000000e+01,5.200000000000000178e-01,6.624447000000000000e+09
3.900000000000000000e+01,1.640000000000000000e+02,4.830000000000000000e+02,1.240000000000000000e+02,5.600000000000000000e+01,4.300000000000000000e+01,2.600000000000000000e+01,2.900000000000000000e+01,5.300000000000000266e-01,6.642992900000000000e+09
3.800000000000000000e+01,1.590000000000000000e+02,5.290000000000000000e+02,1.050000000000000000e+02,4.400000000000000000e+01,4.900000000000000000e+01,2.500000000000000000e+01,3.000000000000000000e+01,5.400000000000000355e-01,6.662198300000000000e+09
3.500000000000000000e+01,1.570000000000000000e+02,5.610000000000000000e+02,1.140000000000000000e+02,3.600000000000000000e+01,4.600000000000000000e+01,2.300000000000000000e+01,2.700000000000000000e+01,5.500000000000000444e-01,6.679869200000000000e+09
3.400000000000000000e+01,1.710000000000000000e+02,5.580000000000000000e+02,1.060000000000000000e+02,3.200000000000000000e+01,4.800000000000000000e+01,2.300000000000000000e+01,2.600000000000000000e+01,5.500000000000000444e-01,6.697137300000000000e+09
3.400000000000000000e+01,1.740000000000000000e+02,5.410000000000000000e+02,1.070000000000000000e+02,3.500000000000000000e+01,4.900000000000000000e+01,2.300000000000000000e+01,2.600000000000000000e+01,5.600000000000000533e-01,6.715255900000000000e+09
3.400000000000000000e+01,1.750000000000000000e+02,4.730000000000000000e+02,1.100000000000000000e+02,3.700000000000000000e+01,4.200000000000000000e+01,2.400000000000000000e+01,2.500000000000000000e+01,5.699999999999999512e-01,6.734152100000000000e+09
3.500000000000000000e+01,1.840000000000000000e+02,5.510000000000000000e+02,1.260000000000000000e+02,3.800000000000000000e+01,3.400000000000000000e+01,2.400000000000000000e+01,2.600000000000000000e+01,5.699999999999999512e-01,6.757242500000000000e+09
4.100000000000000000e+01,2.100000000000000000e+02,5.620000000000000000e+02,1.220000000000000000e+02,3.900000000000000000e+01,4.300000000000000000e+01,2.600000000000000000e+01,3.000000000000000000e+01,5.799999999999999600e-01,6.775985600000000000e+09
4.200000000000000000e+01,1.890000000000000000e+02,5.790000000000000000e+02,1.240000000000000000e+02,4.000000000000000000e+01,4.200000000000000000e+01,2.500000000000000000e+01,3.000000000000000000e+01,5.799999999999999600e-01,6.793648900000000000e+09
4.300000000000000000e+01,1.940000000000000000e+02,5.900000000000000000e+02,1.300000000000000000e+02,3.800000000000000000e+01,4.000000000000000000e+01,2.300000000000000000e+01,3.000000000000000000e+01,5.899999999999999689e-01,6.815714200000000000e+09
4.100000000000000000e+01,1.860000000000000000e+02,5.710000000000000000e+02,1.210000000000000000e+02,3.700000000000000000e+01,4.200000000000000000e+01,2.200000000000000000e+01,2.900000000000000000e+01,5.899999999999999689e-01,6.834259800000000000e+09
3.900000000000000000e+01,1.750000000000000000e+02,4.260000000000000000e+02,1.040000000000000000e+02,4.500000000000000000e+01,5.000000000000000000e+01,2.500000000000000000e+01,3.000000000000000000e+01,5.999999999999999778e-01,6.860745400000000000e+09
3.300000000000000000e+01,1.460000000000000000e+02,3.500000000000000000e+02,9.200000000000000000e+01,4.800000000000000000e+01,4.800000000000000000e+01,2.600000000000000000e+01,2.800000000000000000e+01,5.999999999999999778e-01,6.880438200000000000e+09
3.300000000000000000e+01,1.640000000000000000e+02,3.110000000000000000e+02,9.200000000000000000e+01,4.900000000000000000e+01,4.900000000000000000e+01,2.800000000000000000e+01,2.800000000000000000e+01,5.999999999999999778e-01,6.897500600000000000e+09
3.500000000000000000e+01,1.680000000000000000e+02,3.680000000000000000e+02,1.000000000000000000e+02,7.100000000000000000e+01,5.200000000000000000e+01,3.000000000000000000e+01,3.100000000000000000e+01,5.999999999999999778e-01,6.915472800000000000e+09
4.300000000000000000e+01,1.960000000000000000e+02,4.730000000000000000e+02,1.160000000000000000e+02,8.400000000000000000e+01,5.700000000000000000e+01,3.100000000000000000e+01,3.600000000000000000e+01,5.999999999999999778e-01,6.943318200000000000e+09
4.400000000000000000e+01,1.950000000000000000e+02,4.450000000000000000e+02,1.230000000000000000e+02,8.100000000000000000e+01,5.300000000000000000e+01,3.000000000000000000e+01,3.500000000000000000e+01,5.999999999999999778e-01,6.961845400000000000e+09
4.700000000000000000e+01,2.030000000000000000e+02,4.470000000000000000e+02,1.290000000000000000e+02,8.300000000000000000e+01,5.200000000000000000e+01,2.900000000000000000e+01,3.600000000000000000e+01,5.999999999999999778e-01,6.981013100000000000e+09
4.600000000000000000e+01,1.820000000000000000e+02,4.600000000000000000e+02,1.250000000000000000e+02,8.400000000000000000e+01,5.300000000000000000e+01,2.800000000000000000e+01,3.500000000000000000e+01,5.999999999999999778e-01,7.000112000000000000e+09
4.200000000000000000e+01,2.000000000000000000e+02,3.840000000000000000e+02,1.170000000000000000e+02,6.900000000000000000e+01,6.300000000000000000e+01,2.700000000000000000e+01,3.300000000000000000e+01,5.999999999999999778e-01,7.017389600000000000e+09
3.000000000000000000e+01,1.690000000000000000e+02,2.520000000000000000e+02,1.000000000000000000e+02,5.500000000000000000e+01,6.100000000000000000e+01,2.500000000000000000e+01,2.500000000000000000e+01,5.999999999999999778e-01,7.036131000000000000e+09
4.100000000000000000e+01,1.870000000000000000e+02,4.200000000000000000e+02,1.070000000000000000e+02,5.700000000000000000e+01,6.400000000000000000e+01,2.400000000000000000e+01,2.800000000000000000e+01,5.999999999999999778e-01,7.055578800000000000e+09
3.900000000000000000e+01,1.800000000000000000e+02,4.430000000000000000e+02,1.080000000000000000e+02,5.400000000000000000e+01,5.900000000000000000e+01,2.300000000000000000e+01,2.400000000000000000e+01,5.999999999999999778e-01,7.075629800000000000e+09
3.900000000000000000e+01,1.810000000000000000e+02,4.380000000000000000e+02,1.060000000000000000e+02,7.300000000000000000e+01,6.200000000000000000e+01,2.200000000000000000e+01,2.400000000000000000e+01,5.899999999999999689e-01,7.093494300000000000e+09
3.800000000000000000e+01,1.490000000000000000e+02,4.380000000000000000e+02,9.400000000000000000e+01,7.300000000000000000e+01,4.900000000000000000e+01,2.200000000000000000e+01,2.300000000000000000e+01,5.899999999999999689e-01,7.115732300000000000e+09
4.000000000000000000e+01,1.450000000000000000e+02,4.380000000000000000e+02,8.800000000000000000e+01,7.600000000000000000e+01,4.800000000000000000e+01,2.300000000000000000e+01,2.500000000000000000e+01,5.899999999999999689e-01,7.134214200000000000e+09
3.500000000000000000e+01,1.210000000000000000e+02,3.820000000000000000e+02,8.400000000000000000e+01,8.100000000000000000e+01,6.400000000000000000e+01,2.200000000000000000e+01,2.900000000000000000e+01,5.899999999999999689e-01,7.154627200000000000e+09
3.400000000000000000e+01,1.110000000000000000e+02,3.620000000000000000e+02,8.700000000000000000e+01,8.300000000000000000e+01,6.700000000000000000e+01,2.100000000000000000e+01,3.000000000000000000e+01,5.799999999999999600e-01,7.175918400000000000e+09
3.400000000000000000e+01,1.250000000000000000e+02,3.560000000000000000e+02,8.800000000000000000e+01,6.500000000000000000e+01,6.300000000000000000e+01,2.200000000000000000e+01,2.900000000000000000e+01,5.799999999999999600e-01,7.194316900000000000e+09
3.400000000000000000e+01,1.220000000000000000e+02,3.430000000000000000e+02,9.000000000000000000e+01,6.500000000000000000e+01,6.700000000000000000e+01,2.400000000000000000e+01,2.900000000000000000e+01,5.799999999999999600e-01,7.220922300000000000e+09
3.300000000000000000e+01,1.270000000000000000e+02,3.130000000000000000e+02,1.010000000000000000e+02,5.700000000000000000e+01,6.600000000000000000e+01,2.400000000000000000e+01,2.800000000000000000e+01,5.899999999999999689e-01,7.238286300000000000e+09
2.700000000000000000e+01,1.440000000000000000e+02,2.970000000000000000e+02,9.400000000000000000e+01,4.400000000000000000e+01,4.400000000000000000e+01,2.500000000000000000e+01,2.300000000000000000e+01,5.899999999999999689e-01,7.259493900000000000e+09
3.400000000000000000e+01,1.600000000000000000e+02,3.190000000000000000e+02,9.900000000000000000e+01,4.300000000000000000e+01,5.100000000000000000e+01,2.900000000000000000e+01,2.700000000000000000e+01,5.899999999999999689e-01,7.276646100000000000e+09
3.300000000000000000e+01,1.470000000000000000e+02,3.250000000000000000e+02,1.080000000000000000e+02,4.200000000000000000e+01,5.100000000000000000e+01,2.900000000000000000e+01,2.700000000000000000e+01,5.799999999999999600e-01,7.296427000000000000e+09
3.400000000000000000e+01,1.450000000000000000e+02,3.250000000000000000e+02,1.060000000000000000e+02,3.900000000000000000e+01,4.600000000000000000e+01,2.800000000000000000e+01,2.600000000000000000e+01,5.799999999999999600e-01,7.314994900000000000e+09
3.500000000000000000e+01,1.470000000000000000e+02,3.260000000000000000e+02,9.400000000000000000e+01,4.200000000000000000e+01,4.500000000000000000e+01,2.700000000000000000e+01,2.700000000000000000e+01,5.799999999999999600e-01,7.335259700000000000e+09
3.100000000000000000e+01,1.560000000000000000e+02,2.430000000000000000e+02,9.300000000000000000e+01,3.900000000000000000e+01,4.800000000000000000e+01,2.600000000000000000e+01,2.500000000000000000e+01,5.799999999999999600e-01,7.355672400000000000e+09
2.800000000000000000e+01,1.710000000000000000e+02,3.170000000000000000e+02,1.210000000000000000e+02,3.700000000000000000e+01,4.200000000000000000e+01,2.600000000000000000e+01,2.300000000000000000e+01,5.899999999999999689e-01,7.374938200000000000e+09
2.900000000000000000e+01,1.720000000000000000e+02,3.340000000000000000e+02,1.190000000000000000e+02,3.600000000000000000e+01,4.200000000000000000e+01,2.600000000000000000e+01,2.300000000000000000e+01,5.899999999999999689e-01,7.393579700000000000e+09
2.900000000000000000e+01,1.740000000000000000e+02,3.380000000000000000e+02,1.210000000000000000e+02,4.000000000000000000e+01,4.400000000000000000e+01,2.600000000000000000e+01,2.600000000000000000e+01,5.999999999999999778e-01,7.424572300000000000e+09
3.000000000000000000e+01,1.740000000000000000e+02,3.400000000000000000e+02,1.210000000000000000e+02,3.500000000000000000e+01,4.600000000000000000e+01,2.700000000000000000e+01,2.500000000000000000e+01,5.999999999999999778e-01,7.443425800000000000e+09
3.100000000000000000e+01,1.500000000000000000e+02,3.460000000000000000e+02,1.190000000000000000e+02,3.700000000000000000e+01,4.500000000000000000e+01,2.600000000000000000e+01,2.500000000000000000e+01,6.099999999999999867e-01,7.462078800000000000e+09
2.900000000000000000e+01,1.310000000000000000e+02,2.720000000000000000e+02,7.500000000000000000e+01,3.400000000000000000e+01,4.800000000000000000e+01,2.600000000000000000e+01,2.300000000000000000e+01,6.099999999999999867e-01,7.479672400000000000e+09
3.600000000000000000e+01,1.470000000000000000e+02,3.190000000000000000e+02,8.600000000000000000e+01,4.000000000000000000e+01,4.900000000000000000e+01,2.800000000000000000e+01,2.800000000000000000e+01,6.099999999999999867e-01,7.496812500000000000e+09
3.400000000000000000e+01,1.510000000000000000e+02,3.130000000000000000e+02,8.800000000000000000e+01,4.000000000000000000e+01,4.800000000000000000e+01,2.600000000000000000e+01,2.600000000000000000e+01,6.099999999999999867e-01,7.515846000000000000e+09
3.500000000000000000e+01,1.550000000000000000e+02,3.310000000000000000e+02,8.700000000000000000e+01,4.300000000000000000e+01,4.700000000000000000e+01,2.600000000000000000e+01,2.500000000000000000e+01,6.099999999999999867e-01,7.536805800000000000e+09
3.700000000000000000e+01,1.480000000000000000e+02,3.030000000000000000e+02,8.600000000000000000e+01,4.400000000000000000e+01,4.500000000000000000e+01,2.600000000000000000e+01,2.500000000000000000e+01,6.099999999999999867e-01,7.555470000000000000e+09
3.500000000000000000e+01,1.310000000000000000e+02,3.060000000000000000e+02,9.000000000000000000e+01,4.300000000000000000e+01,4.900000000000000000e+01,2.400000000000000000e+01,2.400000000000000000e+01,6.099999999999999867e-01,7.573162600000000000e+09
2.900000000000000000e+01,1.240000000000000000e+02,3.320000000000000000e+02,7.100000000000000000e+01,3.800000000000000000e+01,4.800000000000000000e+01,2.200000000000000000e+01,1.900000000000000000e+01,5.999999999999999778e-01,7.602976100000000000e+09
3.700000000000000000e+01,1.220000000000000000e+02,3.530000000000000000e+02,7.000000000000000000e+01,4.000000000000000000e+01,4.900000000000000000e+01,2.200000000000000000e+01,2.400000000000000000e+01,5.999999999999999778e-01,7.620445300000000000e+09
3.600000000000000000e+01,1.120000000000000000e+02,3.380000000000000000e+02,7.000000000000000000e+01,4.000000000000000000e+01,5.400000000000000000e+01,2.300000000000000000e+01,2.400000000000000000e+01,5.999999999999999778e-01,7.638418500000000000e+09
3.400000000000000000e+01,1.140000000000000000e+02,3.390000000000000000e+02,7.400000000000000000e+01,4.200000000000000000e+01,5.300000000000000000e+01,2.200000000000000000e+01,2.300000000000000000e+01,5.899999999999999689e-01,7.655973700000000000e+09
3.700000000000000000e+01,1.240000000000000000e+02,3.180000000000000000e+02,6.400000000000000000e+01,4.800000000000000000e+01,5.500000000000000000e+01,2.300000000000000000e+01,2.700000000000000000e+01,5.899999999999999689e-01,7.677676200000000000e+09
3.800000000000000000e+01,1.340000000000000000e+02,2.470000000000000000e+02,7.200000000000000000e+01,5.000000000000000000e+01,5.500000000000000000e+01,2.300000000000000000e+01,2.700000000000000000e+01,5.799999999999999600e-01,7.696683800000000000e+09
3.100000000000000000e+01,1.230000000000000000e+02,2.110000000000000000e+02,6.600000000000000000e+01,4.700000000000000000e+01,5.200000000000000000e+01,2.300000000000000000e+01,2.300000000000000000e+01,5.799999999999999600e-01,7.715433100000000000e+09
3.000000000000000000e+01,1.530000000000000000e+02,1.990000000000000000e+02,6.400000000000000000e+01,4.900000000000000000e+01,5.000000000000000000e+01,2.500000000000000000e+01,2.300000000000000000e+01,5.799999999999999600e-01,7.738504700000000000e+09
3.100000000000000000e+01,1.640000000000000000e+02,2.410000000000000000e+02,6.600000000000000000e+01,4.900000000000000000e+01,5.300000000000000000e+01,2.600000000000000000e+01,2.500000000000000000e+01,5.699999999999999512e-01,7.756474800000000000e+09
3.100000000000000000e+01,1.610000000000000000e+02,3.000000000000000000e+02,7.200000000000000000e+01,6.100000000000000000e+01,4.700000000000000000e+01,2.400000000000000000e+01,2.200000000000000000e+01,5.699999999999999512e-01,7.785184000000000000e+09
2.900000000000000000e+01,1.480000000000000000e+02,2.730000000000000000e+02,6.700000000000000000e+01,6.400000000000000000e+01,5.000000000000000000e+01,2.700000000000000000e+01,2.300000000000000000e+01,5.600000000000000533e-01,7.803071100000000000e+09
3.800000000000000000e+01,1.680000000000000000e+02,4.220000000000000000e+02,1.040000000000000000e+02,7.300000000000000000e+01,5.800000000000000000e+01,3.000000000000000000e+01,2.800000000000000000e+01,5.600000000000000533e-01,7.821663600000000000e+09
5.100000000000000000e+01,2.340000000000000000e+02,5.450000000000000000e+02,1.510000000000000000e+02,7.600000000000000000e+01,5.500000000000000000e+01,2.900000000000000000e+01,3.400000000000000000e+01,5.600000000000000533e-01,7.839764100000000000e+09
5.900000000000000000e+01,2.620000000000000000e+02,5.920000000000000000e+02,1.600000000000000000e+02,1.020000000000000000e+02,7.000000000000000000e+01,3.300000000000000000e+01,3.900000000000000000e+01,5.600000000000000533e-01,7.858580200000000000e+09
6.100000000000000000e+01,2.750000000000000000e+02,6.590000000000000000e+02,1.740000000000000000e+02,9.600000000000000000e+01,7.400000000000000000e+01,3.500000000000000000e+01,4.100000000000000000e+01,5.500000000000000444e-01,7.875941700000000000e+09
6.200000000000000000e+01,2.730000000000000000e+02,7.540000000000000000e+02,1.860000000000000000e+02,1.050000000000000000e+02,9.200000000000000000e+01,3.500000000000000000e+01,4.200000000000000000e+01,5.400000000000000355e-01,7.897750600000000000e+09
8.000000000000000000e+01,3.190000000000000000e+02,8.130000000000000000e+02,2.060000000000000000e+02,1.150000000000000000e+02,9.700000000000000000e+01,6.100000000000000000e+01,5.300000000000000000e+01,5.300000000000000266e-01,7.917863000000000000e+09
8.700000000000000000e+01,2.780000000000000000e+02,8.700000000000000000e+02,2.110000000000000000e+02,1.270000000000000000e+02,1.040000000000000000e+02,7.800000000000000000e+01,5.700000000000000000e+01,5.100000000000000089e-01,7.935158700000000000e+09
1.200000000000000000e+02,3.250000000000000000e+02,9.380000000000000000e+02,3.380000000000000000e+02,1.390000000000000000e+02,1.050000000000000000e+02,8.400000000000000000e+01,7.400000000000000000e+01,4.899999999999999911e-01,7.955918600000000000e+09
1.260000000000000000e+02,3.310000000000000000e+02,9.910000000000000000e+02,3.670000000000000000e+02,1.450000000000000000e+02,1.060000000000000000e+02,8.400000000000000000e+01,1.030000000000000000e+02,4.799999999999999822e-01,7.987716300000000000e+09
1.330000000000000000e+02,3.640000000000000000e+02,1.050000000000000000e+03,3.850000000000000000e+02,1.440000000000000000e+02,9.000000000000000000e+01,8.600000000000000000e+01,1.140000000000000000e+02,4.600000000000000200e-01,8.005145200000000000e+09
1.400000000000000000e+02,3.590000000000000000e+02,1.017000000000000000e+03,4.050000000000000000e+02,1.470000000000000000e+02,9.400000000000000000e+01,7.200000000000000000e+01,1.170000000000000000e+02,4.400000000000000022e-01,8.022604900000000000e+09
1.570000000000000000e+02,3.910000000000000000e+02,9.680000000000000000e+02,4.850000000000000000e+02,1.650000000000000000e+02,9.900000000000000000e+01,5.900000000000000000e+01,1.240000000000000000e+02,4.199999999999999845e-01,8.041760400000000000e+09
1.350000000000000000e+02,3.440000000000000000e+02,9.390000000000000000e+02,4.300000000000000000e+02,1.420000000000000000e+02,8.800000000000000000e+01,5.000000000000000000e+01,1.140000000000000000e+02,3.900000000000000133e-01,8.059448500000000000e+09
1.490000000000000000e+02,3.870000000000000000e+02,9.410000000000000000e+02,4.420000000000000000e+02,1.510000000000000000e+02,9.200000000000000000e+01,5.400000000000000000e+01,9.600000000000000000e+01,3.699999999999999956e-01,8.077095500000000000e+09
1.540000000000000000e+02,3.990000000000000000e+02,9.590000000000000000e+02,4.720000000000000000e+02,1.490000000000000000e+02,9.200000000000000000e+01,5.300000000000000000e+01,8.900000000000000000e+01,3.499999999999999778e-01,8.097749000000000000e+09
1.740000000000000000e+02,4.150000000000000000e+02,9.860000000000000000e+02,5.030000000000000000e+02,1.710000000000000000e+02,9.400000000000000000e+01,5.800000000000000000e+01,9.800000000000000000e+01,3.300000000000000155e-01,8.115730200000000000e+09
1.680000000000000000e+02,4.220000000000000000e+02,1.071000000000000000e+03,4.410000000000000000e+02,1.610000000000000000e+02,8.900000000000000000e+01,5.400000000000000000e+01,9.300000000000000000e+01,3.099999999999999978e-01,8.135581500000000000e+09
1.720000000000000000e+02,4.380000000000000000e+02,1.093000000000000000e+03,4.280000000000000000e+02,1.770000000000000000e+02,9.600000000000000000e+01,5.600000000000000000e+01,9.700000000000000000e+01,2.899999999999999800e-01,8.160328700000000000e+09
1.640000000000000000e+02,4.200000000000000000e+02,1.089000000000000000e+03,5.020000000000000000e+02,1.780000000000000000e+02,1.010000000000000000e+02,5.900000000000000000e+01,9.500000000000000000e+01,2.800000000000000266e-01,8.180896900000000000e+09
1.550000000000000000e+02,3.940000000000000000e+02,1.063000000000000000e+03,4.860000000000000000e+02,1.780000000000000000e+02,1.010000000000000000e+02,5.600000000000000000e+01,9.000000000000000000e+01,2.600000000000000089e-01,8.203042200000000000e+09
1.320000000000000000e+02,4.380000000000000000e+02,1.098000000000000000e+03,5.060000000000000000e+02,1.580000000000000000e+02,9.600000000000000000e+01,5.200000000000000000e+01,7.500000000000000000e+01,2.500000000000000000e-01,8.221043500000000000e+09
1.190000000000000000e+02,4.420000000000000000e+02,1.056000000000000000e+03,5.100000000000000000e+02,1.460000000000000000e+02,9.400000000000000000e+01,5.200000000000000000e+01,6.700000000000000000e+01,2.399999999999999911e-01,8.239134700000000000e+09
1.320000000000000000e+02,4.530000000000000000e+02,1.064000000000000000e+03,5.250000000000000000e+02,1.470000000000000000e+02,1.020000000000000000e+02,5.400000000000000000e+01,7.100000000000000000e+01,2.300000000000000100e-01,8.257601400000000000e+09
1.280000000000000000e+02,4.540000000000000000e+02,1.024000000000000000e+03,4.650000000000000000e+02,1.370000000000000000e+02,9.100000000000000000e+01,4.800000000000000000e+01,6.800000000000000000e+01,2.200000000000000011e-01,8.277815000000000000e+09
1.370000000000000000e+02,4.510000000000000000e+02,9.680000000000000000e+02,4.890000000000000000e+02,1.530000000000000000e+02,1.000000000000000000e+02,5.200000000000000000e+01,7.500000000000000000e+01,2.099999999999999922e-01,8.300308800000000000e+09
1.230000000000000000e+02,3.850000000000000000e+02,9.280000000000000000e+02,4.260000000000000000e+02,1.410000000000000000e+02,9.300000000000000000e+01,4.800000000000000000e+01,7.100000000000000000e+01,2.099999999999999922e-01,8.318461100000000000e+09
1.170000000000000000e+02,3.470000000000000000e+02,8.880000000000000000e+02,4.010000000000000000e+02,1.350000000000000000e+02,8.800000000000000000e+01,4.500000000000000000e+01,6.900000000000000000e+01,2.000000000000000111e-01,8.337634100000000000e+09
9.200000000000000000e+01,3.050000000000000000e+02,7.740000000000000000e+02,3.710000000000000000e+02,1.090000000000000000e+02,6.800000000000000000e+01,3.900000000000000000e+01,5.600000000000000000e+01,2.099999999999999922e-01,8.354862100000000000e+09
8.400000000000000000e+01,3.100000000000000000e+02,7.580000000000000000e+02,3.290000000000000000e+02,1.010000000000000000e+02,6.300000000000000000e+01,3.800000000000000000e+01,5.200000000000000000e+01,2.099999999999999922e-01,8.377128000000000000e+09
6.600000000000000000e+01,3.350000000000000000e+02,7.440000000000000000e+02,2.520000000000000000e+02,6.400000000000000000e+01,4.100000000000000000e+01,3.200000000000000000e+01,4.100000000000000000e+01,2.200000000000000011e-01,8.397572700000000000e+09
6.900000000000000000e+01,3.030000000000000000e+02,6.440000000000000000e+02,2.200000000000000000e+02,5.700000000000000000e+01,3.800000000000000000e+01,3.000000000000000000e+01,3.800000000000000000e+01,2.399999999999999911e-01,8.415172200000000000e+09
7.000000000000000000e+01,3.010000000000000000e+02,5.550000000000000000e+02,2.000000000000000000e+02,5.500000000000000000e+01,3.700000000000000000e+01,2.900000000000000000e+01,3.700000000000000000e+01,2.600000000000000089e-01,8.435712300000000000e+09
6.900000000000000000e+01,3.070000000000000000e+02,5.800000000000000000e+02,1.890000000000000000e+02,5.200000000000000000e+01,3.500000000000000000e+01,2.900000000000000000e+01,3.600000000000000000e+01,2.800000000000000266e-01,8.459219600000000000e+09
6.800000000000000000e+01,2.730000000000000000e+02,6.110000000000000000e+02,1.490000000000000000e+02,4.000000000000000000e+01,3.300000000000000000e+01,2.700000000000000000e+01,3.400000000000000000e+01,3.099999999999999978e-01,8.476898700000000000e+09
6.600000000000000000e+01,2.780000000000000000e+02,5.430000000000000000e+02,1.460000000000000000e+02,4.100000000000000000e+01,3.100000000000000000e+01,2.600000000000000000e+01,3.400000000000000000e+01,3.300000000000000155e-01,8.504625100000000000e+09
5.500000000000000000e+01,2.950000000000000000e+02,5.240000000000000000e+02,1.230000000000000000e+02,4.000000000000000000e+01,2.600000000000000000e+01,2.400000000000000000e+01,3.000000000000000000e+01,3.599999999999999867e-01,8.522582000000000000e+09
7.500000000000000000e+01,4.490000000000000000e+02,6.430000000000000000e+02,1.360000000000000000e+02,3.900000000000000000e+01,2.900000000000000000e+01,2.500000000000000000e+01,3.700000000000000000e+01,3.800000000000000044e-01,8.540782800000000000e+09
8.000000000000000000e+01,4.850000000000000000e+02,7.340000000000000000e+02,1.500000000000000000e+02,4.700000000000000000e+01,3.200000000000000000e+01,2.700000000000000000e+01,4.400000000000000000e+01,4.099999999999999756e-01,8.558510300000000000e+09
7.800000000000000000e+01,4.850000000000000000e+02,7.660000000000000000e+02,1.490000000000000000e+02,4.800000000000000000e+01,3.100000000000000000e+01,2.700000000000000000e+01,4.300000000000000000e+01,4.299999999999999933e-01,8.578139400000000000e+09
8.300000000000000000e+01,5.020000000000000000e+02,8.860000000000000000e+02,1.390000000000000000e+02,5.500000000000000000e+01,6.000000000000000000e+01,3.700000000000000000e+01,1.190000000000000000e+02,4.400000000000000022e-01,8.599765000000000000e+09
8.100000000000000000e+01,5.150000000000000000e+02,9.810000000000000000e+02,1.380000000000000000e+02,5.300000000000000000e+01,6.400000000000000000e+01,3.900000000000000000e+01,1.460000000000000000e+02,4.500000000000000111e-01,8.617717900000000000e+09
9.100000000000000000e+01,4.650000000000000000e+02,9.520000000000000000e+02,1.250000000000000000e+02,6.300000000000000000e+01,7.500000000000000000e+01,4.900000000000000000e+01,2.570000000000000000e+02,4.600000000000000200e-01,8.646307900000000000e+09
9.200000000000000000e+01,4.500000000000000000e+02,9.370000000000000000e+02,1.200000000000000000e+02,5.700000000000000000e+01,1.050000000000000000e+02,6.500000000000000000e+01,2.740000000000000000e+02,4.600000000000000200e-01,8.663487600000000000e+09
1.000000000000000000e+02,4.400000000000000000e+02,8.560000000000000000e+02,1.170000000000000000e+02,5.800000000000000000e+01,1.390000000000000000e+02,7.800000000000000000e+01,3.310000000000000000e+02,4.500000000000000111e-01,8.681155800000000000e+09
9.700000000000000000e+01,3.910000000000000000e+02,7.740000000000000000e+02,1.020000000000000000e+02,5.300000000000000000e+01,1.500000000000000000e+02,7.500000000000000000e+01,3.280000000000000000e+02,4.500000000000000111e-01,8.698498800000000000e+09
1.000000000000000000e+02,3.680000000000000000e+02,6.540000000000000000e+02,1.440000000000000000e+02,6.000000000000000000e+01,1.500000000000000000e+02,7.800000000000000000e+01,3.320000000000000000e+02,4.400000000000000022e-01,8.721336600000000000e+09
7.400000000000000000e+01,2.380000000000000000e+02,6.080000000000000000e+02,2.220000000000000000e+02,5.700000000000000000e+01,1.480000000000000000e+02,7.200000000000000000e+01,2.580000000000000000e+02,4.400000000000000022e-01,8.739391500000000000e+09
6.400000000000000000e+01,1.630000000000000000e+02,5.380000000000000000e+02,2.500000000000000000e+02,5.700000000000000000e+01,1.290000000000000000e+02,5.800000000000000000e+01,2.410000000000000000e+02,4.400000000000000022e-01,8.757585900000000000e+09
7.000000000000000000e+01,2.200000000000000000e+02,5.430000000000000000e+02,2.590000000000000000e+02,5.700000000000000000e+01,9.300000000000000000e+01,4.100000000000000000e+01,1.580000000000000000e+02,4.400000000000000022e-01,8.780388400000000000e+09
8.100000000000000000e+01,2.300000000000000000e+02,4.740000000000000000e+02,2.650000000000000000e+02,5.300000000000000000e+01,5.700000000000000000e+01,3.700000000000000000e+01,1.220000000000000000e+02,4.500000000000000111e-01,8.798323000000000000e+09
8.200000000000000000e+01,2.170000000000000000e+02,5.170000000000000000e+02,2.560000000000000000e+02,4.500000000000000000e+01,5.600000000000000000e+01,3.300000000000000000e+01,7.600000000000000000e+01,4.600000000000000200e-01,8.818156200000000000e+09
8.300000000000000000e+01,2.140000000000000000e+02,5.660000000000000000e+02,2.360000000000000000e+02,4.100000000000000000e+01,4.900000000000000000e+01,3.000000000000000000e+01,6.700000000000000000e+01,4.699999999999999734e-01,8.840064400000000000e+09
8.600000000000000000e+01,2.190000000000000000e+02,5.970000000000000000e+02,2.180000000000000000e+02,4.900000000000000000e+01,4.500000000000000000e+01,3.100000000000000000e+01,5.800000000000000000e+01,4.799999999999999822e-01,8.857760100000000000e+09
7.300000000000000000e+01,1.630000000000000000e+02,6.000000000000000000e+02,2.060000000000000000e+02,4.700000000000000000e+01,4.200000000000000000e+01,2.800000000000000000e+01,4.700000000000000000e+01,5.000000000000000000e-01,8.889785800000000000e+09
6.100000000000000000e+01,1.820000000000000000e+02,6.520000000000000000e+02,2.050000000000000000e+02,4.900000000000000000e+01,4.100000000000000000e+01,3.100000000000000000e+01,4.200000000000000000e+01,5.100000000000000089e-01,8.920847700000000000e+09
6.700000000000000000e+01,2.040000000000000000e+02,6.740000000000000000e+02,2.100000000000000000e+02,6.700000000000000000e+01,1.000000000000000000e+02,3.100000000000000000e+01,4.400000000000000000e+01,5.200000000000000178e-01,8.939274600000000000e+09
7.100000000000000000e+01,2.390000000000000000e+02,6.440000000000000000e+02,1.610000000000000000e+02,7.200000000000000000e+01,1.600000000000000000e+02,4.700000000000000000e+01,4.700000000000000000e+01,5.300000000000000266e-01,8.957236800000000000e+09
6.700000000000000000e+01,2.430000000000000000e+02,5.750000000000000000e+02,1.470000000000000000e+02,6.800000000000000000e+01,1.720000000000000000e+02,6.200000000000000000e+01,4.400000000000000000e+01,5.400000000000000355e-01,8.974836600000000000e+09
7.900000000000000000e+01,2.780000000000000000e+02,5.310000000000000000e+02,1.480000000000000000e+02,6.700000000000000000e+01,1.750000000000000000e+02,7.300000000000000000e+01,8.900000000000000000e+01,5.500000000000000444e-01,8.992859700000000000e+09
1.060000000000000000e+02,3.610000000000000000e+02,5.440000000000000000e+02,1.500000000000000000e+02,7.500000000000000000e+01,1.820000000000000000e+02,7.600000000000000000e+01,1.030000000000000000e+02,5.500000000000000444e-01,9.011900300000000000e+09
1.230000000000000000e+02,3.740000000000000000e+02,4.940000000000000000e+02,1.240000000000000000e+02,6.000000000000000000e+01,1.610000000000000000e+02,8.600000000000000000e+01,1.110000000000000000e+02,5.600000000000000533e-01,9.029426600000000000e+09
1.260000000000000000e+02,3.690000000000000000e+02,5.450000000000000000e+02,1.240000000000000000e+02,5.100000000000000000e+01,1.330000000000000000e+02,8.600000000000000000e+01,1.290000000000000000e+02,5.600000000000000533e-01,9.046972500000000000e+09
1.400000000000000000e+02,3.710000000000000000e+02,5.680000000000000000e+02,1.250000000000000000e+02,4.700000000000000000e+01,1.270000000000000000e+02,8.500000000000000000e+01,1.360000000000000000e+02,5.600000000000000533e-01,9.065011000000000000e+09
1.340000000000000000e+02,3.510000000000000000e+02,5.850000000000000000e+02,1.940000000000000000e+02,5.400000000000000000e+01,1.540000000000000000e+02,8.600000000000000000e+01,1.280000000000000000e+02,5.600000000000000533e-01,9.082338400000000000e+09
1.170000000000000000e+02,2.800000000000000000e+02,5.630000000000000000e+02,1.920000000000000000e+02,4.300000000000000000e+01,1.870000000000000000e+02,1.030000000000000000e+02,1.220000000000000000e+02,5.600000000000000533e-01,9.100211000000000000e+09
1.200000000000000000e+02,2.690000000000000000e+02,5.580000000000000000e+02,1.990000000000000000e+02,5.200000000000000000e+01,2.270000000000000000e+02,1.020000000000000000e+02,1.180000000000000000e+02,5.699999999999999512e-01,9.117824800000000000e+09
1.290000000000000000e+02,2.890000000000000000e+02,5.020000000000000000e+02,1.990000000000000000e+02,5.800000000000000000e+01,2.250000000000000000e+02,1.010000000000000000e+02,9.900000000000000000e+01,5.699999999999999512e-01,9.140421000000000000e+09
1.300000000000000000e+02,3.820000000000000000e+02,4.830000000000000000e+02,1.980000000000000000e+02,5.800000000000000000e+01,2.420000000000000000e+02,1.130000000000000000e+02,9.300000000000000000e+01,5.799999999999999600e-01,9.160017500000000000e+09
1.290000000000000000e+02,3.840000000000000000e+02,4.990000000000000000e+02,1.350000000000000000e+02,5.400000000000000000e+01,2.560000000000000000e+02,1.360000000000000000e+02,9.100000000000000000e+01,5.899999999999999689e-01,9.178226100000000000e+09
1.370000000000000000e+02,3.700000000000000000e+02,4.340000000000000000e+02,1.260000000000000000e+02,5.400000000000000000e+01,2.400000000000000000e+02,1.320000000000000000e+02,8.600000000000000000e+01,5.999999999999999778e-01,9.200786000000000000e+09
1.250000000000000000e+02,4.140000000000000000e+02,4.290000000000000000e+02,1.160000000000000000e+02,4.500000000000000000e+01,2.270000000000000000e+02,1.320000000000000000e+02,8.300000000000000000e+01,6.099999999999999867e-01,9.218442500000000000e+09
1.200000000000000000e+02,4.190000000000000000e+02,4.500000000000000000e+02,1.470000000000000000e+02,4.500000000000000000e+01,2.410000000000000000e+02,1.350000000000000000e+02,8.100000000000000000e+01,6.199999999999999956e-01,9.238135400000000000e+09
1.090000000000000000e+02,3.610000000000000000e+02,5.310000000000000000e+02,1.440000000000000000e+02,4.800000000000000000e+01,2.300000000000000000e+02,1.250000000000000000e+02,7.700000000000000000e+01,6.199999999999999956e-01,9.261883200000000000e+09
1.220000000000000000e+02,3.610000000000000000e+02,4.950000000000000000e+02,1.390000000000000000e+02,4.500000000000000000e+01,2.050000000000000000e+02,9.900000000000000000e+01,7.100000000000000000e+01,6.300000000000000044e-01,9.280876600000000000e+09
1.930000000000000000e+02,4.210000000000000000e+02,4.870000000000000000e+02,1.570000000000000000e+02,5.100000000000000000e+01,1.950000000000000000e+02,9.200000000000000000e+01,7.400000000000000000e+01,6.300000000000000044e-01,9.298360400000000000e+09
2.000000000000000000e+02,3.760000000000000000e+02,5.530000000000000000e+02,1.780000000000000000e+02,5.500000000000000000e+01,1.650000000000000000e+02,8.200000000000000000e+01,7.500000000000000000e+01,6.400000000000000133e-01,9.322464500000000000e+09
1.960000000000000000e+02,3.560000000000000000e+02,5.630000000000000000e+02,1.680000000000000000e+02,5.000000000000000000e+01,1.910000000000000000e+02,9.000000000000000000e+01,7.700000000000000000e+01,6.400000000000000133e-01,9.339986100000000000e+09
1.970000000000000000e+02,3.300000000000000000e+02,5.020000000000000000e+02,1.770000000000000000e+02,4.700000000000000000e+01,1.830000000000000000e+02,1.010000000000000000e+02,8.200000000000000000e+01,6.400000000000000133e-01,9.357994800000000000e+09
1.990000000000000000e+02,3.340000000000000000e+02,5.410000000000000000e+02,1.750000000000000000e+02,4.900000000000000000e+01,1.920000000000000000e+02,1.570000000000000000e+02,8.900000000000000000e+01,6.500000000000000222e-01,9.380570500000000000e+09
1.210000000000000000e+02,2.290000000000000000e+02,5.690000000000000000e+02,1.620000000000000000e+02,4.800000000000000000e+01,2.020000000000000000e+02,1.610000000000000000e+02,8.700000000000000000e+01,6.500000000000000222e-01,9.398250300000000000e+09
9.700000000000000000e+01,2.080000000000000000e+02,4.790000000000000000e+02,1.560000000000000000e+02,4.900000000000000000e+01,2.030000000000000000e+02,1.640000000000000000e+02,8.500000000000000000e+01,6.500000000000000222e-01,9.417951000000000000e+09
1.020000000000000000e+02,2.400000000000000000e+02,3.960000000000000000e+02,1.420000000000000000e+02,4.900000000000000000e+01,1.540000000000000000e+02,1.570000000000000000e+02,8.500000000000000000e+01,6.500000000000000222e-01,9.440759300000000000e+09
9.300000000000000000e+01,2.370000000000000000e+02,4.070000000000000000e+02,1.250000000000000000e+02,4.800000000000000000e+01,1.560000000000000000e+02,1.480000000000000000e+02,7.900000000000000000e+01,6.500000000000000222e-01,9.458345200000000000e+09
7.100000000000000000e+01,2.230000000000000000e+02,4.070000000000000000e+02,1.630000000000000000e+02,4.900000000000000000e+01,1.360000000000000000e+02,1.030000000000000000e+02,5.100000000000000000e+01,6.500000000000000222e-01,9.479038000000000000e+09
7.100000000000000000e+01,2.580000000000000000e+02,3.900000000000000000e+02,1.750000000000000000e+02,5.100000000000000000e+01,1.930000000000000000e+02,1.190000000000000000e+02,4.400000000000000000e+01,6.600000000000000311e-01,9.499830400000000000e+09
9.100000000000000000e+01,3.740000000000000000e+02,4.840000000000000000e+02,1.740000000000000000e+02,5.300000000000000000e+01,2.000000000000000000e+02,1.170000000000000000e+02,3.800000000000000000e+01,6.600000000000000311e-01,9.523943800000000000e+09
8.400000000000000000e+01,3.450000000000000000e+02,5.290000000000000000e+02,1.740000000000000000e+02,5.100000000000000000e+01,2.030000000000000000e+02,1.250000000000000000e+02,6.100000000000000000e+01,6.600000000000000311e-01,9.542150200000000000e+09
8.200000000000000000e+01,3.520000000000000000e+02,5.300000000000000000e+02,1.720000000000000000e+02,5.100000000000000000e+01,2.330000000000000000e+02,1.320000000000000000e+02,6.200000000000000000e+01,6.700000000000000400e-01,9.560789800000000000e+09
9.400000000000000000e+01,3.860000000000000000e+02,4.870000000000000000e+02,1.990000000000000000e+02,5.100000000000000000e+01,2.390000000000000000e+02,1.180000000000000000e+02,6.500000000000000000e+01,6.700000000000000400e-01,9.584171700000000000e+09
9.400000000000000000e+01,3.700000000000000000e+02,4.650000000000000000e+02,2.060000000000000000e+02,4.200000000000000000e+01,1.870000000000000000e+02,9.400000000000000000e+01,6.400000000000000000e+01,6.700000000000000400e-01,9.602530800000000000e+09
7.400000000000000000e+01,2.490000000000000000e+02,4.460000000000000000e+02,1.910000000000000000e+02,3.700000000000000000e+01,2.030000000000000000e+02,9.500000000000000000e+01,6.500000000000000000e+01,6.700000000000000400e-01,9.620577500000000000e+09
8.500000000000000000e+01,2.650000000000000000e+02,4.460000000000000000e+02,2.050000000000000000e+02,5.100000000000000000e+01,1.970000000000000000e+02,8.800000000000000000e+01,3.900000000000000000e+01,6.800000000000000488e-01,9.643284400000000000e+09
1.330000000000000000e+02,3.740000000000000000e+02,4.030000000000000000e+02,2.640000000000000000e+02,5.500000000000000000e+01,1.510000000000000000e+02,7.300000000000000000e+01,4.100000000000000000e+01,6.800000000000000488e-01,9.661807500000000000e+09
1.270000000000000000e+02,3.390000000000000000e+02,4.320000000000000000e+02,2.240000000000000000e+02,5.800000000000000000e+01,2.140000000000000000e+02,7.500000000000000000e+01,5.500000000000000000e+01,6.800000000000000488e-01,9.680377800000000000e+09
1.310000000000000000e+02,3.390000000000000000e+02,4.280000000000000000e+02,2.090000000000000000e+02,6.900000000000000000e+01,4.100000000000000000e+02,1.300000000000000000e+02,1.090000000000000000e+02,6.899999999999999467e-01,9.703550100000000000e+09
1.320000000000000000e+02,3.350000000000000000e+02,3.390000000000000000e+02,2.110000000000000000e+02,6.800000000000000000e+01,4.350000000000000000e+02,1.320000000000000000e+02,1.110000000000000000e+02,6.899999999999999467e-01,9.726621900000000000e+09
1.220000000000000000e+02,3.090000000000000000e+02,2.480000000000000000e+02,1.900000000000000000e+02,5.800000000000000000e+01,4.350000000000000000e+02,1.380000000000000000e+02,1.190000000000000000e+02,6.899999999999999467e-01,9.745609200000000000e+09
7.200000000000000000e+01,1.310000000000000000e+02,2.480000000000000000e+02,9.000000000000000000e+01,5.300000000000000000e+01,4.390000000000000000e+02,1.390000000000000000e+02,1.230000000000000000e+02,6.899999999999999467e-01,9.763405500000000000e+09
7.200000000000000000e+01,1.720000000000000000e+02,1.980000000000000000e+02,1.130000000000000000e+02,5.100000000000000000e+01,4.120000000000000000e+02,1.590000000000000000e+02,1.180000000000000000e+02,6.899999999999999467e-01,9.781933900000000000e+09
6.100000000000000000e+01,1.610000000000000000e+02,2.870000000000000000e+02,1.920000000000000000e+02,4.000000000000000000e+01,2.230000000000000000e+02,1.190000000000000000e+02,7.400000000000000000e+01,6.999999999999999556e-01,9.800771100000000000e+09
6.200000000000000000e+01,1.560000000000000000e+02,3.050000000000000000e+02,2.040000000000000000e+02,4.200000000000000000e+01,1.560000000000000000e+02,1.220000000000000000e+02,9.000000000000000000e+01,6.999999999999999556e-01,9.824303800000000000e+09
5.900000000000000000e+01,1.630000000000000000e+02,3.320000000000000000e+02,2.090000000000000000e+02,4.300000000000000000e+01,1.640000000000000000e+02,1.440000000000000000e+02,9.300000000000000000e+01,6.999999999999999556e-01,9.850769600000000000e+09
