5.300000000000000000e+01,7.000000000000000000e+01,5.370000000000000000e+02,1.130000000000000000e+02,1.090000000000000000e+02,2.790000000000000000e+02,8.700000000000000000e+01,1.140000000000000000e+02,4.500000000000000111e-01,5.326931000000000000e+08
5.700000000000000000e+01,8.600000000000000000e+01,5.270000000000000000e+02,1.220000000000000000e+02,1.110000000000000000e+02,2.770000000000000000e+02,8.600000000000000000e+01,1.100000000000000000e+02,4.500000000000000111e-01,5.671319000000000000e+08
5.200000000000000000e+01,8.400000000000000000e+01,3.940000000000000000e+02,1.270000000000000000e+02,1.250000000000000000e+02,2.560000000000000000e+02,8.400000000000000000e+01,1.020000000000000000e+02,4.600000000000000200e-01,8.982343000000000000e+08
5.600000000000000000e+01,8.300000000000000000e+01,3.630000000000000000e+02,1.260000000000000000e+02,1.280000000000000000e+02,1.930000000000000000e+02,9.000000000000000000e+01,7.700000000000000000e+01,4.600000000000000200e-01,9.157766000000000000e+08
6.700000000000000000e+01,1.010000000000000000e+02,5.060000000000000000e+02,1.420000000000000000e+02,1.320000000000000000e+02,2.000000000000000000e+02,9.000000000000000000e+01,7.800000000000000000e+01,4.699999999999999734e-01,9.347028000000000000e+08
6.800000000000000000e+01,1.100000000000000000e+02,5.220000000000000000e+02,1.500000000000000000e+02,1.340000000000000000e+02,1.850000000000000000e+02,7.900000000000000000e+01,7.300000000000000000e+01,4.699999999999999734e-01,9.543116000000000000e+08
6.500000000000000000e+01,1.060000000000000000e+02,5.110000000000000000e+02,1.460000000000000000e+02,1.330000000000000000e+02,1.780000000000000000e+02,6.500000000000000000e+01,7.300000000000000000e+01,4.699999999999999734e-01,9.723187000000000000e+08
6.500000000000000000e+01,1.180000000000000000e+02,6.060000000000000000e+02,1.470000000000000000e+02,1.010000000000000000e+02,1.230000000000000000e+02,5.600000000000000000e+01,6.900000000000000000e+01,4.699999999999999734e-01,9.902201000000000000e+08
6.200000000000000000e+01,1.160000000000000000e+02,5.840000000000000000e+02,1.420000000000000000e+02,8.800000000000000000e+01,1.360000000000000000e+02,3.800000000000000000e+01,4.600000000000000000e+01,4.699999999999999734e-01,1.008045900000000000e+09
4.100000000000000000e+01,9.700000000000000000e+01,4.860000000000000000e+02,1.330000000000000000e+02,8.200000000000000000e+01,1.270000000000000000e+02,3.700000000000000000e+01,3.700000000000000000e+01,4.699999999999999734e-01,1.026315100000000000e+09
4.300000000000000000e+01,8.300000000000000000e+01,4.690000000000000000e+02,1.330000000000000000e+02,8.700000000000000000e+01,1.320000000000000000e+02,3.900000000000000000e+01,3.400000000000000000e+01,4.699999999999999734e-01,1.053591600000000000e+09
4.300000000000000000e+01,8.800000000000000000e+01,4.920000000000000000e+02,1.340000000000000000e+02,8.300000000000000000e+01,1.210000000000000000e+02,3.800000000000000000e+01,3.400000000000000000e+01,4.799999999999999822e-01,1.073436200000000000e+09
4.300000000000000000e+01,8.300000000000000000e+01,3.890000000000000000e+02,1.380000000000000000e+02,7.800000000000000000e+01,1.240000000000000000e+02,4.400000000000000000e+01,4.100000000000000000e+01,4.799999999999999822e-01,1.090561600000000000e+09
4.500000000000000000e+01,9.600000000000000000e+01,4.170000000000000000e+02,1.980000000000000000e+02,8.800000000000000000e+01,1.060000000000000000e+02,4.300000000000000000e+01,4.300000000000000000e+01,4.899999999999999911e-01,1.110226400000000000e+09
4.900000000000000000e+01,9.900000000000000000e+01,4.170000000000000000e+02,2.040000000000000000e+02,8.900000000000000000e+01,1.010000000000000000e+02,6.200000000000000000e+01,4.200000000000000000e+01,4.899999999999999911e-01,1.127487200000000000e+09
5.000000000000000000e+01,1.000000000000000000e+02,4.120000000000000000e+02,1.990000000000000000e+02,8.500000000000000000e+01,2.550000000000000000e+02,7.500000000000000000e+01,1.200000000000000000e+02,5.000000000000000000e-01,1.145634000000000000e+09
4.800000000000000000e+01,8.400000000000000000e+01,3.640000000000000000e+02,1.930000000000000000e+02,8.300000000000000000e+01,2.750000000000000000e+02,8.200000000000000000e+01,1.240000000000000000e+02,5.100000000000000089e-01,1.164771300000000000e+09
4.500000000000000000e+01,8.000000000000000000e+01,4.020000000000000000e+02,1.840000000000000000e+02,8.200000000000000000e+01,2.750000000000000000e+02,7.900000000000000000e+01,1.230000000000000000e+02,5.200000000000000178e-01,1.182017300000000000e+09
4.100000000000000000e+01,6.600000000000000000e+01,4.740000000000000000e+02,1.360000000000000000e+02,7.300000000000000000e+01,2.750000000000000000e+02,8.100000000000000000e+01,1.230000000000000000e+02,5.300000000000000266e-01,1.206572500000000000e+09
3.700000000000000000e+01,6.400000000000000000e+01,4.580000000000000000e+02,1.090000000000000000e+02,6.500000000000000000e+01,2.760000000000000000e+02,7.400000000000000000e+01,1.240000000000000000e+02,5.300000000000000266e-01,1.223990700000000000e+09
3.600000000000000000e+01,7.300000000000000000e+01,4.510000000000000000e+02,1.010000000000000000e+02,5.400000000000000000e+01,1.440000000000000000e+02,6.000000000000000000e+01,5.400000000000000000e+01,5.400000000000000355e-01,1.246604700000000000e+09
3.700000000000000000e+01,7.200000000000000000e+01,4.770000000000000000e+02,9.700000000000000000e+01,5.100000000000000000e+01,1.220000000000000000e+02,5.500000000000000000e+01,4.300000000000000000e+01,5.400000000000000355e-01,1.266029800000000000e+09
4.200000000000000000e+01,6.600000000000000000e+01,4.260000000000000000e+02,9.900000000000000000e+01,5.400000000000000000e+01,1.200000000000000000e+02,5.300000000000000000e+01,7.400000000000000000e+01,5.500000000000000444e-01,1.283745500000000000e+09
4.500000000000000000e+01,7.100000000000000000e+01,3.620000000000000000e+02,8.600000000000000000e+01,7.200000000000000000e+01,1.250000000000000000e+02,5.100000000000000000e+01,7.400000000000000000e+01,5.500000000000000444e-01,1.301312200000000000e+09
4.800000000000000000e+01,7.400000000000000000e+01,3.860000000000000000e+02,1.180000000000000000e+02,7.700000000000000000e+01,1.160000000000000000e+02,3.700000000000000000e+01,7.600000000000000000e+01,5.500000000000000444e-01,1.319791500000000000e+09
4.400000000000000000e+01,7.300000000000000000e+01,3.810000000000000000e+02,1.180000000000000000e+02,7.800000000000000000e+01,1.110000000000000000e+02,4.400000000000000000e+01,7.700000000000000000e+01,5.500000000000000444e-01,1.339940600000000000e+09
4.300000000000000000e+01,9.300000000000000000e+01,4.230000000000000000e+02,1.150000000000000000e+02,7.900000000000000000e+01,9.800000000000000000e+01,3.800000000000000000e+01,1.030000000000000000e+02,5.500000000000000444e-01,1.360130400000000000e+09
4.000000000000000000e+01,9.400000000000000000e+01,4.220000000000000000e+02,1.130000000000000000e+02,7.900000000000000000e+01,1.060000000000000000e+02,3.700000000000000000e+01,8.600000000000000000e+01,5.400000000000000355e-01,1.379429000000000000e+09
3.600000000000000000e+01,9.100000000000000000e+01,3.760000000000000000e+02,1.010000000000000000e+02,5.700000000000000000e+01,9.800000000000000000e+01,4.000000000000000000e+01,9.000000000000000000e+01,5.400000000000000355e-01,1.397614300000000000e+09
4.000000000000000000e+01,8.800000000000000000e+01,3.620000000000000000e+02,6.200000000000000000e+01,5.400000000000000000e+01,9.400000000000000000e+01,4.300000000000000000e+01,9.000000000000000000e+01,5.400000000000000355e-01,1.415662000000000000e+09
4.500000000000000000e+01,8.700000000000000000e+01,3.730000000000000000e+02,5.500000000000000000e+01,5.300000000000000000e+01,1.020000000000000000e+02,4.100000000000000000e+01,8.900000000000000000e+01,5.400000000000000355e-01,1.436984500000000000e+09
5.100000000000000000e+01,1.020000000000000000e+02,3.430000000000000000e+02,6.300000000000000000e+01,5.400000000000000000e+01,1.240000000000000000e+02,4.900000000000000000e+01,5.500000000000000000e+01,5.400000000000000355e-01,1.457000600000000000e+09
5.000000000000000000e+01,1.030000000000000000e+02,3.840000000000000000e+02,5.800000000000000000e+01,4.700000000000000000e+01,1.200000000000000000e+02,4.900000000000000000e+01,5.600000000000000000e+01,5.300000000000000266e-01,1.475468500000000000e+09
5.900000000000000000e+01,1.210000000000000000e+02,4.390000000000000000e+02,7.400000000000000000e+01,5.400000000000000000e+01,1.220000000000000000e+02,4.800000000000000000e+01,5.000000000000000000e+01,5.300000000000000266e-01,1.495509000000000000e+09
5.800000000000000000e+01,1.240000000000000000e+02,4.780000000000000000e+02,7.200000000000000000e+01,5.400000000000000000e+01,1.270000000000000000e+02,4.400000000000000000e+01,4.800000000000000000e+01,5.300000000000000266e-01,1.514794600000000000e+09
5.800000000000000000e+01,1.240000000000000000e+02,4.630000000000000000e+02,7.400000000000000000e+01,5.100000000000000000e+01,1.200000000000000000e+02,3.700000000000000000e+01,5.200000000000000000e+01,5.300000000000000266e-01,1.533442300000000000e+09
5.800000000000000000e+01,1.020000000000000000e+02,4.190000000000000000e+02,6.800000000000000000e+01,4.800000000000000000e+01,8.400000000000000000e+01,2.500000000000000000e+01,5.500000000000000000e+01,5.300000000000000266e-01,1.554933800000000000e+09
5.900000000000000000e+01,9.800000000000000000e+01,3.710000000000000000e+02,6.900000000000000000e+01,5.000000000000000000e+01,7.300000000000000000e+01,2.500000000000000000e+01,5.100000000000000000e+01,5.400000000000000355e-01,1.573246000000000000e+09
5.700000000000000000e+01,8.700000000000000000e+01,2.940000000000000000e+02,8.000000000000000000e+01,4.600000000000000000e+01,6.700000000000000000e+01,2.200000000000000000e+01,5.100000000000000000e+01,5.400000000000000355e-01,1.590781300000000000e+09
5.400000000000000000e+01,9.500000000000000000e+01,1.650000000000000000e+02,8.300000000000000000e+01,3.900000000000000000e+01,5.200000000000000000e+01,2.000000000000000000e+01,4.800000000000000000e+01,5.400000000000000355e-01,1.610389600000000000e+09
5.200000000000000000e+01,1.230000000000000000e+02,2.150000000000000000e+02,8.400000000000000000e+01,4.200000000000000000e+01,4.600000000000000000e+01,2.500000000000000000e+01,5.200000000000000000e+01,5.400000000000000355e-01,1.629874700000000000e+09
4.800000000000000000e+01,1.340000000000000000e+02,2.510000000000000000e+02,8.300000000000000000e+01,3.800000000000000000e+01,4.100000000000000000e+01,3.500000000000000000e+01,5.300000000000000000e+01,5.400000000000000355e-01,1.650782600000000000e+09
5.300000000000000000e+01,1.480000000000000000e+02,2.480000000000000000e+02,8.300000000000000000e+01,3.800000000000000000e+01,4.100000000000000000e+01,4.000000000000000000e+01,5.600000000000000000e+01,5.500000000000000444e-01,1.669417700000000000e+09
6.900000000000000000e+01,1.440000000000000000e+02,3.160000000000000000e+02,6.200000000000000000e+01,3.400000000000000000e+01,4.100000000000000000e+01,4.800000000000000000e+01,5.700000000000000000e+01,5.500000000000000444e-01,1.687265100000000000e+09
9.700000000000000000e+01,1.900000000000000000e+02,3.930000000000000000e+02,6.900000000000000000e+01,4.000000000000000000e+01,4.400000000000000000e+01,5.900000000000000000e+01,5.800000000000000000e+01,5.500000000000000444e-01,1.705694200000000000e+09
9.800000000000000000e+01,1.840000000000000000e+02,3.940000000000000000e+02,6.700000000000000000e+01,4.200000000000000000e+01,4.400000000000000000e+01,6.000000000000000000e+01,4.900000000000000000e+01,5.500000000000000444e-01,1.723129500000000000e+09
9.700000000000000000e+01,1.730000000000000000e+02,3.690000000000000000e+02,6.600000000000000000e+01,4.300000000000000000e+01,4.200000000000000000e+01,5.600000000000000000e+01,4.200000000000000000e+01,5.500000000000000444e-01,1.740807300000000000e+09
9.700000000000000000e+01,1.660000000000000000e+02,3.820000000000000000e+02,7.100000000000000000e+01,4.500000000000000000e+01,4.300000000000000000e+01,5.800000000000000000e+01,3.700000000000000000e+01,5.500000000000000444e-01,1.762420200000000000e+09
8.200000000000000000e+01,1.650000000000000000e+02,3.200000000000000000e+02,7.400000000000000000e+01,5.400000000000000000e+01,4.000000000000000000e+01,5.800000000000000000e+01,3.100000000000000000e+01,5.500000000000000444e-01,1.781317100000000000e+09
6.700000000000000000e+01,1.340000000000000000e+02,2.720000000000000000e+02,7.800000000000000000e+01,5.900000000000000000e+01,4.200000000000000000e+01,4.800000000000000000e+01,3.300000000000000000e+01,5.600000000000000533e-01,1.798342100000000000e+09
7.200000000000000000e+01,1.490000000000000000e+02,2.550000000000000000e+02,8.100000000000000000e+01,6.400000000000000000e+01,8.300000000000000000e+01,4.500000000000000000e+01,3.600000000000000000e+01,5.600000000000000533e-01,1.815696800000000000e+09
7.200000000000000000e+01,1.470000000000000000e+02,2.540000000000000000e+02,8.100000000000000000e+01,6.400000000000000000e+01,1.120000000000000000e+02,4.700000000000000000e+01,3.600000000000000000e+01,5.600000000000000533e-01,1.833255000000000000e+09
7.000000000000000000e+01,1.460000000000000000e+02,2.580000000000000000e+02,7.600000000000000000e+01,6.300000000000000000e+01,1.140000000000000000e+02,4.200000000000000000e+01,3.300000000000000000e+01,5.600000000000000533e-01,1.853499800000000000e+09
7.000000000000000000e+01,1.610000000000000000e+02,3.420000000000000000e+02,7.900000000000000000e+01,6.400000000000000000e+01,1.230000000000000000e+02,3.500000000000000000e+01,3.300000000000000000e+01,5.600000000000000533e-01,1.870837500000000000e+09
5.000000000000000000e+01,1.360000000000000000e+02,3.280000000000000000e+02,5.900000000000000000e+01,6.100000000000000000e+01,1.390000000000000000e+02,3.400000000000000000e+01,3.100000000000000000e+01,5.600000000000000533e-01,1.887998700000000000e+09
4.000000000000000000e+01,9.900000000000000000e+01,3.130000000000000000e+02,5.300000000000000000e+01,5.500000000000000000e+01,1.230000000000000000e+02,3.400000000000000000e+01,2.500000000000000000e+01,5.600000000000000533e-01,1.905729600000000000e+09
4.100000000000000000e+01,1.000000000000000000e+02,3.110000000000000000e+02,5.500000000000000000e+01,5.300000000000000000e+01,1.150000000000000000e+02,4.500000000000000000e+01,2.800000000000000000e+01,5.600000000000000533e-01,1.923189500000000000e+09
4.700000000000000000e+01,1.230000000000000000e+02,3.140000000000000000e+02,5.800000000000000000e+01,5.200000000000000000e+01,1.310000000000000000e+02,5.800000000000000000e+01,3.200000000000000000e+01,5.600000000000000533e-01,1.941926600000000000e+09
6.800000000000000000e+01,1.340000000000000000e+02,2.750000000000000000e+02,7.100000000000000000e+01,4.900000000000000000e+01,1.300000000000000000e+02,6.100000000000000000e+01,3.700000000000000000e+01,5.500000000000000444e-01,1.960989200000000000e+09
7.200000000000000000e+01,1.370000000000000000e+02,2.530000000000000000e+02,7.900000000000000000e+01,4.600000000000000000e+01,1.140000000000000000e+02,6.200000000000000000e+01,3.800000000000000000e+01,5.500000000000000444e-01,1.978725700000000000e+09
1.000000000000000000e+02,1.410000000000000000e+02,2.710000000000000000e+02,8.200000000000000000e+01,4.600000000000000000e+01,1.140000000000000000e+02,6.100000000000000000e+01,3.900000000000000000e+01,5.500000000000000444e-01,1.996246100000000000e+09
1.160000000000000000e+02,1.420000000000000000e+02,2.780000000000000000e+02,8.500000000000000000e+01,4.800000000000000000e+01,9.900000000000000000e+01,5.100000000000000000e+01,4.500000000000000000e+01,5.600000000000000533e-01,2.013318500000000000e+09
1.540000000000000000e+02,1.220000000000000000e+02,2.690000000000000000e+02,8.400000000000000000e+01,5.000000000000000000e+01,1.120000000000000000e+02,3.700000000000000000e+01,5.400000000000000000e+01,5.500000000000000444e-01,2.032029100000000000e+09
1.670000000000000000e+02,9.100000000000000000e+01,2.130000000000000000e+02,6.600000000000000000e+01,4.200000000000000000e+01,1.100000000000000000e+02,3.400000000000000000e+01,5.300000000000000000e+01,5.500000000000000444e-01,2.051618700000000000e+09
1.740000000000000000e+02,1.110000000000000000e+02,2.280000000000000000e+02,7.300000000000000000e+01,3.900000000000000000e+01,1.190000000000000000e+02,4.500000000000000000e+01,5.300000000000000000e+01,5.500000000000000444e-01,2.069733900000000000e+09
1.610000000000000000e+02,1.090000000000000000e+02,2.360000000000000000e+02,7.700000000000000000e+01,3.900000000000000000e+01,1.590000000000000000e+02,4.900000000000000000e+01,5.300000000000000000e+01,5.500000000000000444e-01,2.088254800000000000e+09
1.510000000000000000e+02,1.240000000000000000e+02,2.620000000000000000e+02,7.500000000000000000e+01,4.100000000000000000e+01,1.910000000000000000e+02,5.100000000000000000e+01,4.600000000000000000e+01,5.500000000000000444e-01,2.106650000000000000e+09
1.110000000000000000e+02,1.290000000000000000e+02,2.690000000000000000e+02,8.000000000000000000e+01,4.200000000000000000e+01,1.710000000000000000e+02,4.700000000000000000e+01,3.300000000000000000e+01,5.600000000000000533e-01,2.124770700000000000e+09
7.800000000000000000e+01,1.280000000000000000e+02,2.880000000000000000e+02,8.100000000000000000e+01,4.100000000000000000e+01,1.680000000000000000e+02,4.500000000000000000e+01,2.700000000000000000e+01,5.600000000000000533e-01,2.143176400000000000e+09
5.400000000000000000e+01,1.040000000000000000e+02,2.740000000000000000e+02,6.400000000000000000e+01,3.700000000000000000e+01,1.620000000000000000e+02,3.500000000000000000e+01,3.300000000000000000e+01,5.600000000000000533e-01,2.162431200000000000e+09
5.600000000000000000e+01,1.410000000000000000e+02,2.560000000000000000e+02,6.800000000000000000e+01,4.200000000000000000e+01,1.270000000000000000e+02,3.000000000000000000e+01,3.500000000000000000e+01,5.600000000000000533e-01,2.179829900000000000e+09
6.200000000000000000e+01,1.330000000000000000e+02,2.280000000000000000e+02,7.200000000000000000e+01,3.900000000000000000e+01,8.900000000000000000e+01,3.800000000000000000e+01,4.300000000000000000e+01,5.600000000000000533e-01,2.197077400000000000e+09
5.700000000000000000e+01,1.270000000000000000e+02,2.350000000000000000e+02,6.800000000000000000e+01,4.400000000000000000e+01,8.800000000000000000e+01,3.900000000000000000e+01,4.300000000000000000e+01,5.500000000000000444e-01,2.215279400000000000e+09
5.900000000000000000e+01,1.250000000000000000e+02,2.090000000000000000e+02,7.300000000000000000e+01,6.000000000000000000e+01,1.020000000000000000e+02,4.300000000000000000e+01,4.600000000000000000e+01,5.500000000000000444e-01,2.233518900000000000e+09
7.000000000000000000e+01,1.360000000000000000e+02,2.410000000000000000e+02,9.900000000000000000e+01,6.800000000000000000e+01,1.000000000000000000e+02,4.100000000000000000e+01,4.300000000000000000e+01,5.600000000000000533e-01,2.253280100000000000e+09
6.900000000000000000e+01,1.090000000000000000e+02,2.810000000000000000e+02,9.600000000000000000e+01,6.700000000000000000e+01,9.100000000000000000e+01,4.100000000000000000e+01,4.100000000000000000e+01,5.600000000000000533e-01,2.271313400000000000e+09
6.500000000000000000e+01,1.120000000000000000e+02,3.870000000000000000e+02,9.700000000000000000e+01,6.800000000000000000e+01,7.300000000000000000e+01,3.100000000000000000e+01,3.400000000000000000e+01,5.600000000000000533e-01,2.287815200000000000e+09
6.700000000000000000e+01,1.280000000000000000e+02,4.610000000000000000e+02,9.600000000000000000e+01,6.400000000000000000e+01,1.080000000000000000e+02,3.100000000000000000e+01,4.000000000000000000e+01,5.600000000000000533e-01,2.304009300000000000e+09
6.700000000000000000e+01,1.400000000000000000e+02,4.960000000000000000e+02,9.100000000000000000e+01,6.500000000000000000e+01,1.130000000000000000e+02,3.300000000000000000e+01,4.000000000000000000e+01,5.600000000000000533e-01,2.319986900000000000e+09
8.100000000000000000e+01,2.090000000000000000e+02,5.750000000000000000e+02,1.060000000000000000e+02,8.200000000000000000e+01,1.170000000000000000e+02,3.500000000000000000e+01,4.300000000000000000e+01,5.500000000000000444e-01,2.336885000000000000e+09
8.500000000000000000e+01,2.140000000000000000e+02,6.030000000000000000e+02,1.210000000000000000e+02,8.700000000000000000e+01,1.210000000000000000e+02,3.900000000000000000e+01,4.300000000000000000e+01,5.500000000000000444e-01,2.355507300000000000e+09
8.800000000000000000e+01,2.470000000000000000e+02,5.640000000000000000e+02,1.240000000000000000e+02,9.000000000000000000e+01,1.680000000000000000e+02,4.000000000000000000e+01,4.300000000000000000e+01,5.500000000000000444e-01,2.371937700000000000e+09
9.900000000000000000e+01,2.590000000000000000e+02,5.350000000000000000e+02,1.290000000000000000e+02,9.400000000000000000e+01,1.900000000000000000e+02,4.500000000000000000e+01,3.800000000000000000e+01,5.500000000000000444e-01,2.388220600000000000e+09
1.070000000000000000e+02,3.160000000000000000e+02,5.680000000000000000e+02,1.320000000000000000e+02,8.900000000000000000e+01,1.870000000000000000e+02,4.200000000000000000e+01,3.600000000000000000e+01,5.500000000000000444e-01,2.404412900000000000e+09
1.000000000000000000e+02,3.040000000000000000e+02,4.960000000000000000e+02,1.080000000000000000e+02,7.300000000000000000e+01,2.170000000000000000e+02,5.300000000000000000e+01,3.600000000000000000e+01,5.500000000000000444e-01,2.422377500000000000e+09
9.700000000000000000e+01,3.040000000000000000e+02,4.710000000000000000e+02,8.800000000000000000e+01,7.200000000000000000e+01,2.400000000000000000e+02,5.300000000000000000e+01,4.100000000000000000e+01,5.500000000000000444e-01,2.441184100000000000e+09
9.400000000000000000e+01,2.840000000000000000e+02,5.110000000000000000e+02,8.600000000000000000e+01,7.900000000000000000e+01,2.260000000000000000e+02,5.300000000000000000e+01,4.100000000000000000e+01,5.500000000000000444e-01,2.458195100000000000e+09
9.600000000000000000e+01,3.010000000000000000e+02,5.240000000000000000e+02,1.060000000000000000e+02,9.300000000000000000e+01,1.990000000000000000e+02,5.300000000000000000e+01,4.200000000000000000e+01,5.500000000000000444e-01,2.476328700000000000e+09
1.060000000000000000e+02,2.580000000000000000e+02,6.270000000000000000e+02,1.370000000000000000e+02,1.010000000000000000e+02,1.920000000000000000e+02,5.400000000000000000e+01,4.800000000000000000e+01,5.400000000000000355e-01,2.492757500000000000e+09
1.010000000000000000e+02,2.240000000000000000e+02,7.000000000000000000e+02,1.360000000000000000e+02,9.900000000000000000e+01,1.870000000000000000e+02,4.800000000000000000e+01,4.600000000000000000e+01,5.300000000000000266e-01,2.509008800000000000e+09
1.060000000000000000e+02,2.470000000000000000e+02,7.460000000000000000e+02,1.430000000000000000e+02,9.900000000000000000e+01,2.140000000000000000e+02,4.800000000000000000e+01,4.400000000000000000e+01,5.200000000000000178e-01,2.525335000000000000e+09
1.160000000000000000e+02,2.760000000000000000e+02,8.380000000000000000e+02,1.540000000000000000e+02,9.600000000000000000e+01,2.110000000000000000e+02,4.700000000000000000e+01,5.000000000000000000e+01,5.100000000000000089e-01,2.544578400000000000e+09
1.310000000000000000e+02,2.910000000000000000e+02,8.190000000000000000e+02,1.540000000000000000e+02,9.100000000000000000e+01,2.130000000000000000e+02,4.300000000000000000e+01,5.700000000000000000e+01,5.000000000000000000e-01,2.561474500000000000e+09
1.530000000000000000e+02,3.330000000000000000e+02,8.700000000000000000e+02,1.590000000000000000e+02,1.010000000000000000e+02,2.210000000000000000e+02,4.600000000000000000e+01,6.600000000000000000e+01,4.899999999999999911e-01,2.578416500000000000e+09
1.660000000000000000e+02,3.550000000000000000e+02,9.370000000000000000e+02,1.830000000000000000e+02,1.120000000000000000e+02,2.200000000000000000e+02,5.100000000000000000e+01,6.900000000000000000e+01,4.799999999999999822e-01,2.595932100000000000e+09
1.700000000000000000e+02,3.510000000000000000e+02,9.630000000000000000e+02,1.880000000000000000e+02,1.150000000000000000e+02,1.940000000000000000e+02,5.600000000000000000e+01,7.000000000000000000e+01,4.600000000000000200e-01,2.612928800000000000e+09
1.770000000000000000e+02,4.190000000000000000e+02,1.069000000000000000e+03,1.920000000000000000e+02,1.150000000000000000e+02,2.060000000000000000e+02,6.000000000000000000e+01,7.100000000000000000e+01,4.500000000000000111e-01,2.630173900000000000e+09
1.670000000000000000e+02,4.240000000000000000e+02,1.133000000000000000e+03,2.050000000000000000e+02,1.090000000000000000e+02,2.140000000000000000e+02,6.100000000000000000e+01,6.500000000000000000e+01,4.299999999999999933e-01,2.648358200000000000e+09
1.380000000000000000e+02,4.030000000000000000e+02,1.043000000000000000e+03,1.880000000000000000e+02,9.000000000000000000e+01,2.180000000000000000e+02,6.600000000000000000e+01,5.100000000000000000e+01,4.099999999999999756e-01,2.665027500000000000e+09
1.280000000000000000e+02,3.880000000000000000e+02,1.016000000000000000e+03,1.950000000000000000e+02,9.000000000000000000e+01,2.010000000000000000e+02,6.200000000000000000e+01,4.900000000000000000e+01,4.000000000000000222e-01,2.681089200000000000e+09
1.260000000000000000e+02,3.980000000000000000e+02,1.038000000000000000e+03,1.970000000000000000e+02,9.900000000000000000e+01,1.710000000000000000e+02,5.700000000000000000e+01,5.300000000000000000e+01,3.900000000000000133e-01,2.697404700000000000e+09
1.130000000000000000e+02,3.100000000000000000e+02,9.040000000000000000e+02,2.040000000000000000e+02,1.170000000000000000e+02,1.810000000000000000e+02,5.800000000000000000e+01,5.300000000000000000e+01,3.800000000000000044e-01,2.714430600000000000e+09
1.020000000000000000e+02,2.670000000000000000e+02,9.480000000000000000e+02,1.870000000000000000e+02,1.180000000000000000e+02,1.900000000000000000e+02,6.500000000000000000e+01,5.800000000000000000e+01,3.599999999999999867e-01,2.732621000000000000e+09
1.090000000000000000e+02,2.360000000000000000e+02,9.490000000000000000e+02,1.920000000000000000e+02,1.190000000000000000e+02,1.880000000000000000e+02,6.300000000000000000e+01,6.200000000000000000e+01,3.499999999999999778e-01,2.750450800000000000e+09
1.070000000000000000e+02,2.680000000000000000e+02,9.240000000000000000e+02,1.920000000000000000e+02,1.170000000000000000e+02,1.890000000000000000e+02,6.100000000000000000e+01,6.400000000000000000e+01,3.400000000000000244e-01,2.767799800000000000e+09
1.060000000000000000e+02,2.870000000000000000e+02,9.030000000000000000e+02,1.960000000000000000e+02,1.110000000000000000e+02,1.890000000000000000e+02,6.100000000000000000e+01,6.300000000000000000e+01,3.300000000000000155e-01,2.783858600000000000e+09
1.050000000000000000e+02,2.800000000000000000e+02,8.500000000000000000e+02,1.800000000000000000e+02,9.600000000000000000e+01,1.660000000000000000e+02,6.200000000000000000e+01,6.700000000000000000e+01,3.300000000000000155e-01,2.800029300000000000e+09
1.070000000000000000e+02,2.950000000000000000e+02,8.260000000000000000e+02,1.820000000000000000e+02,9.400000000000000000e+01,1.640000000000000000e+02,5.500000000000000000e+01,6.400000000000000000e+01,3.200000000000000067e-01,2.816488700000000000e+09
1.000000000000000000e+02,3.190000000000000000e+02,9.740000000000000000e+02,2.010000000000000000e+02,9.700000000000000000e+01,1.510000000000000000e+02,5.000000000000000000e+01,6.300000000000000000e+01,3.099999999999999978e-01,2.837961500000000000e+09
9.800000000000000000e+01,2.830000000000000000e+02,9.690000000000000000e+02,1.980000000000000000e+02,9.400000000000000000e+01,1.440000000000000000e+02,4.600000000000000000e+01,6.100000000000000000e+01,3.099999999999999978e-01,2.855519500000000000e+09
9.400000000000000000e+01,2.350000000000000000e+02,9.210000000000000000e+02,2.030000000000000000e+02,9.100000000000000000e+01,1.510000000000000000e+02,4.500000000000000000e+01,5.800000000000000000e+01,3.099999999999999978e-01,2.872408000000000000e+09
8.800000000000000000e+01,2.220000000000000000e+02,9.710000000000000000e+02,2.110000000000000000e+02,8.500000000000000000e+01,1.330000000000000000e+02,4.600000000000000000e+01,4.700000000000000000e+01,3.099999999999999978e-01,2.889474500000000000e+09
8.700000000000000000e+01,1.950000000000000000e+02,8.990000000000000000e+02,2.300000000000000000e+02,9.200000000000000000e+01,9.800000000000000000e+01,4.400000000000000000e+01,4.500000000000000000e+01,3.099999999999999978e-01,2.905774000000000000e+09
8.900000000000000000e+01,1.460000000000000000e+02,7.440000000000000000e+02,2.070000000000000000e+02,8.900000000000000000e+01,1.010000000000000000e+02,4.200000000000000000e+01,4.100000000000000000e+01,3.200000000000000067e-01,2.921831400000000000e+09
9.200000000000000000e+01,1.720000000000000000e+02,7.410000000000000000e+02,1.930000000000000000e+02,8.300000000000000000e+01,1.020000000000000000e+02,4.500000000000000000e+01,4.400000000000000000e+01,3.200000000000000067e-01,2.939973400000000000e+09
9.000000000000000000e+01,1.660000000000000000e+02,7.290000000000000000e+02,1.920000000000000000e+02,8.400000000000000000e+01,9.900000000000000000e+01,4.700000000000000000e+01,4.300000000000000000e+01,3.300000000000000155e-01,2.959075600000000000e+09
9.500000000000000000e+01,1.680000000000000000e+02,8.380000000000000000e+02,2.080000000000000000e+02,1.030000000000000000e+02,9.900000000000000000e+01,4.000000000000000000e+01,4.600000000000000000e+01,3.300000000000000155e-01,2.975801800000000000e+09
9.300000000000000000e+01,1.670000000000000000e+02,9.100000000000000000e+02,2.040000000000000000e+02,9.500000000000000000e+01,1.070000000000000000e+02,3.900000000000000000e+01,4.600000000000000000e+01,3.400000000000000244e-01,2.992139200000000000e+09
8.600000000000000000e+01,1.760000000000000000e+02,9.300000000000000000e+02,2.210000000000000000e+02,9.700000000000000000e+01,1.060000000000000000e+02,4.100000000000000000e+01,4.500000000000000000e+01,3.400000000000000244e-01,3.008184900000000000e+09
8.700000000000000000e+01,1.640000000000000000e+02,9.530000000000000000e+02,2.350000000000000000e+02,9.800000000000000000e+01,1.100000000000000000e+02,3.900000000000000000e+01,4.500000000000000000e+01,3.499999999999999778e-01,3.024306500000000000e+09
8.700000000000000000e+01,1.550000000000000000e+02,1.055000000000000000e+03,2.450000000000000000e+02,9.900000000000000000e+01,1.040000000000000000e+02,3.600000000000000000e+01,4.400000000000000000e+01,3.499999999999999778e-01,3.044620100000000000e+09
7.900000000000000000e+01,1.510000000000000000e+02,9.060000000000000000e+02,2.230000000000000000e+02,7.700000000000000000e+01,1.000000000000000000e+02,5.100000000000000000e+01,4.200000000000000000e+01,3.599999999999999867e-01,3.061539300000000000e+09
8.200000000000000000e+01,1.400000000000000000e+02,8.650000000000000000e+02,2.130000000000000000e+02,7.800000000000000000e+01,2.550000000000000000e+02,6.800000000000000000e+01,4.100000000000000000e+01,3.599999999999999867e-01,3.078001100000000000e+09
8.600000000000000000e+01,1.140000000000000000e+02,8.410000000000000000e+02,2.080000000000000000e+02,8.700000000000000000e+01,3.050000000000000000e+02,7.300000000000000000e+01,1.430000000000000000e+02,3.699999999999999956e-01,3.095419400000000000e+09
1.400000000000000000e+02,2.340000000000000000e+02,7.880000000000000000e+02,2.820000000000000000e+02,1.550000000000000000e+02,3.150000000000000000e+02,7.900000000000000000e+01,1.460000000000000000e+02,3.599999999999999867e-01,3.112469800000000000e+09
1.390000000000000000e+02,2.450000000000000000e+02,6.350000000000000000e+02,2.650000000000000000e+02,1.560000000000000000e+02,3.310000000000000000e+02,8.700000000000000000e+01,1.500000000000000000e+02,3.599999999999999867e-01,3.130531100000000000e+09
1.450000000000000000e+02,2.500000000000000000e+02,7.570000000000000000e+02,2.740000000000000000e+02,1.670000000000000000e+02,3.580000000000000000e+02,8.600000000000000000e+01,1.560000000000000000e+02,3.499999999999999778e-01,3.149313400000000000e+09
1.440000000000000000e+02,2.640000000000000000e+02,8.190000000000000000e+02,2.920000000000000000e+02,1.700000000000000000e+02,3.380000000000000000e+02,8.300000000000000000e+01,1.630000000000000000e+02,3.400000000000000244e-01,3.166351300000000000e+09
1.470000000000000000e+02,2.740000000000000000e+02,8.370000000000000000e+02,2.890000000000000000e+02,1.650000000000000000e+02,3.050000000000000000e+02,8.100000000000000000e+01,9.500000000000000000e+01,3.400000000000000244e-01,3.183169800000000000e+09
9.600000000000000000e+01,1.860000000000000000e+02,8.600000000000000000e+02,2.120000000000000000e+02,1.080000000000000000e+02,3.940000000000000000e+02,7.800000000000000000e+01,1.370000000000000000e+02,3.400000000000000244e-01,3.201200900000000000e+09
9.900000000000000000e+01,1.840000000000000000e+02,9.230000000000000000e+02,2.260000000000000000e+02,1.030000000000000000e+02,4.100000000000000000e+02,7.700000000000000000e+01,1.350000000000000000e+02,3.400000000000000244e-01,3.218098700000000000e+09
9.600000000000000000e+01,1.910000000000000000e+02,8.480000000000000000e+02,2.210000000000000000e+02,8.700000000000000000e+01,3.970000000000000000e+02,7.300000000000000000e+01,1.290000000000000000e+02,3.400000000000000244e-01,3.238583800000000000e+09
9.600000000000000000e+01,1.700000000000000000e+02,7.730000000000000000e+02,1.890000000000000000e+02,8.000000000000000000e+01,5.080000000000000000e+02,7.300000000000000000e+01,2.180000000000000000e+02,3.400000000000000244e-01,3.255989000000000000e+09
9.000000000000000000e+01,1.580000000000000000e+02,7.510000000000000000e+02,1.840000000000000000e+02,8.200000000000000000e+01,5.440000000000000000e+02,8.600000000000000000e+01,2.660000000000000000e+02,3.499999999999999778e-01,3.274611100000000000e+09
7.900000000000000000e+01,1.550000000000000000e+02,7.280000000000000000e+02,1.640000000000000000e+02,7.100000000000000000e+01,5.100000000000000000e+02,1.010000000000000000e+02,2.610000000000000000e+02,3.599999999999999867e-01,3.290887800000000000e+09
7.500000000000000000e+01,1.510000000000000000e+02,7.400000000000000000e+02,1.690000000000000000e+02,6.900000000000000000e+01,5.060000000000000000e+02,1.190000000000000000e+02,2.910000000000000000e+02,3.699999999999999956e-01,3.308891500000000000e+09
7.700000000000000000e+01,1.370000000000000000e+02,6.940000000000000000e+02,1.630000000000000000e+02,7.000000000000000000e+01,5.650000000000000000e+02,1.320000000000000000e+02,3.690000000000000000e+02,3.800000000000000044e-01,3.326859200000000000e+09
1.350000000000000000e+02,1.430000000000000000e+02,6.170000000000000000e+02,1.570000000000000000e+02,8.100000000000000000e+01,5.010000000000000000e+02,2.810000000000000000e+02,4.660000000000000000e+02,3.800000000000000044e-01,3.345977300000000000e+09
1.480000000000000000e+02,1.380000000000000000e+02,5.510000000000000000e+02,1.450000000000000000e+02,7.900000000000000000e+01,5.840000000000000000e+02,3.410000000000000000e+02,5.520000000000000000e+02,3.900000000000000133e-01,3.362910600000000000e+09
1.480000000000000000e+02,1.200000000000000000e+02,4.760000000000000000e+02,1.380000000000000000e+02,8.700000000000000000e+01,6.510000000000000000e+02,3.820000000000000000e+02,6.820000000000000000e+02,3.900000000000000133e-01,3.380256500000000000e+09
1.580000000000000000e+02,1.130000000000000000e+02,4.050000000000000000e+02,1.500000000000000000e+02,1.180000000000000000e+02,7.390000000000000000e+02,4.410000000000000000e+02,7.160000000000000000e+02,3.900000000000000133e-01,3.397037000000000000e+09
1.620000000000000000e+02,1.090000000000000000e+02,4.250000000000000000e+02,1.600000000000000000e+02,1.330000000000000000e+02,7.680000000000000000e+02,4.780000000000000000e+02,7.040000000000000000e+02,3.800000000000000044e-01,3.414431200000000000e+09
1.380000000000000000e+02,1.040000000000000000e+02,4.240000000000000000e+02,1.570000000000000000e+02,1.290000000000000000e+02,7.550000000000000000e+02,4.850000000000000000e+02,6.380000000000000000e+02,3.800000000000000044e-01,3.432666500000000000e+09
1.410000000000000000e+02,1.010000000000000000e+02,4.140000000000000000e+02,1.560000000000000000e+02,1.290000000000000000e+02,7.180000000000000000e+02,4.730000000000000000e+02,5.830000000000000000e+02,3.699999999999999956e-01,3.451882600000000000e+09
1.440000000000000000e+02,9.900000000000000000e+01,4.160000000000000000e+02,1.610000000000000000e+02,1.250000000000000000e+02,7.150000000000000000e+02,5.180000000000000000e+02,5.070000000000000000e+02,3.599999999999999867e-01,3.469391400000000000e+09
1.340000000000000000e+02,1.120000000000000000e+02,3.010000000000000000e+02,1.210000000000000000e+02,9.700000000000000000e+01,6.250000000000000000e+02,4.760000000000000000e+02,4.610000000000000000e+02,3.599999999999999867e-01,3.487499600000000000e+09
1.300000000000000000e+02,1.070000000000000000e+02,2.570000000000000000e+02,1.500000000000000000e+02,7.400000000000000000e+01,5.410000000000000000e+02,4.880000000000000000e+02,4.390000000000000000e+02,3.599999999999999867e-01,3.505212600000000000e+09
1.080000000000000000e+02,1.000000000000000000e+02,2.570000000000000000e+02,1.600000000000000000e+02,7.500000000000000000e+01,4.920000000000000000e+02,4.420000000000000000e+02,4.260000000000000000e+02,3.599999999999999867e-01,3.522856900000000000e+09
7.800000000000000000e+01,9.600000000000000000e+01,2.580000000000000000e+02,1.640000000000000000e+02,8.400000000000000000e+01,4.120000000000000000e+02,4.230000000000000000e+02,3.810000000000000000e+02,3.599999999999999867e-01,3.541622900000000000e+09
7.900000000000000000e+01,1.090000000000000000e+02,2.710000000000000000e+02,2.000000000000000000e+02,9.600000000000000000e+01,2.440000000000000000e+02,3.280000000000000000e+02,2.620000000000000000e+02,3.699999999999999956e-01,3.560960700000000000e+09
9.700000000000000000e+01,1.140000000000000000e+02,3.580000000000000000e+02,2.090000000000000000e+02,1.070000000000000000e+02,2.290000000000000000e+02,3.160000000000000000e+02,2.260000000000000000e+02,3.800000000000000044e-01,3.578283500000000000e+09
8.900000000000000000e+01,1.210000000000000000e+02,3.880000000000000000e+02,1.890000000000000000e+02,1.120000000000000000e+02,2.000000000000000000e+02,2.330000000000000000e+02,1.940000000000000000e+02,4.000000000000000222e-01,3.596028200000000000e+09
9.100000000000000000e+01,1.260000000000000000e+02,3.920000000000000000e+02,1.880000000000000000e+02,1.060000000000000000e+02,1.870000000000000000e+02,1.750000000000000000e+02,1.620000000000000000e+02,4.099999999999999756e-01,3.614028300000000000e+09
9.100000000000000000e+01,1.270000000000000000e+02,3.910000000000000000e+02,1.820000000000000000e+02,9.600000000000000000e+01,1.740000000000000000e+02,1.450000000000000000e+02,1.380000000000000000e+02,4.299999999999999933e-01,3.632408900000000000e+09
8.300000000000000000e+01,1.150000000000000000e+02,4.470000000000000000e+02,1.550000000000000000e+02,8.100000000000000000e+01,1.630000000000000000e+02,1.230000000000000000e+02,1.060000000000000000e+02,4.500000000000000111e-01,3.652414300000000000e+09
5.300000000000000000e+01,9.000000000000000000e+01,4.060000000000000000e+02,1.500000000000000000e+02,6.700000000000000000e+01,1.080000000000000000e+02,1.150000000000000000e+02,9.000000000000000000e+01,4.600000000000000200e-01,3.669677300000000000e+09
5.400000000000000000e+01,7.500000000000000000e+01,4.050000000000000000e+02,1.560000000000000000e+02,5.600000000000000000e+01,1.010000000000000000e+02,1.070000000000000000e+02,8.300000000000000000e+01,4.699999999999999734e-01,3.687609400000000000e+09
6.600000000000000000e+01,7.000000000000000000e+01,4.040000000000000000e+02,1.580000000000000000e+02,6.200000000000000000e+01,8.700000000000000000e+01,1.280000000000000000e+02,7.800000000000000000e+01,4.799999999999999822e-01,3.706594900000000000e+09
6.800000000000000000e+01,6.900000000000000000e+01,4.240000000000000000e+02,1.600000000000000000e+02,5.900000000000000000e+01,8.700000000000000000e+01,1.200000000000000000e+02,6.700000000000000000e+01,4.899999999999999911e-01,3.724613900000000000e+09
8.000000000000000000e+01,9.200000000000000000e+01,4.680000000000000000e+02,1.780000000000000000e+02,7.000000000000000000e+01,1.240000000000000000e+02,1.310000000000000000e+02,6.800000000000000000e+01,5.100000000000000089e-01,3.743867100000000000e+09
7.900000000000000000e+01,8.400000000000000000e+01,4.650000000000000000e+02,1.720000000000000000e+02,6.600000000000000000e+01,1.250000000000000000e+02,1.370000000000000000e+02,6.900000000000000000e+01,5.200000000000000178e-01,3.763500200000000000e+09
7.600000000000000000e+01,8.400000000000000000e+01,4.470000000000000000e+02,1.530000000000000000e+02,6.600000000000000000e+01,1.240000000000000000e+02,1.430000000000000000e+02,6.900000000000000000e+01,5.400000000000000355e-01,3.781606000000000000e+09
6.000000000000000000e+01,8.400000000000000000e+01,5.000000000000000000e+02,1.480000000000000000e+02,6.600000000000000000e+01,1.320000000000000000e+02,1.250000000000000000e+02,7.400000000000000000e+01,5.500000000000000444e-01,3.800383500000000000e+09
5.700000000000000000e+01,8.200000000000000000e+01,4.810000000000000000e+02,1.510000000000000000e+02,6.900000000000000000e+01,1.340000000000000000e+02,1.360000000000000000e+02,7.300000000000000000e+01,5.500000000000000444e-01,3.819287600000000000e+09
3.700000000000000000e+01,6.200000000000000000e+01,3.800000000000000000e+02,1.120000000000000000e+02,6.100000000000000000e+01,1.030000000000000000e+02,1.250000000000000000e+02,7.100000000000000000e+01,5.600000000000000533e-01,3.841043100000000000e+09
5.000000000000000000e+01,7.700000000000000000e+01,3.620000000000000000e+02,1.060000000000000000e+02,6.500000000000000000e+01,1.000000000000000000e+02,1.160000000000000000e+02,8.000000000000000000e+01,5.600000000000000533e-01,3.862162300000000000e+09
5.100000000000000000e+01,7.700000000000000000e+01,3.470000000000000000e+02,9.900000000000000000e+01,6.200000000000000000e+01,9.300000000000000000e+01,9.800000000000000000e+01,8.900000000000000000e+01,5.600000000000000533e-01,3.881430100000000000e+09
6.800000000000000000e+01,8.000000000000000000e+01,3.000000000000000000e+02,1.020000000000000000e+02,5.800000000000000000e+01,9.700000000000000000e+01,8.800000000000000000e+01,8.400000000000000000e+01,5.600000000000000533e-01,3.899927300000000000e+09
7.400000000000000000e+01,7.900000000000000000e+01,3.320000000000000000e+02,9.100000000000000000e+01,5.600000000000000000e+01,9.300000000000000000e+01,8.400000000000000000e+01,8.500000000000000000e+01,5.600000000000000533e-01,3.918640800000000000e+09
7.200000000000000000e+01,7.700000000000000000e+01,4.070000000000000000e+02,1.310000000000000000e+02,4.500000000000000000e+01,9.000000000000000000e+01,8.300000000000000000e+01,8.200000000000000000e+01,5.600000000000000533e-01,3.939964200000000000e+09
6.700000000000000000e+01,6.500000000000000000e+01,4.780000000000000000e+02,1.470000000000000000e+02,5.600000000000000000e+01,9.000000000000000000e+01,7.800000000000000000e+01,7.000000000000000000e+01,5.699999999999999512e-01,3.961605200000000000e+09
6.800000000000000000e+01,6.500000000000000000e+01,4.960000000000000000e+02,1.490000000000000000e+02,5.700000000000000000e+01,9.100000000000000000e+01,8.000000000000000000e+01,6.200000000000000000e+01,5.699999999999999512e-01,3.980527200000000000e+09
5.400000000000000000e+01,6.200000000000000000e+01,4.760000000000000000e+02,1.420000000000000000e+02,5.700000000000000000e+01,6.300000000000000000e+01,9.800000000000000000e+01,7.200000000000000000e+01,5.699999999999999512e-01,3.999318200000000000e+09
4.400000000000000000e+01,6.000000000000000000e+01,4.580000000000000000e+02,1.440000000000000000e+02,6.000000000000000000e+01,6.100000000000000000e+01,8.100000000000000000e+01,7.100000000000000000e+01,5.699999999999999512e-01,4.018578200000000000e+09
5.600000000000000000e+01,9.700000000000000000e+01,4.390000000000000000e+02,1.470000000000000000e+02,6.600000000000000000e+01,5.900000000000000000e+01,8.100000000000000000e+01,7.000000000000000000e+01,5.699999999999999512e-01,4.038348800000000000e+09
5.500000000000000000e+01,1.030000000000000000e+02,3.340000000000000000e+02,1.510000000000000000e+02,5.500000000000000000e+01,5.400000000000000000e+01,8.200000000000000000e+01,7.000000000000000000e+01,5.699999999999999512e-01,4.059470100000000000e+09
5.100000000000000000e+01,1.030000000000000000e+02,3.590000000000000000e+02,1.510000000000000000e+02,5.600000000000000000e+01,4.900000000000000000e+01,7.600000000000000000e+01,6.600000000000000000e+01,5.799999999999999600e-01,4.080131300000000000e+09
4.800000000000000000e+01,1.070000000000000000e+02,4.410000000000000000e+02,1.530000000000000000e+02,5.600000000000000000e+01,4.900000000000000000e+01,4.500000000000000000e+01,4.100000000000000000e+01,5.899999999999999689e-01,4.100247700000000000e+09
5.300000000000000000e+01,1.120000000000000000e+02,5.160000000000000000e+02,2.020000000000000000e+02,6.300000000000000000e+01,4.400000000000000000e+01,4.200000000000000000e+01,4.100000000000000000e+01,5.899999999999999689e-01,4.118819100000000000e+09
4.800000000000000000e+01,1.040000000000000000e+02,5.630000000000000000e+02,1.790000000000000000e+02,6.700000000000000000e+01,4.400000000000000000e+01,3.800000000000000000e+01,4.200000000000000000e+01,5.999999999999999778e-01,4.137532600000000000e+09
4.400000000000000000e+01,1.010000000000000000e+02,5.940000000000000000e+02,1.640000000000000000e+02,6.900000000000000000e+01,5.800000000000000000e+01,3.900000000000000000e+01,3.700000000000000000e+01,5.999999999999999778e-01,4.158901200000000000e+09
4.500000000000000000e+01,1.040000000000000000e+02,6.030000000000000000e+02,1.740000000000000000e+02,7.000000000000000000e+01,6.300000000000000000e+01,4.800000000000000000e+01,3.400000000000000000e+01,5.999999999999999778e-01,4.178893700000000000e+09
5.000000000000000000e+01,1.110000000000000000e+02,5.660000000000000000e+02,2.110000000000000000e+02,7.300000000000000000e+01,6.500000000000000000e+01,4.800000000000000000e+01,3.600000000000000000e+01,5.999999999999999778e-01,4.200058500000000000e+09
4.700000000000000000e+01,1.080000000000000000e+02,5.350000000000000000e+02,1.910000000000000000e+02,6.500000000000000000e+01,6.200000000000000000e+01,4.800000000000000000e+01,3.500000000000000000e+01,5.999999999999999778e-01,4.220579100000000000e+09
4.400000000000000000e+01,9.500000000000000000e+01,5.740000000000000000e+02,1.970000000000000000e+02,5.700000000000000000e+01,6.200000000000000000e+01,4.700000000000000000e+01,3.300000000000000000e+01,5.999999999999999778e-01,4.239631400000000000e+09
4.600000000000000000e+01,9.900000000000000000e+01,5.590000000000000000e+02,1.910000000000000000e+02,5.000000000000000000e+01,6.800000000000000000e+01,5.600000000000000000e+01,3.400000000000000000e+01,6.099999999999999867e-01,4.262247100000000000e+09
4.500000000000000000e+01,9.600000000000000000e+01,5.690000000000000000e+02,1.870000000000000000e+02,5.200000000000000000e+01,7.200000000000000000e+01,4.900000000000000000e+01,3.300000000000000000e+01,6.099999999999999867e-01,4.304554400000000000e+09
4.200000000000000000e+01,8.800000000000000000e+01,5.820000000000000000e+02,1.440000000000000000e+02,5.000000000000000000e+01,1.190000000000000000e+02,5.000000000000000000e+01,3.000000000000000000e+01,6.199999999999999956e-01,4.323896500000000000e+09
4.800000000000000000e+01,9.300000000000000000e+01,5.750000000000000000e+02,1.160000000000000000e+02,5.600000000000000000e+01,1.390000000000000000e+02,6.700000000000000000e+01,5.600000000000000000e+01,6.099999999999999867e-01,4.343526500000000000e+09
4.600000000000000000e+01,8.700000000000000000e+01,4.370000000000000000e+02,1.100000000000000000e+02,5.400000000000000000e+01,1.400000000000000000e+02,6.700000000000000000e+01,5.700000000000000000e+01,6.099999999999999867e-01,4.363122000000000000e+09
4.600000000000000000e+01,8.400000000000000000e+01,5.240000000000000000e+02,1.100000000000000000e+02,5.700000000000000000e+01,1.430000000000000000e+02,5.600000000000000000e+01,6.200000000000000000e+01,6.099999999999999867e-01,4.379609800000000000e+09
4.600000000000000000e+01,8.400000000000000000e+01,4.770000000000000000e+02,1.020000000000000000e+02,5.600000000000000000e+01,1.510000000000000000e+02,5.800000000000000000e+01,6.200000000000000000e+01,6.199999999999999956e-01,4.396641200000000000e+09
4.500000000000000000e+01,8.400000000000000000e+01,4.370000000000000000e+02,1.020000000000000000e+02,5.200000000000000000e+01,1.350000000000000000e+02,8.200000000000000000e+01,7.000000000000000000e+01,6.199999999999999956e-01,4.413983600000000000e+09
3.900000000000000000e+01,8.000000000000000000e+01,4.920000000000000000e+02,1.000000000000000000e+02,4.800000000000000000e+01,1.160000000000000000e+02,7.400000000000000000e+01,6.800000000000000000e+01,6.199999999999999956e-01,4.432321300000000000e+09
4.400000000000000000e+01,9.400000000000000000e+01,6.010000000000000000e+02,1.350000000000000000e+02,5.400000000000000000e+01,1.170000000000000000e+02,7.400000000000000000e+01,6.900000000000000000e+01,6.199999999999999956e-01,4.452928700000000000e+09
4.400000000000000000e+01,9.000000000000000000e+01,5.920000000000000000e+02,1.500000000000000000e+02,5.300000000000000000e+01,1.140000000000000000e+02,7.400000000000000000e+01,6.600000000000000000e+01,6.199999999999999956e-01,4.470256700000000000e+09
4.700000000000000000e+01,9.500000000000000000e+01,6.870000000000000000e+02,1.520000000000000000e+02,4.800000000000000000e+01,1.000000000000000000e+02,8.300000000000000000e+01,6.500000000000000000e+01,6.099999999999999867e-01,4.488980100000000000e+09
4.900000000000000000e+01,9.100000000000000000e+01,7.080000000000000000e+02,1.530000000000000000e+02,4.500000000000000000e+01,9.400000000000000000e+01,6.900000000000000000e+01,5.800000000000000000e+01,5.999999999999999778e-01,4.506324600000000000e+09
6.000000000000000000e+01,1.060000000000000000e+02,7.530000000000000000e+02,1.610000000000000000e+02,6.500000000000000000e+01,9.900000000000000000e+01,6.500000000000000000e+01,4.300000000000000000e+01,5.899999999999999689e-01,4.524690300000000000e+09
5.700000000000000000e+01,8.900000000000000000e+01,6.990000000000000000e+02,1.430000000000000000e+02,6.000000000000000000e+01,9.800000000000000000e+01,6.400000000000000000e+01,5.100000000000000000e+01,5.899999999999999689e-01,4.546165500000000000e+09
5.800000000000000000e+01,8.200000000000000000e+01,6.350000000000000000e+02,1.280000000000000000e+02,5.600000000000000000e+01,9.100000000000000000e+01,7.600000000000000000e+01,5.500000000000000000e+01,5.799999999999999600e-01,4.566882300000000000e+09
5.800000000000000000e+01,7.400000000000000000e+01,5.240000000000000000e+02,1.240000000000000000e+02,5.500000000000000000e+01,1.030000000000000000e+02,1.460000000000000000e+02,6.200000000000000000e+01,5.799999999999999600e-01,4.584805800000000000e+09
5.700000000000000000e+01,7.400000000000000000e+01,4.930000000000000000e+02,1.200000000000000000e+02,6.100000000000000000e+01,8.600000000000000000e+01,1.470000000000000000e+02,6.300000000000000000e+01,5.799999999999999600e-01,4.602833900000000000e+09
4.500000000000000000e+01,5.300000000000000000e+01,3.490000000000000000e+02,1.030000000000000000e+02,4.400000000000000000e+01,8.000000000000000000e+01,1.560000000000000000e+02,6.700000000000000000e+01,5.699999999999999512e-01,4.621488700000000000e+09
4.100000000000000000e+01,5.500000000000000000e+01,3.070000000000000000e+02,9.800000000000000000e+01,5.400000000000000000e+01,7.900000000000000000e+01,1.670000000000000000e+02,7.400000000000000000e+01,5.699999999999999512e-01,4.641630700000000000e+09
6.300000000000000000e+01,8.400000000000000000e+01,4.340000000000000000e+02,1.070000000000000000e+02,5.900000000000000000e+01,7.700000000000000000e+01,1.640000000000000000e+02,1.110000000000000000e+02,5.600000000000000533e-01,4.662248800000000000e+09
6.600000000000000000e+01,8.900000000000000000e+01,4.320000000000000000e+02,1.070000000000000000e+02,6.200000000000000000e+01,7.300000000000000000e+01,1.270000000000000000e+02,1.300000000000000000e+02,5.600000000000000533e-01,4.681409300000000000e+09
6.500000000000000000e+01,9.100000000000000000e+01,4.400000000000000000e+02,1.050000000000000000e+02,5.800000000000000000e+01,7.500000000000000000e+01,1.230000000000000000e+02,1.550000000000000000e+02,5.600000000000000533e-01,4.700975200000000000e+09
7.100000000000000000e+01,1.170000000000000000e+02,4.550000000000000000e+02,1.520000000000000000e+02,6.800000000000000000e+01,7.900000000000000000e+01,1.130000000000000000e+02,1.580000000000000000e+02,5.600000000000000533e-01,4.721149800000000000e+09
7.700000000000000000e+01,1.230000000000000000e+02,4.560000000000000000e+02,1.550000000000000000e+02,6.400000000000000000e+01,7.800000000000000000e+01,1.090000000000000000e+02,1.550000000000000000e+02,5.600000000000000533e-01,4.741833300000000000e+09
6.800000000000000000e+01,1.050000000000000000e+02,3.690000000000000000e+02,1.550000000000000000e+02,6.300000000000000000e+01,7.200000000000000000e+01,1.350000000000000000e+02,1.330000000000000000e+02,5.600000000000000533e-01,4.762185900000000000e+09
6.500000000000000000e+01,1.040000000000000000e+02,3.690000000000000000e+02,1.590000000000000000e+02,6.100000000000000000e+01,7.300000000000000000e+01,1.130000000000000000e+02,1.150000000000000000e+02,5.600000000000000533e-01,4.781057700000000000e+09
6.800000000000000000e+01,1.000000000000000000e+02,3.530000000000000000e+02,1.570000000000000000e+02,6.000000000000000000e+01,6.900000000000000000e+01,1.110000000000000000e+02,7.700000000000000000e+01,5.699999999999999512e-01,4.799324800000000000e+09
6.100000000000000000e+01,6.400000000000000000e+01,3.020000000000000000e+02,1.090000000000000000e+02,4.500000000000000000e+01,6.300000000000000000e+01,1.220000000000000000e+02,6.600000000000000000e+01,5.699999999999999512e-01,4.817952600000000000e+09
7.100000000000000000e+01,5.000000000000000000e+01,3.850000000000000000e+02,8.400000000000000000e+01,5.100000000000000000e+01,6.600000000000000000e+01,1.120000000000000000e+02,5.900000000000000000e+01,5.600000000000000533e-01,4.843582200000000000e+09
6.300000000000000000e+01,4.900000000000000000e+01,3.430000000000000000e+02,6.800000000000000000e+01,4.700000000000000000e+01,6.600000000000000000e+01,7.700000000000000000e+01,4.700000000000000000e+01,5.600000000000000533e-01,4.863683500000000000e+09
6.300000000000000000e+01,4.500000000000000000e+01,3.510000000000000000e+02,5.600000000000000000e+01,4.500000000000000000e+01,5.900000000000000000e+01,7.900000000000000000e+01,4.800000000000000000e+01,5.600000000000000533e-01,4.883170500000000000e+09
6.500000000000000000e+01,6.900000000000000000e+01,4.130000000000000000e+02,1.010000000000000000e+02,5.000000000000000000e+01,5.700000000000000000e+01,8.000000000000000000e+01,4.700000000000000000e+01,5.699999999999999512e-01,4.902043900000000000e+09
7.800000000000000000e+01,9.400000000000000000e+01,4.920000000000000000e+02,1.720000000000000000e+02,6.000000000000000000e+01,5.900000000000000000e+01,6.100000000000000000e+01,4.700000000000000000e+01,5.699999999999999512e-01,4.920123500000000000e+09
6.100000000000000000e+01,9.700000000000000000e+01,4.540000000000000000e+02,2.000000000000000000e+02,5.200000000000000000e+01,5.300000000000000000e+01,5.800000000000000000e+01,4.200000000000000000e+01,5.799999999999999600e-01,4.940818100000000000e+09
6.800000000000000000e+01,1.010000000000000000e+02,4.720000000000000000e+02,2.050000000000000000e+02,5.900000000000000000e+01,5.500000000000000000e+01,5.700000000000000000e+01,4.300000000000000000e+01,5.799999999999999600e-01,4.962873100000000000e+09
6.600000000000000000e+01,1.020000000000000000e+02,4.720000000000000000e+02,2.130000000000000000e+02,6.100000000000000000e+01,3.700000000000000000e+01,4.400000000000000000e+01,3.300000000000000000e+01,5.899999999999999689e-01,4.981294900000000000e+09
6.700000000000000000e+01,1.050000000000000000e+02,4.630000000000000000e+02,2.310000000000000000e+02,7.300000000000000000e+01,4.800000000000000000e+01,3.800000000000000000e+01,3.600000000000000000e+01,5.899999999999999689e-01,4.999230800000000000e+09
5.400000000000000000e+01,9.200000000000000000e+01,4.450000000000000000e+02,2.040000000000000000e+02,7.300000000000000000e+01,5.500000000000000000e+01,3.300000000000000000e+01,3.000000000000000000e+01,5.899999999999999689e-01,5.020482900000000000e+09
6.000000000000000000e+01,9.400000000000000000e+01,4.650000000000000000e+02,1.970000000000000000e+02,8.800000000000000000e+01,5.800000000000000000e+01,3.100000000000000000e+01,3.300000000000000000e+01,5.899999999999999689e-01,5.042740800000000000e+09
5.300000000000000000e+01,9.800000000000000000e+01,5.150000000000000000e+02,1.960000000000000000e+02,9.200000000000000000e+01,5.500000000000000000e+01,2.900000000000000000e+01,3.100000000000000000e+01,5.899999999999999689e-01,5.061009500000000000e+09
6.900000000000000000e+01,1.150000000000000000e+02,5.750000000000000000e+02,2.100000000000000000e+02,1.350000000000000000e+02,6.700000000000000000e+01,2.900000000000000000e+01,3.800000000000000000e+01,5.999999999999999778e-01,5.078765000000000000e+09
7.600000000000000000e+01,1.180000000000000000e+02,5.700000000000000000e+02,2.610000000000000000e+02,1.300000000000000000e+02,6.000000000000000000e+01,2.800000000000000000e+01,3.700000000000000000e+01,5.899999999999999689e-01,5.097669700000000000e+09
7.600000000000000000e+01,1.120000000000000000e+02,5.580000000000000000e+02,2.490000000000000000e+02,1.290000000000000000e+02,5.300000000000000000e+01,2.800000000000000000e+01,3.800000000000000000e+01,5.899999999999999689e-01,5.117295000000000000e+09
7.700000000000000000e+01,1.230000000000000000e+02,5.660000000000000000e+02,2.400000000000000000e+02,1.230000000000000000e+02,5.300000000000000000e+01,2.900000000000000000e+01,3.600000000000000000e+01,5.799999999999999600e-01,5.137133100000000000e+09
8.000000000000000000e+01,1.200000000000000000e+02,5.080000000000000000e+02,2.480000000000000000e+02,1.370000000000000000e+02,5.700000000000000000e+01,3.000000000000000000e+01,3.800000000000000000e+01,5.600000000000000533e-01,5.158967200000000000e+09
6.800000000000000000e+01,1.150000000000000000e+02,4.860000000000000000e+02,2.520000000000000000e+02,1.340000000000000000e+02,5.800000000000000000e+01,3.200000000000000000e+01,3.200000000000000000e+01,5.500000000000000444e-01,5.179114500000000000e+09
5.300000000000000000e+01,1.020000000000000000e+02,6.190000000000000000e+02,1.960000000000000000e+02,1.440000000000000000e+02,6.200000000000000000e+01,3.500000000000000000e+01,2.800000000000000000e+01,5.400000000000000355e-01,5.199555400000000000e+09
5.700000000000000000e+01,1.020000000000000000e+02,7.040000000000000000e+02,2.350000000000000000e+02,1.480000000000000000e+02,9.900000000000000000e+01,4.800000000000000000e+01,3.300000000000000000e+01,5.300000000000000266e-01,5.218602400000000000e+09
5.300000000000000000e+01,1.150000000000000000e+02,7.190000000000000000e+02,2.410000000000000000e+02,1.480000000000000000e+02,1.120000000000000000e+02,5.300000000000000000e+01,3.400000000000000000e+01,5.100000000000000089e-01,5.238554000000000000e+09
5.400000000000000000e+01,1.320000000000000000e+02,9.180000000000000000e+02,2.460000000000000000e+02,1.300000000000000000e+02,1.190000000000000000e+02,5.400000000000000000e+01,3.200000000000000000e+01,4.899999999999999911e-01,5.259974300000000000e+09
6.500000000000000000e+01,1.480000000000000000e+02,1.090000000000000000e+03,2.400000000000000000e+02,9.600000000000000000e+01,1.280000000000000000e+02,5.500000000000000000e+01,3.700000000000000000e+01,4.699999999999999734e-01,5.279630300000000000e+09
7.200000000000000000e+01,1.590000000000000000e+02,1.048000000000000000e+03,2.370000000000000000e+02,9.800000000000000000e+01,1.390000000000000000e+02,5.500000000000000000e+01,4.000000000000000000e+01,4.500000000000000111e-01,5.300716100000000000e+09
6.900000000000000000e+01,1.750000000000000000e+02,1.036000000000000000e+03,2.420000000000000000e+02,8.900000000000000000e+01,1.180000000000000000e+02,5.000000000000000000e+01,3.700000000000000000e+01,4.400000000000000022e-01,5.319201400000000000e+09
7.300000000000000000e+01,1.730000000000000000e+02,1.080000000000000000e+03,2.540000000000000000e+02,9.600000000000000000e+01,1.050000000000000000e+02,4.500000000000000000e+01,4.100000000000000000e+01,4.299999999999999933e-01,5.340691000000000000e+09
9.200000000000000000e+01,1.740000000000000000e+02,9.460000000000000000e+02,2.780000000000000000e+02,1.080000000000000000e+02,1.310000000000000000e+02,4.900000000000000000e+01,5.100000000000000000e+01,4.199999999999999845e-01,5.363184500000000000e+09
8.500000000000000000e+01,1.690000000000000000e+02,7.550000000000000000e+02,2.800000000000000000e+02,1.080000000000000000e+02,1.710000000000000000e+02,7.000000000000000000e+01,4.900000000000000000e+01,4.099999999999999756e-01,5.381740700000000000e+09
8.500000000000000000e+01,1.640000000000000000e+02,7.570000000000000000e+02,2.820000000000000000e+02,9.700000000000000000e+01,1.850000000000000000e+02,7.100000000000000000e+01,4.900000000000000000e+01,4.099999999999999756e-01,5.400421400000000000e+09
9.600000000000000000e+01,1.510000000000000000e+02,6.860000000000000000e+02,2.470000000000000000e+02,9.900000000000000000e+01,1.930000000000000000e+02,6.900000000000000000e+01,4.900000000000000000e+01,4.000000000000000222e-01,5.421382100000000000e+09
1.020000000000000000e+02,1.420000000000000000e+02,6.510000000000000000e+02,2.290000000000000000e+02,9.700000000000000000e+01,1.980000000000000000e+02,7.000000000000000000e+01,4.600000000000000000e+01,4.000000000000000222e-01,5.444373600000000000e+09
8.300000000000000000e+01,1.250000000000000000e+02,6.730000000000000000e+02,1.880000000000000000e+02,8.700000000000000000e+01,1.780000000000000000e+02,7.200000000000000000e+01,3.400000000000000000e+01,4.099999999999999756e-01,5.464140700000000000e+09
8.800000000000000000e+01,1.220000000000000000e+02,7.030000000000000000e+02,1.870000000000000000e+02,9.400000000000000000e+01,1.340000000000000000e+02,5.200000000000000000e+01,3.700000000000000000e+01,4.099999999999999756e-01,5.482391000000000000e+09
9.600000000000000000e+01,1.240000000000000000e+02,6.880000000000000000e+02,2.050000000000000000e+02,1.160000000000000000e+02,2.080000000000000000e+02,6.600000000000000000e+01,4.100000000000000000e+01,4.099999999999999756e-01,5.500629300000000000e+09
8.700000000000000000e+01,1.350000000000000000e+02,8.350000000000000000e+02,2.190000000000000000e+02,1.380000000000000000e+02,2.600000000000000000e+02,9.400000000000000000e+01,4.100000000000000000e+01,4.099999999999999756e-01,5.519132300000000000e+09
7.800000000000000000e+01,1.300000000000000000e+02,8.290000000000000000e+02,2.250000000000000000e+02,1.440000000000000000e+02,2.660000000000000000e+02,9.800000000000000000e+01,4.100000000000000000e+01,4.099999999999999756e-01,5.538059300000000000e+09
8.700000000000000000e+01,1.400000000000000000e+02,9.480000000000000000e+02,3.280000000000000000e+02,1.550000000000000000e+02,2.710000000000000000e+02,9.600000000000000000e+01,5.200000000000000000e+01,4.099999999999999756e-01,5.561632700000000000e+09
9.200000000000000000e+01,1.420000000000000000e+02,9.200000000000000000e+02,3.420000000000000000e+02,1.560000000000000000e+02,2.730000000000000000e+02,9.500000000000000000e+01,8.300000000000000000e+01,4.000000000000000222e-01,5.581287800000000000e+09
1.610000000000000000e+02,2.030000000000000000e+02,9.520000000000000000e+02,3.780000000000000000e+02,1.460000000000000000e+02,2.400000000000000000e+02,8.600000000000000000e+01,1.040000000000000000e+02,4.000000000000000222e-01,5.599333400000000000e+09
1.620000000000000000e+02,2.130000000000000000e+02,8.740000000000000000e+02,4.090000000000000000e+02,1.310000000000000000e+02,1.850000000000000000e+02,6.800000000000000000e+01,1.070000000000000000e+02,3.900000000000000133e-01,5.618692200000000000e+09
1.820000000000000000e+02,2.220000000000000000e+02,8.380000000000000000e+02,4.320000000000000000e+02,1.210000000000000000e+02,1.800000000000000000e+02,6.500000000000000000e+01,1.280000000000000000e+02,3.900000000000000133e-01,5.642341200000000000e+09
1.860000000000000000e+02,2.300000000000000000e+02,7.210000000000000000e+02,3.750000000000000000e+02,1.060000000000000000e+02,1.790000000000000000e+02,6.800000000000000000e+01,1.330000000000000000e+02,3.900000000000000133e-01,5.662378400000000000e+09
1.970000000000000000e+02,2.790000000000000000e+02,8.440000000000000000e+02,3.850000000000000000e+02,1.140000000000000000e+02,1.780000000000000000e+02,7.500000000000000000e+01,1.180000000000000000e+02,3.900000000000000133e-01,5.680700400000000000e+09
1.680000000000000000e+02,2.850000000000000000e+02,8.930000000000000000e+02,3.480000000000000000e+02,1.220000000000000000e+02,1.410000000000000000e+02,7.800000000000000000e+01,1.070000000000000000e+02,3.800000000000000044e-01,5.700025400000000000e+09
1.730000000000000000e+02,2.780000000000000000e+02,9.240000000000000000e+02,3.430000000000000000e+02,1.360000000000000000e+02,1.280000000000000000e+02,7.300000000000000000e+01,1.060000000000000000e+02,3.699999999999999956e-01,5.719355100000000000e+09
1.880000000000000000e+02,3.060000000000000000e+02,9.180000000000000000e+02,3.910000000000000000e+02,1.770000000000000000e+02,1.900000000000000000e+02,7.400000000000000000e+01,9.200000000000000000e+01,3.599999999999999867e-01,5.740233600000000000e+09
2.010000000000000000e+02,3.040000000000000000e+02,9.510000000000000000e+02,4.620000000000000000e+02,1.980000000000000000e+02,1.930000000000000000e+02,7.700000000000000000e+01,8.800000000000000000e+01,3.599999999999999867e-01,5.764706200000000000e+09
1.990000000000000000e+02,2.570000000000000000e+02,8.880000000000000000e+02,4.510000000000000000e+02,1.930000000000000000e+02,2.010000000000000000e+02,7.300000000000000000e+01,8.900000000000000000e+01,3.499999999999999778e-01,5.782539800000000000e+09
1.910000000000000000e+02,2.530000000000000000e+02,9.240000000000000000e+02,5.100000000000000000e+02,1.940000000000000000e+02,2.030000000000000000e+02,7.000000000000000000e+01,8.800000000000000000e+01,3.499999999999999778e-01,5.801227300000000000e+09
1.920000000000000000e+02,2.610000000000000000e+02,8.920000000000000000e+02,4.920000000000000000e+02,1.850000000000000000e+02,2.050000000000000000e+02,6.700000000000000000e+01,8.800000000000000000e+01,3.400000000000000244e-01,5.821359600000000000e+09
1.670000000000000000e+02,2.300000000000000000e+02,9.940000000000000000e+02,4.690000000000000000e+02,1.500000000000000000e+02,1.580000000000000000e+02,6.500000000000000000e+01,8.000000000000000000e+01,3.400000000000000244e-01,5.842622700000000000e+09
1.910000000000000000e+02,2.330000000000000000e+02,9.490000000000000000e+02,4.180000000000000000e+02,1.330000000000000000e+02,1.540000000000000000e+02,5.500000000000000000e+01,7.500000000000000000e+01,3.300000000000000155e-01,5.860953400000000000e+09
2.500000000000000000e+02,2.370000000000000000e+02,9.930000000000000000e+02,4.410000000000000000e+02,1.320000000000000000e+02,1.390000000000000000e+02,6.300000000000000000e+01,7.500000000000000000e+01,3.200000000000000067e-01,5.880301400000000000e+09
2.600000000000000000e+02,1.950000000000000000e+02,8.790000000000000000e+02,3.960000000000000000e+02,1.330000000000000000e+02,1.340000000000000000e+02,6.200000000000000000e+01,7.900000000000000000e+01,3.200000000000000067e-01,5.899761000000000000e+09
4.940000000000000000e+02,2.000000000000000000e+02,9.230000000000000000e+02,4.720000000000000000e+02,1.540000000000000000e+02,1.570000000000000000e+02,6.400000000000000000e+01,1.110000000000000000e+02,3.300000000000000155e-01,5.923334300000000000e+09
5.460000000000000000e+02,2.270000000000000000e+02,8.360000000000000000e+02,5.170000000000000000e+02,1.720000000000000000e+02,1.510000000000000000e+02,6.800000000000000000e+01,1.150000000000000000e+02,3.400000000000000244e-01,5.941839900000000000e+09
5.350000000000000000e+02,2.290000000000000000e+02,8.950000000000000000e+02,4.990000000000000000e+02,1.730000000000000000e+02,1.600000000000000000e+02,6.700000000000000000e+01,1.120000000000000000e+02,3.499999999999999778e-01,5.961164500000000000e+09
5.140000000000000000e+02,2.590000000000000000e+02,8.000000000000000000e+02,5.560000000000000000e+02,1.850000000000000000e+02,1.680000000000000000e+02,5.900000000000000000e+01,1.130000000000000000e+02,3.699999999999999956e-01,5.979173700000000000e+09
5.110000000000000000e+02,2.970000000000000000e+02,8.550000000000000000e+02,5.650000000000000000e+02,1.840000000000000000e+02,1.830000000000000000e+02,5.700000000000000000e+01,1.110000000000000000e+02,3.699999999999999956e-01,5.997450500000000000e+09
2.900000000000000000e+02,2.950000000000000000e+02,8.580000000000000000e+02,6.150000000000000000e+02,1.830000000000000000e+02,1.850000000000000000e+02,5.000000000000000000e+01,7.900000000000000000e+01,3.800000000000000044e-01,6.016626300000000000e+09
1.920000000000000000e+02,3.070000000000000000e+02,8.930000000000000000e+02,6.330000000000000000e+02,2.300000000000000000e+02,1.820000000000000000e+02,5.300000000000000000e+01,8.400000000000000000e+01,3.699999999999999956e-01,6.039256200000000000e+09
1.840000000000000000e+02,3.220000000000000000e+02,9.700000000000000000e+02,6.790000000000000000e+02,2.460000000000000000e+02,1.930000000000000000e+02,5.800000000000000000e+01,8.700000000000000000e+01,3.699999999999999956e-01,6.061194200000000000e+09
1.690000000000000000e+02,3.110000000000000000e+02,1.036000000000000000e+03,6.770000000000000000e+02,2.460000000000000000e+02,2.060000000000000000e+02,5.800000000000000000e+01,8.900000000000000000e+01,3.599999999999999867e-01,6.080465600000000000e+09
1.690000000000000000e+02,2.910000000000000000e+02,1.072000000000000000e+03,7.140000000000000000e+02,2.750000000000000000e+02,2.070000000000000000e+02,6.300000000000000000e+01,8.500000000000000000e+01,3.499999999999999778e-01,6.099907400000000000e+09
1.920000000000000000e+02,3.170000000000000000e+02,1.104000000000000000e+03,7.200000000000000000e+02,2.950000000000000000e+02,2.100000000000000000e+02,7.100000000000000000e+01,1.130000000000000000e+02,3.400000000000000244e-01,6.119158600000000000e+09
1.710000000000000000e+02,3.250000000000000000e+02,1.126000000000000000e+03,7.050000000000000000e+02,2.540000000000000000e+02,2.040000000000000000e+02,6.300000000000000000e+01,1.150000000000000000e+02,3.200000000000000067e-01,6.140231900000000000e+09
1.940000000000000000e+02,3.390000000000000000e+02,1.078000000000000000e+03,6.790000000000000000e+02,2.610000000000000000e+02,2.050000000000000000e+02,6.500000000000000000e+01,1.210000000000000000e+02,3.099999999999999978e-01,6.161732100000000000e+09
2.080000000000000000e+02,3.600000000000000000e+02,1.035000000000000000e+03,6.640000000000000000e+02,2.680000000000000000e+02,1.900000000000000000e+02,6.800000000000000000e+01,1.220000000000000000e+02,2.899999999999999800e-01,6.180225500000000000e+09
2.090000000000000000e+02,3.760000000000000000e+02,1.010000000000000000e+03,6.530000000000000000e+02,2.670000000000000000e+02,1.810000000000000000e+02,6.700000000000000000e+01,1.280000000000000000e+02,2.700000000000000178e-01,6.199585700000000000e+09
2.080000000000000000e+02,3.670000000000000000e+02,9.710000000000000000e+02,6.410000000000000000e+02,2.680000000000000000e+02,1.750000000000000000e+02,6.400000000000000000e+01,1.150000000000000000e+02,2.500000000000000000e-01,6.218169300000000000e+09
2.120000000000000000e+02,3.590000000000000000e+02,9.800000000000000000e+02,6.300000000000000000e+02,2.790000000000000000e+02,1.760000000000000000e+02,6.700000000000000000e+01,1.080000000000000000e+02,2.300000000000000100e-01,6.237787700000000000e+09
2.030000000000000000e+02,3.480000000000000000e+02,9.950000000000000000e+02,6.840000000000000000e+02,2.670000000000000000e+02,1.570000000000000000e+02,6.700000000000000000e+01,1.040000000000000000e+02,2.300000000000000100e-01,6.258982100000000000e+09
1.810000000000000000e+02,3.270000000000000000e+02,1.049000000000000000e+03,6.760000000000000000e+02,2.540000000000000000e+02,1.540000000000000000e+02,6.100000000000000000e+01,1.000000000000000000e+02,2.200000000000000011e-01,6.281616900000000000e+09
1.660000000000000000e+02,3.160000000000000000e+02,1.063000000000000000e+03,6.700000000000000000e+02,2.290000000000000000e+02,1.470000000000000000e+02,6.200000000000000000e+01,8.900000000000000000e+01,2.099999999999999922e-01,6.299998000000000000e+09
1.360000000000000000e+02,3.400000000000000000e+02,1.077000000000000000e+03,6.970000000000000000e+02,1.850000000000000000e+02,1.250000000000000000e+02,6.500000000000000000e+01,7.700000000000000000e+01,2.000000000000000111e-01,6.320134500000000000e+09
1.390000000000000000e+02,3.260000000000000000e+02,1.016000000000000000e+03,7.160000000000000000e+02,1.790000000000000000e+02,1.410000000000000000e+02,6.500000000000000000e+01,8.300000000000000000e+01,2.000000000000000111e-01,6.341794200000000000e+09
1.290000000000000000e+02,3.100000000000000000e+02,9.850000000000000000e+02,6.720000000000000000e+02,1.650000000000000000e+02,1.450000000000000000e+02,5.900000000000000000e+01,9.000000000000000000e+01,2.000000000000000111e-01,6.362702500000000000e+09
1.260000000000000000e+02,2.990000000000000000e+02,1.038000000000000000e+03,7.230000000000000000e+02,1.750000000000000000e+02,1.480000000000000000e+02,6.600000000000000000e+01,8.800000000000000000e+01,1.900000000000000022e-01,6.380573400000000000e+09
1.490000000000000000e+02,2.870000000000000000e+02,1.014000000000000000e+03,7.570000000000000000e+02,2.410000000000000000e+02,1.830000000000000000e+02,7.300000000000000000e+01,1.010000000000000000e+02,1.900000000000000022e-01,6.399400500000000000e+09
1.450000000000000000e+02,2.450000000000000000e+02,1.036000000000000000e+03,6.710000000000000000e+02,2.730000000000000000e+02,2.090000000000000000e+02,6.500000000000000000e+01,9.800000000000000000e+01,1.900000000000000022e-01,6.420398300000000000e+09
1.360000000000000000e+02,3.030000000000000000e+02,1.178000000000000000e+03,7.040000000000000000e+02,2.720000000000000000e+02,2.050000000000000000e+02,6.500000000000000000e+01,8.700000000000000000e+01,1.900000000000000022e-01,6.443402000000000000e+09
1.360000000000000000e+02,3.190000000000000000e+02,1.152000000000000000e+03,7.070000000000000000e+02,2.720000000000000000e+02,2.140000000000000000e+02,6.700000000000000000e+01,7.900000000000000000e+01,1.900000000000000022e-01,6.462144200000000000e+09
1.370000000000000000e+02,3.330000000000000000e+02,1.064000000000000000e+03,6.720000000000000000e+02,2.790000000000000000e+02,2.270000000000000000e+02,6.400000000000000000e+01,7.900000000000000000e+01,1.799999999999999933e-01,6.481185000000000000e+09
1.170000000000000000e+02,3.370000000000000000e+02,1.045000000000000000e+03,6.100000000000000000e+02,2.400000000000000000e+02,2.020000000000000000e+02,5.300000000000000000e+01,6.500000000000000000e+01,1.799999999999999933e-01,6.499806500000000000e+09
1.210000000000000000e+02,3.380000000000000000e+02,1.142000000000000000e+03,6.270000000000000000e+02,2.230000000000000000e+02,2.010000000000000000e+02,5.500000000000000000e+01,6.600000000000000000e+01,1.799999999999999933e-01,6.518782100000000000e+09
1.210000000000000000e+02,2.750000000000000000e+02,1.039000000000000000e+03,6.000000000000000000e+02,2.400000000000000000e+02,2.110000000000000000e+02,5.600000000000000000e+01,6.700000000000000000e+01,1.700000000000000122e-01,6.538327600000000000e+09
1.440000000000000000e+02,2.730000000000000000e+02,1.079000000000000000e+03,6.270000000000000000e+02,2.690000000000000000e+02,2.460000000000000000e+02,6.500000000000000000e+01,7.800000000000000000e+01,1.700000000000000122e-01,6.561847500000000000e+09
1.440000000000000000e+02,2.470000000000000000e+02,1.053000000000000000e+03,5.860000000000000000e+02,2.530000000000000000e+02,2.340000000000000000e+02,6.600000000000000000e+01,7.700000000000000000e+01,1.700000000000000122e-01,6.580262200000000000e+09
1.470000000000000000e+02,2.450000000000000000e+02,1.109000000000000000e+03,6.040000000000000000e+02,2.340000000000000000e+02,2.510000000000000000e+02,6.500000000000000000e+01,8.000000000000000000e+01,1.700000000000000122e-01,6.598633100000000000e+09
1.580000000000000000e+02,2.470000000000000000e+02,1.043000000000000000e+03,6.190000000000000000e+02,2.300000000000000000e+02,2.750000000000000000e+02,6.500000000000000000e+01,9.100000000000000000e+01,1.700000000000000122e-01,6.618579900000000000e+09
1.570000000000000000e+02,2.520000000000000000e+02,1.036000000000000000e+03,5.640000000000000000e+02,2.070000000000000000e+02,2.750000000000000000e+02,6.100000000000000000e+01,8.900000000000000000e+01,1.700000000000000122e-01,6.639088400000000000e+09
1.290000000000000000e+02,2.480000000000000000e+02,1.037000000000000000e+03,5.570000000000000000e+02,1.720000000000000000e+02,2.570000000000000000e+02,5.000000000000000000e+01,7.400000000000000000e+01,1.700000000000000122e-01,6.660910900000000000e+09
1.430000000000000000e+02,3.040000000000000000e+02,1.081000000000000000e+03,5.770000000000000000e+02,2.000000000000000000e+02,2.820000000000000000e+02,4.800000000000000000e+01,7.300000000000000000e+01,1.700000000000000122e-01,6.680302700000000000e+09
1.330000000000000000e+02,3.160000000000000000e+02,1.108000000000000000e+03,6.210000000000000000e+02,2.040000000000000000e+02,2.600000000000000000e+02,4.700000000000000000e+01,7.100000000000000000e+01,1.700000000000000122e-01,6.699827500000000000e+09
1.270000000000000000e+02,3.300000000000000000e+02,1.090000000000000000e+03,6.010000000000000000e+02,2.010000000000000000e+02,2.680000000000000000e+02,5.500000000000000000e+01,6.300000000000000000e+01,1.799999999999999933e-01,6.717730400000000000e+09
1.520000000000000000e+02,3.420000000000000000e+02,1.109000000000000000e+03,5.890000000000000000e+02,2.160000000000000000e+02,2.720000000000000000e+02,6.000000000000000000e+01,7.100000000000000000e+01,1.799999999999999933e-01,6.738806400000000000e+09
1.810000000000000000e+02,3.470000000000000000e+02,1.095000000000000000e+03,5.890000000000000000e+02,2.400000000000000000e+02,3.080000000000000000e+02,7.800000000000000000e+01,9.400000000000000000e+01,1.799999999999999933e-01,6.762822500000000000e+09
1.850000000000000000e+02,3.720000000000000000e+02,1.101000000000000000e+03,6.180000000000000000e+02,2.420000000000000000e+02,3.110000000000000000e+02,8.300000000000000000e+01,1.020000000000000000e+02,1.799999999999999933e-01,6.780996000000000000e+09
2.010000000000000000e+02,4.150000000000000000e+02,1.106000000000000000e+03,7.030000000000000000e+02,2.650000000000000000e+02,3.250000000000000000e+02,9.100000000000000000e+01,1.090000000000000000e+02,1.700000000000000122e-01,6.799838700000000000e+09
2.120000000000000000e+02,3.980000000000000000e+02,1.038000000000000000e+03,7.600000000000000000e+02,2.700000000000000000e+02,3.240000000000000000e+02,8.900000000000000000e+01,1.130000000000000000e+02,1.700000000000000122e-01,6.818779500000000000e+09
2.060000000000000000e+02,4.020000000000000000e+02,1.014000000000000000e+03,7.870000000000000000e+02,2.680000000000000000e+02,3.170000000000000000e+02,8.700000000000000000e+01,1.130000000000000000e+02,1.700000000000000122e-01,6.838486300000000000e+09
1.980000000000000000e+02,3.940000000000000000e+02,1.073000000000000000e+03,7.550000000000000000e+02,2.480000000000000000e+02,2.740000000000000000e+02,8.100000000000000000e+01,1.030000000000000000e+02,1.700000000000000122e-01,6.860899700000000000e+09
2.300000000000000000e+02,3.850000000000000000e+02,1.055000000000000000e+03,7.200000000000000000e+02,2.580000000000000000e+02,2.560000000000000000e+02,9.700000000000000000e+01,1.100000000000000000e+02,1.600000000000000033e-01,6.880486800000000000e+09
2.370000000000000000e+02,3.440000000000000000e+02,1.037000000000000000e+03,5.630000000000000000e+02,2.430000000000000000e+02,2.550000000000000000e+02,1.030000000000000000e+02,1.120000000000000000e+02,1.600000000000000033e-01,6.900611900000000000e+09
2.410000000000000000e+02,3.760000000000000000e+02,1.099000000000000000e+03,5.570000000000000000e+02,2.630000000000000000e+02,2.290000000000000000e+02,1.060000000000000000e+02,1.130000000000000000e+02,1.600000000000000033e-01,6.919624500000000000e+09
2.500000000000000000e+02,3.480000000000000000e+02,1.084000000000000000e+03,5.990000000000000000e+02,2.610000000000000000e+02,2.210000000000000000e+02,1.140000000000000000e+02,1.220000000000000000e+02,1.600000000000000033e-01,6.939882100000000000e+09
2.490000000000000000e+02,3.470000000000000000e+02,1.003000000000000000e+03,6.170000000000000000e+02,2.690000000000000000e+02,2.150000000000000000e+02,1.110000000000000000e+02,1.220000000000000000e+02,1.600000000000000033e-01,6.961743800000000000e+09
2.100000000000000000e+02,3.040000000000000000e+02,1.046000000000000000e+03,6.110000000000000000e+02,2.460000000000000000e+02,2.160000000000000000e+02,1.000000000000000000e+02,1.140000000000000000e+02,1.600000000000000033e-01,6.980382300000000000e+09
2.080000000000000000e+02,3.440000000000000000e+02,1.052000000000000000e+03,7.640000000000000000e+02,2.660000000000000000e+02,2.100000000000000000e+02,9.700000000000000000e+01,1.140000000000000000e+02,1.700000000000000122e-01,6.999366900000000000e+09
1.990000000000000000e+02,3.580000000000000000e+02,1.007000000000000000e+03,7.480000000000000000e+02,2.450000000000000000e+02,2.360000000000000000e+02,9.600000000000000000e+01,1.090000000000000000e+02,1.700000000000000122e-01,7.019091200000000000e+09
1.990000000000000000e+02,3.800000000000000000e+02,1.098000000000000000e+03,7.430000000000000000e+02,2.750000000000000000e+02,2.680000000000000000e+02,8.600000000000000000e+01,1.020000000000000000e+02,1.700000000000000122e-01,7.042142600000000000e+09
1.870000000000000000e+02,3.900000000000000000e+02,1.092000000000000000e+03,7.710000000000000000e+02,2.820000000000000000e+02,2.720000000000000000e+02,8.400000000000000000e+01,9.900000000000000000e+01,1.700000000000000122e-01,7.062359900000000000e+09
1.960000000000000000e+02,4.030000000000000000e+02,1.044000000000000000e+03,8.120000000000000000e+02,2.820000000000000000e+02,2.840000000000000000e+02,1.020000000000000000e+02,1.180000000000000000e+02,1.700000000000000122e-01,7.080989200000000000e+09
1.840000000000000000e+02,3.680000000000000000e+02,1.058000000000000000e+03,6.800000000000000000e+02,2.620000000000000000e+02,2.990000000000000000e+02,9.900000000000000000e+01,1.100000000000000000e+02,1.600000000000000033e-01,7.099444600000000000e+09
2.380000000000000000e+02,3.900000000000000000e+02,1.115000000000000000e+03,7.030000000000000000e+02,3.320000000000000000e+02,3.010000000000000000e+02,1.100000000000000000e+02,1.290000000000000000e+02,1.600000000000000033e-01,7.119715100000000000e+09
2.160000000000000000e+02,3.730000000000000000e+02,1.038000000000000000e+03,6.520000000000000000e+02,3.060000000000000000e+02,2.910000000000000000e+02,1.120000000000000000e+02,1.240000000000000000e+02,1.600000000000000033e-01,7.140321800000000000e+09
2.340000000000000000e+02,3.850000000000000000e+02,1.144000000000000000e+03,6.080000000000000000e+02,2.960000000000000000e+02,2.980000000000000000e+02,1.160000000000000000e+02,1.290000000000000000e+02,1.600000000000000033e-01,7.162643100000000000e+09
2.340000000000000000e+02,3.770000000000000000e+02,1.167000000000000000e+03,5.810000000000000000e+02,3.060000000000000000e+02,2.930000000000000000e+02,9.400000000000000000e+01,1.110000000000000000e+02,1.600000000000000033e-01,7.180961400000000000e+09
2.590000000000000000e+02,3.790000000000000000e+02,1.093000000000000000e+03,5.790000000000000000e+02,3.120000000000000000e+02,2.710000000000000000e+02,9.600000000000000000e+01,1.270000000000000000e+02,1.600000000000000033e-01,7.198906600000000000e+09
2.030000000000000000e+02,3.060000000000000000e+02,9.680000000000000000e+02,4.760000000000000000e+02,2.290000000000000000e+02,2.400000000000000000e+02,7.800000000000000000e+01,1.070000000000000000e+02,1.499999999999999944e-01,7.218487900000000000e+09
2.270000000000000000e+02,3.250000000000000000e+02,1.045000000000000000e+03,4.720000000000000000e+02,2.490000000000000000e+02,2.240000000000000000e+02,8.000000000000000000e+01,1.130000000000000000e+02,1.499999999999999944e-01,7.239838400000000000e+09
2.140000000000000000e+02,2.980000000000000000e+02,9.670000000000000000e+02,4.990000000000000000e+02,2.420000000000000000e+02,2.220000000000000000e+02,9.300000000000000000e+01,1.100000000000000000e+02,1.499999999999999944e-01,7.267028500000000000e+09
2.060000000000000000e+02,3.040000000000000000e+02,9.860000000000000000e+02,4.570000000000000000e+02,2.260000000000000000e+02,1.980000000000000000e+02,9.700000000000000000e+01,1.070000000000000000e+02,1.499999999999999944e-01,7.287558200000000000e+09
1.640000000000000000e+02,2.870000000000000000e+02,9.830000000000000000e+02,4.200000000000000000e+02,1.940000000000000000e+02,2.070000000000000000e+02,9.000000000000000000e+01,8.700000000000000000e+01,1.499999999999999944e-01,7.305142800000000000e+09
1.670000000000000000e+02,3.410000000000000000e+02,1.035000000000000000e+03,4.660000000000000000e+02,2.080000000000000000e+02,2.050000000000000000e+02,9.800000000000000000e+01,8.900000000000000000e+01,1.400000000000000133e-01,7.322920400000000000e+09
1.360000000000000000e+02,3.300000000000000000e+02,9.430000000000000000e+02,5.530000000000000000e+02,1.650000000000000000e+02,2.030000000000000000e+02,9.700000000000000000e+01,8.400000000000000000e+01,1.400000000000000133e-01,7.341942500000000000e+09
1.410000000000000000e+02,3.400000000000000000e+02,1.006000000000000000e+03,5.300000000000000000e+02,1.720000000000000000e+02,1.970000000000000000e+02,7.400000000000000000e+01,7.700000000000000000e+01,1.400000000000000133e-01,7.361946300000000000e+09
1.360000000000000000e+02,3.240000000000000000e+02,9.350000000000000000e+02,5.350000000000000000e+02,1.800000000000000000e+02,2.060000000000000000e+02,7.200000000000000000e+01,7.700000000000000000e+01,1.400000000000000133e-01,7.380155600000000000e+09
1.440000000000000000e+02,3.110000000000000000e+02,9.210000000000000000e+02,5.870000000000000000e+02,1.960000000000000000e+02,2.020000000000000000e+02,6.800000000000000000e+01,7.700000000000000000e+01,1.400000000000000133e-01,7.399972000000000000e+09
1.510000000000000000e+02,2.610000000000000000e+02,9.500000000000000000e+02,5.530000000000000000e+02,2.210000000000000000e+02,1.910000000000000000e+02,6.600000000000000000e+01,8.000000000000000000e+01,1.499999999999999944e-01,7.422460900000000000e+09
1.500000000000000000e+02,2.510000000000000000e+02,9.780000000000000000e+02,4.720000000000000000e+02,2.250000000000000000e+02,2.030000000000000000e+02,6.100000000000000000e+01,7.500000000000000000e+01,1.499999999999999944e-01,7.447369900000000000e+09
1.380000000000000000e+02,2.240000000000000000e+02,8.840000000000000000e+02,4.640000000000000000e+02,2.190000000000000000e+02,1.860000000000000000e+02,6.400000000000000000e+01,7.600000000000000000e+01,1.499999999999999944e-01,7.465318600000000000e+09
1.430000000000000000e+02,2.220000000000000000e+02,9.270000000000000000e+02,4.740000000000000000e+02,2.070000000000000000e+02,1.760000000000000000e+02,6.000000000000000000e+01,7.800000000000000000e+01,1.499999999999999944e-01,7.483812500000000000e+09
1.340000000000000000e+02,2.190000000000000000e+02,1.007000000000000000e+03,4.100000000000000000e+02,1.980000000000000000e+02,1.860000000000000000e+02,5.700000000000000000e+01,7.300000000000000000e+01,1.499999999999999944e-01,7.502165600000000000e+09
1.670000000000000000e+02,3.450000000000000000e+02,1.071000000000000000e+03,5.480000000000000000e+02,1.910000000000000000e+02,1.760000000000000000e+02,5.400000000000000000e+01,8.800000000000000000e+01,1.600000000000000033e-01,7.525633300000000000e+09
1.780000000000000000e+02,3.590000000000000000e+02,1.069000000000000000e+03,5.580000000000000000e+02,1.940000000000000000e+02,1.860000000000000000e+02,5.400000000000000000e+01,9.200000000000000000e+01,1.600000000000000033e-01,7.546931300000000000e+09
1.850000000000000000e+02,3.770000000000000000e+02,1.081000000000000000e+03,5.810000000000000000e+02,1.980000000000000000e+02,1.870000000000000000e+02,5.200000000000000000e+01,9.400000000000000000e+01,1.600000000000000033e-01,7.567711100000000000e+09
1.990000000000000000e+02,3.980000000000000000e+02,1.119000000000000000e+03,6.010000000000000000e+02,2.130000000000000000e+02,2.010000000000000000e+02,6.300000000000000000e+01,1.020000000000000000e+02,1.600000000000000033e-01,7.585754400000000000e+09
2.070000000000000000e+02,4.140000000000000000e+02,1.059000000000000000e+03,6.440000000000000000e+02,2.250000000000000000e+02,1.890000000000000000e+02,7.200000000000000000e+01,1.080000000000000000e+02,1.600000000000000033e-01,7.604335500000000000e+09
1.800000000000000000e+02,3.460000000000000000e+02,9.630000000000000000e+02,5.150000000000000000e+02,1.890000000000000000e+02,1.950000000000000000e+02,8.100000000000000000e+01,9.200000000000000000e+01,1.600000000000000033e-01,7.622050200000000000e+09
1.750000000000000000e+02,3.470000000000000000e+02,9.680000000000000000e+02,4.870000000000000000e+02,1.790000000000000000e+02,1.790000000000000000e+02,8.600000000000000000e+01,1.000000000000000000e+02,1.600000000000000033e-01,7.641983000000000000e+09
1.740000000000000000e+02,3.490000000000000000e+02,9.740000000000000000e+02,4.350000000000000000e+02,1.720000000000000000e+02,1.910000000000000000e+02,9.000000000000000000e+01,1.010000000000000000e+02,1.600000000000000033e-01,7.663016000000000000e+09
1.560000000000000000e+02,3.080000000000000000e+02,9.430000000000000000e+02,3.690000000000000000e+02,1.460000000000000000e+02,1.930000000000000000e+02,9.400000000000000000e+01,1.030000000000000000e+02,1.600000000000000033e-01,7.680846600000000000e+09
1.520000000000000000e+02,3.030000000000000000e+02,9.880000000000000000e+02,2.930000000000000000e+02,1.240000000000000000e+02,2.200000000000000000e+02,1.020000000000000000e+02,1.070000000000000000e+02,1.600000000000000033e-01,7.699190900000000000e+09
1.440000000000000000e+02,2.500000000000000000e+02,9.550000000000000000e+02,3.000000000000000000e+02,1.130000000000000000e+02,2.370000000000000000e+02,1.030000000000000000e+02,1.120000000000000000e+02,1.700000000000000122e-01,7.718139200000000000e+09
1.400000000000000000e+02,2.320000000000000000e+02,9.900000000000000000e+02,2.950000000000000000e+02,1.250000000000000000e+02,2.720000000000000000e+02,1.030000000000000000e+02,1.020000000000000000e+02,1.799999999999999933e-01,7.737344400000000000e+09
1.440000000000000000e+02,2.120000000000000000e+02,9.810000000000000000e+02,3.540000000000000000e+02,1.350000000000000000e+02,2.770000000000000000e+02,1.130000000000000000e+02,1.060000000000000000e+02,1.900000000000000022e-01,7.759759300000000000e+09
1.370000000000000000e+02,2.130000000000000000e+02,9.050000000000000000e+02,3.570000000000000000e+02,1.410000000000000000e+02,2.730000000000000000e+02,1.100000000000000000e+02,1.150000000000000000e+02,2.000000000000000111e-01,7.778104200000000000e+09
1.230000000000000000e+02,1.810000000000000000e+02,8.360000000000000000e+02,3.630000000000000000e+02,1.420000000000000000e+02,2.640000000000000000e+02,1.370000000000000000e+02,1.180000000000000000e+02,2.099999999999999922e-01,7.797418000000000000e+09
1.240000000000000000e+02,2.010000000000000000e+02,8.320000000000000000e+02,3.570000000000000000e+02,1.510000000000000000e+02,2.430000000000000000e+02,1.320000000000000000e+02,1.160000000000000000e+02,2.300000000000000100e-01,7.818389200000000000e+09
1.270000000000000000e+02,2.010000000000000000e+02,8.290000000000000000e+02,3.740000000000000000e+02,1.500000000000000000e+02,2.030000000000000000e+02,1.320000000000000000e+02,1.210000000000000000e+02,2.399999999999999911e-01,7.840650000000000000e+09
1.100000000000000000e+02,1.820000000000000000e+02,7.380000000000000000e+02,3.290000000000000000e+02,1.410000000000000000e+02,2.140000000000000000e+02,1.250000000000000000e+02,1.150000000000000000e+02,2.600000000000000089e-01,7.863054400000000000e+09
1.130000000000000000e+02,1.780000000000000000e+02,7.790000000000000000e+02,3.250000000000000000e+02,1.330000000000000000e+02,3.000000000000000000e+02,1.340000000000000000e+02,1.390000000000000000e+02,2.700000000000000178e-01,7.882661300000000000e+09
1.140000000000000000e+02,2.080000000000000000e+02,8.450000000000000000e+02,3.390000000000000000e+02,1.260000000000000000e+02,3.100000000000000000e+02,1.120000000000000000e+02,1.340000000000000000e+02,2.899999999999999800e-01,7.902124600000000000e+09
1.130000000000000000e+02,2.070000000000000000e+02,9.580000000000000000e+02,3.480000000000000000e+02,1.240000000000000000e+02,3.090000000000000000e+02,1.120000000000000000e+02,1.300000000000000000e+02,2.999999999999999889e-01,7.921408700000000000e+09
1.140000000000000000e+02,2.390000000000000000e+02,9.370000000000000000e+02,3.310000000000000000e+02,1.320000000000000000e+02,3.070000000000000000e+02,1.150000000000000000e+02,1.290000000000000000e+02,3.099999999999999978e-01,7.945606700000000000e+09
1.090000000000000000e+02,2.380000000000000000e+02,9.640000000000000000e+02,3.150000000000000000e+02,1.230000000000000000e+02,2.850000000000000000e+02,1.320000000000000000e+02,1.420000000000000000e+02,3.099999999999999978e-01,7.964805800000000000e+09
1.080000000000000000e+02,2.320000000000000000e+02,9.080000000000000000e+02,2.980000000000000000e+02,1.240000000000000000e+02,2.500000000000000000e+02,1.740000000000000000e+02,2.970000000000000000e+02,3.200000000000000067e-01,7.983590900000000000e+09
1.060000000000000000e+02,1.980000000000000000e+02,7.900000000000000000e+02,2.510000000000000000e+02,1.210000000000000000e+02,3.090000000000000000e+02,1.780000000000000000e+02,3.630000000000000000e+02,3.200000000000000067e-01,8.002051700000000000e+09
1.000000000000000000e+02,1.920000000000000000e+02,6.520000000000000000e+02,2.070000000000000000e+02,1.130000000000000000e+02,4.410000000000000000e+02,2.530000000000000000e+02,4.120000000000000000e+02,3.300000000000000155e-01,8.022035600000000000e+09
1.190000000000000000e+02,1.200000000000000000e+02,5.460000000000000000e+02,1.830000000000000000e+02,1.020000000000000000e+02,4.600000000000000000e+02,2.750000000000000000e+02,4.800000000000000000e+02,3.300000000000000155e-01,8.041156400000000000e+09
1.430000000000000000e+02,1.120000000000000000e+02,5.350000000000000000e+02,1.780000000000000000e+02,1.310000000000000000e+02,7.520000000000000000e+02,5.370000000000000000e+02,5.550000000000000000e+02,3.400000000000000244e-01,8.062952200000000000e+09
1.820000000000000000e+02,1.190000000000000000e+02,5.320000000000000000e+02,1.780000000000000000e+02,1.570000000000000000e+02,8.160000000000000000e+02,5.740000000000000000e+02,6.290000000000000000e+02,3.400000000000000244e-01,8.082492800000000000e+09
2.280000000000000000e+02,1.290000000000000000e+02,5.310000000000000000e+02,1.820000000000000000e+02,1.640000000000000000e+02,8.740000000000000000e+02,6.330000000000000000e+02,6.620000000000000000e+02,3.400000000000000244e-01,8.100777700000000000e+09
2.430000000000000000e+02,1.000000000000000000e+02,4.260000000000000000e+02,1.780000000000000000e+02,1.710000000000000000e+02,8.660000000000000000e+02,6.410000000000000000e+02,7.010000000000000000e+02,3.300000000000000155e-01,8.121752200000000000e+09
2.470000000000000000e+02,1.160000000000000000e+02,4.000000000000000000e+02,1.410000000000000000e+02,1.650000000000000000e+02,8.900000000000000000e+02,6.980000000000000000e+02,7.110000000000000000e+02,3.400000000000000244e-01,8.143208600000000000e+09
2.520000000000000000e+02,1.270000000000000000e+02,3.440000000000000000e+02,1.310000000000000000e+02,1.410000000000000000e+02,6.780000000000000000e+02,5.830000000000000000e+02,7.270000000000000000e+02,3.400000000000000244e-01,8.162004700000000000e+09
2.300000000000000000e+02,1.270000000000000000e+02,3.840000000000000000e+02,1.330000000000000000e+02,1.110000000000000000e+02,7.140000000000000000e+02,6.450000000000000000e+02,7.230000000000000000e+02,3.499999999999999778e-01,8.181254900000000000e+09
1.960000000000000000e+02,1.410000000000000000e+02,4.770000000000000000e+02,1.570000000000000000e+02,1.060000000000000000e+02,7.150000000000000000e+02,6.950000000000000000e+02,7.910000000000000000e+02,3.400000000000000244e-01,8.200526100000000000e+09
1.850000000000000000e+02,1.420000000000000000e+02,5.090000000000000000e+02,1.560000000000000000e+02,9.100000000000000000e+01,6.950000000000000000e+02,8.000000000000000000e+02,7.950000000000000000e+02,3.499999999999999778e-01,8.218855900000000000e+09
1.650000000000000000e+02,1.340000000000000000e+02,4.670000000000000000e+02,1.370000000000000000e+02,8.700000000000000000e+01,7.010000000000000000e+02,8.090000000000000000e+02,7.750000000000000000e+02,3.499999999999999778e-01,8.239569400000000000e+09
1.480000000000000000e+02,1.320000000000000000e+02,4.330000000000000000e+02,1.320000000000000000e+02,8.100000000000000000e+01,7.500000000000000000e+02,8.860000000000000000e+02,7.710000000000000000e+02,3.499999999999999778e-01,8.263501200000000000e+09
1.570000000000000000e+02,1.310000000000000000e+02,4.000000000000000000e+02,1.270000000000000000e+02,8.600000000000000000e+01,6.680000000000000000e+02,8.320000000000000000e+02,7.090000000000000000e+02,3.499999999999999778e-01,8.282374700000000000e+09
1.540000000000000000e+02,1.320000000000000000e+02,3.390000000000000000e+02,1.000000000000000000e+02,8.400000000000000000e+01,5.680000000000000000e+02,7.740000000000000000e+02,5.820000000000000000e+02,3.599999999999999867e-01,8.300632200000000000e+09
1.480000000000000000e+02,1.400000000000000000e+02,3.780000000000000000e+02,1.200000000000000000e+02,8.300000000000000000e+01,5.490000000000000000e+02,6.930000000000000000e+02,5.170000000000000000e+02,3.599999999999999867e-01,8.319956200000000000e+09
1.560000000000000000e+02,1.490000000000000000e+02,3.710000000000000000e+02,1.530000000000000000e+02,8.700000000000000000e+01,5.920000000000000000e+02,6.360000000000000000e+02,5.730000000000000000e+02,3.599999999999999867e-01,8.344267300000000000e+09
1.480000000000000000e+02,1.460000000000000000e+02,3.760000000000000000e+02,1.590000000000000000e+02,8.400000000000000000e+01,5.360000000000000000e+02,4.980000000000000000e+02,5.490000000000000000e+02,3.599999999999999867e-01,8.362747500000000000e+09
1.310000000000000000e+02,1.450000000000000000e+02,3.750000000000000000e+02,1.620000000000000000e+02,8.400000000000000000e+01,4.820000000000000000e+02,4.720000000000000000e+02,4.900000000000000000e+02,3.599999999999999867e-01,8.382024500000000000e+09
1.150000000000000000e+02,1.250000000000000000e+02,3.240000000000000000e+02,1.680000000000000000e+02,7.900000000000000000e+01,4.850000000000000000e+02,4.370000000000000000e+02,4.720000000000000000e+02,3.599999999999999867e-01,8.402245700000000000e+09
1.200000000000000000e+02,1.500000000000000000e+02,2.930000000000000000e+02,1.940000000000000000e+02,1.020000000000000000e+02,4.760000000000000000e+02,3.770000000000000000e+02,4.630000000000000000e+02,3.699999999999999956e-01,8.420551000000000000e+09
1.090000000000000000e+02,1.490000000000000000e+02,3.180000000000000000e+02,1.930000000000000000e+02,1.000000000000000000e+02,3.480000000000000000e+02,3.430000000000000000e+02,3.380000000000000000e+02,3.699999999999999956e-01,8.441458300000000000e+09
1.110000000000000000e+02,1.470000000000000000e+02,3.450000000000000000e+02,2.140000000000000000e+02,1.060000000000000000e+02,3.090000000000000000e+02,2.720000000000000000e+02,2.240000000000000000e+02,3.800000000000000044e-01,8.463393200000000000e+09
1.070000000000000000e+02,1.460000000000000000e+02,3.470000000000000000e+02,2.120000000000000000e+02,1.050000000000000000e+02,3.270000000000000000e+02,3.230000000000000000e+02,2.060000000000000000e+02,3.900000000000000133e-01,8.481957100000000000e+09
1.070000000000000000e+02,1.670000000000000000e+02,4.090000000000000000e+02,2.090000000000000000e+02,1.080000000000000000e+02,3.110000000000000000e+02,3.460000000000000000e+02,2.170000000000000000e+02,3.900000000000000133e-01,8.501882700000000000e+09
9.200000000000000000e+01,1.480000000000000000e+02,3.780000000000000000e+02,1.710000000000000000e+02,8.700000000000000000e+01,3.130000000000000000e+02,3.100000000000000000e+02,1.970000000000000000e+02,3.900000000000000133e-01,8.521954400000000000e+09
8.000000000000000000e+01,1.330000000000000000e+02,3.470000000000000000e+02,1.490000000000000000e+02,8.000000000000000000e+01,3.440000000000000000e+02,3.620000000000000000e+02,1.940000000000000000e+02,4.000000000000000222e-01,8.543903000000000000e+09
7.100000000000000000e+01,1.360000000000000000e+02,3.410000000000000000e+02,1.720000000000000000e+02,7.400000000000000000e+01,3.580000000000000000e+02,3.700000000000000000e+02,1.840000000000000000e+02,4.199999999999999845e-01,8.564497000000000000e+09
7.300000000000000000e+01,1.350000000000000000e+02,3.800000000000000000e+02,1.900000000000000000e+02,7.300000000000000000e+01,4.240000000000000000e+02,3.110000000000000000e+02,1.860000000000000000e+02,4.400000000000000022e-01,8.582273000000000000e+09
7.500000000000000000e+01,1.060000000000000000e+02,3.150000000000000000e+02,1.800000000000000000e+02,6.400000000000000000e+01,4.180000000000000000e+02,2.790000000000000000e+02,1.640000000000000000e+02,4.600000000000000200e-01,8.602649800000000000e+09
6.700000000000000000e+01,9.300000000000000000e+01,3.930000000000000000e+02,1.770000000000000000e+02,6.000000000000000000e+01,3.860000000000000000e+02,2.710000000000000000e+02,1.390000000000000000e+02,4.799999999999999822e-01,8.622137600000000000e+09
7.000000000000000000e+01,1.140000000000000000e+02,4.320000000000000000e+02,1.930000000000000000e+02,6.900000000000000000e+01,3.730000000000000000e+02,2.150000000000000000e+02,1.280000000000000000e+02,5.000000000000000000e-01,8.641334700000000000e+09
6.500000000000000000e+01,1.190000000000000000e+02,4.310000000000000000e+02,1.570000000000000000e+02,6.400000000000000000e+01,3.770000000000000000e+02,2.040000000000000000e+02,1.220000000000000000e+02,5.100000000000000089e-01,8.664836000000000000e+09
6.500000000000000000e+01,1.170000000000000000e+02,3.980000000000000000e+02,1.290000000000000000e+02,5.800000000000000000e+01,2.690000000000000000e+02,2.050000000000000000e+02,1.160000000000000000e+02,5.300000000000000266e-01,8.684892200000000000e+09
6.400000000000000000e+01,1.150000000000000000e+02,4.060000000000000000e+02,1.370000000000000000e+02,6.400000000000000000e+01,2.540000000000000000e+02,1.660000000000000000e+02,7.800000000000000000e+01,5.400000000000000355e-01,8.704104600000000000e+09
7.200000000000000000e+01,1.260000000000000000e+02,4.240000000000000000e+02,1.430000000000000000e+02,7.100000000000000000e+01,2.670000000000000000e+02,1.750000000000000000e+02,7.600000000000000000e+01,5.500000000000000444e-01,8.722571200000000000e+09
6.700000000000000000e+01,1.100000000000000000e+02,4.110000000000000000e+02,1.200000000000000000e+02,6.200000000000000000e+01,2.370000000000000000e+02,1.910000000000000000e+02,6.000000000000000000e+01,5.600000000000000533e-01,8.744960500000000000e+09
7.100000000000000000e+01,1.000000000000000000e+02,4.780000000000000000e+02,1.030000000000000000e+02,6.700000000000000000e+01,2.100000000000000000e+02,1.860000000000000000e+02,4.800000000000000000e+01,5.699999999999999512e-01,8.764637500000000000e+09
7.000000000000000000e+01,1.060000000000000000e+02,5.200000000000000000e+02,1.080000000000000000e+02,6.800000000000000000e+01,2.350000000000000000e+02,2.320000000000000000e+02,8.100000000000000000e+01,5.699999999999999512e-01,8.783494700000000000e+09
7.300000000000000000e+01,1.110000000000000000e+02,5.130000000000000000e+02,1.010000000000000000e+02,6.100000000000000000e+01,3.150000000000000000e+02,2.390000000000000000e+02,8.600000000000000000e+01,5.699999999999999512e-01,8.801810500000000000e+09
6.800000000000000000e+01,9.000000000000000000e+01,4.490000000000000000e+02,9.800000000000000000e+01,5.500000000000000000e+01,2.990000000000000000e+02,2.500000000000000000e+02,8.800000000000000000e+01,5.799999999999999600e-01,8.820107900000000000e+09
7.100000000000000000e+01,8.600000000000000000e+01,4.520000000000000000e+02,1.140000000000000000e+02,5.900000000000000000e+01,2.920000000000000000e+02,2.220000000000000000e+02,9.100000000000000000e+01,5.699999999999999512e-01,8.839563100000000000e+09
6.500000000000000000e+01,7.900000000000000000e+01,4.190000000000000000e+02,1.090000000000000000e+02,5.700000000000000000e+01,2.980000000000000000e+02,2.470000000000000000e+02,9.300000000000000000e+01,5.699999999999999512e-01,8.863704300000000000e+09
6.500000000000000000e+01,7.100000000000000000e+01,3.890000000000000000e+02,1.090000000000000000e+02,5.800000000000000000e+01,2.910000000000000000e+02,2.080000000000000000e+02,8.700000000000000000e+01,5.699999999999999512e-01,8.883216400000000000e+09
5.900000000000000000e+01,6.600000000000000000e+01,4.090000000000000000e+02,1.110000000000000000e+02,5.700000000000000000e+01,2.270000000000000000e+02,2.120000000000000000e+02,8.500000000000000000e+01,5.699999999999999512e-01,8.901680100000000000e+09
5.700000000000000000e+01,7.000000000000000000e+01,3.850000000000000000e+02,1.030000000000000000e+02,5.300000000000000000e+01,2.410000000000000000e+02,1.990000000000000000e+02,8.100000000000000000e+01,5.799999999999999600e-01,8.921828200000000000e+09
6.200000000000000000e+01,8.200000000000000000e+01,3.680000000000000000e+02,1.060000000000000000e+02,5.100000000000000000e+01,2.390000000000000000e+02,2.010000000000000000e+02,7.800000000000000000e+01,5.799999999999999600e-01,8.945139100000000000e+09
6.400000000000000000e+01,8.700000000000000000e+01,3.490000000000000000e+02,1.020000000000000000e+02,4.900000000000000000e+01,2.220000000000000000e+02,1.760000000000000000e+02,7.200000000000000000e+01,5.799999999999999600e-01,8.964158100000000000e+09
6.000000000000000000e+01,8.700000000000000000e+01,3.260000000000000000e+02,1.010000000000000000e+02,4.400000000000000000e+01,1.870000000000000000e+02,1.600000000000000000e+02,4.600000000000000000e+01,5.799999999999999600e-01,8.983355900000000000e+09
5.600000000000000000e+01,8.500000000000000000e+01,3.220000000000000000e+02,9.700000000000000000e+01,4.600000000000000000e+01,1.730000000000000000e+02,1.620000000000000000e+02,4.100000000000000000e+01,5.899999999999999689e-01,9.001997500000000000e+09
5.300000000000000000e+01,8.200000000000000000e+01,3.190000000000000000e+02,1.030000000000000000e+02,4.700000000000000000e+01,1.440000000000000000e+02,1.570000000000000000e+02,4.200000000000000000e+01,5.899999999999999689e-01,9.022447200000000000e+09
4.400000000000000000e+01,8.100000000000000000e+01,3.200000000000000000e+02,7.100000000000000000e+01,4.300000000000000000e+01,1.450000000000000000e+02,1.480000000000000000e+02,4.200000000000000000e+01,5.799999999999999600e-01,9.043468400000000000e+09
5.700000000000000000e+01,7.300000000000000000e+01,2.950000000000000000e+02,1.130000000000000000e+02,4.600000000000000000e+01,1.380000000000000000e+02,1.400000000000000000e+02,4.200000000000000000e+01,5.799999999999999600e-01,9.062725000000000000e+09
5.900000000000000000e+01,7.300000000000000000e+01,2.890000000000000000e+02,1.200000000000000000e+02,4.800000000000000000e+01,1.360000000000000000e+02,1.340000000000000000e+02,3.900000000000000000e+01,5.799999999999999600e-01,9.081394000000000000e+09
5.900000000000000000e+01,7.100000000000000000e+01,2.650000000000000000e+02,1.220000000000000000e+02,4.500000000000000000e+01,9.900000000000000000e+01,1.170000000000000000e+02,3.500000000000000000e+01,5.799999999999999600e-01,9.100709400000000000e+09
5.700000000000000000e+01,6.700000000000000000e+01,2.670000000000000000e+02,1.160000000000000000e+02,4.400000000000000000e+01,9.800000000000000000e+01,9.900000000000000000e+01,2.700000000000000000e+01,5.899999999999999689e-01,9.120217100000000000e+09
5.500000000000000000e+01,5.600000000000000000e+01,2.500000000000000000e+02,1.250000000000000000e+02,4.500000000000000000e+01,7.300000000000000000e+01,9.900000000000000000e+01,2.700000000000000000e+01,5.899999999999999689e-01,9.143469300000000000e+09
4.300000000000000000e+01,5.700000000000000000e+01,2.090000000000000000e+02,8.900000000000000000e+01,4.300000000000000000e+01,8.100000000000000000e+01,9.300000000000000000e+01,2.900000000000000000e+01,5.899999999999999689e-01,9.164752400000000000e+09
4.200000000000000000e+01,8.100000000000000000e+01,2.480000000000000000e+02,7.800000000000000000e+01,4.600000000000000000e+01,7.800000000000000000e+01,8.800000000000000000e+01,3.000000000000000000e+01,5.899999999999999689e-01,9.183777000000000000e+09
4.300000000000000000e+01,8.700000000000000000e+01,2.460000000000000000e+02,7.900000000000000000e+01,4.500000000000000000e+01,1.040000000000000000e+02,8.300000000000000000e+01,3.200000000000000000e+01,5.799999999999999600e-01,9.202937600000000000e+09
4.700000000000000000e+01,1.100000000000000000e+02,2.910000000000000000e+02,7.800000000000000000e+01,4.800000000000000000e+01,1.460000000000000000e+02,8.800000000000000000e+01,3.400000000000000000e+01,5.799999999999999600e-01,9.220730500000000000e+09
4.900000000000000000e+01,1.210000000000000000e+02,3.500000000000000000e+02,7.500000000000000000e+01,5.600000000000000000e+01,1.500000000000000000e+02,8.000000000000000000e+01,3.700000000000000000e+01,5.799999999999999600e-01,9.239988700000000000e+09
4.300000000000000000e+01,1.190000000000000000e+02,4.250000000000000000e+02,8.700000000000000000e+01,6.200000000000000000e+01,1.520000000000000000e+02,8.100000000000000000e+01,3.400000000000000000e+01,5.899999999999999689e-01,9.263213400000000000e+09
4.700000000000000000e+01,1.060000000000000000e+02,4.080000000000000000e+02,1.180000000000000000e+02,6.800000000000000000e+01,1.540000000000000000e+02,8.100000000000000000e+01,3.700000000000000000e+01,5.899999999999999689e-01,9.283873900000000000e+09
4.900000000000000000e+01,1.160000000000000000e+02,4.130000000000000000e+02,1.240000000000000000e+02,7.100000000000000000e+01,1.670000000000000000e+02,8.500000000000000000e+01,3.700000000000000000e+01,5.799999999999999600e-01,9.301908100000000000e+09
4.800000000000000000e+01,9.900000000000000000e+01,3.920000000000000000e+02,1.270000000000000000e+02,7.200000000000000000e+01,1.370000000000000000e+02,7.300000000000000000e+01,3.500000000000000000e+01,5.799999999999999600e-01,9.321881300000000000e+09
4.800000000000000000e+01,1.160000000000000000e+02,4.450000000000000000e+02,1.220000000000000000e+02,6.300000000000000000e+01,1.330000000000000000e+02,6.900000000000000000e+01,3.400000000000000000e+01,5.799999999999999600e-01,9.342985100000000000e+09
5.000000000000000000e+01,1.310000000000000000e+02,4.200000000000000000e+02,1.420000000000000000e+02,5.800000000000000000e+01,1.390000000000000000e+02,7.000000000000000000e+01,3.400000000000000000e+01,5.799999999999999600e-01,9.362564800000000000e+09
4.500000000000000000e+01,1.290000000000000000e+02,4.270000000000000000e+02,1.320000000000000000e+02,5.500000000000000000e+01,1.420000000000000000e+02,6.600000000000000000e+01,3.000000000000000000e+01,5.899999999999999689e-01,9.380641800000000000e+09
4.200000000000000000e+01,1.210000000000000000e+02,4.500000000000000000e+02,1.350000000000000000e+02,6.300000000000000000e+01,1.090000000000000000e+02,4.900000000000000000e+01,2.900000000000000000e+01,5.899999999999999689e-01,9.399635200000000000e+09
4.000000000000000000e+01,1.230000000000000000e+02,4.810000000000000000e+02,1.400000000000000000e+02,6.300000000000000000e+01,1.040000000000000000e+02,4.600000000000000000e+01,2.800000000000000000e+01,5.999999999999999778e-01,9.419122300000000000e+09
4.600000000000000000e+01,9.500000000000000000e+01,4.950000000000000000e+02,1.430000000000000000e+02,6.800000000000000000e+01,1.060000000000000000e+02,4.500000000000000000e+01,3.000000000000000000e+01,5.999999999999999778e-01,9.440330400000000000e+09
4.500000000000000000e+01,7.700000000000000000e+01,4.640000000000000000e+02,1.160000000000000000e+02,6.900000000000000000e+01,8.600000000000000000e+01,4.300000000000000000e+01,3.000000000000000000e+01,5.999999999999999778e-01,9.463380200000000000e+09
4.600000000000000000e+01,9.300000000000000000e+01,5.440000000000000000e+02,1.110000000000000000e+02,6.500000000000000000e+01,7.900000000000000000e+01,4.000000000000000000e+01,3.100000000000000000e+01,5.999999999999999778e-01,9.481780600000000000e+09
4.700000000000000000e+01,9.000000000000000000e+01,6.010000000000000000e+02,1.470000000000000000e+02,6.400000000000000000e+01,8.000000000000000000e+01,3.800000000000000000e+01,3.300000000000000000e+01,5.999999999999999778e-01,9.500905100000000000e+09
4.600000000000000000e+01,9.200000000000000000e+01,6.240000000000000000e+02,1.510000000000000000e+02,6.500000000000000000e+01,7.700000000000000000e+01,4.100000000000000000e+01,3.300000000000000000e+01,5.999999999999999778e-01,9.522169800000000000e+09
4.000000000000000000e+01,9.700000000000000000e+01,5.720000000000000000e+02,1.580000000000000000e+02,6.100000000000000000e+01,7.400000000000000000e+01,4.800000000000000000e+01,3.100000000000000000e+01,6.099999999999999867e-01,9.542450100000000000e+09
4.100000000000000000e+01,9.300000000000000000e+01,6.280000000000000000e+02,1.670000000000000000e+02,6.300000000000000000e+01,8.000000000000000000e+01,4.600000000000000000e+01,3.300000000000000000e+01,6.099999999999999867e-01,9.563166400000000000e+09
4.000000000000000000e+01,8.600000000000000000e+01,6.280000000000000000e+02,1.780000000000000000e+02,6.800000000000000000e+01,7.800000000000000000e+01,4.600000000000000000e+01,3.200000000000000000e+01,6.099999999999999867e-01,9.581361000000000000e+09
3.400000000000000000e+01,9.800000000000000000e+01,5.760000000000000000e+02,1.670000000000000000e+02,6.300000000000000000e+01,7.700000000000000000e+01,4.700000000000000000e+01,2.900000000000000000e+01,5.999999999999999778e-01,9.600307700000000000e+09
4.500000000000000000e+01,9.600000000000000000e+01,6.060000000000000000e+02,1.690000000000000000e+02,7.000000000000000000e+01,1.000000000000000000e+02,6.400000000000000000e+01,3.300000000000000000e+01,5.999999999999999778e-01,9.619989500000000000e+09
5.600000000000000000e+01,1.110000000000000000e+02,6.170000000000000000e+02,2.090000000000000000e+02,9.200000000000000000e+01,1.220000000000000000e+02,6.800000000000000000e+01,3.800000000000000000e+01,5.999999999999999778e-01,9.641127700000000000e+09
6.100000000000000000e+01,1.220000000000000000e+02,6.200000000000000000e+02,2.190000000000000000e+02,9.300000000000000000e+01,1.230000000000000000e+02,7.000000000000000000e+01,3.900000000000000000e+01,5.899999999999999689e-01,9.663224700000000000e+09
6.600000000000000000e+01,1.490000000000000000e+02,6.210000000000000000e+02,2.260000000000000000e+02,9.700000000000000000e+01,1.340000000000000000e+02,7.300000000000000000e+01,4.400000000000000000e+01,5.899999999999999689e-01,9.682496500000000000e+09
6.900000000000000000e+01,1.460000000000000000e+02,6.470000000000000000e+02,2.190000000000000000e+02,9.900000000000000000e+01,1.320000000000000000e+02,7.300000000000000000e+01,4.400000000000000000e+01,5.799999999999999600e-01,9.702170600000000000e+09
6.500000000000000000e+01,1.460000000000000000e+02,6.750000000000000000e+02,2.310000000000000000e+02,9.500000000000000000e+01,1.340000000000000000e+02,6.200000000000000000e+01,4.200000000000000000e+01,5.799999999999999600e-01,9.721025100000000000e+09
5.800000000000000000e+01,1.310000000000000000e+02,6.550000000000000000e+02,1.910000000000000000e+02,7.300000000000000000e+01,1.300000000000000000e+02,5.900000000000000000e+01,3.800000000000000000e+01,5.699999999999999512e-01,9.744019600000000000e+09
5.800000000000000000e+01,1.280000000000000000e+02,6.610000000000000000e+02,1.930000000000000000e+02,7.800000000000000000e+01,1.450000000000000000e+02,7.000000000000000000e+01,3.900000000000000000e+01,5.600000000000000533e-01,9.765072300000000000e+09
5.300000000000000000e+01,9.200000000000000000e+01,6.260000000000000000e+02,1.800000000000000000e+02,6.800000000000000000e+01,1.380000000000000000e+02,7.000000000000000000e+01,3.400000000000000000e+01,5.600000000000000533e-01,9.794400200000000000e+09
5.400000000000000000e+01,1.000000000000000000e+02,5.940000000000000000e+02,2.420000000000000000e+02,7.000000000000000000e+01,1.400000000000000000e+02,6.700000000000000000e+01,3.500000000000000000e+01,5.600000000000000533e-01,9.812903900000000000e+09
6.200000000000000000e+01,1.290000000000000000e+02,5.010000000000000000e+02,2.500000000000000000e+02,7.700000000000000000e+01,1.450000000000000000e+02,7.100000000000000000e+01,3.800000000000000000e+01,5.500000000000000444e-01,9.831008400000000000e+09
6.600000000000000000e+01,1.520000000000000000e+02,5.390000000000000000e+02,2.490000000000000000e+02,7.800000000000000000e+01,1.370000000000000000e+02,7.200000000000000000e+01,4.000000000000000000e+01,5.500000000000000444e-01,9.853559800000000000e+09
6.900000000000000000e+01,1.640000000000000000e+02,5.470000000000000000e+02,2.460000000000000000e+02,7.300000000000000000e+01,1.650000000000000000e+02,7.000000000000000000e+01,4.100000000000000000e+01,5.600000000000000533e-01,9.871935000000000000e+09
7.000000000000000000e+01,1.650000000000000000e+02,5.560000000000000000e+02,2.440000000000000000e+02,7.500000000000000000e+01,1.740000000000000000e+02,7.100000000000000000e+01,4.200000000000000000e+01,5.600000000000000533e-01,9.889667500000000000e+09
7.600000000000000000e+01,1.620000000000000000e+02,6.050000000000000000e+02,1.860000000000000000e+02,9.000000000000000000e+01,1.940000000000000000e+02,7.700000000000000000e+01,4.800000000000000000e+01,5.500000000000000444e-01,9.907813300000000000e+09
7.000000000000000000e+01,1.460000000000000000e+02,6.400000000000000000e+02,1.610000000000000000e+02,8.600000000000000000e+01,1.840000000000000000e+02,7.300000000000000000e+01,4.400000000000000000e+01,5.500000000000000444e-01,9.926542500000000000e+09
6.900000000000000000e+01,1.280000000000000000e+02,7.040000000000000000e+02,1.650000000000000000e+02,8.800000000000000000e+01,1.900000000000000000e+02,7.000000000000000000e+01,4.400000000000000000e+01,5.500000000000000444e-01,9.946773600000000000e+09
7.200000000000000000e+01,1.170000000000000000e+02,6.590000000000000000e+02,1.710000000000000000e+02,9.100000000000000000e+01,1.770000000000000000e+02,6.000000000000000000e+01,4.200000000000000000e+01,5.400000000000000355e-01,9.965125800000000000e+09
7.700000000000000000e+01,1.390000000000000000e+02,6.680000000000000000e+02,1.750000000000000000e+02,9.000000000000000000e+01,1.730000000000000000e+02,6.400000000000000000e+01,4.500000000000000000e+01,5.400000000000000355e-01,9.982693700000000000e+09
6.900000000000000000e+01,1.440000000000000000e+02,6.900000000000000000e+02,1.930000000000000000e+02,7.100000000000000000e+01,1.600000000000000000e+02,6.000000000000000000e+01,3.900000000000000000e+01,5.400000000000000355e-01,1.000097300000000000e+10
7.000000000000000000e+01,1.430000000000000000e+02,7.010000000000000000e+02,1.920000000000000000e+02,7.000000000000000000e+01,1.570000000000000000e+02,7.200000000000000000e+01,4.000000000000000000e+01,5.300000000000000266e-01,1.001968360000000000e+10
6.500000000000000000e+01,1.450000000000000000e+02,6.340000000000000000e+02,2.040000000000000000e+02,6.800000000000000000e+01,1.450000000000000000e+02,6.800000000000000000e+01,3.800000000000000000e+01,5.300000000000000266e-01,1.003919400000000000e+10
5.500000000000000000e+01,1.470000000000000000e+02,6.200000000000000000e+02,1.860000000000000000e+02,6.100000000000000000e+01,1.520000000000000000e+02,7.700000000000000000e+01,3.600000000000000000e+01,5.300000000000000266e-01,1.006113090000000000e+10
5.500000000000000000e+01,1.320000000000000000e+02,5.740000000000000000e+02,1.910000000000000000e+02,7.500000000000000000e+01,1.620000000000000000e+02,8.100000000000000000e+01,3.800000000000000000e+01,5.300000000000000266e-01,1.008050980000000000e+10
5.700000000000000000e+01,1.300000000000000000e+02,6.930000000000000000e+02,1.670000000000000000e+02,8.000000000000000000e+01,1.690000000000000000e+02,8.200000000000000000e+01,4.000000000000000000e+01,5.200000000000000178e-01,1.010000850000000000e+10
