7.600000000000000000e+01,4.000000000000000000e+01,3.700000000000000000e+01,3.800000000000000000e+01,3.600000000000000000e+01,2.120000000000000000e+02,3.590000000000000000e+02,5.090000000000000000e+02,5.200000000000000178e-01,4.669794000000000000e+08
7.000000000000000000e+01,3.900000000000000000e+01,4.000000000000000000e+01,3.900000000000000000e+01,3.800000000000000000e+01,2.310000000000000000e+02,3.410000000000000000e+02,6.210000000000000000e+02,5.200000000000000178e-01,4.939383000000000000e+08
6.100000000000000000e+01,3.600000000000000000e+01,4.100000000000000000e+01,4.100000000000000000e+01,4.000000000000000000e+01,2.580000000000000000e+02,3.300000000000000000e+02,5.480000000000000000e+02,5.200000000000000178e-01,8.355778000000000000e+08
6.600000000000000000e+01,3.500000000000000000e+01,4.200000000000000000e+01,4.000000000000000000e+01,4.000000000000000000e+01,2.680000000000000000e+02,3.570000000000000000e+02,5.450000000000000000e+02,5.200000000000000178e-01,8.560714000000000000e+08
7.100000000000000000e+01,3.800000000000000000e+01,4.200000000000000000e+01,3.900000000000000000e+01,4.000000000000000000e+01,2.720000000000000000e+02,3.680000000000000000e+02,5.550000000000000000e+02,5.100000000000000089e-01,8.747681000000000000e+08
7.800000000000000000e+01,3.600000000000000000e+01,4.200000000000000000e+01,3.400000000000000000e+01,3.300000000000000000e+01,2.630000000000000000e+02,3.770000000000000000e+02,6.490000000000000000e+02,5.100000000000000089e-01,8.924310000000000000e+08
7.600000000000000000e+01,3.500000000000000000e+01,4.000000000000000000e+01,3.400000000000000000e+01,3.500000000000000000e+01,2.680000000000000000e+02,3.940000000000000000e+02,5.640000000000000000e+02,5.100000000000000089e-01,9.106737000000000000e+08
7.800000000000000000e+01,3.500000000000000000e+01,4.300000000000000000e+01,3.200000000000000000e+01,3.500000000000000000e+01,2.560000000000000000e+02,4.070000000000000000e+02,5.270000000000000000e+02,5.100000000000000089e-01,9.311938000000000000e+08
7.200000000000000000e+01,3.300000000000000000e+01,4.000000000000000000e+01,3.100000000000000000e+01,3.400000000000000000e+01,2.420000000000000000e+02,3.750000000000000000e+02,5.170000000000000000e+02,5.100000000000000089e-01,9.532408000000000000e+08
6.600000000000000000e+01,3.400000000000000000e+01,4.000000000000000000e+01,3.200000000000000000e+01,3.300000000000000000e+01,2.440000000000000000e+02,3.720000000000000000e+02,5.390000000000000000e+02,5.100000000000000089e-01,9.715656000000000000e+08
6.600000000000000000e+01,3.700000000000000000e+01,3.800000000000000000e+01,3.300000000000000000e+01,3.600000000000000000e+01,2.470000000000000000e+02,4.480000000000000000e+02,3.980000000000000000e+02,5.100000000000000089e-01,9.892264000000000000e+08
6.900000000000000000e+01,3.700000000000000000e+01,3.500000000000000000e+01,3.200000000000000000e+01,3.100000000000000000e+01,2.300000000000000000e+02,4.790000000000000000e+02,4.460000000000000000e+02,5.100000000000000089e-01,1.007157100000000000e+09
6.800000000000000000e+01,3.700000000000000000e+01,3.000000000000000000e+01,3.000000000000000000e+01,2.800000000000000000e+01,2.090000000000000000e+02,4.810000000000000000e+02,4.690000000000000000e+02,5.100000000000000089e-01,1.026132200000000000e+09
8.400000000000000000e+01,3.800000000000000000e+01,3.100000000000000000e+01,2.900000000000000000e+01,2.800000000000000000e+01,2.040000000000000000e+02,4.840000000000000000e+02,5.360000000000000000e+02,5.100000000000000089e-01,1.046869300000000000e+09
8.500000000000000000e+01,3.200000000000000000e+01,3.000000000000000000e+01,2.900000000000000000e+01,3.100000000000000000e+01,2.100000000000000000e+02,4.900000000000000000e+02,5.090000000000000000e+02,5.100000000000000089e-01,1.065143700000000000e+09
7.800000000000000000e+01,2.900000000000000000e+01,2.800000000000000000e+01,2.900000000000000000e+01,3.000000000000000000e+01,2.920000000000000000e+02,4.590000000000000000e+02,4.940000000000000000e+02,5.100000000000000089e-01,1.083945500000000000e+09
8.100000000000000000e+01,3.100000000000000000e+01,3.100000000000000000e+01,2.800000000000000000e+01,3.300000000000000000e+01,3.190000000000000000e+02,4.590000000000000000e+02,4.990000000000000000e+02,5.200000000000000178e-01,1.103075300000000000e+09
8.900000000000000000e+01,2.900000000000000000e+01,3.300000000000000000e+01,3.000000000000000000e+01,3.400000000000000000e+01,3.230000000000000000e+02,4.400000000000000000e+02,5.280000000000000000e+02,5.200000000000000178e-01,1.121295000000000000e+09
7.300000000000000000e+01,2.800000000000000000e+01,3.600000000000000000e+01,3.200000000000000000e+01,3.800000000000000000e+01,3.570000000000000000e+02,4.810000000000000000e+02,4.960000000000000000e+02,5.200000000000000178e-01,1.142653600000000000e+09
6.900000000000000000e+01,2.900000000000000000e+01,3.600000000000000000e+01,3.000000000000000000e+01,3.700000000000000000e+01,3.530000000000000000e+02,4.950000000000000000e+02,5.220000000000000000e+02,5.200000000000000178e-01,1.163349600000000000e+09
7.400000000000000000e+01,3.400000000000000000e+01,3.900000000000000000e+01,3.100000000000000000e+01,3.700000000000000000e+01,2.980000000000000000e+02,4.310000000000000000e+02,5.850000000000000000e+02,5.300000000000000266e-01,1.181286400000000000e+09
7.700000000000000000e+01,3.200000000000000000e+01,3.900000000000000000e+01,3.600000000000000000e+01,3.600000000000000000e+01,2.980000000000000000e+02,3.930000000000000000e+02,5.630000000000000000e+02,5.300000000000000266e-01,1.199543300000000000e+09
7.000000000000000000e+01,3.400000000000000000e+01,3.800000000000000000e+01,3.700000000000000000e+01,3.600000000000000000e+01,3.080000000000000000e+02,4.110000000000000000e+02,5.110000000000000000e+02,5.300000000000000266e-01,1.217847500000000000e+09
7.200000000000000000e+01,3.600000000000000000e+01,3.900000000000000000e+01,3.800000000000000000e+01,3.100000000000000000e+01,2.610000000000000000e+02,3.520000000000000000e+02,4.880000000000000000e+02,5.300000000000000266e-01,1.236819500000000000e+09
7.100000000000000000e+01,3.700000000000000000e+01,3.800000000000000000e+01,4.300000000000000000e+01,3.300000000000000000e+01,2.570000000000000000e+02,3.210000000000000000e+02,4.800000000000000000e+02,5.300000000000000266e-01,1.256968200000000000e+09
6.800000000000000000e+01,3.600000000000000000e+01,3.500000000000000000e+01,3.900000000000000000e+01,3.000000000000000000e+01,2.590000000000000000e+02,3.550000000000000000e+02,4.710000000000000000e+02,5.300000000000000266e-01,1.277338700000000000e+09
6.300000000000000000e+01,3.700000000000000000e+01,3.900000000000000000e+01,3.700000000000000000e+01,3.300000000000000000e+01,2.960000000000000000e+02,4.400000000000000000e+02,4.740000000000000000e+02,5.300000000000000266e-01,1.297182600000000000e+09
7.000000000000000000e+01,3.700000000000000000e+01,3.600000000000000000e+01,3.600000000000000000e+01,3.300000000000000000e+01,2.950000000000000000e+02,4.410000000000000000e+02,5.200000000000000000e+02,5.300000000000000266e-01,1.315210000000000000e+09
7.100000000000000000e+01,3.400000000000000000e+01,3.300000000000000000e+01,3.600000000000000000e+01,3.400000000000000000e+01,2.950000000000000000e+02,4.330000000000000000e+02,5.740000000000000000e+02,5.300000000000000266e-01,1.332842700000000000e+09
9.600000000000000000e+01,3.600000000000000000e+01,3.700000000000000000e+01,3.300000000000000000e+01,3.600000000000000000e+01,3.260000000000000000e+02,4.940000000000000000e+02,5.920000000000000000e+02,5.300000000000000266e-01,1.354803500000000000e+09
1.000000000000000000e+02,3.700000000000000000e+01,3.900000000000000000e+01,3.600000000000000000e+01,3.800000000000000000e+01,3.290000000000000000e+02,4.770000000000000000e+02,5.370000000000000000e+02,5.300000000000000266e-01,1.372748200000000000e+09
9.600000000000000000e+01,3.300000000000000000e+01,3.700000000000000000e+01,3.700000000000000000e+01,3.400000000000000000e+01,2.650000000000000000e+02,4.430000000000000000e+02,4.990000000000000000e+02,5.300000000000000266e-01,1.391242100000000000e+09
9.500000000000000000e+01,3.200000000000000000e+01,4.100000000000000000e+01,3.600000000000000000e+01,3.200000000000000000e+01,2.520000000000000000e+02,4.030000000000000000e+02,5.210000000000000000e+02,5.300000000000000266e-01,1.409269600000000000e+09
1.100000000000000000e+02,3.700000000000000000e+01,4.200000000000000000e+01,3.800000000000000000e+01,3.500000000000000000e+01,2.860000000000000000e+02,4.180000000000000000e+02,4.900000000000000000e+02,5.300000000000000266e-01,1.430912200000000000e+09
9.000000000000000000e+01,3.600000000000000000e+01,3.600000000000000000e+01,3.600000000000000000e+01,3.200000000000000000e+01,2.510000000000000000e+02,3.690000000000000000e+02,4.820000000000000000e+02,5.300000000000000266e-01,1.451468800000000000e+09
8.400000000000000000e+01,3.400000000000000000e+01,3.500000000000000000e+01,3.400000000000000000e+01,3.100000000000000000e+01,2.260000000000000000e+02,4.190000000000000000e+02,5.070000000000000000e+02,5.300000000000000266e-01,1.470578700000000000e+09
8.600000000000000000e+01,3.400000000000000000e+01,3.600000000000000000e+01,3.100000000000000000e+01,3.300000000000000000e+01,2.500000000000000000e+02,4.000000000000000000e+02,5.660000000000000000e+02,5.300000000000000266e-01,1.489066600000000000e+09
8.900000000000000000e+01,3.900000000000000000e+01,3.200000000000000000e+01,3.000000000000000000e+01,3.800000000000000000e+01,2.590000000000000000e+02,4.520000000000000000e+02,5.900000000000000000e+02,5.300000000000000266e-01,1.507331400000000000e+09
7.500000000000000000e+01,3.700000000000000000e+01,3.000000000000000000e+01,2.300000000000000000e+01,3.500000000000000000e+01,2.350000000000000000e+02,4.780000000000000000e+02,6.690000000000000000e+02,5.300000000000000266e-01,1.525531000000000000e+09
7.500000000000000000e+01,3.700000000000000000e+01,3.200000000000000000e+01,2.500000000000000000e+01,3.500000000000000000e+01,2.400000000000000000e+02,4.910000000000000000e+02,6.500000000000000000e+02,5.300000000000000266e-01,1.546942400000000000e+09
7.600000000000000000e+01,3.500000000000000000e+01,3.100000000000000000e+01,2.600000000000000000e+01,3.700000000000000000e+01,2.810000000000000000e+02,4.510000000000000000e+02,6.790000000000000000e+02,5.300000000000000266e-01,1.567538100000000000e+09
7.200000000000000000e+01,3.500000000000000000e+01,2.500000000000000000e+01,2.700000000000000000e+01,3.700000000000000000e+01,2.780000000000000000e+02,4.460000000000000000e+02,6.670000000000000000e+02,5.300000000000000266e-01,1.586025300000000000e+09
7.100000000000000000e+01,3.500000000000000000e+01,2.500000000000000000e+01,2.900000000000000000e+01,3.500000000000000000e+01,2.800000000000000000e+02,4.460000000000000000e+02,6.020000000000000000e+02,5.300000000000000266e-01,1.604717500000000000e+09
7.000000000000000000e+01,3.400000000000000000e+01,2.400000000000000000e+01,2.900000000000000000e+01,3.600000000000000000e+01,2.760000000000000000e+02,4.130000000000000000e+02,4.740000000000000000e+02,5.300000000000000266e-01,1.624399500000000000e+09
7.500000000000000000e+01,3.500000000000000000e+01,2.900000000000000000e+01,2.900000000000000000e+01,3.500000000000000000e+01,3.140000000000000000e+02,4.010000000000000000e+02,5.050000000000000000e+02,5.300000000000000266e-01,1.646735900000000000e+09
7.200000000000000000e+01,3.800000000000000000e+01,3.300000000000000000e+01,3.200000000000000000e+01,3.500000000000000000e+01,2.980000000000000000e+02,3.940000000000000000e+02,4.580000000000000000e+02,5.300000000000000266e-01,1.664843600000000000e+09
7.200000000000000000e+01,3.900000000000000000e+01,3.400000000000000000e+01,3.200000000000000000e+01,3.300000000000000000e+01,2.910000000000000000e+02,3.540000000000000000e+02,4.050000000000000000e+02,5.300000000000000266e-01,1.683933500000000000e+09
7.800000000000000000e+01,3.500000000000000000e+01,3.500000000000000000e+01,3.100000000000000000e+01,3.300000000000000000e+01,2.870000000000000000e+02,4.030000000000000000e+02,4.320000000000000000e+02,5.300000000000000266e-01,1.703229000000000000e+09
7.300000000000000000e+01,3.500000000000000000e+01,3.600000000000000000e+01,3.200000000000000000e+01,3.400000000000000000e+01,2.850000000000000000e+02,4.310000000000000000e+02,5.700000000000000000e+02,5.300000000000000266e-01,1.724399200000000000e+09
8.100000000000000000e+01,3.500000000000000000e+01,3.200000000000000000e+01,3.200000000000000000e+01,3.500000000000000000e+01,3.340000000000000000e+02,4.340000000000000000e+02,5.290000000000000000e+02,5.300000000000000266e-01,1.747735700000000000e+09
8.800000000000000000e+01,3.200000000000000000e+01,2.900000000000000000e+01,2.700000000000000000e+01,3.100000000000000000e+01,3.190000000000000000e+02,4.470000000000000000e+02,5.340000000000000000e+02,5.300000000000000266e-01,1.767799400000000000e+09
8.900000000000000000e+01,3.000000000000000000e+01,3.100000000000000000e+01,2.500000000000000000e+01,3.000000000000000000e+01,2.980000000000000000e+02,4.570000000000000000e+02,5.650000000000000000e+02,5.300000000000000266e-01,1.786606900000000000e+09
8.200000000000000000e+01,2.900000000000000000e+01,3.100000000000000000e+01,2.400000000000000000e+01,3.200000000000000000e+01,3.250000000000000000e+02,3.840000000000000000e+02,6.260000000000000000e+02,5.300000000000000266e-01,1.803631400000000000e+09
8.300000000000000000e+01,2.900000000000000000e+01,3.400000000000000000e+01,2.500000000000000000e+01,3.100000000000000000e+01,3.480000000000000000e+02,4.520000000000000000e+02,5.750000000000000000e+02,5.300000000000000266e-01,1.822108400000000000e+09
8.700000000000000000e+01,2.900000000000000000e+01,3.600000000000000000e+01,2.600000000000000000e+01,3.000000000000000000e+01,2.700000000000000000e+02,4.410000000000000000e+02,5.810000000000000000e+02,5.300000000000000266e-01,1.842128000000000000e+09
8.100000000000000000e+01,2.800000000000000000e+01,3.700000000000000000e+01,2.900000000000000000e+01,3.200000000000000000e+01,2.670000000000000000e+02,4.200000000000000000e+02,5.770000000000000000e+02,5.300000000000000266e-01,1.859784100000000000e+09
8.400000000000000000e+01,2.900000000000000000e+01,3.600000000000000000e+01,3.100000000000000000e+01,3.500000000000000000e+01,3.400000000000000000e+02,4.190000000000000000e+02,5.950000000000000000e+02,5.300000000000000266e-01,1.876824300000000000e+09
8.000000000000000000e+01,3.100000000000000000e+01,3.700000000000000000e+01,3.200000000000000000e+01,3.300000000000000000e+01,3.210000000000000000e+02,4.170000000000000000e+02,5.630000000000000000e+02,5.300000000000000266e-01,1.893955400000000000e+09
8.600000000000000000e+01,3.300000000000000000e+01,3.600000000000000000e+01,3.200000000000000000e+01,3.300000000000000000e+01,2.920000000000000000e+02,3.070000000000000000e+02,4.950000000000000000e+02,5.300000000000000266e-01,1.910470100000000000e+09
7.000000000000000000e+01,3.500000000000000000e+01,3.400000000000000000e+01,3.100000000000000000e+01,3.200000000000000000e+01,2.840000000000000000e+02,2.740000000000000000e+02,5.210000000000000000e+02,5.300000000000000266e-01,1.928295600000000000e+09
7.100000000000000000e+01,3.800000000000000000e+01,3.500000000000000000e+01,3.300000000000000000e+01,3.300000000000000000e+01,2.800000000000000000e+02,3.190000000000000000e+02,5.180000000000000000e+02,5.300000000000000266e-01,1.947787100000000000e+09
8.000000000000000000e+01,3.700000000000000000e+01,3.500000000000000000e+01,3.000000000000000000e+01,3.000000000000000000e+01,1.850000000000000000e+02,2.990000000000000000e+02,4.480000000000000000e+02,5.300000000000000266e-01,1.965090900000000000e+09
1.030000000000000000e+02,3.600000000000000000e+01,3.400000000000000000e+01,2.800000000000000000e+01,3.000000000000000000e+01,1.500000000000000000e+02,2.590000000000000000e+02,3.410000000000000000e+02,5.200000000000000178e-01,1.985818500000000000e+09
1.890000000000000000e+02,6.600000000000000000e+01,5.100000000000000000e+01,2.800000000000000000e+01,2.900000000000000000e+01,1.300000000000000000e+02,2.460000000000000000e+02,3.360000000000000000e+02,5.200000000000000178e-01,2.002840200000000000e+09
2.470000000000000000e+02,8.000000000000000000e+01,6.900000000000000000e+01,2.900000000000000000e+01,2.900000000000000000e+01,9.200000000000000000e+01,2.270000000000000000e+02,2.480000000000000000e+02,5.100000000000000089e-01,2.020664900000000000e+09
2.520000000000000000e+02,1.240000000000000000e+02,7.500000000000000000e+01,2.700000000000000000e+01,2.500000000000000000e+01,7.200000000000000000e+01,1.470000000000000000e+02,1.620000000000000000e+02,5.100000000000000089e-01,2.039762600000000000e+09
2.520000000000000000e+02,1.290000000000000000e+02,1.090000000000000000e+02,7.000000000000000000e+01,3.600000000000000000e+01,5.200000000000000000e+01,1.300000000000000000e+02,1.420000000000000000e+02,5.100000000000000089e-01,2.057037500000000000e+09
2.430000000000000000e+02,1.550000000000000000e+02,2.170000000000000000e+02,1.830000000000000000e+02,4.200000000000000000e+01,4.200000000000000000e+01,1.160000000000000000e+02,1.250000000000000000e+02,5.100000000000000089e-01,2.073958800000000000e+09
1.800000000000000000e+02,1.490000000000000000e+02,2.430000000000000000e+02,2.660000000000000000e+02,4.700000000000000000e+01,3.200000000000000000e+01,6.400000000000000000e+01,6.800000000000000000e+01,5.200000000000000178e-01,2.092489000000000000e+09
8.500000000000000000e+01,1.440000000000000000e+02,3.580000000000000000e+02,3.680000000000000000e+02,5.400000000000000000e+01,3.300000000000000000e+01,5.500000000000000000e+01,5.000000000000000000e+01,5.300000000000000266e-01,2.109581300000000000e+09
7.100000000000000000e+01,2.680000000000000000e+02,4.310000000000000000e+02,3.910000000000000000e+02,5.400000000000000000e+01,3.100000000000000000e+01,5.100000000000000000e+01,4.600000000000000000e+01,5.400000000000000355e-01,2.127200400000000000e+09
6.800000000000000000e+01,3.290000000000000000e+02,5.040000000000000000e+02,4.120000000000000000e+02,5.600000000000000000e+01,3.400000000000000000e+01,4.500000000000000000e+01,4.200000000000000000e+01,5.400000000000000355e-01,2.148060800000000000e+09
6.900000000000000000e+01,3.440000000000000000e+02,4.970000000000000000e+02,3.850000000000000000e+02,5.300000000000000000e+01,3.500000000000000000e+01,4.300000000000000000e+01,4.000000000000000000e+01,5.500000000000000444e-01,2.165411800000000000e+09
6.500000000000000000e+01,3.470000000000000000e+02,4.970000000000000000e+02,3.390000000000000000e+02,4.800000000000000000e+01,3.400000000000000000e+01,3.400000000000000000e+01,3.700000000000000000e+01,5.600000000000000533e-01,2.181915700000000000e+09
6.500000000000000000e+01,3.520000000000000000e+02,4.260000000000000000e+02,2.280000000000000000e+02,4.000000000000000000e+01,3.200000000000000000e+01,3.000000000000000000e+01,3.400000000000000000e+01,5.799999999999999600e-01,2.199303800000000000e+09
5.900000000000000000e+01,2.700000000000000000e+02,3.800000000000000000e+02,1.880000000000000000e+02,4.300000000000000000e+01,3.300000000000000000e+01,2.800000000000000000e+01,3.000000000000000000e+01,5.899999999999999689e-01,2.218955400000000000e+09
3.900000000000000000e+01,1.910000000000000000e+02,2.730000000000000000e+02,1.250000000000000000e+02,3.300000000000000000e+01,2.700000000000000000e+01,2.300000000000000000e+01,2.500000000000000000e+01,5.999999999999999778e-01,2.240110100000000000e+09
4.000000000000000000e+01,1.460000000000000000e+02,2.190000000000000000e+02,9.300000000000000000e+01,3.100000000000000000e+01,2.600000000000000000e+01,2.200000000000000000e+01,2.800000000000000000e+01,6.099999999999999867e-01,2.257622200000000000e+09
4.200000000000000000e+01,1.360000000000000000e+02,2.010000000000000000e+02,8.800000000000000000e+01,3.000000000000000000e+01,2.500000000000000000e+01,2.000000000000000000e+01,2.600000000000000000e+01,6.199999999999999956e-01,2.275400900000000000e+09
4.100000000000000000e+01,1.260000000000000000e+02,2.250000000000000000e+02,1.160000000000000000e+02,2.900000000000000000e+01,2.700000000000000000e+01,2.100000000000000000e+01,2.500000000000000000e+01,6.199999999999999956e-01,2.292153600000000000e+09
5.100000000000000000e+01,1.830000000000000000e+02,2.830000000000000000e+02,1.500000000000000000e+02,3.100000000000000000e+01,2.700000000000000000e+01,2.400000000000000000e+01,2.800000000000000000e+01,6.199999999999999956e-01,2.308806300000000000e+09
4.700000000000000000e+01,1.850000000000000000e+02,3.050000000000000000e+02,1.500000000000000000e+02,2.900000000000000000e+01,2.400000000000000000e+01,2.000000000000000000e+01,2.900000000000000000e+01,6.199999999999999956e-01,2.326685500000000000e+09
4.100000000000000000e+01,1.890000000000000000e+02,3.080000000000000000e+02,1.510000000000000000e+02,2.700000000000000000e+01,2.300000000000000000e+01,2.100000000000000000e+01,2.300000000000000000e+01,6.199999999999999956e-01,2.346325500000000000e+09
3.900000000000000000e+01,2.010000000000000000e+02,3.070000000000000000e+02,1.460000000000000000e+02,2.900000000000000000e+01,2.300000000000000000e+01,2.200000000000000000e+01,2.600000000000000000e+01,6.300000000000000044e-01,2.363837400000000000e+09
4.200000000000000000e+01,2.150000000000000000e+02,2.970000000000000000e+02,1.440000000000000000e+02,3.500000000000000000e+01,2.300000000000000000e+01,2.300000000000000000e+01,2.600000000000000000e+01,6.300000000000000044e-01,2.380838700000000000e+09
3.200000000000000000e+01,2.310000000000000000e+02,2.120000000000000000e+02,1.170000000000000000e+02,3.500000000000000000e+01,2.200000000000000000e+01,2.100000000000000000e+01,2.600000000000000000e+01,6.300000000000000044e-01,2.398134000000000000e+09
3.300000000000000000e+01,2.440000000000000000e+02,1.740000000000000000e+02,1.700000000000000000e+02,3.500000000000000000e+01,2.300000000000000000e+01,2.200000000000000000e+01,2.500000000000000000e+01,6.300000000000000044e-01,2.415349000000000000e+09
3.400000000000000000e+01,2.620000000000000000e+02,1.740000000000000000e+02,1.820000000000000000e+02,3.700000000000000000e+01,2.400000000000000000e+01,2.300000000000000000e+01,2.700000000000000000e+01,6.300000000000000044e-01,2.434659100000000000e+09
3.800000000000000000e+01,3.090000000000000000e+02,1.890000000000000000e+02,1.840000000000000000e+02,3.900000000000000000e+01,2.500000000000000000e+01,2.400000000000000000e+01,2.600000000000000000e+01,6.400000000000000133e-01,2.454894600000000000e+09
3.600000000000000000e+01,3.070000000000000000e+02,1.920000000000000000e+02,3.010000000000000000e+02,4.600000000000000000e+01,2.500000000000000000e+01,2.400000000000000000e+01,2.600000000000000000e+01,6.400000000000000133e-01,2.472805900000000000e+09
3.800000000000000000e+01,2.570000000000000000e+02,1.780000000000000000e+02,3.100000000000000000e+02,4.600000000000000000e+01,2.700000000000000000e+01,2.400000000000000000e+01,2.600000000000000000e+01,6.500000000000000222e-01,2.489622400000000000e+09
3.900000000000000000e+01,2.720000000000000000e+02,1.750000000000000000e+02,2.960000000000000000e+02,4.800000000000000000e+01,3.000000000000000000e+01,2.900000000000000000e+01,3.000000000000000000e+01,6.600000000000000311e-01,2.506450200000000000e+09
4.900000000000000000e+01,2.760000000000000000e+02,1.720000000000000000e+02,3.190000000000000000e+02,4.900000000000000000e+01,2.900000000000000000e+01,4.000000000000000000e+01,3.900000000000000000e+01,6.700000000000000400e-01,2.522854200000000000e+09
4.600000000000000000e+01,2.150000000000000000e+02,1.500000000000000000e+02,3.570000000000000000e+02,4.800000000000000000e+01,2.800000000000000000e+01,4.500000000000000000e+01,4.300000000000000000e+01,6.800000000000000488e-01,2.541570600000000000e+09
4.800000000000000000e+01,2.250000000000000000e+02,1.210000000000000000e+02,2.730000000000000000e+02,4.800000000000000000e+01,2.600000000000000000e+01,8.200000000000000000e+01,6.700000000000000000e+01,6.800000000000000488e-01,2.561132300000000000e+09
5.400000000000000000e+01,2.310000000000000000e+02,1.150000000000000000e+02,2.620000000000000000e+02,4.800000000000000000e+01,3.200000000000000000e+01,1.070000000000000000e+02,9.100000000000000000e+01,6.899999999999999467e-01,2.578311500000000000e+09
9.200000000000000000e+01,2.100000000000000000e+02,1.090000000000000000e+02,2.580000000000000000e+02,4.600000000000000000e+01,3.200000000000000000e+01,1.280000000000000000e+02,1.160000000000000000e+02,6.999999999999999556e-01,2.595171100000000000e+09
9.300000000000000000e+01,1.850000000000000000e+02,2.450000000000000000e+02,2.400000000000000000e+02,4.700000000000000000e+01,3.400000000000000000e+01,1.300000000000000000e+02,1.190000000000000000e+02,7.099999999999999645e-01,2.613721200000000000e+09
9.500000000000000000e+01,2.060000000000000000e+02,2.810000000000000000e+02,1.810000000000000000e+02,4.700000000000000000e+01,3.700000000000000000e+01,1.300000000000000000e+02,1.180000000000000000e+02,7.099999999999999645e-01,2.635442100000000000e+09
9.800000000000000000e+01,2.050000000000000000e+02,3.330000000000000000e+02,1.800000000000000000e+02,3.900000000000000000e+01,4.000000000000000000e+01,1.140000000000000000e+02,1.090000000000000000e+02,7.099999999999999645e-01,2.656196000000000000e+09
9.700000000000000000e+01,2.100000000000000000e+02,3.400000000000000000e+02,2.490000000000000000e+02,3.800000000000000000e+01,3.800000000000000000e+01,1.060000000000000000e+02,1.130000000000000000e+02,7.199999999999999734e-01,2.672881600000000000e+09
6.100000000000000000e+01,2.230000000000000000e+02,3.550000000000000000e+02,2.740000000000000000e+02,3.700000000000000000e+01,3.800000000000000000e+01,1.160000000000000000e+02,1.050000000000000000e+02,7.199999999999999734e-01,2.689644600000000000e+09
5.600000000000000000e+01,2.520000000000000000e+02,3.940000000000000000e+02,3.020000000000000000e+02,3.800000000000000000e+01,6.800000000000000000e+01,2.440000000000000000e+02,1.120000000000000000e+02,7.199999999999999734e-01,2.706850000000000000e+09
6.000000000000000000e+01,2.790000000000000000e+02,4.200000000000000000e+02,3.110000000000000000e+02,4.000000000000000000e+01,7.000000000000000000e+01,3.210000000000000000e+02,1.140000000000000000e+02,7.299999999999999822e-01,2.723956300000000000e+09
5.600000000000000000e+01,2.820000000000000000e+02,4.320000000000000000e+02,3.110000000000000000e+02,3.800000000000000000e+01,7.000000000000000000e+01,3.480000000000000000e+02,1.240000000000000000e+02,7.299999999999999822e-01,2.746571800000000000e+09
5.300000000000000000e+01,2.780000000000000000e+02,5.390000000000000000e+02,2.890000000000000000e+02,4.400000000000000000e+01,7.800000000000000000e+01,4.070000000000000000e+02,1.250000000000000000e+02,7.199999999999999734e-01,2.767183600000000000e+09
6.400000000000000000e+01,2.850000000000000000e+02,6.130000000000000000e+02,2.660000000000000000e+02,5.800000000000000000e+01,1.270000000000000000e+02,5.420000000000000000e+02,1.580000000000000000e+02,7.199999999999999734e-01,2.786116900000000000e+09
7.200000000000000000e+01,2.730000000000000000e+02,5.860000000000000000e+02,2.500000000000000000e+02,6.400000000000000000e+01,1.350000000000000000e+02,5.330000000000000000e+02,1.600000000000000000e+02,7.099999999999999645e-01,2.803986500000000000e+09
9.100000000000000000e+01,2.570000000000000000e+02,6.380000000000000000e+02,3.250000000000000000e+02,8.600000000000000000e+01,1.660000000000000000e+02,5.410000000000000000e+02,1.860000000000000000e+02,6.999999999999999556e-01,2.822011000000000000e+09
9.300000000000000000e+01,2.520000000000000000e+02,6.750000000000000000e+02,3.680000000000000000e+02,9.000000000000000000e+01,1.700000000000000000e+02,5.850000000000000000e+02,2.420000000000000000e+02,6.899999999999999467e-01,2.841683700000000000e+09
1.180000000000000000e+02,2.600000000000000000e+02,6.320000000000000000e+02,3.980000000000000000e+02,9.100000000000000000e+01,1.740000000000000000e+02,6.210000000000000000e+02,3.220000000000000000e+02,6.800000000000000488e-01,2.859369000000000000e+09
1.180000000000000000e+02,2.540000000000000000e+02,6.210000000000000000e+02,4.280000000000000000e+02,8.400000000000000000e+01,1.460000000000000000e+02,5.450000000000000000e+02,3.210000000000000000e+02,6.700000000000000400e-01,2.876303800000000000e+09
1.150000000000000000e+02,2.740000000000000000e+02,6.950000000000000000e+02,4.680000000000000000e+02,8.300000000000000000e+01,1.440000000000000000e+02,6.300000000000000000e+02,3.650000000000000000e+02,6.600000000000000311e-01,2.893040900000000000e+09
9.800000000000000000e+01,2.530000000000000000e+02,6.810000000000000000e+02,4.310000000000000000e+02,6.000000000000000000e+01,1.120000000000000000e+02,6.020000000000000000e+02,3.580000000000000000e+02,6.500000000000000222e-01,2.910386500000000000e+09
9.600000000000000000e+01,2.480000000000000000e+02,6.160000000000000000e+02,4.000000000000000000e+02,5.700000000000000000e+01,1.120000000000000000e+02,5.700000000000000000e+02,3.370000000000000000e+02,6.300000000000000044e-01,2.928299800000000000e+09
6.600000000000000000e+01,2.280000000000000000e+02,6.140000000000000000e+02,3.580000000000000000e+02,5.700000000000000000e+01,1.030000000000000000e+02,4.990000000000000000e+02,2.650000000000000000e+02,6.199999999999999956e-01,2.949633100000000000e+09
6.800000000000000000e+01,2.100000000000000000e+02,5.560000000000000000e+02,3.510000000000000000e+02,6.500000000000000000e+01,1.160000000000000000e+02,5.600000000000000000e+02,3.300000000000000000e+02,6.099999999999999867e-01,2.967899300000000000e+09
7.400000000000000000e+01,2.190000000000000000e+02,4.260000000000000000e+02,3.450000000000000000e+02,6.000000000000000000e+01,9.900000000000000000e+01,4.470000000000000000e+02,3.010000000000000000e+02,5.999999999999999778e-01,2.985158300000000000e+09
7.200000000000000000e+01,2.180000000000000000e+02,3.320000000000000000e+02,3.530000000000000000e+02,6.200000000000000000e+01,9.200000000000000000e+01,4.350000000000000000e+02,3.000000000000000000e+02,5.999999999999999778e-01,3.001755400000000000e+09
7.700000000000000000e+01,2.140000000000000000e+02,3.330000000000000000e+02,4.060000000000000000e+02,5.900000000000000000e+01,8.700000000000000000e+01,4.110000000000000000e+02,2.930000000000000000e+02,5.899999999999999689e-01,3.019412200000000000e+09
8.700000000000000000e+01,2.160000000000000000e+02,2.490000000000000000e+02,4.020000000000000000e+02,5.800000000000000000e+01,8.900000000000000000e+01,4.400000000000000000e+02,3.180000000000000000e+02,5.999999999999999778e-01,3.038034700000000000e+09
2.250000000000000000e+02,2.260000000000000000e+02,2.230000000000000000e+02,3.770000000000000000e+02,4.900000000000000000e+01,7.800000000000000000e+01,3.500000000000000000e+02,2.820000000000000000e+02,5.999999999999999778e-01,3.056351300000000000e+09
2.330000000000000000e+02,1.940000000000000000e+02,1.940000000000000000e+02,3.580000000000000000e+02,5.300000000000000000e+01,7.600000000000000000e+01,3.920000000000000000e+02,3.090000000000000000e+02,6.099999999999999867e-01,3.073875700000000000e+09
2.570000000000000000e+02,3.120000000000000000e+02,1.510000000000000000e+02,3.380000000000000000e+02,5.000000000000000000e+01,7.800000000000000000e+01,4.060000000000000000e+02,3.150000000000000000e+02,6.099999999999999867e-01,3.091298700000000000e+09
2.730000000000000000e+02,3.370000000000000000e+02,1.210000000000000000e+02,2.680000000000000000e+02,5.100000000000000000e+01,7.600000000000000000e+01,4.040000000000000000e+02,3.090000000000000000e+02,6.199999999999999956e-01,3.108722000000000000e+09
3.540000000000000000e+02,3.560000000000000000e+02,1.150000000000000000e+02,2.750000000000000000e+02,4.900000000000000000e+01,7.200000000000000000e+01,3.740000000000000000e+02,2.920000000000000000e+02,6.199999999999999956e-01,3.126036900000000000e+09
3.100000000000000000e+02,3.500000000000000000e+02,1.230000000000000000e+02,2.800000000000000000e+02,4.600000000000000000e+01,5.800000000000000000e+01,3.440000000000000000e+02,2.470000000000000000e+02,6.199999999999999956e-01,3.147198800000000000e+09
3.160000000000000000e+02,3.540000000000000000e+02,1.310000000000000000e+02,2.380000000000000000e+02,4.200000000000000000e+01,5.700000000000000000e+01,2.780000000000000000e+02,2.000000000000000000e+02,6.300000000000000044e-01,3.164868100000000000e+09
3.820000000000000000e+02,2.530000000000000000e+02,1.380000000000000000e+02,2.170000000000000000e+02,3.900000000000000000e+01,5.500000000000000000e+01,2.580000000000000000e+02,1.980000000000000000e+02,6.300000000000000044e-01,3.181624700000000000e+09
4.370000000000000000e+02,2.160000000000000000e+02,1.320000000000000000e+02,1.920000000000000000e+02,3.700000000000000000e+01,5.700000000000000000e+01,2.720000000000000000e+02,2.190000000000000000e+02,6.300000000000000044e-01,3.198733400000000000e+09
4.010000000000000000e+02,1.800000000000000000e+02,1.310000000000000000e+02,2.000000000000000000e+02,3.500000000000000000e+01,5.800000000000000000e+01,2.940000000000000000e+02,2.140000000000000000e+02,6.300000000000000044e-01,3.218207400000000000e+09
4.300000000000000000e+02,1.710000000000000000e+02,1.200000000000000000e+02,1.850000000000000000e+02,3.800000000000000000e+01,6.400000000000000000e+01,2.940000000000000000e+02,2.530000000000000000e+02,6.300000000000000044e-01,3.242097800000000000e+09
4.490000000000000000e+02,1.310000000000000000e+02,9.700000000000000000e+01,1.780000000000000000e+02,3.900000000000000000e+01,7.300000000000000000e+01,3.430000000000000000e+02,2.750000000000000000e+02,6.300000000000000044e-01,3.259638900000000000e+09
4.250000000000000000e+02,1.330000000000000000e+02,9.200000000000000000e+01,1.820000000000000000e+02,4.100000000000000000e+01,7.600000000000000000e+01,3.360000000000000000e+02,2.710000000000000000e+02,6.199999999999999956e-01,3.276502700000000000e+09
4.030000000000000000e+02,1.310000000000000000e+02,9.300000000000000000e+01,1.830000000000000000e+02,4.100000000000000000e+01,7.700000000000000000e+01,3.350000000000000000e+02,2.560000000000000000e+02,6.199999999999999956e-01,3.293050000000000000e+09
3.960000000000000000e+02,1.240000000000000000e+02,8.500000000000000000e+01,1.390000000000000000e+02,4.100000000000000000e+01,7.500000000000000000e+01,2.980000000000000000e+02,2.420000000000000000e+02,6.099999999999999867e-01,3.310561100000000000e+09
3.630000000000000000e+02,1.170000000000000000e+02,9.400000000000000000e+01,1.720000000000000000e+02,6.000000000000000000e+01,8.900000000000000000e+01,2.820000000000000000e+02,2.060000000000000000e+02,6.099999999999999867e-01,3.327811300000000000e+09
3.540000000000000000e+02,1.060000000000000000e+02,9.500000000000000000e+01,2.100000000000000000e+02,1.610000000000000000e+02,9.000000000000000000e+01,1.940000000000000000e+02,1.550000000000000000e+02,5.999999999999999778e-01,3.349155800000000000e+09
3.170000000000000000e+02,8.500000000000000000e+01,1.380000000000000000e+02,2.100000000000000000e+02,1.840000000000000000e+02,9.100000000000000000e+01,1.900000000000000000e+02,1.430000000000000000e+02,5.899999999999999689e-01,3.368220900000000000e+09
2.870000000000000000e+02,7.500000000000000000e+01,1.380000000000000000e+02,2.220000000000000000e+02,1.870000000000000000e+02,9.000000000000000000e+01,1.510000000000000000e+02,1.360000000000000000e+02,5.899999999999999689e-01,3.386024500000000000e+09
2.640000000000000000e+02,7.100000000000000000e+01,2.170000000000000000e+02,2.450000000000000000e+02,2.100000000000000000e+02,9.300000000000000000e+01,1.300000000000000000e+02,1.280000000000000000e+02,5.699999999999999512e-01,3.402910700000000000e+09
2.450000000000000000e+02,6.800000000000000000e+01,2.750000000000000000e+02,2.620000000000000000e+02,2.450000000000000000e+02,8.800000000000000000e+01,9.600000000000000000e+01,9.800000000000000000e+01,5.600000000000000533e-01,3.420870300000000000e+09
1.990000000000000000e+02,6.200000000000000000e+01,2.930000000000000000e+02,2.120000000000000000e+02,2.020000000000000000e+02,7.800000000000000000e+01,8.300000000000000000e+01,7.900000000000000000e+01,5.500000000000000444e-01,3.440962800000000000e+09
1.860000000000000000e+02,6.300000000000000000e+01,2.810000000000000000e+02,2.250000000000000000e+02,1.850000000000000000e+02,7.500000000000000000e+01,7.500000000000000000e+01,7.100000000000000000e+01,5.400000000000000355e-01,3.458664000000000000e+09
1.360000000000000000e+02,8.300000000000000000e+01,2.920000000000000000e+02,2.160000000000000000e+02,1.830000000000000000e+02,7.200000000000000000e+01,5.700000000000000000e+01,4.400000000000000000e+01,5.300000000000000266e-01,3.478381200000000000e+09
1.270000000000000000e+02,9.600000000000000000e+01,2.980000000000000000e+02,1.910000000000000000e+02,1.580000000000000000e+02,6.500000000000000000e+01,4.900000000000000000e+01,3.800000000000000000e+01,5.300000000000000266e-01,3.496052100000000000e+09
1.130000000000000000e+02,1.080000000000000000e+02,3.250000000000000000e+02,1.290000000000000000e+02,8.900000000000000000e+01,4.400000000000000000e+01,2.300000000000000000e+01,3.200000000000000000e+01,5.200000000000000178e-01,3.512637500000000000e+09
1.120000000000000000e+02,1.390000000000000000e+02,4.240000000000000000e+02,1.400000000000000000e+02,9.300000000000000000e+01,3.900000000000000000e+01,2.100000000000000000e+01,3.100000000000000000e+01,5.200000000000000178e-01,3.530735400000000000e+09
7.600000000000000000e+01,1.460000000000000000e+02,4.380000000000000000e+02,1.290000000000000000e+02,8.600000000000000000e+01,3.800000000000000000e+01,1.900000000000000000e+01,2.600000000000000000e+01,5.100000000000000089e-01,3.551084000000000000e+09
8.000000000000000000e+01,2.300000000000000000e+02,5.790000000000000000e+02,1.590000000000000000e+02,9.100000000000000000e+01,3.900000000000000000e+01,2.600000000000000000e+01,3.100000000000000000e+01,5.100000000000000089e-01,3.568839700000000000e+09
6.300000000000000000e+01,2.610000000000000000e+02,5.840000000000000000e+02,1.850000000000000000e+02,9.200000000000000000e+01,4.300000000000000000e+01,2.700000000000000000e+01,3.400000000000000000e+01,5.100000000000000089e-01,3.586056800000000000e+09
7.900000000000000000e+01,3.200000000000000000e+02,7.070000000000000000e+02,2.260000000000000000e+02,9.000000000000000000e+01,4.300000000000000000e+01,3.100000000000000000e+01,3.700000000000000000e+01,5.000000000000000000e-01,3.602914000000000000e+09
8.700000000000000000e+01,3.440000000000000000e+02,7.500000000000000000e+02,2.470000000000000000e+02,9.000000000000000000e+01,5.300000000000000000e+01,3.100000000000000000e+01,3.800000000000000000e+01,5.000000000000000000e-01,3.621085700000000000e+09
1.010000000000000000e+02,3.800000000000000000e+02,8.470000000000000000e+02,2.750000000000000000e+02,1.140000000000000000e+02,6.200000000000000000e+01,4.000000000000000000e+01,4.300000000000000000e+01,4.899999999999999911e-01,3.640313000000000000e+09
1.080000000000000000e+02,3.780000000000000000e+02,8.860000000000000000e+02,3.160000000000000000e+02,1.320000000000000000e+02,7.000000000000000000e+01,4.900000000000000000e+01,6.800000000000000000e+01,4.699999999999999734e-01,3.658440600000000000e+09
1.260000000000000000e+02,3.970000000000000000e+02,9.360000000000000000e+02,3.140000000000000000e+02,1.370000000000000000e+02,7.500000000000000000e+01,5.200000000000000000e+01,7.100000000000000000e+01,4.600000000000000200e-01,3.675873900000000000e+09
1.210000000000000000e+02,3.640000000000000000e+02,8.970000000000000000e+02,2.860000000000000000e+02,1.340000000000000000e+02,7.700000000000000000e+01,5.000000000000000000e+01,7.500000000000000000e+01,4.400000000000000022e-01,3.692717000000000000e+09
1.180000000000000000e+02,4.470000000000000000e+02,8.690000000000000000e+02,2.650000000000000000e+02,1.190000000000000000e+02,7.100000000000000000e+01,5.000000000000000000e+01,1.010000000000000000e+02,4.299999999999999933e-01,3.709147800000000000e+09
1.390000000000000000e+02,5.270000000000000000e+02,8.070000000000000000e+02,2.330000000000000000e+02,1.020000000000000000e+02,6.600000000000000000e+01,4.700000000000000000e+01,1.110000000000000000e+02,4.099999999999999756e-01,3.726303800000000000e+09
1.400000000000000000e+02,5.250000000000000000e+02,8.050000000000000000e+02,1.540000000000000000e+02,6.900000000000000000e+01,6.200000000000000000e+01,4.400000000000000000e+01,1.980000000000000000e+02,4.000000000000000222e-01,3.747746800000000000e+09
1.360000000000000000e+02,5.980000000000000000e+02,7.430000000000000000e+02,1.260000000000000000e+02,5.400000000000000000e+01,5.500000000000000000e+01,4.300000000000000000e+01,2.800000000000000000e+02,3.900000000000000133e-01,3.766045200000000000e+09
1.550000000000000000e+02,6.990000000000000000e+02,7.680000000000000000e+02,1.500000000000000000e+02,6.400000000000000000e+01,5.300000000000000000e+01,5.400000000000000000e+01,3.170000000000000000e+02,3.800000000000000044e-01,3.783119900000000000e+09
1.740000000000000000e+02,6.950000000000000000e+02,8.340000000000000000e+02,1.570000000000000000e+02,6.800000000000000000e+01,5.500000000000000000e+01,7.300000000000000000e+01,3.260000000000000000e+02,3.699999999999999956e-01,3.799732200000000000e+09
1.550000000000000000e+02,6.300000000000000000e+02,9.150000000000000000e+02,1.660000000000000000e+02,6.100000000000000000e+01,5.200000000000000000e+01,7.400000000000000000e+01,3.540000000000000000e+02,3.599999999999999867e-01,3.818167600000000000e+09
1.520000000000000000e+02,6.260000000000000000e+02,8.340000000000000000e+02,1.660000000000000000e+02,6.300000000000000000e+01,4.600000000000000000e+01,8.100000000000000000e+01,4.480000000000000000e+02,3.599999999999999867e-01,3.837731200000000000e+09
1.480000000000000000e+02,5.300000000000000000e+02,8.450000000000000000e+02,1.640000000000000000e+02,6.100000000000000000e+01,4.400000000000000000e+01,1.030000000000000000e+02,5.600000000000000000e+02,3.599999999999999867e-01,3.854509600000000000e+09
1.240000000000000000e+02,3.850000000000000000e+02,7.630000000000000000e+02,1.480000000000000000e+02,5.300000000000000000e+01,4.000000000000000000e+01,1.000000000000000000e+02,5.610000000000000000e+02,3.599999999999999867e-01,3.871144200000000000e+09
9.400000000000000000e+01,2.590000000000000000e+02,6.490000000000000000e+02,1.370000000000000000e+02,4.500000000000000000e+01,3.200000000000000000e+01,9.300000000000000000e+01,5.790000000000000000e+02,3.599999999999999867e-01,3.888353000000000000e+09
9.000000000000000000e+01,2.160000000000000000e+02,4.910000000000000000e+02,1.090000000000000000e+02,3.800000000000000000e+01,2.900000000000000000e+01,9.800000000000000000e+01,6.120000000000000000e+02,3.699999999999999956e-01,3.905808100000000000e+09
7.800000000000000000e+01,1.460000000000000000e+02,4.170000000000000000e+02,8.800000000000000000e+01,3.100000000000000000e+01,2.700000000000000000e+01,9.000000000000000000e+01,5.350000000000000000e+02,3.699999999999999956e-01,3.922888700000000000e+09
6.400000000000000000e+01,1.350000000000000000e+02,3.600000000000000000e+02,8.600000000000000000e+01,3.300000000000000000e+01,2.800000000000000000e+01,6.200000000000000000e+01,3.790000000000000000e+02,3.800000000000000044e-01,3.944732300000000000e+09
6.300000000000000000e+01,1.350000000000000000e+02,3.120000000000000000e+02,7.300000000000000000e+01,3.400000000000000000e+01,2.900000000000000000e+01,5.900000000000000000e+01,3.480000000000000000e+02,3.800000000000000044e-01,3.964641300000000000e+09
5.900000000000000000e+01,2.340000000000000000e+02,2.660000000000000000e+02,8.000000000000000000e+01,1.360000000000000000e+02,5.200000000000000000e+01,5.000000000000000000e+01,3.040000000000000000e+02,3.699999999999999956e-01,3.982363800000000000e+09
5.500000000000000000e+01,2.940000000000000000e+02,3.340000000000000000e+02,1.050000000000000000e+02,1.540000000000000000e+02,5.700000000000000000e+01,3.700000000000000000e+01,1.770000000000000000e+02,3.699999999999999956e-01,4.000199700000000000e+09
6.100000000000000000e+01,3.850000000000000000e+02,3.870000000000000000e+02,1.410000000000000000e+02,1.650000000000000000e+02,6.600000000000000000e+01,3.400000000000000000e+01,1.240000000000000000e+02,3.800000000000000044e-01,4.018210500000000000e+09
5.900000000000000000e+01,3.970000000000000000e+02,4.490000000000000000e+02,3.070000000000000000e+02,1.700000000000000000e+02,6.500000000000000000e+01,3.200000000000000000e+01,7.600000000000000000e+01,3.699999999999999956e-01,4.038335500000000000e+09
5.800000000000000000e+01,3.910000000000000000e+02,5.070000000000000000e+02,3.400000000000000000e+02,1.740000000000000000e+02,7.000000000000000000e+01,3.100000000000000000e+01,6.000000000000000000e+01,3.699999999999999956e-01,4.056362800000000000e+09
7.100000000000000000e+01,3.710000000000000000e+02,5.360000000000000000e+02,3.680000000000000000e+02,1.210000000000000000e+02,6.200000000000000000e+01,3.600000000000000000e+01,5.400000000000000000e+01,3.699999999999999956e-01,4.073772300000000000e+09
7.100000000000000000e+01,3.530000000000000000e+02,4.850000000000000000e+02,4.290000000000000000e+02,1.090000000000000000e+02,6.700000000000000000e+01,3.400000000000000000e+01,6.800000000000000000e+01,3.800000000000000044e-01,4.090366900000000000e+09
6.400000000000000000e+01,2.560000000000000000e+02,5.110000000000000000e+02,4.600000000000000000e+02,1.000000000000000000e+02,6.200000000000000000e+01,3.100000000000000000e+01,6.900000000000000000e+01,3.900000000000000133e-01,4.107431400000000000e+09
7.500000000000000000e+01,2.520000000000000000e+02,5.380000000000000000e+02,4.180000000000000000e+02,1.020000000000000000e+02,7.000000000000000000e+01,3.500000000000000000e+01,7.200000000000000000e+01,4.000000000000000222e-01,4.125805800000000000e+09
7.800000000000000000e+01,2.430000000000000000e+02,5.950000000000000000e+02,4.180000000000000000e+02,9.700000000000000000e+01,6.600000000000000000e+01,3.400000000000000000e+01,7.200000000000000000e+01,4.099999999999999756e-01,4.148155400000000000e+09
6.600000000000000000e+01,1.940000000000000000e+02,6.240000000000000000e+02,4.080000000000000000e+02,9.300000000000000000e+01,6.400000000000000000e+01,3.000000000000000000e+01,6.600000000000000000e+01,4.199999999999999845e-01,4.165886700000000000e+09
7.900000000000000000e+01,1.940000000000000000e+02,6.280000000000000000e+02,3.590000000000000000e+02,8.700000000000000000e+01,7.700000000000000000e+01,3.700000000000000000e+01,7.700000000000000000e+01,4.299999999999999933e-01,4.183885500000000000e+09
8.400000000000000000e+01,2.230000000000000000e+02,6.760000000000000000e+02,3.170000000000000000e+02,8.200000000000000000e+01,3.190000000000000000e+02,1.230000000000000000e+02,2.590000000000000000e+02,4.400000000000000022e-01,4.200833300000000000e+09
7.900000000000000000e+01,2.540000000000000000e+02,7.890000000000000000e+02,2.570000000000000000e+02,6.900000000000000000e+01,4.090000000000000000e+02,1.430000000000000000e+02,3.700000000000000000e+02,4.400000000000000022e-01,4.219296000000000000e+09
8.100000000000000000e+01,2.680000000000000000e+02,7.640000000000000000e+02,2.180000000000000000e+02,6.900000000000000000e+01,4.220000000000000000e+02,1.530000000000000000e+02,4.240000000000000000e+02,4.400000000000000022e-01,4.239538700000000000e+09
9.200000000000000000e+01,2.880000000000000000e+02,8.050000000000000000e+02,2.280000000000000000e+02,7.200000000000000000e+01,4.490000000000000000e+02,1.570000000000000000e+02,4.450000000000000000e+02,4.500000000000000111e-01,4.257845600000000000e+09
9.000000000000000000e+01,2.530000000000000000e+02,8.510000000000000000e+02,1.980000000000000000e+02,6.400000000000000000e+01,4.710000000000000000e+02,2.310000000000000000e+02,5.120000000000000000e+02,4.600000000000000200e-01,4.275651300000000000e+09
1.040000000000000000e+02,2.310000000000000000e+02,8.170000000000000000e+02,2.200000000000000000e+02,7.300000000000000000e+01,4.260000000000000000e+02,2.200000000000000000e+02,5.540000000000000000e+02,4.600000000000000200e-01,4.293974600000000000e+09
1.090000000000000000e+02,1.780000000000000000e+02,7.080000000000000000e+02,2.170000000000000000e+02,7.300000000000000000e+01,3.590000000000000000e+02,2.250000000000000000e+02,5.770000000000000000e+02,4.500000000000000111e-01,4.311777600000000000e+09
1.070000000000000000e+02,1.600000000000000000e+02,6.680000000000000000e+02,2.120000000000000000e+02,7.000000000000000000e+01,3.560000000000000000e+02,2.240000000000000000e+02,5.580000000000000000e+02,4.500000000000000111e-01,4.331568300000000000e+09
9.800000000000000000e+01,1.240000000000000000e+02,5.730000000000000000e+02,1.640000000000000000e+02,6.000000000000000000e+01,3.310000000000000000e+02,2.290000000000000000e+02,5.500000000000000000e+02,4.400000000000000022e-01,4.353507100000000000e+09
8.700000000000000000e+01,1.260000000000000000e+02,5.300000000000000000e+02,1.560000000000000000e+02,5.800000000000000000e+01,3.000000000000000000e+02,1.590000000000000000e+02,4.890000000000000000e+02,4.299999999999999933e-01,4.371920500000000000e+09
7.200000000000000000e+01,1.520000000000000000e+02,5.870000000000000000e+02,1.550000000000000000e+02,5.000000000000000000e+01,1.910000000000000000e+02,1.300000000000000000e+02,3.700000000000000000e+02,4.199999999999999845e-01,4.390053200000000000e+09
6.500000000000000000e+01,1.640000000000000000e+02,5.480000000000000000e+02,1.580000000000000000e+02,5.200000000000000000e+01,1.510000000000000000e+02,9.700000000000000000e+01,2.130000000000000000e+02,4.199999999999999845e-01,4.408257300000000000e+09
6.400000000000000000e+01,1.590000000000000000e+02,5.490000000000000000e+02,1.560000000000000000e+02,5.000000000000000000e+01,1.320000000000000000e+02,9.200000000000000000e+01,2.590000000000000000e+02,4.099999999999999756e-01,4.427829800000000000e+09
6.700000000000000000e+01,1.500000000000000000e+02,5.650000000000000000e+02,1.590000000000000000e+02,5.100000000000000000e+01,1.470000000000000000e+02,7.700000000000000000e+01,2.730000000000000000e+02,4.099999999999999756e-01,4.446926900000000000e+09
6.900000000000000000e+01,1.530000000000000000e+02,5.440000000000000000e+02,1.610000000000000000e+02,5.100000000000000000e+01,1.380000000000000000e+02,6.900000000000000000e+01,2.780000000000000000e+02,4.099999999999999756e-01,4.466515500000000000e+09
5.500000000000000000e+01,1.140000000000000000e+02,4.270000000000000000e+02,1.060000000000000000e+02,3.800000000000000000e+01,1.340000000000000000e+02,6.400000000000000000e+01,2.760000000000000000e+02,4.099999999999999756e-01,4.485323700000000000e+09
5.500000000000000000e+01,1.200000000000000000e+02,4.220000000000000000e+02,1.030000000000000000e+02,3.900000000000000000e+01,1.340000000000000000e+02,6.300000000000000000e+01,2.750000000000000000e+02,4.099999999999999756e-01,4.503893500000000000e+09
5.100000000000000000e+01,1.520000000000000000e+02,4.220000000000000000e+02,1.030000000000000000e+02,4.000000000000000000e+01,1.220000000000000000e+02,5.300000000000000000e+01,1.900000000000000000e+02,4.199999999999999845e-01,4.522994600000000000e+09
4.300000000000000000e+01,1.610000000000000000e+02,4.310000000000000000e+02,9.500000000000000000e+01,3.400000000000000000e+01,6.300000000000000000e+01,4.300000000000000000e+01,1.390000000000000000e+02,4.299999999999999933e-01,4.542636300000000000e+09
4.100000000000000000e+01,1.620000000000000000e+02,4.140000000000000000e+02,1.140000000000000000e+02,3.800000000000000000e+01,5.400000000000000000e+01,3.600000000000000000e+01,1.150000000000000000e+02,4.400000000000000022e-01,4.564588000000000000e+09
3.900000000000000000e+01,1.570000000000000000e+02,4.310000000000000000e+02,1.050000000000000000e+02,3.700000000000000000e+01,4.500000000000000000e+01,3.400000000000000000e+01,1.000000000000000000e+02,4.600000000000000200e-01,4.583702300000000000e+09
3.600000000000000000e+01,1.460000000000000000e+02,5.080000000000000000e+02,1.010000000000000000e+02,3.300000000000000000e+01,3.800000000000000000e+01,2.900000000000000000e+01,8.100000000000000000e+01,4.699999999999999734e-01,4.601645500000000000e+09
3.700000000000000000e+01,1.080000000000000000e+02,5.670000000000000000e+02,1.010000000000000000e+02,3.200000000000000000e+01,3.300000000000000000e+01,2.200000000000000000e+01,5.700000000000000000e+01,4.799999999999999822e-01,4.620842500000000000e+09
3.800000000000000000e+01,8.200000000000000000e+01,5.290000000000000000e+02,1.010000000000000000e+02,3.100000000000000000e+01,2.900000000000000000e+01,2.300000000000000000e+01,5.000000000000000000e+01,4.899999999999999911e-01,4.642904800000000000e+09
4.100000000000000000e+01,8.000000000000000000e+01,5.800000000000000000e+02,7.600000000000000000e+01,2.700000000000000000e+01,2.700000000000000000e+01,2.200000000000000000e+01,6.900000000000000000e+01,5.000000000000000000e-01,4.662999300000000000e+09
4.300000000000000000e+01,8.200000000000000000e+01,5.690000000000000000e+02,8.400000000000000000e+01,2.900000000000000000e+01,3.000000000000000000e+01,2.500000000000000000e+01,6.800000000000000000e+01,5.100000000000000089e-01,4.680838700000000000e+09
3.900000000000000000e+01,6.600000000000000000e+01,4.870000000000000000e+02,7.800000000000000000e+01,2.400000000000000000e+01,2.900000000000000000e+01,2.300000000000000000e+01,6.600000000000000000e+01,5.200000000000000178e-01,4.698481200000000000e+09
4.100000000000000000e+01,7.900000000000000000e+01,4.170000000000000000e+02,8.500000000000000000e+01,3.200000000000000000e+01,3.200000000000000000e+01,2.600000000000000000e+01,6.700000000000000000e+01,5.300000000000000266e-01,4.717355600000000000e+09
4.200000000000000000e+01,8.200000000000000000e+01,4.220000000000000000e+02,8.700000000000000000e+01,3.400000000000000000e+01,3.100000000000000000e+01,2.600000000000000000e+01,6.900000000000000000e+01,5.400000000000000355e-01,4.736464000000000000e+09
3.800000000000000000e+01,7.300000000000000000e+01,4.260000000000000000e+02,8.900000000000000000e+01,3.600000000000000000e+01,3.200000000000000000e+01,2.600000000000000000e+01,7.400000000000000000e+01,5.500000000000000444e-01,4.756289900000000000e+09
3.700000000000000000e+01,7.000000000000000000e+01,4.100000000000000000e+02,7.700000000000000000e+01,3.400000000000000000e+01,2.900000000000000000e+01,2.300000000000000000e+01,8.300000000000000000e+01,5.500000000000000444e-01,4.776549900000000000e+09
3.400000000000000000e+01,7.000000000000000000e+01,3.870000000000000000e+02,7.700000000000000000e+01,3.300000000000000000e+01,3.000000000000000000e+01,2.500000000000000000e+01,8.400000000000000000e+01,5.500000000000000444e-01,4.803594000000000000e+09
3.100000000000000000e+01,1.070000000000000000e+02,4.580000000000000000e+02,9.000000000000000000e+01,4.600000000000000000e+01,3.100000000000000000e+01,2.500000000000000000e+01,8.400000000000000000e+01,5.600000000000000533e-01,4.823893800000000000e+09
5.000000000000000000e+01,1.260000000000000000e+02,5.360000000000000000e+02,2.940000000000000000e+02,6.800000000000000000e+01,4.000000000000000000e+01,2.900000000000000000e+01,8.700000000000000000e+01,5.600000000000000533e-01,4.843952300000000000e+09
6.700000000000000000e+01,1.720000000000000000e+02,6.270000000000000000e+02,3.290000000000000000e+02,7.300000000000000000e+01,4.100000000000000000e+01,3.100000000000000000e+01,6.100000000000000000e+01,5.699999999999999512e-01,4.863138500000000000e+09
8.800000000000000000e+01,2.170000000000000000e+02,7.310000000000000000e+02,3.670000000000000000e+02,8.200000000000000000e+01,4.800000000000000000e+01,3.800000000000000000e+01,5.700000000000000000e+01,5.699999999999999512e-01,4.881313200000000000e+09
9.500000000000000000e+01,2.520000000000000000e+02,7.820000000000000000e+02,4.270000000000000000e+02,1.030000000000000000e+02,5.300000000000000000e+01,4.100000000000000000e+01,5.700000000000000000e+01,5.699999999999999512e-01,4.899078500000000000e+09
9.900000000000000000e+01,2.730000000000000000e+02,8.830000000000000000e+02,4.700000000000000000e+02,1.100000000000000000e+02,5.300000000000000000e+01,4.000000000000000000e+01,5.400000000000000000e+01,5.600000000000000533e-01,4.918130800000000000e+09
1.000000000000000000e+02,3.260000000000000000e+02,1.038000000000000000e+03,5.060000000000000000e+02,1.100000000000000000e+02,5.100000000000000000e+01,3.900000000000000000e+01,5.000000000000000000e+01,5.500000000000000444e-01,4.940525800000000000e+09
1.060000000000000000e+02,3.820000000000000000e+02,1.142000000000000000e+03,5.940000000000000000e+02,1.380000000000000000e+02,6.700000000000000000e+01,4.200000000000000000e+01,5.500000000000000000e+01,5.300000000000000266e-01,4.961258600000000000e+09
1.490000000000000000e+02,4.700000000000000000e+02,1.184000000000000000e+03,8.110000000000000000e+02,1.600000000000000000e+02,7.900000000000000000e+01,4.700000000000000000e+01,6.600000000000000000e+01,5.100000000000000089e-01,4.978944800000000000e+09
1.660000000000000000e+02,5.390000000000000000e+02,1.218000000000000000e+03,9.440000000000000000e+02,2.020000000000000000e+02,1.070000000000000000e+02,5.800000000000000000e+01,8.100000000000000000e+01,4.899999999999999911e-01,4.997145700000000000e+09
2.060000000000000000e+02,6.630000000000000000e+02,1.252000000000000000e+03,1.040000000000000000e+03,2.240000000000000000e+02,1.190000000000000000e+02,7.100000000000000000e+01,1.000000000000000000e+02,4.699999999999999734e-01,5.015860000000000000e+09
2.210000000000000000e+02,6.680000000000000000e+02,1.196000000000000000e+03,1.067000000000000000e+03,2.520000000000000000e+02,1.380000000000000000e+02,8.000000000000000000e+01,1.110000000000000000e+02,4.500000000000000111e-01,5.037063100000000000e+09
2.210000000000000000e+02,6.700000000000000000e+02,1.123000000000000000e+03,1.037000000000000000e+03,2.440000000000000000e+02,1.360000000000000000e+02,8.300000000000000000e+01,1.130000000000000000e+02,4.299999999999999933e-01,5.059280000000000000e+09
1.990000000000000000e+02,6.220000000000000000e+02,1.136000000000000000e+03,9.270000000000000000e+02,2.400000000000000000e+02,1.350000000000000000e+02,8.200000000000000000e+01,1.080000000000000000e+02,4.000000000000000222e-01,5.077637600000000000e+09
1.940000000000000000e+02,6.160000000000000000e+02,1.183000000000000000e+03,8.310000000000000000e+02,2.100000000000000000e+02,1.160000000000000000e+02,7.800000000000000000e+01,1.040000000000000000e+02,3.699999999999999956e-01,5.096961100000000000e+09
1.640000000000000000e+02,4.770000000000000000e+02,1.184000000000000000e+03,7.280000000000000000e+02,1.980000000000000000e+02,1.120000000000000000e+02,7.100000000000000000e+01,9.500000000000000000e+01,3.400000000000000244e-01,5.114858000000000000e+09
1.600000000000000000e+02,4.630000000000000000e+02,1.172000000000000000e+03,6.790000000000000000e+02,1.770000000000000000e+02,1.020000000000000000e+02,6.500000000000000000e+01,9.000000000000000000e+01,3.200000000000000067e-01,5.134267200000000000e+09
1.760000000000000000e+02,4.570000000000000000e+02,1.147000000000000000e+03,6.760000000000000000e+02,2.140000000000000000e+02,1.100000000000000000e+02,6.900000000000000000e+01,9.700000000000000000e+01,2.899999999999999800e-01,5.154673400000000000e+09
1.790000000000000000e+02,4.920000000000000000e+02,1.122000000000000000e+03,6.770000000000000000e+02,2.340000000000000000e+02,1.170000000000000000e+02,7.200000000000000000e+01,9.900000000000000000e+01,2.800000000000000266e-01,5.173774800000000000e+09
1.730000000000000000e+02,5.530000000000000000e+02,1.129000000000000000e+03,6.350000000000000000e+02,2.340000000000000000e+02,1.190000000000000000e+02,7.000000000000000000e+01,9.200000000000000000e+01,2.600000000000000089e-01,5.192613400000000000e+09
1.870000000000000000e+02,6.090000000000000000e+02,1.051000000000000000e+03,6.490000000000000000e+02,2.430000000000000000e+02,1.250000000000000000e+02,7.400000000000000000e+01,9.700000000000000000e+01,2.399999999999999911e-01,5.212231900000000000e+09
1.790000000000000000e+02,6.500000000000000000e+02,1.044000000000000000e+03,6.170000000000000000e+02,2.310000000000000000e+02,1.180000000000000000e+02,7.100000000000000000e+01,9.100000000000000000e+01,2.200000000000000011e-01,5.232519200000000000e+09
1.880000000000000000e+02,6.430000000000000000e+02,1.060000000000000000e+03,6.440000000000000000e+02,2.160000000000000000e+02,1.160000000000000000e+02,7.200000000000000000e+01,9.200000000000000000e+01,2.099999999999999922e-01,5.253624300000000000e+09
1.940000000000000000e+02,6.580000000000000000e+02,1.039000000000000000e+03,6.570000000000000000e+02,2.370000000000000000e+02,1.160000000000000000e+02,7.500000000000000000e+01,9.500000000000000000e+01,2.000000000000000111e-01,5.272777100000000000e+09
2.010000000000000000e+02,6.390000000000000000e+02,9.750000000000000000e+02,6.500000000000000000e+02,2.380000000000000000e+02,1.160000000000000000e+02,7.800000000000000000e+01,9.700000000000000000e+01,1.799999999999999933e-01,5.292144900000000000e+09
2.260000000000000000e+02,7.290000000000000000e+02,1.131000000000000000e+03,6.510000000000000000e+02,2.350000000000000000e+02,1.170000000000000000e+02,8.200000000000000000e+01,1.040000000000000000e+02,1.700000000000000122e-01,5.311265600000000000e+09
2.290000000000000000e+02,7.310000000000000000e+02,1.125000000000000000e+03,6.680000000000000000e+02,2.350000000000000000e+02,1.120000000000000000e+02,8.200000000000000000e+01,1.050000000000000000e+02,1.600000000000000033e-01,5.331744500000000000e+09
2.110000000000000000e+02,7.180000000000000000e+02,1.065000000000000000e+03,6.590000000000000000e+02,2.240000000000000000e+02,1.060000000000000000e+02,7.600000000000000000e+01,9.800000000000000000e+01,1.499999999999999944e-01,5.353129800000000000e+09
2.010000000000000000e+02,6.710000000000000000e+02,1.040000000000000000e+03,5.980000000000000000e+02,1.750000000000000000e+02,9.500000000000000000e+01,6.900000000000000000e+01,9.100000000000000000e+01,1.400000000000000133e-01,5.373052100000000000e+09
1.930000000000000000e+02,6.460000000000000000e+02,1.041000000000000000e+03,5.840000000000000000e+02,1.730000000000000000e+02,9.100000000000000000e+01,6.500000000000000000e+01,8.900000000000000000e+01,1.300000000000000044e-01,5.391623300000000000e+09
1.400000000000000000e+02,4.880000000000000000e+02,8.140000000000000000e+02,5.080000000000000000e+02,1.540000000000000000e+02,7.800000000000000000e+01,5.300000000000000000e+01,7.100000000000000000e+01,1.300000000000000044e-01,5.412818600000000000e+09
1.310000000000000000e+02,4.280000000000000000e+02,7.420000000000000000e+02,4.320000000000000000e+02,1.490000000000000000e+02,7.400000000000000000e+01,5.000000000000000000e+01,7.100000000000000000e+01,1.300000000000000044e-01,5.434636900000000000e+09
1.190000000000000000e+02,4.140000000000000000e+02,7.110000000000000000e+02,3.460000000000000000e+02,1.310000000000000000e+02,6.800000000000000000e+01,5.200000000000000000e+01,1.160000000000000000e+02,1.300000000000000044e-01,5.456692800000000000e+09
1.470000000000000000e+02,4.410000000000000000e+02,6.500000000000000000e+02,3.300000000000000000e+02,1.460000000000000000e+02,7.100000000000000000e+01,6.200000000000000000e+01,1.250000000000000000e+02,1.400000000000000133e-01,5.475598900000000000e+09
1.450000000000000000e+02,3.470000000000000000e+02,5.620000000000000000e+02,3.000000000000000000e+02,1.330000000000000000e+02,1.490000000000000000e+02,6.700000000000000000e+01,2.970000000000000000e+02,1.400000000000000133e-01,5.494061600000000000e+09
1.400000000000000000e+02,3.410000000000000000e+02,5.510000000000000000e+02,2.920000000000000000e+02,1.190000000000000000e+02,2.310000000000000000e+02,1.250000000000000000e+02,3.620000000000000000e+02,1.499999999999999944e-01,5.513133900000000000e+09
1.390000000000000000e+02,3.590000000000000000e+02,5.820000000000000000e+02,2.980000000000000000e+02,1.250000000000000000e+02,3.110000000000000000e+02,1.880000000000000000e+02,4.600000000000000000e+02,1.600000000000000033e-01,5.532621600000000000e+09
1.410000000000000000e+02,3.740000000000000000e+02,5.590000000000000000e+02,2.860000000000000000e+02,1.230000000000000000e+02,4.190000000000000000e+02,2.160000000000000000e+02,6.050000000000000000e+02,1.600000000000000033e-01,5.556667100000000000e+09
1.020000000000000000e+02,3.490000000000000000e+02,5.210000000000000000e+02,2.010000000000000000e+02,8.100000000000000000e+01,4.250000000000000000e+02,2.370000000000000000e+02,6.460000000000000000e+02,1.700000000000000122e-01,5.576467200000000000e+09
9.500000000000000000e+01,3.430000000000000000e+02,4.840000000000000000e+02,1.720000000000000000e+02,7.300000000000000000e+01,4.230000000000000000e+02,2.410000000000000000e+02,6.090000000000000000e+02,1.799999999999999933e-01,5.595188000000000000e+09
8.900000000000000000e+01,3.160000000000000000e+02,4.470000000000000000e+02,1.630000000000000000e+02,6.900000000000000000e+01,3.930000000000000000e+02,2.210000000000000000e+02,5.810000000000000000e+02,1.900000000000000022e-01,5.615596500000000000e+09
8.100000000000000000e+01,2.530000000000000000e+02,4.480000000000000000e+02,1.130000000000000000e+02,5.200000000000000000e+01,3.430000000000000000e+02,1.730000000000000000e+02,5.100000000000000000e+02,2.000000000000000111e-01,5.639713200000000000e+09
6.600000000000000000e+01,2.140000000000000000e+02,7.050000000000000000e+02,1.110000000000000000e+02,4.200000000000000000e+01,2.010000000000000000e+02,1.370000000000000000e+02,3.140000000000000000e+02,2.099999999999999922e-01,5.660277500000000000e+09
5.300000000000000000e+01,1.610000000000000000e+02,7.720000000000000000e+02,1.010000000000000000e+02,3.600000000000000000e+01,1.910000000000000000e+02,1.050000000000000000e+02,2.180000000000000000e+02,2.200000000000000011e-01,5.678377000000000000e+09
5.000000000000000000e+01,1.400000000000000000e+02,7.810000000000000000e+02,9.800000000000000000e+01,3.000000000000000000e+01,1.580000000000000000e+02,9.800000000000000000e+01,1.920000000000000000e+02,2.300000000000000100e-01,5.697442700000000000e+09
4.900000000000000000e+01,1.560000000000000000e+02,7.830000000000000000e+02,1.000000000000000000e+02,2.800000000000000000e+01,1.460000000000000000e+02,9.600000000000000000e+01,1.850000000000000000e+02,2.500000000000000000e-01,5.715943600000000000e+09
4.600000000000000000e+01,1.520000000000000000e+02,7.570000000000000000e+02,1.150000000000000000e+02,3.600000000000000000e+01,1.430000000000000000e+02,1.000000000000000000e+02,2.030000000000000000e+02,2.500000000000000000e-01,5.738128200000000000e+09
5.100000000000000000e+01,1.540000000000000000e+02,5.840000000000000000e+02,1.230000000000000000e+02,4.100000000000000000e+01,1.510000000000000000e+02,1.010000000000000000e+02,2.040000000000000000e+02,2.700000000000000178e-01,5.759642900000000000e+09
5.100000000000000000e+01,1.860000000000000000e+02,5.160000000000000000e+02,1.270000000000000000e+02,4.300000000000000000e+01,1.490000000000000000e+02,8.100000000000000000e+01,2.040000000000000000e+02,2.800000000000000266e-01,5.779107300000000000e+09
5.100000000000000000e+01,1.830000000000000000e+02,4.940000000000000000e+02,1.270000000000000000e+02,4.200000000000000000e+01,1.310000000000000000e+02,7.300000000000000000e+01,2.020000000000000000e+02,2.999999999999999889e-01,5.798053500000000000e+09
4.900000000000000000e+01,1.600000000000000000e+02,4.890000000000000000e+02,1.170000000000000000e+02,4.100000000000000000e+01,1.180000000000000000e+02,5.700000000000000000e+01,1.850000000000000000e+02,3.200000000000000067e-01,5.817206500000000000e+09
5.900000000000000000e+01,1.910000000000000000e+02,5.090000000000000000e+02,1.180000000000000000e+02,4.700000000000000000e+01,1.080000000000000000e+02,4.700000000000000000e+01,1.770000000000000000e+02,3.499999999999999778e-01,5.839097000000000000e+09
5.900000000000000000e+01,1.830000000000000000e+02,4.570000000000000000e+02,1.080000000000000000e+02,4.300000000000000000e+01,9.400000000000000000e+01,5.000000000000000000e+01,2.110000000000000000e+02,3.699999999999999956e-01,5.857174800000000000e+09
5.800000000000000000e+01,1.460000000000000000e+02,4.330000000000000000e+02,1.050000000000000000e+02,4.400000000000000000e+01,1.300000000000000000e+02,5.500000000000000000e+01,2.550000000000000000e+02,3.800000000000000044e-01,5.876241900000000000e+09
5.700000000000000000e+01,1.530000000000000000e+02,4.320000000000000000e+02,1.070000000000000000e+02,4.500000000000000000e+01,1.350000000000000000e+02,5.500000000000000000e+01,2.260000000000000000e+02,3.900000000000000133e-01,5.895353800000000000e+09
6.800000000000000000e+01,1.570000000000000000e+02,4.500000000000000000e+02,1.410000000000000000e+02,5.400000000000000000e+01,1.460000000000000000e+02,5.800000000000000000e+01,2.290000000000000000e+02,4.099999999999999756e-01,5.914853400000000000e+09
6.700000000000000000e+01,1.260000000000000000e+02,3.990000000000000000e+02,1.270000000000000000e+02,4.500000000000000000e+01,1.860000000000000000e+02,6.400000000000000000e+01,3.130000000000000000e+02,4.199999999999999845e-01,5.934658700000000000e+09
7.000000000000000000e+01,1.190000000000000000e+02,3.710000000000000000e+02,1.230000000000000000e+02,4.600000000000000000e+01,2.410000000000000000e+02,1.190000000000000000e+02,3.140000000000000000e+02,4.299999999999999933e-01,5.955517700000000000e+09
8.900000000000000000e+01,1.820000000000000000e+02,4.320000000000000000e+02,1.290000000000000000e+02,4.700000000000000000e+01,2.380000000000000000e+02,2.380000000000000000e+02,4.210000000000000000e+02,4.299999999999999933e-01,5.974959200000000000e+09
9.300000000000000000e+01,2.140000000000000000e+02,4.420000000000000000e+02,1.330000000000000000e+02,5.600000000000000000e+01,2.670000000000000000e+02,2.850000000000000000e+02,4.670000000000000000e+02,4.299999999999999933e-01,5.994338300000000000e+09
9.500000000000000000e+01,2.160000000000000000e+02,3.890000000000000000e+02,1.050000000000000000e+02,6.000000000000000000e+01,3.730000000000000000e+02,3.290000000000000000e+02,4.980000000000000000e+02,4.299999999999999933e-01,6.013400000000000000e+09
1.210000000000000000e+02,2.190000000000000000e+02,3.340000000000000000e+02,1.330000000000000000e+02,6.800000000000000000e+01,4.060000000000000000e+02,3.490000000000000000e+02,5.760000000000000000e+02,4.299999999999999933e-01,6.034591400000000000e+09
1.270000000000000000e+02,2.210000000000000000e+02,3.700000000000000000e+02,1.360000000000000000e+02,6.900000000000000000e+01,4.020000000000000000e+02,3.790000000000000000e+02,6.800000000000000000e+02,4.199999999999999845e-01,6.056291400000000000e+09
1.270000000000000000e+02,1.780000000000000000e+02,2.970000000000000000e+02,1.310000000000000000e+02,6.800000000000000000e+01,3.990000000000000000e+02,3.440000000000000000e+02,6.200000000000000000e+02,4.199999999999999845e-01,6.074754100000000000e+09
1.320000000000000000e+02,1.380000000000000000e+02,4.110000000000000000e+02,1.210000000000000000e+02,6.100000000000000000e+01,4.090000000000000000e+02,3.240000000000000000e+02,6.340000000000000000e+02,4.099999999999999756e-01,6.093487100000000000e+09
1.320000000000000000e+02,1.340000000000000000e+02,4.000000000000000000e+02,1.160000000000000000e+02,5.200000000000000000e+01,3.280000000000000000e+02,3.030000000000000000e+02,6.710000000000000000e+02,4.099999999999999756e-01,6.112695400000000000e+09
1.090000000000000000e+02,1.130000000000000000e+02,4.600000000000000000e+02,8.900000000000000000e+01,4.200000000000000000e+01,3.090000000000000000e+02,2.880000000000000000e+02,6.030000000000000000e+02,4.000000000000000222e-01,6.131950500000000000e+09
1.060000000000000000e+02,1.250000000000000000e+02,4.550000000000000000e+02,9.200000000000000000e+01,4.300000000000000000e+01,2.790000000000000000e+02,3.000000000000000000e+02,4.850000000000000000e+02,3.900000000000000133e-01,6.154223200000000000e+09
9.500000000000000000e+01,1.230000000000000000e+02,4.830000000000000000e+02,9.300000000000000000e+01,4.200000000000000000e+01,2.800000000000000000e+02,2.870000000000000000e+02,5.330000000000000000e+02,3.900000000000000133e-01,6.173971200000000000e+09
1.060000000000000000e+02,1.980000000000000000e+02,5.170000000000000000e+02,1.110000000000000000e+02,4.600000000000000000e+01,2.880000000000000000e+02,3.390000000000000000e+02,5.910000000000000000e+02,3.800000000000000044e-01,6.193888700000000000e+09
1.220000000000000000e+02,2.170000000000000000e+02,6.490000000000000000e+02,1.500000000000000000e+02,6.500000000000000000e+01,3.800000000000000000e+02,3.270000000000000000e+02,6.350000000000000000e+02,3.699999999999999956e-01,6.213540400000000000e+09
1.400000000000000000e+02,2.270000000000000000e+02,6.830000000000000000e+02,1.680000000000000000e+02,7.800000000000000000e+01,4.140000000000000000e+02,3.410000000000000000e+02,6.340000000000000000e+02,3.699999999999999956e-01,6.234183700000000000e+09
1.600000000000000000e+02,3.030000000000000000e+02,8.170000000000000000e+02,1.830000000000000000e+02,8.200000000000000000e+01,4.360000000000000000e+02,3.060000000000000000e+02,6.930000000000000000e+02,3.599999999999999867e-01,6.256697900000000000e+09
1.890000000000000000e+02,3.350000000000000000e+02,9.220000000000000000e+02,2.040000000000000000e+02,9.100000000000000000e+01,5.230000000000000000e+02,2.980000000000000000e+02,7.060000000000000000e+02,3.499999999999999778e-01,6.275301700000000000e+09
2.130000000000000000e+02,3.110000000000000000e+02,9.560000000000000000e+02,2.170000000000000000e+02,1.000000000000000000e+02,5.040000000000000000e+02,2.630000000000000000e+02,7.300000000000000000e+02,3.400000000000000244e-01,6.294725300000000000e+09
2.240000000000000000e+02,3.120000000000000000e+02,9.120000000000000000e+02,2.260000000000000000e+02,9.900000000000000000e+01,4.420000000000000000e+02,2.700000000000000000e+02,6.790000000000000000e+02,3.400000000000000244e-01,6.313488100000000000e+09
2.410000000000000000e+02,3.390000000000000000e+02,9.000000000000000000e+02,2.310000000000000000e+02,9.500000000000000000e+01,3.860000000000000000e+02,3.190000000000000000e+02,8.050000000000000000e+02,3.300000000000000155e-01,6.334040300000000000e+09
2.290000000000000000e+02,2.740000000000000000e+02,8.280000000000000000e+02,2.220000000000000000e+02,9.300000000000000000e+01,3.670000000000000000e+02,3.250000000000000000e+02,7.830000000000000000e+02,3.300000000000000155e-01,6.357279900000000000e+09
2.100000000000000000e+02,2.430000000000000000e+02,7.160000000000000000e+02,2.180000000000000000e+02,9.100000000000000000e+01,3.260000000000000000e+02,3.350000000000000000e+02,7.590000000000000000e+02,3.200000000000000067e-01,6.375819800000000000e+09
1.780000000000000000e+02,2.440000000000000000e+02,6.240000000000000000e+02,1.950000000000000000e+02,8.000000000000000000e+01,3.720000000000000000e+02,3.180000000000000000e+02,6.980000000000000000e+02,3.200000000000000067e-01,6.394951500000000000e+09
1.530000000000000000e+02,2.390000000000000000e+02,6.030000000000000000e+02,1.530000000000000000e+02,6.700000000000000000e+01,3.860000000000000000e+02,3.240000000000000000e+02,6.760000000000000000e+02,3.099999999999999978e-01,6.414925400000000000e+09
1.050000000000000000e+02,1.880000000000000000e+02,5.340000000000000000e+02,1.200000000000000000e+02,6.000000000000000000e+01,3.860000000000000000e+02,2.510000000000000000e+02,5.690000000000000000e+02,2.999999999999999889e-01,6.439161000000000000e+09
1.170000000000000000e+02,1.930000000000000000e+02,4.940000000000000000e+02,1.170000000000000000e+02,6.200000000000000000e+01,3.800000000000000000e+02,2.180000000000000000e+02,5.690000000000000000e+02,2.999999999999999889e-01,6.460428700000000000e+09
1.160000000000000000e+02,1.870000000000000000e+02,5.370000000000000000e+02,8.800000000000000000e+01,5.800000000000000000e+01,3.710000000000000000e+02,2.240000000000000000e+02,5.990000000000000000e+02,2.999999999999999889e-01,6.480555600000000000e+09
1.160000000000000000e+02,1.760000000000000000e+02,5.850000000000000000e+02,9.500000000000000000e+01,5.700000000000000000e+01,3.470000000000000000e+02,2.410000000000000000e+02,5.940000000000000000e+02,2.999999999999999889e-01,6.498768000000000000e+09
1.100000000000000000e+02,1.630000000000000000e+02,6.190000000000000000e+02,1.080000000000000000e+02,6.000000000000000000e+01,3.410000000000000000e+02,2.390000000000000000e+02,5.840000000000000000e+02,2.999999999999999889e-01,6.518581400000000000e+09
1.250000000000000000e+02,1.720000000000000000e+02,6.880000000000000000e+02,1.080000000000000000e+02,6.200000000000000000e+01,3.570000000000000000e+02,2.510000000000000000e+02,5.680000000000000000e+02,2.999999999999999889e-01,6.540887900000000000e+09
1.320000000000000000e+02,1.670000000000000000e+02,7.520000000000000000e+02,1.070000000000000000e+02,6.400000000000000000e+01,3.940000000000000000e+02,2.960000000000000000e+02,5.800000000000000000e+02,2.999999999999999889e-01,6.562405700000000000e+09
1.480000000000000000e+02,2.390000000000000000e+02,8.880000000000000000e+02,1.350000000000000000e+02,6.800000000000000000e+01,3.970000000000000000e+02,2.940000000000000000e+02,5.420000000000000000e+02,2.999999999999999889e-01,6.580875700000000000e+09
1.500000000000000000e+02,2.350000000000000000e+02,8.340000000000000000e+02,1.360000000000000000e+02,7.100000000000000000e+01,4.440000000000000000e+02,2.830000000000000000e+02,5.690000000000000000e+02,2.999999999999999889e-01,6.599322200000000000e+09
1.520000000000000000e+02,2.330000000000000000e+02,8.000000000000000000e+02,1.250000000000000000e+02,6.900000000000000000e+01,4.300000000000000000e+02,3.020000000000000000e+02,5.750000000000000000e+02,2.899999999999999800e-01,6.617960200000000000e+09
1.400000000000000000e+02,2.310000000000000000e+02,7.720000000000000000e+02,1.250000000000000000e+02,6.700000000000000000e+01,4.300000000000000000e+02,3.420000000000000000e+02,5.360000000000000000e+02,2.999999999999999889e-01,6.640021300000000000e+09
1.270000000000000000e+02,2.290000000000000000e+02,7.050000000000000000e+02,1.150000000000000000e+02,6.100000000000000000e+01,4.230000000000000000e+02,3.250000000000000000e+02,5.400000000000000000e+02,2.999999999999999889e-01,6.658963200000000000e+09
1.010000000000000000e+02,1.630000000000000000e+02,4.600000000000000000e+02,8.300000000000000000e+01,5.300000000000000000e+01,3.820000000000000000e+02,3.140000000000000000e+02,6.050000000000000000e+02,2.999999999999999889e-01,6.677192900000000000e+09
9.800000000000000000e+01,2.000000000000000000e+02,6.550000000000000000e+02,1.040000000000000000e+02,5.300000000000000000e+01,3.020000000000000000e+02,2.990000000000000000e+02,5.680000000000000000e+02,2.999999999999999889e-01,6.695970200000000000e+09
1.000000000000000000e+02,2.080000000000000000e+02,7.240000000000000000e+02,1.180000000000000000e+02,5.600000000000000000e+01,3.530000000000000000e+02,2.690000000000000000e+02,5.860000000000000000e+02,2.999999999999999889e-01,6.714276100000000000e+09
1.020000000000000000e+02,2.070000000000000000e+02,7.110000000000000000e+02,1.200000000000000000e+02,5.600000000000000000e+01,3.430000000000000000e+02,2.690000000000000000e+02,6.200000000000000000e+02,2.999999999999999889e-01,6.734139300000000000e+09
9.200000000000000000e+01,1.970000000000000000e+02,6.950000000000000000e+02,1.200000000000000000e+02,5.200000000000000000e+01,3.190000000000000000e+02,2.540000000000000000e+02,5.700000000000000000e+02,2.999999999999999889e-01,6.756580400000000000e+09
8.900000000000000000e+01,1.930000000000000000e+02,6.900000000000000000e+02,1.180000000000000000e+02,5.200000000000000000e+01,2.810000000000000000e+02,2.550000000000000000e+02,5.400000000000000000e+02,2.999999999999999889e-01,6.776406000000000000e+09
8.800000000000000000e+01,2.090000000000000000e+02,5.190000000000000000e+02,9.800000000000000000e+01,4.700000000000000000e+01,2.760000000000000000e+02,2.550000000000000000e+02,5.200000000000000000e+02,2.999999999999999889e-01,6.797333000000000000e+09
8.600000000000000000e+01,2.070000000000000000e+02,3.890000000000000000e+02,8.600000000000000000e+01,4.500000000000000000e+01,2.340000000000000000e+02,2.920000000000000000e+02,5.810000000000000000e+02,2.999999999999999889e-01,6.817760500000000000e+09
7.700000000000000000e+01,2.010000000000000000e+02,3.590000000000000000e+02,7.100000000000000000e+01,3.900000000000000000e+01,2.170000000000000000e+02,2.510000000000000000e+02,5.650000000000000000e+02,3.099999999999999978e-01,6.837258500000000000e+09
7.400000000000000000e+01,2.230000000000000000e+02,3.370000000000000000e+02,6.800000000000000000e+01,3.900000000000000000e+01,1.930000000000000000e+02,2.620000000000000000e+02,6.080000000000000000e+02,3.099999999999999978e-01,6.859281500000000000e+09
7.900000000000000000e+01,2.250000000000000000e+02,3.700000000000000000e+02,7.900000000000000000e+01,4.300000000000000000e+01,2.190000000000000000e+02,3.070000000000000000e+02,5.940000000000000000e+02,3.099999999999999978e-01,6.877632600000000000e+09
7.700000000000000000e+01,1.610000000000000000e+02,3.550000000000000000e+02,7.500000000000000000e+01,4.200000000000000000e+01,2.240000000000000000e+02,3.240000000000000000e+02,6.450000000000000000e+02,3.200000000000000067e-01,6.896106200000000000e+09
7.300000000000000000e+01,1.450000000000000000e+02,3.500000000000000000e+02,6.800000000000000000e+01,3.800000000000000000e+01,2.110000000000000000e+02,4.400000000000000000e+02,5.650000000000000000e+02,3.200000000000000067e-01,6.915637700000000000e+09
7.700000000000000000e+01,1.620000000000000000e+02,3.420000000000000000e+02,6.900000000000000000e+01,4.100000000000000000e+01,2.250000000000000000e+02,4.480000000000000000e+02,5.790000000000000000e+02,3.300000000000000155e-01,6.935803000000000000e+09
8.700000000000000000e+01,1.310000000000000000e+02,4.440000000000000000e+02,7.200000000000000000e+01,4.200000000000000000e+01,2.450000000000000000e+02,4.620000000000000000e+02,5.790000000000000000e+02,3.300000000000000155e-01,6.956418500000000000e+09
8.100000000000000000e+01,1.250000000000000000e+02,3.990000000000000000e+02,5.800000000000000000e+01,3.600000000000000000e+01,2.260000000000000000e+02,4.340000000000000000e+02,5.480000000000000000e+02,3.400000000000000244e-01,6.975639100000000000e+09
8.200000000000000000e+01,1.240000000000000000e+02,3.850000000000000000e+02,4.600000000000000000e+01,3.400000000000000000e+01,2.170000000000000000e+02,4.220000000000000000e+02,4.800000000000000000e+02,3.499999999999999778e-01,6.994865700000000000e+09
7.700000000000000000e+01,1.220000000000000000e+02,3.790000000000000000e+02,4.400000000000000000e+01,3.100000000000000000e+01,1.760000000000000000e+02,2.570000000000000000e+02,4.720000000000000000e+02,3.499999999999999778e-01,7.013848300000000000e+09
7.100000000000000000e+01,9.900000000000000000e+01,3.910000000000000000e+02,5.000000000000000000e+01,3.100000000000000000e+01,1.350000000000000000e+02,2.190000000000000000e+02,3.910000000000000000e+02,3.599999999999999867e-01,7.034560900000000000e+09
7.100000000000000000e+01,1.370000000000000000e+02,3.810000000000000000e+02,2.060000000000000000e+02,2.340000000000000000e+02,1.110000000000000000e+02,1.430000000000000000e+02,2.880000000000000000e+02,3.499999999999999778e-01,7.056283700000000000e+09
6.900000000000000000e+01,1.330000000000000000e+02,4.750000000000000000e+02,3.090000000000000000e+02,2.970000000000000000e+02,1.070000000000000000e+02,1.110000000000000000e+02,2.270000000000000000e+02,3.499999999999999778e-01,7.075122000000000000e+09
6.600000000000000000e+01,1.380000000000000000e+02,6.220000000000000000e+02,3.230000000000000000e+02,3.870000000000000000e+02,1.070000000000000000e+02,8.900000000000000000e+01,1.690000000000000000e+02,3.300000000000000155e-01,7.098855400000000000e+09
6.500000000000000000e+01,1.530000000000000000e+02,8.180000000000000000e+02,3.320000000000000000e+02,4.800000000000000000e+02,1.340000000000000000e+02,7.000000000000000000e+01,1.320000000000000000e+02,3.200000000000000067e-01,7.118812200000000000e+09
6.500000000000000000e+01,1.570000000000000000e+02,8.780000000000000000e+02,3.500000000000000000e+02,4.930000000000000000e+02,1.410000000000000000e+02,6.200000000000000000e+01,9.600000000000000000e+01,2.999999999999999889e-01,7.140059900000000000e+09
4.500000000000000000e+01,1.300000000000000000e+02,8.470000000000000000e+02,3.220000000000000000e+02,4.620000000000000000e+02,1.340000000000000000e+02,5.400000000000000000e+01,6.800000000000000000e+01,2.800000000000000266e-01,7.160128700000000000e+09
5.800000000000000000e+01,1.340000000000000000e+02,8.710000000000000000e+02,2.290000000000000000e+02,4.440000000000000000e+02,1.280000000000000000e+02,4.800000000000000000e+01,6.900000000000000000e+01,2.600000000000000089e-01,7.178131300000000000e+09
5.800000000000000000e+01,1.550000000000000000e+02,7.970000000000000000e+02,2.290000000000000000e+02,3.910000000000000000e+02,1.260000000000000000e+02,4.000000000000000000e+01,5.500000000000000000e+01,2.399999999999999911e-01,7.196919300000000000e+09
5.500000000000000000e+01,1.470000000000000000e+02,6.040000000000000000e+02,2.320000000000000000e+02,2.960000000000000000e+02,1.130000000000000000e+02,3.800000000000000000e+01,4.300000000000000000e+01,2.300000000000000100e-01,7.215743000000000000e+09
5.800000000000000000e+01,1.510000000000000000e+02,5.580000000000000000e+02,2.190000000000000000e+02,2.750000000000000000e+02,1.050000000000000000e+02,3.600000000000000000e+01,4.100000000000000000e+01,2.200000000000000011e-01,7.235728000000000000e+09
5.600000000000000000e+01,1.450000000000000000e+02,5.550000000000000000e+02,1.890000000000000000e+02,2.580000000000000000e+02,1.150000000000000000e+02,3.500000000000000000e+01,3.900000000000000000e+01,2.099999999999999922e-01,7.257581200000000000e+09
4.100000000000000000e+01,1.260000000000000000e+02,4.470000000000000000e+02,2.090000000000000000e+02,2.640000000000000000e+02,1.270000000000000000e+02,3.500000000000000000e+01,2.600000000000000000e+01,2.000000000000000111e-01,7.275460800000000000e+09
3.600000000000000000e+01,9.000000000000000000e+01,3.900000000000000000e+02,2.130000000000000000e+02,2.670000000000000000e+02,1.260000000000000000e+02,3.900000000000000000e+01,3.900000000000000000e+01,2.000000000000000111e-01,7.295044500000000000e+09
3.600000000000000000e+01,8.600000000000000000e+01,3.860000000000000000e+02,2.240000000000000000e+02,2.510000000000000000e+02,1.150000000000000000e+02,3.400000000000000000e+01,4.100000000000000000e+01,2.000000000000000111e-01,7.313500000000000000e+09
3.100000000000000000e+01,1.280000000000000000e+02,3.860000000000000000e+02,2.370000000000000000e+02,2.740000000000000000e+02,1.120000000000000000e+02,3.500000000000000000e+01,4.200000000000000000e+01,2.000000000000000111e-01,7.334014900000000000e+09
3.500000000000000000e+01,1.390000000000000000e+02,4.540000000000000000e+02,2.640000000000000000e+02,2.500000000000000000e+02,9.200000000000000000e+01,3.500000000000000000e+01,4.400000000000000000e+01,2.099999999999999922e-01,7.356616700000000000e+09
3.400000000000000000e+01,1.420000000000000000e+02,4.690000000000000000e+02,2.470000000000000000e+02,2.600000000000000000e+02,8.700000000000000000e+01,3.300000000000000000e+01,4.400000000000000000e+01,2.099999999999999922e-01,7.376126100000000000e+09
3.100000000000000000e+01,1.530000000000000000e+02,5.120000000000000000e+02,2.880000000000000000e+02,2.270000000000000000e+02,8.400000000000000000e+01,3.000000000000000000e+01,3.400000000000000000e+01,2.200000000000000011e-01,7.394978600000000000e+09
3.000000000000000000e+01,1.510000000000000000e+02,5.400000000000000000e+02,2.810000000000000000e+02,2.170000000000000000e+02,8.400000000000000000e+01,2.900000000000000000e+01,3.100000000000000000e+01,2.300000000000000100e-01,7.414916700000000000e+09
3.000000000000000000e+01,1.200000000000000000e+02,4.840000000000000000e+02,2.720000000000000000e+02,1.890000000000000000e+02,8.500000000000000000e+01,3.000000000000000000e+01,3.000000000000000000e+01,2.399999999999999911e-01,7.436276900000000000e+09
3.200000000000000000e+01,1.190000000000000000e+02,3.990000000000000000e+02,2.380000000000000000e+02,1.940000000000000000e+02,8.700000000000000000e+01,3.000000000000000000e+01,2.800000000000000000e+01,2.600000000000000089e-01,7.458338500000000000e+09
3.200000000000000000e+01,1.190000000000000000e+02,3.640000000000000000e+02,2.350000000000000000e+02,1.170000000000000000e+02,7.000000000000000000e+01,2.800000000000000000e+01,2.700000000000000000e+01,2.700000000000000178e-01,7.477442400000000000e+09
3.000000000000000000e+01,1.060000000000000000e+02,2.910000000000000000e+02,1.550000000000000000e+02,1.080000000000000000e+02,5.400000000000000000e+01,2.600000000000000000e+01,2.500000000000000000e+01,2.800000000000000266e-01,7.495873900000000000e+09
3.100000000000000000e+01,1.090000000000000000e+02,2.200000000000000000e+02,1.320000000000000000e+02,1.020000000000000000e+02,4.400000000000000000e+01,2.700000000000000000e+01,2.400000000000000000e+01,2.999999999999999889e-01,7.515114600000000000e+09
3.200000000000000000e+01,8.500000000000000000e+01,2.030000000000000000e+02,1.040000000000000000e+02,9.800000000000000000e+01,4.400000000000000000e+01,2.600000000000000000e+01,2.400000000000000000e+01,3.099999999999999978e-01,7.535897100000000000e+09
2.500000000000000000e+01,6.600000000000000000e+01,1.940000000000000000e+02,7.900000000000000000e+01,7.900000000000000000e+01,3.900000000000000000e+01,2.200000000000000000e+01,2.300000000000000000e+01,3.200000000000000067e-01,7.556159600000000000e+09
2.600000000000000000e+01,5.100000000000000000e+01,1.890000000000000000e+02,8.200000000000000000e+01,7.200000000000000000e+01,3.700000000000000000e+01,2.100000000000000000e+01,2.300000000000000000e+01,3.400000000000000244e-01,7.574849500000000000e+09
2.600000000000000000e+01,4.600000000000000000e+01,1.700000000000000000e+02,7.600000000000000000e+01,7.000000000000000000e+01,3.700000000000000000e+01,2.200000000000000000e+01,2.300000000000000000e+01,3.599999999999999867e-01,7.594488100000000000e+09
2.500000000000000000e+01,3.700000000000000000e+01,1.410000000000000000e+02,7.000000000000000000e+01,6.600000000000000000e+01,3.300000000000000000e+01,2.000000000000000000e+01,2.200000000000000000e+01,3.800000000000000044e-01,7.614378500000000000e+09
2.000000000000000000e+01,3.300000000000000000e+01,9.000000000000000000e+01,6.700000000000000000e+01,5.900000000000000000e+01,3.000000000000000000e+01,2.200000000000000000e+01,1.900000000000000000e+01,3.900000000000000133e-01,7.633808000000000000e+09
2.400000000000000000e+01,3.200000000000000000e+01,4.800000000000000000e+01,6.300000000000000000e+01,4.700000000000000000e+01,3.100000000000000000e+01,2.700000000000000000e+01,2.400000000000000000e+01,4.099999999999999756e-01,7.654993900000000000e+09
2.500000000000000000e+01,3.000000000000000000e+01,7.800000000000000000e+01,5.700000000000000000e+01,3.200000000000000000e+01,2.900000000000000000e+01,2.700000000000000000e+01,2.400000000000000000e+01,4.199999999999999845e-01,7.674372800000000000e+09
2.400000000000000000e+01,2.800000000000000000e+01,1.010000000000000000e+02,5.800000000000000000e+01,3.000000000000000000e+01,3.000000000000000000e+01,2.900000000000000000e+01,2.200000000000000000e+01,4.299999999999999933e-01,7.693825100000000000e+09
2.400000000000000000e+01,3.200000000000000000e+01,1.290000000000000000e+02,1.110000000000000000e+02,3.400000000000000000e+01,3.500000000000000000e+01,3.100000000000000000e+01,2.600000000000000000e+01,4.400000000000000022e-01,7.715019100000000000e+09
2.500000000000000000e+01,3.500000000000000000e+01,1.640000000000000000e+02,1.190000000000000000e+02,3.800000000000000000e+01,3.400000000000000000e+01,3.000000000000000000e+01,2.600000000000000000e+01,4.500000000000000111e-01,7.736790200000000000e+09
2.800000000000000000e+01,4.600000000000000000e+01,3.220000000000000000e+02,1.290000000000000000e+02,4.500000000000000000e+01,3.400000000000000000e+01,2.800000000000000000e+01,2.500000000000000000e+01,4.600000000000000200e-01,7.756507700000000000e+09
3.300000000000000000e+01,6.600000000000000000e+01,3.770000000000000000e+02,1.570000000000000000e+02,5.300000000000000000e+01,3.600000000000000000e+01,2.900000000000000000e+01,2.900000000000000000e+01,4.699999999999999734e-01,7.775782500000000000e+09
4.100000000000000000e+01,8.100000000000000000e+01,3.920000000000000000e+02,1.820000000000000000e+02,5.900000000000000000e+01,3.700000000000000000e+01,3.100000000000000000e+01,3.300000000000000000e+01,4.899999999999999911e-01,7.795875400000000000e+09
4.100000000000000000e+01,8.500000000000000000e+01,4.050000000000000000e+02,1.580000000000000000e+02,5.600000000000000000e+01,3.200000000000000000e+01,2.900000000000000000e+01,3.100000000000000000e+01,5.000000000000000000e-01,7.815765500000000000e+09
4.800000000000000000e+01,1.230000000000000000e+02,4.940000000000000000e+02,1.530000000000000000e+02,5.700000000000000000e+01,3.500000000000000000e+01,3.000000000000000000e+01,3.500000000000000000e+01,5.100000000000000089e-01,7.835538800000000000e+09
4.900000000000000000e+01,1.260000000000000000e+02,4.510000000000000000e+02,1.580000000000000000e+02,6.300000000000000000e+01,3.700000000000000000e+01,3.000000000000000000e+01,3.400000000000000000e+01,5.200000000000000178e-01,7.858453900000000000e+09
5.100000000000000000e+01,1.190000000000000000e+02,5.730000000000000000e+02,1.560000000000000000e+02,6.200000000000000000e+01,4.600000000000000000e+01,3.100000000000000000e+01,3.600000000000000000e+01,5.300000000000000266e-01,7.876803100000000000e+09
5.700000000000000000e+01,1.310000000000000000e+02,6.470000000000000000e+02,1.510000000000000000e+02,5.900000000000000000e+01,4.900000000000000000e+01,2.800000000000000000e+01,3.700000000000000000e+01,5.400000000000000355e-01,7.895750500000000000e+09
6.000000000000000000e+01,1.410000000000000000e+02,6.550000000000000000e+02,1.790000000000000000e+02,1.060000000000000000e+02,7.600000000000000000e+01,3.100000000000000000e+01,4.000000000000000000e+01,5.400000000000000355e-01,7.914815300000000000e+09
5.500000000000000000e+01,1.450000000000000000e+02,6.640000000000000000e+02,2.020000000000000000e+02,1.180000000000000000e+02,1.170000000000000000e+02,3.100000000000000000e+01,3.700000000000000000e+01,5.400000000000000355e-01,7.933784200000000000e+09
5.600000000000000000e+01,2.180000000000000000e+02,6.790000000000000000e+02,2.170000000000000000e+02,1.810000000000000000e+02,1.490000000000000000e+02,4.300000000000000000e+01,3.800000000000000000e+01,5.300000000000000266e-01,7.957773500000000000e+09
5.400000000000000000e+01,2.340000000000000000e+02,5.830000000000000000e+02,2.370000000000000000e+02,2.300000000000000000e+02,1.880000000000000000e+02,5.200000000000000000e+01,3.600000000000000000e+01,5.200000000000000178e-01,7.977336100000000000e+09
4.300000000000000000e+01,2.280000000000000000e+02,4.940000000000000000e+02,2.290000000000000000e+02,2.650000000000000000e+02,1.990000000000000000e+02,5.400000000000000000e+01,3.300000000000000000e+01,5.100000000000000089e-01,7.995948900000000000e+09
4.000000000000000000e+01,2.230000000000000000e+02,4.690000000000000000e+02,2.150000000000000000e+02,2.820000000000000000e+02,1.950000000000000000e+02,5.600000000000000000e+01,3.000000000000000000e+01,5.000000000000000000e-01,8.015082900000000000e+09
5.100000000000000000e+01,2.110000000000000000e+02,3.480000000000000000e+02,1.930000000000000000e+02,2.790000000000000000e+02,1.750000000000000000e+02,5.600000000000000000e+01,3.700000000000000000e+01,4.799999999999999822e-01,8.034065300000000000e+09
5.200000000000000000e+01,1.450000000000000000e+02,2.600000000000000000e+02,1.640000000000000000e+02,2.420000000000000000e+02,1.520000000000000000e+02,4.600000000000000000e+01,3.500000000000000000e+01,4.699999999999999734e-01,8.055776300000000000e+09
8.600000000000000000e+01,1.740000000000000000e+02,2.910000000000000000e+02,1.370000000000000000e+02,1.970000000000000000e+02,1.000000000000000000e+02,3.500000000000000000e+01,3.400000000000000000e+01,4.600000000000000200e-01,8.075284300000000000e+09
1.080000000000000000e+02,1.740000000000000000e+02,3.360000000000000000e+02,1.330000000000000000e+02,1.480000000000000000e+02,7.200000000000000000e+01,3.200000000000000000e+01,4.000000000000000000e+01,4.500000000000000111e-01,8.094828400000000000e+09
1.540000000000000000e+02,1.780000000000000000e+02,3.460000000000000000e+02,1.440000000000000000e+02,7.500000000000000000e+01,6.000000000000000000e+01,2.600000000000000000e+01,4.300000000000000000e+01,4.400000000000000022e-01,8.114124000000000000e+09
2.370000000000000000e+02,1.760000000000000000e+02,3.660000000000000000e+02,1.420000000000000000e+02,6.900000000000000000e+01,5.400000000000000000e+01,2.600000000000000000e+01,4.500000000000000000e+01,4.400000000000000022e-01,8.134227200000000000e+09
2.500000000000000000e+02,1.630000000000000000e+02,3.650000000000000000e+02,1.410000000000000000e+02,6.000000000000000000e+01,5.100000000000000000e+01,3.100000000000000000e+01,4.700000000000000000e+01,4.400000000000000022e-01,8.155833200000000000e+09
2.420000000000000000e+02,1.030000000000000000e+02,2.650000000000000000e+02,1.060000000000000000e+02,5.200000000000000000e+01,4.300000000000000000e+01,2.900000000000000000e+01,4.600000000000000000e+01,4.400000000000000022e-01,8.175473600000000000e+09
2.350000000000000000e+02,8.800000000000000000e+01,1.820000000000000000e+02,9.900000000000000000e+01,4.600000000000000000e+01,4.400000000000000000e+01,2.800000000000000000e+01,4.000000000000000000e+01,4.500000000000000111e-01,8.195163800000000000e+09
2.100000000000000000e+02,7.500000000000000000e+01,1.640000000000000000e+02,5.100000000000000000e+01,3.600000000000000000e+01,4.500000000000000000e+01,2.800000000000000000e+01,3.800000000000000000e+01,4.600000000000000200e-01,8.214361000000000000e+09
1.030000000000000000e+02,4.600000000000000000e+01,2.440000000000000000e+02,7.700000000000000000e+01,3.200000000000000000e+01,4.200000000000000000e+01,2.400000000000000000e+01,2.900000000000000000e+01,4.699999999999999734e-01,8.234653400000000000e+09
6.300000000000000000e+01,4.300000000000000000e+01,3.730000000000000000e+02,8.200000000000000000e+01,3.900000000000000000e+01,3.600000000000000000e+01,2.000000000000000000e+01,3.100000000000000000e+01,4.799999999999999822e-01,8.256649800000000000e+09
5.700000000000000000e+01,3.600000000000000000e+01,3.940000000000000000e+02,8.300000000000000000e+01,3.800000000000000000e+01,3.300000000000000000e+01,2.000000000000000000e+01,3.100000000000000000e+01,4.899999999999999911e-01,8.282311000000000000e+09
5.000000000000000000e+01,3.200000000000000000e+01,3.970000000000000000e+02,8.000000000000000000e+01,3.800000000000000000e+01,3.100000000000000000e+01,1.900000000000000000e+01,3.000000000000000000e+01,5.000000000000000000e-01,8.301589800000000000e+09
3.900000000000000000e+01,3.300000000000000000e+01,4.020000000000000000e+02,8.000000000000000000e+01,3.600000000000000000e+01,2.800000000000000000e+01,2.400000000000000000e+01,2.800000000000000000e+01,5.100000000000000089e-01,8.320969100000000000e+09
3.600000000000000000e+01,3.600000000000000000e+01,3.830000000000000000e+02,5.400000000000000000e+01,3.500000000000000000e+01,3.200000000000000000e+01,2.500000000000000000e+01,2.800000000000000000e+01,5.200000000000000178e-01,8.340272100000000000e+09
3.300000000000000000e+01,4.200000000000000000e+01,4.060000000000000000e+02,5.600000000000000000e+01,2.800000000000000000e+01,2.900000000000000000e+01,2.600000000000000000e+01,2.200000000000000000e+01,5.200000000000000178e-01,8.360118900000000000e+09
3.000000000000000000e+01,6.600000000000000000e+01,4.690000000000000000e+02,7.500000000000000000e+01,2.700000000000000000e+01,2.800000000000000000e+01,2.700000000000000000e+01,2.100000000000000000e+01,5.200000000000000178e-01,8.378915600000000000e+09
3.300000000000000000e+01,8.000000000000000000e+01,5.850000000000000000e+02,9.400000000000000000e+01,3.300000000000000000e+01,3.300000000000000000e+01,3.100000000000000000e+01,2.600000000000000000e+01,5.300000000000000266e-01,8.396726700000000000e+09
3.000000000000000000e+01,7.900000000000000000e+01,5.900000000000000000e+02,9.500000000000000000e+01,3.100000000000000000e+01,3.200000000000000000e+01,2.700000000000000000e+01,2.500000000000000000e+01,5.300000000000000266e-01,8.418010000000000000e+09
2.700000000000000000e+01,7.800000000000000000e+01,5.640000000000000000e+02,9.400000000000000000e+01,3.200000000000000000e+01,3.000000000000000000e+01,2.700000000000000000e+01,2.500000000000000000e+01,5.400000000000000355e-01,8.441702900000000000e+09
2.800000000000000000e+01,7.300000000000000000e+01,4.800000000000000000e+02,9.000000000000000000e+01,2.900000000000000000e+01,3.000000000000000000e+01,2.500000000000000000e+01,2.400000000000000000e+01,5.500000000000000444e-01,8.461447700000000000e+09
3.500000000000000000e+01,6.800000000000000000e+01,4.610000000000000000e+02,9.000000000000000000e+01,3.600000000000000000e+01,3.200000000000000000e+01,2.500000000000000000e+01,2.600000000000000000e+01,5.600000000000000533e-01,8.479770100000000000e+09
3.300000000000000000e+01,6.800000000000000000e+01,4.060000000000000000e+02,9.400000000000000000e+01,3.700000000000000000e+01,2.700000000000000000e+01,2.100000000000000000e+01,2.300000000000000000e+01,5.600000000000000533e-01,8.497906100000000000e+09
3.300000000000000000e+01,6.900000000000000000e+01,3.970000000000000000e+02,9.600000000000000000e+01,3.700000000000000000e+01,2.800000000000000000e+01,2.000000000000000000e+01,2.300000000000000000e+01,5.600000000000000533e-01,8.516520400000000000e+09
3.400000000000000000e+01,6.800000000000000000e+01,4.080000000000000000e+02,9.600000000000000000e+01,3.600000000000000000e+01,2.600000000000000000e+01,2.100000000000000000e+01,2.600000000000000000e+01,5.699999999999999512e-01,8.537040800000000000e+09
3.400000000000000000e+01,6.900000000000000000e+01,4.010000000000000000e+02,9.500000000000000000e+01,3.600000000000000000e+01,2.200000000000000000e+01,2.100000000000000000e+01,2.500000000000000000e+01,5.699999999999999512e-01,8.558140500000000000e+09
2.700000000000000000e+01,5.700000000000000000e+01,3.310000000000000000e+02,8.000000000000000000e+01,3.100000000000000000e+01,2.200000000000000000e+01,2.000000000000000000e+01,2.500000000000000000e+01,5.699999999999999512e-01,8.576593100000000000e+09
2.500000000000000000e+01,4.200000000000000000e+01,2.020000000000000000e+02,4.900000000000000000e+01,2.300000000000000000e+01,2.000000000000000000e+01,2.100000000000000000e+01,2.300000000000000000e+01,5.699999999999999512e-01,8.595217300000000000e+09
2.500000000000000000e+01,4.200000000000000000e+01,2.360000000000000000e+02,4.000000000000000000e+01,2.500000000000000000e+01,2.000000000000000000e+01,2.200000000000000000e+01,2.500000000000000000e+01,5.699999999999999512e-01,8.615871400000000000e+09
2.700000000000000000e+01,5.600000000000000000e+01,3.060000000000000000e+02,5.900000000000000000e+01,3.100000000000000000e+01,2.100000000000000000e+01,2.000000000000000000e+01,2.200000000000000000e+01,5.699999999999999512e-01,8.639334100000000000e+09
2.400000000000000000e+01,5.700000000000000000e+01,3.300000000000000000e+02,7.300000000000000000e+01,3.000000000000000000e+01,2.200000000000000000e+01,2.100000000000000000e+01,2.000000000000000000e+01,5.699999999999999512e-01,8.660096900000000000e+09
2.600000000000000000e+01,5.500000000000000000e+01,3.540000000000000000e+02,7.500000000000000000e+01,3.200000000000000000e+01,2.100000000000000000e+01,2.200000000000000000e+01,2.100000000000000000e+01,5.699999999999999512e-01,8.681205800000000000e+09
2.800000000000000000e+01,6.700000000000000000e+01,4.280000000000000000e+02,7.800000000000000000e+01,3.800000000000000000e+01,2.300000000000000000e+01,2.200000000000000000e+01,2.400000000000000000e+01,5.699999999999999512e-01,8.699466600000000000e+09
3.000000000000000000e+01,7.900000000000000000e+01,4.780000000000000000e+02,9.100000000000000000e+01,3.900000000000000000e+01,2.400000000000000000e+01,2.100000000000000000e+01,2.400000000000000000e+01,5.699999999999999512e-01,8.719250500000000000e+09
2.800000000000000000e+01,7.000000000000000000e+01,4.330000000000000000e+02,8.200000000000000000e+01,3.400000000000000000e+01,2.400000000000000000e+01,2.200000000000000000e+01,2.500000000000000000e+01,5.699999999999999512e-01,8.739083100000000000e+09
2.800000000000000000e+01,7.300000000000000000e+01,4.250000000000000000e+02,6.900000000000000000e+01,3.500000000000000000e+01,2.400000000000000000e+01,2.200000000000000000e+01,2.600000000000000000e+01,5.699999999999999512e-01,8.759458200000000000e+09
2.700000000000000000e+01,7.300000000000000000e+01,4.150000000000000000e+02,7.400000000000000000e+01,3.300000000000000000e+01,2.500000000000000000e+01,2.100000000000000000e+01,2.500000000000000000e+01,5.699999999999999512e-01,8.778396700000000000e+09
2.200000000000000000e+01,5.900000000000000000e+01,3.290000000000000000e+02,7.000000000000000000e+01,2.500000000000000000e+01,2.500000000000000000e+01,2.100000000000000000e+01,2.200000000000000000e+01,5.600000000000000533e-01,8.798558300000000000e+09
2.200000000000000000e+01,7.500000000000000000e+01,2.140000000000000000e+02,5.600000000000000000e+01,2.200000000000000000e+01,2.400000000000000000e+01,2.000000000000000000e+01,2.000000000000000000e+01,5.600000000000000533e-01,8.818138100000000000e+09
2.600000000000000000e+01,8.000000000000000000e+01,2.280000000000000000e+02,5.900000000000000000e+01,2.800000000000000000e+01,2.500000000000000000e+01,2.100000000000000000e+01,2.100000000000000000e+01,5.600000000000000533e-01,8.840641800000000000e+09
3.300000000000000000e+01,8.600000000000000000e+01,3.130000000000000000e+02,9.300000000000000000e+01,3.600000000000000000e+01,2.800000000000000000e+01,2.300000000000000000e+01,2.400000000000000000e+01,5.600000000000000533e-01,8.859194300000000000e+09
3.300000000000000000e+01,8.800000000000000000e+01,3.310000000000000000e+02,9.300000000000000000e+01,3.500000000000000000e+01,2.700000000000000000e+01,2.500000000000000000e+01,2.500000000000000000e+01,5.699999999999999512e-01,8.877915500000000000e+09
3.300000000000000000e+01,8.800000000000000000e+01,3.300000000000000000e+02,9.300000000000000000e+01,3.500000000000000000e+01,2.500000000000000000e+01,2.400000000000000000e+01,2.500000000000000000e+01,5.699999999999999512e-01,8.897170900000000000e+09
3.400000000000000000e+01,6.400000000000000000e+01,3.300000000000000000e+02,9.200000000000000000e+01,3.700000000000000000e+01,2.400000000000000000e+01,2.300000000000000000e+01,2.400000000000000000e+01,5.699999999999999512e-01,8.917051700000000000e+09
3.000000000000000000e+01,5.800000000000000000e+01,3.060000000000000000e+02,9.300000000000000000e+01,3.400000000000000000e+01,2.300000000000000000e+01,2.100000000000000000e+01,2.500000000000000000e+01,5.699999999999999512e-01,8.936492600000000000e+09
2.200000000000000000e+01,4.100000000000000000e+01,1.890000000000000000e+02,5.700000000000000000e+01,2.600000000000000000e+01,2.100000000000000000e+01,1.700000000000000000e+01,2.200000000000000000e+01,5.600000000000000533e-01,8.957187300000000000e+09
2.500000000000000000e+01,3.800000000000000000e+01,1.780000000000000000e+02,5.500000000000000000e+01,2.600000000000000000e+01,2.300000000000000000e+01,1.600000000000000000e+01,2.200000000000000000e+01,5.600000000000000533e-01,8.976060000000000000e+09
2.600000000000000000e+01,4.200000000000000000e+01,2.580000000000000000e+02,5.800000000000000000e+01,2.800000000000000000e+01,2.500000000000000000e+01,1.800000000000000000e+01,2.400000000000000000e+01,5.600000000000000533e-01,9.002360000000000000e+09
2.400000000000000000e+01,3.800000000000000000e+01,2.660000000000000000e+02,5.600000000000000000e+01,2.400000000000000000e+01,2.500000000000000000e+01,1.900000000000000000e+01,2.400000000000000000e+01,5.500000000000000444e-01,9.021647000000000000e+09
2.600000000000000000e+01,3.600000000000000000e+01,2.740000000000000000e+02,4.400000000000000000e+01,2.200000000000000000e+01,2.400000000000000000e+01,1.900000000000000000e+01,2.100000000000000000e+01,5.500000000000000444e-01,9.042846100000000000e+09
2.600000000000000000e+01,3.900000000000000000e+01,2.890000000000000000e+02,4.400000000000000000e+01,2.100000000000000000e+01,2.400000000000000000e+01,2.100000000000000000e+01,2.200000000000000000e+01,5.500000000000000444e-01,9.061975600000000000e+09
2.300000000000000000e+01,3.700000000000000000e+01,2.700000000000000000e+02,3.700000000000000000e+01,2.300000000000000000e+01,2.200000000000000000e+01,2.000000000000000000e+01,2.000000000000000000e+01,5.500000000000000444e-01,9.079976400000000000e+09
2.300000000000000000e+01,3.300000000000000000e+01,2.570000000000000000e+02,3.600000000000000000e+01,2.200000000000000000e+01,2.000000000000000000e+01,2.000000000000000000e+01,2.500000000000000000e+01,5.500000000000000444e-01,9.099161900000000000e+09
2.300000000000000000e+01,3.400000000000000000e+01,2.480000000000000000e+02,3.800000000000000000e+01,2.300000000000000000e+01,2.100000000000000000e+01,2.000000000000000000e+01,2.500000000000000000e+01,5.400000000000000355e-01,9.117796000000000000e+09
2.300000000000000000e+01,4.000000000000000000e+01,2.520000000000000000e+02,4.300000000000000000e+01,2.500000000000000000e+01,2.100000000000000000e+01,2.100000000000000000e+01,2.500000000000000000e+01,5.400000000000000355e-01,9.139322800000000000e+09
2.300000000000000000e+01,3.500000000000000000e+01,2.370000000000000000e+02,4.200000000000000000e+01,2.500000000000000000e+01,2.000000000000000000e+01,2.000000000000000000e+01,2.600000000000000000e+01,5.300000000000000266e-01,9.160697500000000000e+09
2.300000000000000000e+01,3.500000000000000000e+01,2.280000000000000000e+02,4.300000000000000000e+01,2.400000000000000000e+01,2.100000000000000000e+01,1.900000000000000000e+01,2.700000000000000000e+01,5.300000000000000266e-01,9.178976600000000000e+09
2.100000000000000000e+01,3.000000000000000000e+01,1.500000000000000000e+02,4.300000000000000000e+01,2.400000000000000000e+01,2.000000000000000000e+01,1.700000000000000000e+01,2.100000000000000000e+01,5.200000000000000178e-01,9.196817100000000000e+09
2.100000000000000000e+01,3.000000000000000000e+01,1.570000000000000000e+02,4.400000000000000000e+01,2.500000000000000000e+01,2.200000000000000000e+01,1.800000000000000000e+01,2.200000000000000000e+01,5.200000000000000178e-01,9.217074700000000000e+09
2.200000000000000000e+01,2.300000000000000000e+01,1.530000000000000000e+02,4.500000000000000000e+01,2.500000000000000000e+01,2.400000000000000000e+01,1.700000000000000000e+01,2.200000000000000000e+01,5.200000000000000178e-01,9.239549100000000000e+09
2.300000000000000000e+01,2.500000000000000000e+01,1.520000000000000000e+02,4.900000000000000000e+01,2.500000000000000000e+01,2.500000000000000000e+01,1.800000000000000000e+01,2.000000000000000000e+01,5.200000000000000178e-01,9.258615300000000000e+09
2.300000000000000000e+01,2.500000000000000000e+01,1.400000000000000000e+02,4.700000000000000000e+01,2.400000000000000000e+01,2.500000000000000000e+01,1.900000000000000000e+01,1.900000000000000000e+01,5.200000000000000178e-01,9.276396500000000000e+09
2.400000000000000000e+01,2.500000000000000000e+01,1.340000000000000000e+02,4.500000000000000000e+01,2.300000000000000000e+01,2.600000000000000000e+01,1.900000000000000000e+01,2.100000000000000000e+01,5.200000000000000178e-01,9.295265500000000000e+09
2.500000000000000000e+01,2.400000000000000000e+01,1.180000000000000000e+02,4.300000000000000000e+01,2.300000000000000000e+01,2.300000000000000000e+01,2.000000000000000000e+01,2.000000000000000000e+01,5.100000000000000089e-01,9.315396300000000000e+09
2.200000000000000000e+01,2.500000000000000000e+01,1.150000000000000000e+02,3.600000000000000000e+01,2.300000000000000000e+01,2.200000000000000000e+01,2.000000000000000000e+01,2.100000000000000000e+01,5.100000000000000089e-01,9.335255400000000000e+09
2.400000000000000000e+01,2.300000000000000000e+01,1.240000000000000000e+02,3.100000000000000000e+01,2.100000000000000000e+01,2.200000000000000000e+01,2.100000000000000000e+01,2.100000000000000000e+01,5.100000000000000089e-01,9.355534000000000000e+09
2.300000000000000000e+01,2.300000000000000000e+01,1.250000000000000000e+02,3.000000000000000000e+01,2.300000000000000000e+01,2.300000000000000000e+01,2.100000000000000000e+01,2.200000000000000000e+01,5.000000000000000000e-01,9.375094800000000000e+09
2.300000000000000000e+01,2.400000000000000000e+01,1.350000000000000000e+02,2.900000000000000000e+01,2.400000000000000000e+01,2.100000000000000000e+01,2.100000000000000000e+01,2.200000000000000000e+01,5.000000000000000000e-01,9.394733300000000000e+09
2.400000000000000000e+01,2.800000000000000000e+01,1.590000000000000000e+02,3.000000000000000000e+01,2.300000000000000000e+01,2.200000000000000000e+01,2.000000000000000000e+01,2.200000000000000000e+01,5.000000000000000000e-01,9.413806000000000000e+09
2.500000000000000000e+01,2.700000000000000000e+01,1.670000000000000000e+02,3.100000000000000000e+01,2.400000000000000000e+01,2.200000000000000000e+01,2.000000000000000000e+01,2.300000000000000000e+01,5.000000000000000000e-01,9.433239700000000000e+09
2.200000000000000000e+01,2.600000000000000000e+01,1.530000000000000000e+02,2.900000000000000000e+01,2.600000000000000000e+01,2.000000000000000000e+01,1.900000000000000000e+01,2.300000000000000000e+01,5.000000000000000000e-01,9.457535200000000000e+09
2.400000000000000000e+01,3.000000000000000000e+01,1.940000000000000000e+02,3.100000000000000000e+01,2.700000000000000000e+01,1.900000000000000000e+01,2.000000000000000000e+01,2.200000000000000000e+01,4.899999999999999911e-01,9.476366800000000000e+09
2.300000000000000000e+01,2.900000000000000000e+01,1.910000000000000000e+02,2.900000000000000000e+01,2.500000000000000000e+01,2.100000000000000000e+01,2.200000000000000000e+01,2.300000000000000000e+01,4.899999999999999911e-01,9.495099800000000000e+09
2.100000000000000000e+01,2.300000000000000000e+01,1.750000000000000000e+02,2.800000000000000000e+01,2.400000000000000000e+01,2.100000000000000000e+01,2.200000000000000000e+01,2.400000000000000000e+01,4.899999999999999911e-01,9.519277900000000000e+09
1.800000000000000000e+01,2.400000000000000000e+01,1.540000000000000000e+02,2.500000000000000000e+01,2.400000000000000000e+01,2.100000000000000000e+01,2.300000000000000000e+01,2.300000000000000000e+01,4.899999999999999911e-01,9.541121000000000000e+09
2.100000000000000000e+01,2.500000000000000000e+01,1.490000000000000000e+02,2.600000000000000000e+01,2.200000000000000000e+01,2.100000000000000000e+01,2.400000000000000000e+01,2.300000000000000000e+01,4.899999999999999911e-01,9.562534800000000000e+09
1.800000000000000000e+01,2.000000000000000000e+01,8.600000000000000000e+01,2.200000000000000000e+01,2.000000000000000000e+01,2.100000000000000000e+01,2.300000000000000000e+01,2.800000000000000000e+01,4.899999999999999911e-01,9.581377400000000000e+09
2.100000000000000000e+01,2.100000000000000000e+01,8.300000000000000000e+01,2.400000000000000000e+01,1.800000000000000000e+01,2.000000000000000000e+01,2.100000000000000000e+01,3.200000000000000000e+01,4.799999999999999822e-01,9.599373400000000000e+09
2.000000000000000000e+01,2.300000000000000000e+01,7.500000000000000000e+01,2.300000000000000000e+01,1.900000000000000000e+01,2.000000000000000000e+01,2.100000000000000000e+01,3.200000000000000000e+01,4.799999999999999822e-01,9.618549800000000000e+09
2.200000000000000000e+01,2.300000000000000000e+01,5.800000000000000000e+01,2.200000000000000000e+01,1.700000000000000000e+01,2.000000000000000000e+01,2.000000000000000000e+01,3.100000000000000000e+01,4.799999999999999822e-01,9.641479900000000000e+09
2.000000000000000000e+01,2.500000000000000000e+01,5.000000000000000000e+01,2.200000000000000000e+01,1.800000000000000000e+01,2.000000000000000000e+01,1.800000000000000000e+01,3.200000000000000000e+01,4.799999999999999822e-01,9.659983600000000000e+09
2.100000000000000000e+01,2.400000000000000000e+01,4.800000000000000000e+01,2.400000000000000000e+01,1.800000000000000000e+01,2.000000000000000000e+01,1.700000000000000000e+01,2.700000000000000000e+01,4.799999999999999822e-01,9.679204700000000000e+09
1.800000000000000000e+01,2.500000000000000000e+01,2.500000000000000000e+01,2.200000000000000000e+01,1.900000000000000000e+01,2.100000000000000000e+01,1.700000000000000000e+01,2.000000000000000000e+01,4.799999999999999822e-01,9.696973200000000000e+09
1.800000000000000000e+01,2.400000000000000000e+01,2.400000000000000000e+01,2.300000000000000000e+01,1.800000000000000000e+01,2.200000000000000000e+01,1.600000000000000000e+01,2.100000000000000000e+01,4.799999999999999822e-01,9.720266700000000000e+09
1.700000000000000000e+01,2.500000000000000000e+01,2.300000000000000000e+01,2.300000000000000000e+01,1.900000000000000000e+01,2.200000000000000000e+01,1.500000000000000000e+01,2.200000000000000000e+01,4.699999999999999734e-01,9.740015200000000000e+09
1.900000000000000000e+01,2.300000000000000000e+01,2.200000000000000000e+01,2.500000000000000000e+01,1.900000000000000000e+01,2.100000000000000000e+01,1.600000000000000000e+01,2.100000000000000000e+01,4.699999999999999734e-01,9.762756800000000000e+09
1.800000000000000000e+01,2.500000000000000000e+01,2.400000000000000000e+01,2.200000000000000000e+01,1.800000000000000000e+01,2.200000000000000000e+01,1.700000000000000000e+01,2.100000000000000000e+01,4.699999999999999734e-01,9.780802200000000000e+09
1.900000000000000000e+01,2.400000000000000000e+01,3.000000000000000000e+01,2.200000000000000000e+01,1.800000000000000000e+01,1.900000000000000000e+01,1.900000000000000000e+01,2.200000000000000000e+01,4.699999999999999734e-01,6.326822280000000000e+10
1.900000000000000000e+01,2.300000000000000000e+01,3.200000000000000000e+01,2.400000000000000000e+01,1.800000000000000000e+01,1.800000000000000000e+01,2.000000000000000000e+01,2.100000000000000000e+01,4.699999999999999734e-01,6.328565980000000000e+10
1.800000000000000000e+01,2.200000000000000000e+01,3.400000000000000000e+01,2.300000000000000000e+01,1.800000000000000000e+01,1.800000000000000000e+01,2.200000000000000000e+01,2.200000000000000000e+01,4.699999999999999734e-01,6.330462220000000000e+10
2.000000000000000000e+01,2.200000000000000000e+01,3.400000000000000000e+01,2.100000000000000000e+01,1.800000000000000000e+01,2.000000000000000000e+01,2.400000000000000000e+01,2.200000000000000000e+01,4.699999999999999734e-01,6.332372480000000000e+10
2.100000000000000000e+01,2.100000000000000000e+01,3.400000000000000000e+01,2.200000000000000000e+01,1.700000000000000000e+01,1.900000000000000000e+01,2.500000000000000000e+01,2.300000000000000000e+01,4.600000000000000200e-01,6.334534830000000000e+10
2.000000000000000000e+01,2.200000000000000000e+01,2.900000000000000000e+01,2.200000000000000000e+01,1.700000000000000000e+01,1.900000000000000000e+01,2.300000000000000000e+01,2.200000000000000000e+01,4.600000000000000200e-01,6.336366370000000000e+10
2.200000000000000000e+01,2.200000000000000000e+01,2.500000000000000000e+01,2.000000000000000000e+01,1.800000000000000000e+01,2.200000000000000000e+01,2.500000000000000000e+01,2.100000000000000000e+01,4.600000000000000200e-01,6.338201760000000000e+10
2.200000000000000000e+01,2.000000000000000000e+01,2.400000000000000000e+01,2.000000000000000000e+01,2.000000000000000000e+01,2.200000000000000000e+01,2.300000000000000000e+01,2.200000000000000000e+01,4.600000000000000200e-01,6.340080290000000000e+10
2.000000000000000000e+01,2.200000000000000000e+01,2.600000000000000000e+01,2.100000000000000000e+01,2.100000000000000000e+01,2.200000000000000000e+01,2.200000000000000000e+01,2.100000000000000000e+01,4.600000000000000200e-01,6.341851910000000000e+10
2.200000000000000000e+01,2.200000000000000000e+01,2.400000000000000000e+01,2.100000000000000000e+01,2.300000000000000000e+01,2.200000000000000000e+01,2.100000000000000000e+01,2.100000000000000000e+01,4.600000000000000200e-01,6.343914560000000000e+10
2.200000000000000000e+01,2.000000000000000000e+01,2.400000000000000000e+01,2.100000000000000000e+01,2.400000000000000000e+01,2.200000000000000000e+01,2.200000000000000000e+01,2.000000000000000000e+01,4.600000000000000200e-01,6.345884120000000000e+10
2.000000000000000000e+01,2.000000000000000000e+01,2.500000000000000000e+01,2.100000000000000000e+01,2.400000000000000000e+01,2.000000000000000000e+01,2.100000000000000000e+01,2.000000000000000000e+01,4.600000000000000200e-01,6.347663100000000000e+10
2.200000000000000000e+01,2.200000000000000000e+01,2.600000000000000000e+01,2.200000000000000000e+01,2.200000000000000000e+01,2.000000000000000000e+01,2.000000000000000000e+01,1.800000000000000000e+01,4.600000000000000200e-01,6.349613740000000000e+10
2.100000000000000000e+01,2.000000000000000000e+01,2.200000000000000000e+01,2.200000000000000000e+01,2.300000000000000000e+01,1.900000000000000000e+01,2.100000000000000000e+01,1.900000000000000000e+01,4.600000000000000200e-01,6.351535060000000000e+10
2.000000000000000000e+01,2.100000000000000000e+01,2.300000000000000000e+01,2.100000000000000000e+01,2.200000000000000000e+01,2.200000000000000000e+01,2.000000000000000000e+01,1.800000000000000000e+01,4.600000000000000200e-01,6.353437110000000000e+10
