2.100000000000000000e+01,2.300000000000000000e+01,3.900000000000000000e+01,2.500000000000000000e+01,2.600000000000000000e+01,2.500000000000000000e+01,2.200000000000000000e+01,3.500000000000000000e+01,4.500000000000000111e-01,4.282910000000000000e+08
2.300000000000000000e+01,2.300000000000000000e+01,3.100000000000000000e+01,2.400000000000000000e+01,2.500000000000000000e+01,2.500000000000000000e+01,2.300000000000000000e+01,3.200000000000000000e+01,4.500000000000000111e-01,4.571361000000000000e+08
2.300000000000000000e+01,2.200000000000000000e+01,2.900000000000000000e+01,2.300000000000000000e+01,2.100000000000000000e+01,2.200000000000000000e+01,2.400000000000000000e+01,3.200000000000000000e+01,4.500000000000000111e-01,9.007769000000000000e+08
2.400000000000000000e+01,2.200000000000000000e+01,3.000000000000000000e+01,2.400000000000000000e+01,2.200000000000000000e+01,2.200000000000000000e+01,2.400000000000000000e+01,3.300000000000000000e+01,4.500000000000000111e-01,9.175018000000000000e+08
2.400000000000000000e+01,2.100000000000000000e+01,3.200000000000000000e+01,2.300000000000000000e+01,2.200000000000000000e+01,2.200000000000000000e+01,2.300000000000000000e+01,3.500000000000000000e+01,4.500000000000000111e-01,9.341966000000000000e+08
2.300000000000000000e+01,2.000000000000000000e+01,3.300000000000000000e+01,2.400000000000000000e+01,2.100000000000000000e+01,2.300000000000000000e+01,2.500000000000000000e+01,3.200000000000000000e+01,4.500000000000000111e-01,9.507605000000000000e+08
2.300000000000000000e+01,2.100000000000000000e+01,3.600000000000000000e+01,2.500000000000000000e+01,2.200000000000000000e+01,2.500000000000000000e+01,2.600000000000000000e+01,3.100000000000000000e+01,4.500000000000000111e-01,9.672145000000000000e+08
2.300000000000000000e+01,2.100000000000000000e+01,3.700000000000000000e+01,2.500000000000000000e+01,2.300000000000000000e+01,2.500000000000000000e+01,2.500000000000000000e+01,3.200000000000000000e+01,4.500000000000000111e-01,9.839213000000000000e+08
2.300000000000000000e+01,2.200000000000000000e+01,3.400000000000000000e+01,2.600000000000000000e+01,2.400000000000000000e+01,2.600000000000000000e+01,2.400000000000000000e+01,3.100000000000000000e+01,4.500000000000000111e-01,1.001393000000000000e+09
2.200000000000000000e+01,2.400000000000000000e+01,3.300000000000000000e+01,2.600000000000000000e+01,2.300000000000000000e+01,2.600000000000000000e+01,2.400000000000000000e+01,3.600000000000000000e+01,4.500000000000000111e-01,1.018786600000000000e+09
2.300000000000000000e+01,2.500000000000000000e+01,3.500000000000000000e+01,2.600000000000000000e+01,2.400000000000000000e+01,2.800000000000000000e+01,2.500000000000000000e+01,3.100000000000000000e+01,4.500000000000000111e-01,1.036404700000000000e+09
2.000000000000000000e+01,2.400000000000000000e+01,3.100000000000000000e+01,2.400000000000000000e+01,2.500000000000000000e+01,2.500000000000000000e+01,2.400000000000000000e+01,3.300000000000000000e+01,4.500000000000000111e-01,1.052636400000000000e+09
2.100000000000000000e+01,2.400000000000000000e+01,2.900000000000000000e+01,2.800000000000000000e+01,2.400000000000000000e+01,2.600000000000000000e+01,2.500000000000000000e+01,3.100000000000000000e+01,4.500000000000000111e-01,1.069146500000000000e+09
2.000000000000000000e+01,2.500000000000000000e+01,3.200000000000000000e+01,2.600000000000000000e+01,2.300000000000000000e+01,2.600000000000000000e+01,2.600000000000000000e+01,3.200000000000000000e+01,4.500000000000000111e-01,1.085250400000000000e+09
2.100000000000000000e+01,2.400000000000000000e+01,3.000000000000000000e+01,2.800000000000000000e+01,2.300000000000000000e+01,2.500000000000000000e+01,2.400000000000000000e+01,2.500000000000000000e+01,4.500000000000000111e-01,1.101241700000000000e+09
2.100000000000000000e+01,2.500000000000000000e+01,2.800000000000000000e+01,2.900000000000000000e+01,2.400000000000000000e+01,2.700000000000000000e+01,2.200000000000000000e+01,3.200000000000000000e+01,4.500000000000000111e-01,1.117225500000000000e+09
2.200000000000000000e+01,2.500000000000000000e+01,2.700000000000000000e+01,2.800000000000000000e+01,2.300000000000000000e+01,2.700000000000000000e+01,2.100000000000000000e+01,3.200000000000000000e+01,4.500000000000000111e-01,1.133673700000000000e+09
2.100000000000000000e+01,2.700000000000000000e+01,2.600000000000000000e+01,2.400000000000000000e+01,2.400000000000000000e+01,2.800000000000000000e+01,2.000000000000000000e+01,3.300000000000000000e+01,4.500000000000000111e-01,1.149667800000000000e+09
2.200000000000000000e+01,2.400000000000000000e+01,2.400000000000000000e+01,2.600000000000000000e+01,2.500000000000000000e+01,2.600000000000000000e+01,2.100000000000000000e+01,3.200000000000000000e+01,4.500000000000000111e-01,1.176884000000000000e+09
2.000000000000000000e+01,2.300000000000000000e+01,2.700000000000000000e+01,2.400000000000000000e+01,2.400000000000000000e+01,2.500000000000000000e+01,2.100000000000000000e+01,3.200000000000000000e+01,4.500000000000000111e-01,1.195778300000000000e+09
2.000000000000000000e+01,2.200000000000000000e+01,2.800000000000000000e+01,2.300000000000000000e+01,2.300000000000000000e+01,2.400000000000000000e+01,2.100000000000000000e+01,2.700000000000000000e+01,4.500000000000000111e-01,1.212436800000000000e+09
2.100000000000000000e+01,2.200000000000000000e+01,2.900000000000000000e+01,2.200000000000000000e+01,2.500000000000000000e+01,2.500000000000000000e+01,2.100000000000000000e+01,2.800000000000000000e+01,4.500000000000000111e-01,1.229202400000000000e+09
2.100000000000000000e+01,2.200000000000000000e+01,2.900000000000000000e+01,2.300000000000000000e+01,2.400000000000000000e+01,2.500000000000000000e+01,2.100000000000000000e+01,2.800000000000000000e+01,4.500000000000000111e-01,1.245089800000000000e+09
2.000000000000000000e+01,2.200000000000000000e+01,2.800000000000000000e+01,2.200000000000000000e+01,2.500000000000000000e+01,2.900000000000000000e+01,2.000000000000000000e+01,2.900000000000000000e+01,4.500000000000000111e-01,1.261279000000000000e+09
2.100000000000000000e+01,2.300000000000000000e+01,2.800000000000000000e+01,2.100000000000000000e+01,2.400000000000000000e+01,3.100000000000000000e+01,2.300000000000000000e+01,3.000000000000000000e+01,4.500000000000000111e-01,1.279072900000000000e+09
2.100000000000000000e+01,2.300000000000000000e+01,2.500000000000000000e+01,2.400000000000000000e+01,2.400000000000000000e+01,3.000000000000000000e+01,2.300000000000000000e+01,3.700000000000000000e+01,4.500000000000000111e-01,1.295677600000000000e+09
2.100000000000000000e+01,2.500000000000000000e+01,2.600000000000000000e+01,2.500000000000000000e+01,2.300000000000000000e+01,2.800000000000000000e+01,2.300000000000000000e+01,3.500000000000000000e+01,4.500000000000000111e-01,1.311747700000000000e+09
2.000000000000000000e+01,2.400000000000000000e+01,2.800000000000000000e+01,2.500000000000000000e+01,2.400000000000000000e+01,2.800000000000000000e+01,2.500000000000000000e+01,3.500000000000000000e+01,4.500000000000000111e-01,1.328807000000000000e+09
2.000000000000000000e+01,2.500000000000000000e+01,2.900000000000000000e+01,2.500000000000000000e+01,2.200000000000000000e+01,2.700000000000000000e+01,2.600000000000000000e+01,3.400000000000000000e+01,4.500000000000000111e-01,1.345307800000000000e+09
1.900000000000000000e+01,2.500000000000000000e+01,2.900000000000000000e+01,2.600000000000000000e+01,2.200000000000000000e+01,2.600000000000000000e+01,2.300000000000000000e+01,3.300000000000000000e+01,4.500000000000000111e-01,1.363001800000000000e+09
1.800000000000000000e+01,2.500000000000000000e+01,3.000000000000000000e+01,2.300000000000000000e+01,2.300000000000000000e+01,2.700000000000000000e+01,2.300000000000000000e+01,3.000000000000000000e+01,4.500000000000000111e-01,1.381087400000000000e+09
1.800000000000000000e+01,2.500000000000000000e+01,2.900000000000000000e+01,2.200000000000000000e+01,2.300000000000000000e+01,2.800000000000000000e+01,2.200000000000000000e+01,3.100000000000000000e+01,4.500000000000000111e-01,1.399352200000000000e+09
1.800000000000000000e+01,2.300000000000000000e+01,2.700000000000000000e+01,2.300000000000000000e+01,2.100000000000000000e+01,2.900000000000000000e+01,2.200000000000000000e+01,3.200000000000000000e+01,4.500000000000000111e-01,1.417662800000000000e+09
1.900000000000000000e+01,2.400000000000000000e+01,3.000000000000000000e+01,2.300000000000000000e+01,2.200000000000000000e+01,2.600000000000000000e+01,2.200000000000000000e+01,3.200000000000000000e+01,4.500000000000000111e-01,1.435454400000000000e+09
2.100000000000000000e+01,2.500000000000000000e+01,3.300000000000000000e+01,2.300000000000000000e+01,2.200000000000000000e+01,2.700000000000000000e+01,2.400000000000000000e+01,3.100000000000000000e+01,4.500000000000000111e-01,1.465686900000000000e+09
2.200000000000000000e+01,2.700000000000000000e+01,3.100000000000000000e+01,2.400000000000000000e+01,2.000000000000000000e+01,2.700000000000000000e+01,2.300000000000000000e+01,2.400000000000000000e+01,4.500000000000000111e-01,1.484498900000000000e+09
2.300000000000000000e+01,2.500000000000000000e+01,3.100000000000000000e+01,2.500000000000000000e+01,2.200000000000000000e+01,2.500000000000000000e+01,2.400000000000000000e+01,3.300000000000000000e+01,4.500000000000000111e-01,1.502741900000000000e+09
2.300000000000000000e+01,2.700000000000000000e+01,3.700000000000000000e+01,2.400000000000000000e+01,2.100000000000000000e+01,2.400000000000000000e+01,2.200000000000000000e+01,3.500000000000000000e+01,4.500000000000000111e-01,1.526134600000000000e+09
2.400000000000000000e+01,2.700000000000000000e+01,3.600000000000000000e+01,2.500000000000000000e+01,2.100000000000000000e+01,2.500000000000000000e+01,2.200000000000000000e+01,3.600000000000000000e+01,4.500000000000000111e-01,1.546698400000000000e+09
2.300000000000000000e+01,2.600000000000000000e+01,3.400000000000000000e+01,2.500000000000000000e+01,2.000000000000000000e+01,2.400000000000000000e+01,2.200000000000000000e+01,3.600000000000000000e+01,4.500000000000000111e-01,1.566705300000000000e+09
2.400000000000000000e+01,2.600000000000000000e+01,3.700000000000000000e+01,2.500000000000000000e+01,2.000000000000000000e+01,2.300000000000000000e+01,2.100000000000000000e+01,3.600000000000000000e+01,4.500000000000000111e-01,1.586665200000000000e+09
2.400000000000000000e+01,2.500000000000000000e+01,3.900000000000000000e+01,2.600000000000000000e+01,2.000000000000000000e+01,2.300000000000000000e+01,2.000000000000000000e+01,3.400000000000000000e+01,4.500000000000000111e-01,1.607093100000000000e+09
2.400000000000000000e+01,2.400000000000000000e+01,3.400000000000000000e+01,2.600000000000000000e+01,1.900000000000000000e+01,2.700000000000000000e+01,2.200000000000000000e+01,3.100000000000000000e+01,4.500000000000000111e-01,1.625916900000000000e+09
2.200000000000000000e+01,2.300000000000000000e+01,3.100000000000000000e+01,2.500000000000000000e+01,2.000000000000000000e+01,2.700000000000000000e+01,2.100000000000000000e+01,3.100000000000000000e+01,4.500000000000000111e-01,1.644224900000000000e+09
2.300000000000000000e+01,2.300000000000000000e+01,3.000000000000000000e+01,2.500000000000000000e+01,2.000000000000000000e+01,2.700000000000000000e+01,2.000000000000000000e+01,3.000000000000000000e+01,4.500000000000000111e-01,1.665535100000000000e+09
2.200000000000000000e+01,2.100000000000000000e+01,3.400000000000000000e+01,2.500000000000000000e+01,1.900000000000000000e+01,2.800000000000000000e+01,2.000000000000000000e+01,3.000000000000000000e+01,4.500000000000000111e-01,1.683716300000000000e+09
2.100000000000000000e+01,2.200000000000000000e+01,3.400000000000000000e+01,2.500000000000000000e+01,1.900000000000000000e+01,2.800000000000000000e+01,2.200000000000000000e+01,2.100000000000000000e+01,4.500000000000000111e-01,1.701695100000000000e+09
2.100000000000000000e+01,2.200000000000000000e+01,3.400000000000000000e+01,2.400000000000000000e+01,2.100000000000000000e+01,2.400000000000000000e+01,2.100000000000000000e+01,2.700000000000000000e+01,4.500000000000000111e-01,1.719215800000000000e+09
2.300000000000000000e+01,2.300000000000000000e+01,3.500000000000000000e+01,2.500000000000000000e+01,2.000000000000000000e+01,2.500000000000000000e+01,2.100000000000000000e+01,2.600000000000000000e+01,4.500000000000000111e-01,1.737366800000000000e+09
2.100000000000000000e+01,2.100000000000000000e+01,3.900000000000000000e+01,2.700000000000000000e+01,2.200000000000000000e+01,2.700000000000000000e+01,2.200000000000000000e+01,2.600000000000000000e+01,4.500000000000000111e-01,1.755304900000000000e+09
2.100000000000000000e+01,2.100000000000000000e+01,3.500000000000000000e+01,2.700000000000000000e+01,2.300000000000000000e+01,2.700000000000000000e+01,2.200000000000000000e+01,2.700000000000000000e+01,4.500000000000000111e-01,1.772967200000000000e+09
2.200000000000000000e+01,2.100000000000000000e+01,3.300000000000000000e+01,2.600000000000000000e+01,2.200000000000000000e+01,2.700000000000000000e+01,2.000000000000000000e+01,2.800000000000000000e+01,4.500000000000000111e-01,1.790770500000000000e+09
2.200000000000000000e+01,2.100000000000000000e+01,3.400000000000000000e+01,2.500000000000000000e+01,2.100000000000000000e+01,2.700000000000000000e+01,2.000000000000000000e+01,2.300000000000000000e+01,4.500000000000000111e-01,1.809313900000000000e+09
2.100000000000000000e+01,2.000000000000000000e+01,3.400000000000000000e+01,2.500000000000000000e+01,2.100000000000000000e+01,2.500000000000000000e+01,2.000000000000000000e+01,2.200000000000000000e+01,4.500000000000000111e-01,1.827660300000000000e+09
2.100000000000000000e+01,2.100000000000000000e+01,3.100000000000000000e+01,2.600000000000000000e+01,2.000000000000000000e+01,2.400000000000000000e+01,2.100000000000000000e+01,2.800000000000000000e+01,4.500000000000000111e-01,1.845395100000000000e+09
2.300000000000000000e+01,2.200000000000000000e+01,3.200000000000000000e+01,2.700000000000000000e+01,2.100000000000000000e+01,2.500000000000000000e+01,2.300000000000000000e+01,2.900000000000000000e+01,4.500000000000000111e-01,1.862670700000000000e+09
2.300000000000000000e+01,2.300000000000000000e+01,3.200000000000000000e+01,2.700000000000000000e+01,2.100000000000000000e+01,2.500000000000000000e+01,2.200000000000000000e+01,3.000000000000000000e+01,4.500000000000000111e-01,1.880485700000000000e+09
2.300000000000000000e+01,2.200000000000000000e+01,3.100000000000000000e+01,3.100000000000000000e+01,2.200000000000000000e+01,2.600000000000000000e+01,2.100000000000000000e+01,2.900000000000000000e+01,4.500000000000000111e-01,1.898668900000000000e+09
2.200000000000000000e+01,2.300000000000000000e+01,3.300000000000000000e+01,3.000000000000000000e+01,2.300000000000000000e+01,2.800000000000000000e+01,2.200000000000000000e+01,2.900000000000000000e+01,4.500000000000000111e-01,1.916513800000000000e+09
2.300000000000000000e+01,2.500000000000000000e+01,3.300000000000000000e+01,2.700000000000000000e+01,2.300000000000000000e+01,2.800000000000000000e+01,2.100000000000000000e+01,2.500000000000000000e+01,4.500000000000000111e-01,1.934110900000000000e+09
2.000000000000000000e+01,2.400000000000000000e+01,3.100000000000000000e+01,2.800000000000000000e+01,2.200000000000000000e+01,2.600000000000000000e+01,2.100000000000000000e+01,3.200000000000000000e+01,4.500000000000000111e-01,1.951813000000000000e+09
2.100000000000000000e+01,2.400000000000000000e+01,3.200000000000000000e+01,2.900000000000000000e+01,2.100000000000000000e+01,2.700000000000000000e+01,2.300000000000000000e+01,3.200000000000000000e+01,4.500000000000000111e-01,1.969431300000000000e+09
2.200000000000000000e+01,2.400000000000000000e+01,3.200000000000000000e+01,2.700000000000000000e+01,2.200000000000000000e+01,2.900000000000000000e+01,2.500000000000000000e+01,3.400000000000000000e+01,4.500000000000000111e-01,1.988349500000000000e+09
2.200000000000000000e+01,2.900000000000000000e+01,3.100000000000000000e+01,2.600000000000000000e+01,2.200000000000000000e+01,2.700000000000000000e+01,2.300000000000000000e+01,3.400000000000000000e+01,4.500000000000000111e-01,2.005566700000000000e+09
2.200000000000000000e+01,2.700000000000000000e+01,3.000000000000000000e+01,2.700000000000000000e+01,2.300000000000000000e+01,2.400000000000000000e+01,2.300000000000000000e+01,3.500000000000000000e+01,4.500000000000000111e-01,2.023069400000000000e+09
2.200000000000000000e+01,2.800000000000000000e+01,3.100000000000000000e+01,2.700000000000000000e+01,2.500000000000000000e+01,2.500000000000000000e+01,2.200000000000000000e+01,3.200000000000000000e+01,4.500000000000000111e-01,2.040839400000000000e+09
2.100000000000000000e+01,2.800000000000000000e+01,3.000000000000000000e+01,2.600000000000000000e+01,2.700000000000000000e+01,2.500000000000000000e+01,2.200000000000000000e+01,3.100000000000000000e+01,4.500000000000000111e-01,2.058286800000000000e+09
2.300000000000000000e+01,2.900000000000000000e+01,2.900000000000000000e+01,2.600000000000000000e+01,2.600000000000000000e+01,2.400000000000000000e+01,2.100000000000000000e+01,3.000000000000000000e+01,4.500000000000000111e-01,2.077615000000000000e+09
2.200000000000000000e+01,2.500000000000000000e+01,2.600000000000000000e+01,2.600000000000000000e+01,2.600000000000000000e+01,2.400000000000000000e+01,2.100000000000000000e+01,3.300000000000000000e+01,4.500000000000000111e-01,2.095411900000000000e+09
2.400000000000000000e+01,2.400000000000000000e+01,3.000000000000000000e+01,2.600000000000000000e+01,2.500000000000000000e+01,2.500000000000000000e+01,2.000000000000000000e+01,3.300000000000000000e+01,4.500000000000000111e-01,2.114164400000000000e+09
2.500000000000000000e+01,2.300000000000000000e+01,3.100000000000000000e+01,2.600000000000000000e+01,2.300000000000000000e+01,2.800000000000000000e+01,2.000000000000000000e+01,2.700000000000000000e+01,4.500000000000000111e-01,2.132455000000000000e+09
2.500000000000000000e+01,2.300000000000000000e+01,3.400000000000000000e+01,2.400000000000000000e+01,2.200000000000000000e+01,2.800000000000000000e+01,2.100000000000000000e+01,2.700000000000000000e+01,4.500000000000000111e-01,2.150429800000000000e+09
2.400000000000000000e+01,2.500000000000000000e+01,3.400000000000000000e+01,2.300000000000000000e+01,2.200000000000000000e+01,3.000000000000000000e+01,2.100000000000000000e+01,3.100000000000000000e+01,4.500000000000000111e-01,2.168188900000000000e+09
2.500000000000000000e+01,2.300000000000000000e+01,3.200000000000000000e+01,2.200000000000000000e+01,2.200000000000000000e+01,2.900000000000000000e+01,2.100000000000000000e+01,2.700000000000000000e+01,4.500000000000000111e-01,2.187315900000000000e+09
2.300000000000000000e+01,2.400000000000000000e+01,3.200000000000000000e+01,2.000000000000000000e+01,2.100000000000000000e+01,2.800000000000000000e+01,2.100000000000000000e+01,2.900000000000000000e+01,4.500000000000000111e-01,2.205909000000000000e+09
2.400000000000000000e+01,2.600000000000000000e+01,2.900000000000000000e+01,2.100000000000000000e+01,2.100000000000000000e+01,2.500000000000000000e+01,2.300000000000000000e+01,2.900000000000000000e+01,4.500000000000000111e-01,2.223563100000000000e+09
2.400000000000000000e+01,2.500000000000000000e+01,2.800000000000000000e+01,2.100000000000000000e+01,2.200000000000000000e+01,2.600000000000000000e+01,2.100000000000000000e+01,2.800000000000000000e+01,4.500000000000000111e-01,2.241608500000000000e+09
2.200000000000000000e+01,2.500000000000000000e+01,3.000000000000000000e+01,2.300000000000000000e+01,2.400000000000000000e+01,2.400000000000000000e+01,2.100000000000000000e+01,2.200000000000000000e+01,4.500000000000000111e-01,2.260680100000000000e+09
2.100000000000000000e+01,2.400000000000000000e+01,3.200000000000000000e+01,2.400000000000000000e+01,2.500000000000000000e+01,2.500000000000000000e+01,2.100000000000000000e+01,2.900000000000000000e+01,4.500000000000000111e-01,2.279044700000000000e+09
2.100000000000000000e+01,2.400000000000000000e+01,3.000000000000000000e+01,2.400000000000000000e+01,2.500000000000000000e+01,2.600000000000000000e+01,2.200000000000000000e+01,2.800000000000000000e+01,4.500000000000000111e-01,2.296607600000000000e+09
2.000000000000000000e+01,2.600000000000000000e+01,3.000000000000000000e+01,2.500000000000000000e+01,2.600000000000000000e+01,2.800000000000000000e+01,2.000000000000000000e+01,2.800000000000000000e+01,4.500000000000000111e-01,2.314582900000000000e+09
2.200000000000000000e+01,2.700000000000000000e+01,2.900000000000000000e+01,2.400000000000000000e+01,2.600000000000000000e+01,3.000000000000000000e+01,2.100000000000000000e+01,3.000000000000000000e+01,4.500000000000000111e-01,2.332852800000000000e+09
2.200000000000000000e+01,2.600000000000000000e+01,2.700000000000000000e+01,2.300000000000000000e+01,2.400000000000000000e+01,2.700000000000000000e+01,2.000000000000000000e+01,3.200000000000000000e+01,4.500000000000000111e-01,2.351485300000000000e+09
2.300000000000000000e+01,2.700000000000000000e+01,2.800000000000000000e+01,2.400000000000000000e+01,2.600000000000000000e+01,2.700000000000000000e+01,2.000000000000000000e+01,2.600000000000000000e+01,4.500000000000000111e-01,2.368990600000000000e+09
2.300000000000000000e+01,2.700000000000000000e+01,3.200000000000000000e+01,2.300000000000000000e+01,2.400000000000000000e+01,2.800000000000000000e+01,2.000000000000000000e+01,2.400000000000000000e+01,4.500000000000000111e-01,2.387301400000000000e+09
2.300000000000000000e+01,2.600000000000000000e+01,3.200000000000000000e+01,2.100000000000000000e+01,2.300000000000000000e+01,2.700000000000000000e+01,2.100000000000000000e+01,3.000000000000000000e+01,4.500000000000000111e-01,2.406737000000000000e+09
2.100000000000000000e+01,2.400000000000000000e+01,3.200000000000000000e+01,2.400000000000000000e+01,2.200000000000000000e+01,2.400000000000000000e+01,2.100000000000000000e+01,2.900000000000000000e+01,4.500000000000000111e-01,2.426762400000000000e+09
2.100000000000000000e+01,2.400000000000000000e+01,3.200000000000000000e+01,2.500000000000000000e+01,2.300000000000000000e+01,2.800000000000000000e+01,2.200000000000000000e+01,2.900000000000000000e+01,4.500000000000000111e-01,2.445753000000000000e+09
1.800000000000000000e+01,2.400000000000000000e+01,3.100000000000000000e+01,2.500000000000000000e+01,2.200000000000000000e+01,2.900000000000000000e+01,2.200000000000000000e+01,2.900000000000000000e+01,4.500000000000000111e-01,2.463291900000000000e+09
1.900000000000000000e+01,2.300000000000000000e+01,2.700000000000000000e+01,2.400000000000000000e+01,2.200000000000000000e+01,2.700000000000000000e+01,2.000000000000000000e+01,3.000000000000000000e+01,4.500000000000000111e-01,2.480879900000000000e+09
1.800000000000000000e+01,2.200000000000000000e+01,3.000000000000000000e+01,2.400000000000000000e+01,2.400000000000000000e+01,2.800000000000000000e+01,2.000000000000000000e+01,2.400000000000000000e+01,4.500000000000000111e-01,2.498762200000000000e+09
1.800000000000000000e+01,2.400000000000000000e+01,3.100000000000000000e+01,2.400000000000000000e+01,2.300000000000000000e+01,3.000000000000000000e+01,2.100000000000000000e+01,2.500000000000000000e+01,4.500000000000000111e-01,2.517189800000000000e+09
1.900000000000000000e+01,2.200000000000000000e+01,3.200000000000000000e+01,2.300000000000000000e+01,2.200000000000000000e+01,2.800000000000000000e+01,1.900000000000000000e+01,2.800000000000000000e+01,4.500000000000000111e-01,2.534492500000000000e+09
2.200000000000000000e+01,2.200000000000000000e+01,3.200000000000000000e+01,2.300000000000000000e+01,2.100000000000000000e+01,2.600000000000000000e+01,1.900000000000000000e+01,3.000000000000000000e+01,4.500000000000000111e-01,2.553510200000000000e+09
2.100000000000000000e+01,2.200000000000000000e+01,3.300000000000000000e+01,2.500000000000000000e+01,2.100000000000000000e+01,2.800000000000000000e+01,2.000000000000000000e+01,3.000000000000000000e+01,4.500000000000000111e-01,2.572558700000000000e+09
2.100000000000000000e+01,2.300000000000000000e+01,2.900000000000000000e+01,2.400000000000000000e+01,1.900000000000000000e+01,2.600000000000000000e+01,2.000000000000000000e+01,3.100000000000000000e+01,4.500000000000000111e-01,2.590576400000000000e+09
2.200000000000000000e+01,2.300000000000000000e+01,2.900000000000000000e+01,2.500000000000000000e+01,1.900000000000000000e+01,2.700000000000000000e+01,2.000000000000000000e+01,3.600000000000000000e+01,4.500000000000000111e-01,2.609501300000000000e+09
2.200000000000000000e+01,2.300000000000000000e+01,2.800000000000000000e+01,2.600000000000000000e+01,1.900000000000000000e+01,2.700000000000000000e+01,2.200000000000000000e+01,3.600000000000000000e+01,4.500000000000000111e-01,2.627334000000000000e+09
2.100000000000000000e+01,2.300000000000000000e+01,3.000000000000000000e+01,2.800000000000000000e+01,2.100000000000000000e+01,2.700000000000000000e+01,2.000000000000000000e+01,3.500000000000000000e+01,4.500000000000000111e-01,2.645212500000000000e+09
2.100000000000000000e+01,2.200000000000000000e+01,3.000000000000000000e+01,2.600000000000000000e+01,2.200000000000000000e+01,2.700000000000000000e+01,2.000000000000000000e+01,3.400000000000000000e+01,4.500000000000000111e-01,2.663168100000000000e+09
2.200000000000000000e+01,2.200000000000000000e+01,3.700000000000000000e+01,3.000000000000000000e+01,2.300000000000000000e+01,3.000000000000000000e+01,2.000000000000000000e+01,3.400000000000000000e+01,4.500000000000000111e-01,2.680927300000000000e+09
2.200000000000000000e+01,2.200000000000000000e+01,3.600000000000000000e+01,2.900000000000000000e+01,2.400000000000000000e+01,2.600000000000000000e+01,2.000000000000000000e+01,2.600000000000000000e+01,4.500000000000000111e-01,2.698963000000000000e+09
2.200000000000000000e+01,2.300000000000000000e+01,3.600000000000000000e+01,3.000000000000000000e+01,2.400000000000000000e+01,2.400000000000000000e+01,2.100000000000000000e+01,2.800000000000000000e+01,4.500000000000000111e-01,2.717368400000000000e+09
2.300000000000000000e+01,2.700000000000000000e+01,3.800000000000000000e+01,2.700000000000000000e+01,2.300000000000000000e+01,2.500000000000000000e+01,2.300000000000000000e+01,2.900000000000000000e+01,4.500000000000000111e-01,2.734679300000000000e+09
2.200000000000000000e+01,2.800000000000000000e+01,4.000000000000000000e+01,2.700000000000000000e+01,2.300000000000000000e+01,2.600000000000000000e+01,2.400000000000000000e+01,2.900000000000000000e+01,4.500000000000000111e-01,2.752640100000000000e+09
2.400000000000000000e+01,2.600000000000000000e+01,3.400000000000000000e+01,2.400000000000000000e+01,2.100000000000000000e+01,2.500000000000000000e+01,2.400000000000000000e+01,2.900000000000000000e+01,4.500000000000000111e-01,2.770937300000000000e+09
2.300000000000000000e+01,2.500000000000000000e+01,3.500000000000000000e+01,2.500000000000000000e+01,2.200000000000000000e+01,2.600000000000000000e+01,2.400000000000000000e+01,2.900000000000000000e+01,4.500000000000000111e-01,2.789360900000000000e+09
2.500000000000000000e+01,2.500000000000000000e+01,3.400000000000000000e+01,2.300000000000000000e+01,2.100000000000000000e+01,2.700000000000000000e+01,2.500000000000000000e+01,3.200000000000000000e+01,4.500000000000000111e-01,2.807694000000000000e+09
2.400000000000000000e+01,2.100000000000000000e+01,3.000000000000000000e+01,2.500000000000000000e+01,2.100000000000000000e+01,2.700000000000000000e+01,2.500000000000000000e+01,3.200000000000000000e+01,4.500000000000000111e-01,2.826606100000000000e+09
2.400000000000000000e+01,1.900000000000000000e+01,2.600000000000000000e+01,2.600000000000000000e+01,2.100000000000000000e+01,2.700000000000000000e+01,2.400000000000000000e+01,3.300000000000000000e+01,4.500000000000000111e-01,2.844990600000000000e+09
2.300000000000000000e+01,1.700000000000000000e+01,3.000000000000000000e+01,2.600000000000000000e+01,2.200000000000000000e+01,2.600000000000000000e+01,2.600000000000000000e+01,3.200000000000000000e+01,4.500000000000000111e-01,2.862190000000000000e+09
2.400000000000000000e+01,2.000000000000000000e+01,3.100000000000000000e+01,2.600000000000000000e+01,2.100000000000000000e+01,2.700000000000000000e+01,2.500000000000000000e+01,3.300000000000000000e+01,4.500000000000000111e-01,2.881228900000000000e+09
2.300000000000000000e+01,2.000000000000000000e+01,3.200000000000000000e+01,2.600000000000000000e+01,2.600000000000000000e+01,2.700000000000000000e+01,2.300000000000000000e+01,2.900000000000000000e+01,4.500000000000000111e-01,2.898838500000000000e+09
2.200000000000000000e+01,2.300000000000000000e+01,3.300000000000000000e+01,2.600000000000000000e+01,2.500000000000000000e+01,2.700000000000000000e+01,2.200000000000000000e+01,3.300000000000000000e+01,4.500000000000000111e-01,2.918761600000000000e+09
2.300000000000000000e+01,2.500000000000000000e+01,3.900000000000000000e+01,2.600000000000000000e+01,2.500000000000000000e+01,2.500000000000000000e+01,2.200000000000000000e+01,3.400000000000000000e+01,4.500000000000000111e-01,2.937357600000000000e+09
2.300000000000000000e+01,2.600000000000000000e+01,4.400000000000000000e+01,2.700000000000000000e+01,2.500000000000000000e+01,2.400000000000000000e+01,2.200000000000000000e+01,3.500000000000000000e+01,4.500000000000000111e-01,2.954800900000000000e+09
2.300000000000000000e+01,2.400000000000000000e+01,4.400000000000000000e+01,2.700000000000000000e+01,2.500000000000000000e+01,2.400000000000000000e+01,2.200000000000000000e+01,3.500000000000000000e+01,4.500000000000000111e-01,2.972646700000000000e+09
2.200000000000000000e+01,2.600000000000000000e+01,4.400000000000000000e+01,2.600000000000000000e+01,2.200000000000000000e+01,2.400000000000000000e+01,2.300000000000000000e+01,3.300000000000000000e+01,4.500000000000000111e-01,2.991132100000000000e+09
2.300000000000000000e+01,2.300000000000000000e+01,4.300000000000000000e+01,2.500000000000000000e+01,2.300000000000000000e+01,2.300000000000000000e+01,2.300000000000000000e+01,3.100000000000000000e+01,4.500000000000000111e-01,3.010174200000000000e+09
2.200000000000000000e+01,2.200000000000000000e+01,3.900000000000000000e+01,2.400000000000000000e+01,2.400000000000000000e+01,2.500000000000000000e+01,2.300000000000000000e+01,2.900000000000000000e+01,4.500000000000000111e-01,3.029833300000000000e+09
2.100000000000000000e+01,2.400000000000000000e+01,2.900000000000000000e+01,2.300000000000000000e+01,2.300000000000000000e+01,2.500000000000000000e+01,2.200000000000000000e+01,2.800000000000000000e+01,4.500000000000000111e-01,3.047972300000000000e+09
2.100000000000000000e+01,2.600000000000000000e+01,3.200000000000000000e+01,2.300000000000000000e+01,2.500000000000000000e+01,2.400000000000000000e+01,2.200000000000000000e+01,2.600000000000000000e+01,4.500000000000000111e-01,3.066040200000000000e+09
2.100000000000000000e+01,2.300000000000000000e+01,3.100000000000000000e+01,2.300000000000000000e+01,2.300000000000000000e+01,2.500000000000000000e+01,2.300000000000000000e+01,2.700000000000000000e+01,4.500000000000000111e-01,3.084018000000000000e+09
2.100000000000000000e+01,2.300000000000000000e+01,3.200000000000000000e+01,2.300000000000000000e+01,2.300000000000000000e+01,2.600000000000000000e+01,2.300000000000000000e+01,3.000000000000000000e+01,4.500000000000000111e-01,3.102860200000000000e+09
2.100000000000000000e+01,2.400000000000000000e+01,3.100000000000000000e+01,2.300000000000000000e+01,2.300000000000000000e+01,2.800000000000000000e+01,2.300000000000000000e+01,2.900000000000000000e+01,4.500000000000000111e-01,3.122215900000000000e+09
2.000000000000000000e+01,2.300000000000000000e+01,3.700000000000000000e+01,2.000000000000000000e+01,2.300000000000000000e+01,2.800000000000000000e+01,2.400000000000000000e+01,3.100000000000000000e+01,4.500000000000000111e-01,3.140345200000000000e+09
2.200000000000000000e+01,2.200000000000000000e+01,3.300000000000000000e+01,2.100000000000000000e+01,2.000000000000000000e+01,2.700000000000000000e+01,2.400000000000000000e+01,3.100000000000000000e+01,4.500000000000000111e-01,3.158457100000000000e+09
2.300000000000000000e+01,2.400000000000000000e+01,3.400000000000000000e+01,2.100000000000000000e+01,2.100000000000000000e+01,2.600000000000000000e+01,2.300000000000000000e+01,3.100000000000000000e+01,4.500000000000000111e-01,3.176708500000000000e+09
2.400000000000000000e+01,2.300000000000000000e+01,3.400000000000000000e+01,2.200000000000000000e+01,2.200000000000000000e+01,2.600000000000000000e+01,2.300000000000000000e+01,3.200000000000000000e+01,4.500000000000000111e-01,3.194727700000000000e+09
2.200000000000000000e+01,2.600000000000000000e+01,3.700000000000000000e+01,2.200000000000000000e+01,1.900000000000000000e+01,2.500000000000000000e+01,2.400000000000000000e+01,3.300000000000000000e+01,4.500000000000000111e-01,3.213744100000000000e+09
2.500000000000000000e+01,2.400000000000000000e+01,3.000000000000000000e+01,2.200000000000000000e+01,2.200000000000000000e+01,2.600000000000000000e+01,2.200000000000000000e+01,3.300000000000000000e+01,4.500000000000000111e-01,3.231551400000000000e+09
2.400000000000000000e+01,2.600000000000000000e+01,3.200000000000000000e+01,2.200000000000000000e+01,2.300000000000000000e+01,2.700000000000000000e+01,2.200000000000000000e+01,3.400000000000000000e+01,4.500000000000000111e-01,3.248590800000000000e+09
2.400000000000000000e+01,2.300000000000000000e+01,3.200000000000000000e+01,2.100000000000000000e+01,2.300000000000000000e+01,2.500000000000000000e+01,2.100000000000000000e+01,3.300000000000000000e+01,4.500000000000000111e-01,3.265687500000000000e+09
2.400000000000000000e+01,2.800000000000000000e+01,3.200000000000000000e+01,2.400000000000000000e+01,2.200000000000000000e+01,2.500000000000000000e+01,2.100000000000000000e+01,3.800000000000000000e+01,4.500000000000000111e-01,3.282788000000000000e+09
2.400000000000000000e+01,2.500000000000000000e+01,2.900000000000000000e+01,2.400000000000000000e+01,2.400000000000000000e+01,2.400000000000000000e+01,2.100000000000000000e+01,3.700000000000000000e+01,4.500000000000000111e-01,3.299153300000000000e+09
2.100000000000000000e+01,2.700000000000000000e+01,3.300000000000000000e+01,2.500000000000000000e+01,2.200000000000000000e+01,2.300000000000000000e+01,2.100000000000000000e+01,3.700000000000000000e+01,4.500000000000000111e-01,3.315920400000000000e+09
2.100000000000000000e+01,2.600000000000000000e+01,3.200000000000000000e+01,2.600000000000000000e+01,2.200000000000000000e+01,2.400000000000000000e+01,2.100000000000000000e+01,3.500000000000000000e+01,4.500000000000000111e-01,3.333609600000000000e+09
2.200000000000000000e+01,2.800000000000000000e+01,3.200000000000000000e+01,2.600000000000000000e+01,2.300000000000000000e+01,2.500000000000000000e+01,2.100000000000000000e+01,4.100000000000000000e+01,4.500000000000000111e-01,3.351244900000000000e+09
2.400000000000000000e+01,2.500000000000000000e+01,3.100000000000000000e+01,2.300000000000000000e+01,2.300000000000000000e+01,2.700000000000000000e+01,2.300000000000000000e+01,3.200000000000000000e+01,4.500000000000000111e-01,3.367836400000000000e+09
2.400000000000000000e+01,2.700000000000000000e+01,3.100000000000000000e+01,2.300000000000000000e+01,2.200000000000000000e+01,2.700000000000000000e+01,2.100000000000000000e+01,3.200000000000000000e+01,4.500000000000000111e-01,3.384901300000000000e+09
2.400000000000000000e+01,2.400000000000000000e+01,3.100000000000000000e+01,2.300000000000000000e+01,2.200000000000000000e+01,2.700000000000000000e+01,2.100000000000000000e+01,3.100000000000000000e+01,4.500000000000000111e-01,3.404171100000000000e+09
2.600000000000000000e+01,2.500000000000000000e+01,3.500000000000000000e+01,2.700000000000000000e+01,2.200000000000000000e+01,2.700000000000000000e+01,2.300000000000000000e+01,3.200000000000000000e+01,4.500000000000000111e-01,3.421130400000000000e+09
2.500000000000000000e+01,2.300000000000000000e+01,3.500000000000000000e+01,2.700000000000000000e+01,2.000000000000000000e+01,2.600000000000000000e+01,2.400000000000000000e+01,2.500000000000000000e+01,4.500000000000000111e-01,3.438447700000000000e+09
2.300000000000000000e+01,2.400000000000000000e+01,3.500000000000000000e+01,2.700000000000000000e+01,2.100000000000000000e+01,2.500000000000000000e+01,2.200000000000000000e+01,3.000000000000000000e+01,4.500000000000000111e-01,3.455135300000000000e+09
2.400000000000000000e+01,2.400000000000000000e+01,4.200000000000000000e+01,2.700000000000000000e+01,2.000000000000000000e+01,2.500000000000000000e+01,2.300000000000000000e+01,3.000000000000000000e+01,4.500000000000000111e-01,3.473516300000000000e+09
2.400000000000000000e+01,2.500000000000000000e+01,4.000000000000000000e+01,2.500000000000000000e+01,2.200000000000000000e+01,2.600000000000000000e+01,2.200000000000000000e+01,3.300000000000000000e+01,4.500000000000000111e-01,3.492057200000000000e+09
2.300000000000000000e+01,2.500000000000000000e+01,3.700000000000000000e+01,2.200000000000000000e+01,2.000000000000000000e+01,2.600000000000000000e+01,2.200000000000000000e+01,3.200000000000000000e+01,4.500000000000000111e-01,3.509763400000000000e+09
2.200000000000000000e+01,2.600000000000000000e+01,3.600000000000000000e+01,2.200000000000000000e+01,2.200000000000000000e+01,2.700000000000000000e+01,2.100000000000000000e+01,3.100000000000000000e+01,4.500000000000000111e-01,3.526811000000000000e+09
2.200000000000000000e+01,2.400000000000000000e+01,3.900000000000000000e+01,2.300000000000000000e+01,2.100000000000000000e+01,2.500000000000000000e+01,2.200000000000000000e+01,2.800000000000000000e+01,4.500000000000000111e-01,3.544213300000000000e+09
2.100000000000000000e+01,2.700000000000000000e+01,3.300000000000000000e+01,2.200000000000000000e+01,2.100000000000000000e+01,2.600000000000000000e+01,2.300000000000000000e+01,2.900000000000000000e+01,4.500000000000000111e-01,3.560603400000000000e+09
2.200000000000000000e+01,2.700000000000000000e+01,3.300000000000000000e+01,2.600000000000000000e+01,2.200000000000000000e+01,2.500000000000000000e+01,2.300000000000000000e+01,2.600000000000000000e+01,4.500000000000000111e-01,3.577470200000000000e+09
2.300000000000000000e+01,2.700000000000000000e+01,3.700000000000000000e+01,2.700000000000000000e+01,2.200000000000000000e+01,2.500000000000000000e+01,2.300000000000000000e+01,2.700000000000000000e+01,4.500000000000000111e-01,3.594665300000000000e+09
2.300000000000000000e+01,2.900000000000000000e+01,4.100000000000000000e+01,2.700000000000000000e+01,2.300000000000000000e+01,2.300000000000000000e+01,2.200000000000000000e+01,2.800000000000000000e+01,4.500000000000000111e-01,3.611915900000000000e+09
2.400000000000000000e+01,3.000000000000000000e+01,3.800000000000000000e+01,2.600000000000000000e+01,2.300000000000000000e+01,2.400000000000000000e+01,2.200000000000000000e+01,3.400000000000000000e+01,4.500000000000000111e-01,3.629979500000000000e+09
2.400000000000000000e+01,2.600000000000000000e+01,3.800000000000000000e+01,2.700000000000000000e+01,2.200000000000000000e+01,2.400000000000000000e+01,2.100000000000000000e+01,3.300000000000000000e+01,4.500000000000000111e-01,3.647816900000000000e+09
2.200000000000000000e+01,2.500000000000000000e+01,3.600000000000000000e+01,2.500000000000000000e+01,2.200000000000000000e+01,2.500000000000000000e+01,2.100000000000000000e+01,3.400000000000000000e+01,4.500000000000000111e-01,3.665018000000000000e+09
2.200000000000000000e+01,2.600000000000000000e+01,3.400000000000000000e+01,2.500000000000000000e+01,2.100000000000000000e+01,2.600000000000000000e+01,1.900000000000000000e+01,3.400000000000000000e+01,4.500000000000000111e-01,3.682525400000000000e+09
2.100000000000000000e+01,2.400000000000000000e+01,2.900000000000000000e+01,2.600000000000000000e+01,2.100000000000000000e+01,2.600000000000000000e+01,2.000000000000000000e+01,3.300000000000000000e+01,4.500000000000000111e-01,3.700748700000000000e+09
2.000000000000000000e+01,2.200000000000000000e+01,3.100000000000000000e+01,2.700000000000000000e+01,2.100000000000000000e+01,2.600000000000000000e+01,2.000000000000000000e+01,2.500000000000000000e+01,4.500000000000000111e-01,3.719430300000000000e+09
2.200000000000000000e+01,2.300000000000000000e+01,3.100000000000000000e+01,2.800000000000000000e+01,2.300000000000000000e+01,2.600000000000000000e+01,2.200000000000000000e+01,2.300000000000000000e+01,4.500000000000000111e-01,3.738419800000000000e+09
2.100000000000000000e+01,2.300000000000000000e+01,3.200000000000000000e+01,2.800000000000000000e+01,2.200000000000000000e+01,2.600000000000000000e+01,2.100000000000000000e+01,2.400000000000000000e+01,4.500000000000000111e-01,3.757188800000000000e+09
2.200000000000000000e+01,2.200000000000000000e+01,2.800000000000000000e+01,2.600000000000000000e+01,2.400000000000000000e+01,2.700000000000000000e+01,2.300000000000000000e+01,2.500000000000000000e+01,4.500000000000000111e-01,3.775026700000000000e+09
2.200000000000000000e+01,2.300000000000000000e+01,3.000000000000000000e+01,2.600000000000000000e+01,2.300000000000000000e+01,2.900000000000000000e+01,2.400000000000000000e+01,2.500000000000000000e+01,4.500000000000000111e-01,3.792718300000000000e+09
2.200000000000000000e+01,2.300000000000000000e+01,2.900000000000000000e+01,2.400000000000000000e+01,2.400000000000000000e+01,3.300000000000000000e+01,2.500000000000000000e+01,2.800000000000000000e+01,4.500000000000000111e-01,3.811473800000000000e+09
2.200000000000000000e+01,2.300000000000000000e+01,2.800000000000000000e+01,2.600000000000000000e+01,2.400000000000000000e+01,3.100000000000000000e+01,2.400000000000000000e+01,3.000000000000000000e+01,4.500000000000000111e-01,3.831715700000000000e+09
2.200000000000000000e+01,2.300000000000000000e+01,2.800000000000000000e+01,2.500000000000000000e+01,2.500000000000000000e+01,2.900000000000000000e+01,2.400000000000000000e+01,3.100000000000000000e+01,4.500000000000000111e-01,3.851456200000000000e+09
2.000000000000000000e+01,2.400000000000000000e+01,2.700000000000000000e+01,2.700000000000000000e+01,2.500000000000000000e+01,2.900000000000000000e+01,2.400000000000000000e+01,3.100000000000000000e+01,4.500000000000000111e-01,3.872669600000000000e+09
2.200000000000000000e+01,2.300000000000000000e+01,2.700000000000000000e+01,2.500000000000000000e+01,2.400000000000000000e+01,2.700000000000000000e+01,2.300000000000000000e+01,3.100000000000000000e+01,4.500000000000000111e-01,3.892318200000000000e+09
2.300000000000000000e+01,2.400000000000000000e+01,2.800000000000000000e+01,2.600000000000000000e+01,2.400000000000000000e+01,2.400000000000000000e+01,2.300000000000000000e+01,3.100000000000000000e+01,4.500000000000000111e-01,3.914512600000000000e+09
2.200000000000000000e+01,2.400000000000000000e+01,2.800000000000000000e+01,2.500000000000000000e+01,2.300000000000000000e+01,2.400000000000000000e+01,2.200000000000000000e+01,3.100000000000000000e+01,4.500000000000000111e-01,3.932372200000000000e+09
2.300000000000000000e+01,2.600000000000000000e+01,2.900000000000000000e+01,2.600000000000000000e+01,2.400000000000000000e+01,2.700000000000000000e+01,2.400000000000000000e+01,3.000000000000000000e+01,4.500000000000000111e-01,3.950696900000000000e+09
2.300000000000000000e+01,2.600000000000000000e+01,2.900000000000000000e+01,2.500000000000000000e+01,2.300000000000000000e+01,2.700000000000000000e+01,2.300000000000000000e+01,3.000000000000000000e+01,4.500000000000000111e-01,3.972860300000000000e+09
2.200000000000000000e+01,2.700000000000000000e+01,2.900000000000000000e+01,2.600000000000000000e+01,2.600000000000000000e+01,2.700000000000000000e+01,2.400000000000000000e+01,3.300000000000000000e+01,4.500000000000000111e-01,3.998446900000000000e+09
2.100000000000000000e+01,2.500000000000000000e+01,2.700000000000000000e+01,2.600000000000000000e+01,2.800000000000000000e+01,2.800000000000000000e+01,2.400000000000000000e+01,3.200000000000000000e+01,4.500000000000000111e-01,4.025941400000000000e+09
2.100000000000000000e+01,2.400000000000000000e+01,2.600000000000000000e+01,2.500000000000000000e+01,2.700000000000000000e+01,3.100000000000000000e+01,2.500000000000000000e+01,3.000000000000000000e+01,4.500000000000000111e-01,4.048032000000000000e+09
2.000000000000000000e+01,2.400000000000000000e+01,2.700000000000000000e+01,2.500000000000000000e+01,2.600000000000000000e+01,3.000000000000000000e+01,2.300000000000000000e+01,2.900000000000000000e+01,4.500000000000000111e-01,4.067798700000000000e+09
2.100000000000000000e+01,2.400000000000000000e+01,3.000000000000000000e+01,2.600000000000000000e+01,2.600000000000000000e+01,2.800000000000000000e+01,2.400000000000000000e+01,2.800000000000000000e+01,4.500000000000000111e-01,4.089164500000000000e+09
2.100000000000000000e+01,2.500000000000000000e+01,3.200000000000000000e+01,2.700000000000000000e+01,2.400000000000000000e+01,2.800000000000000000e+01,2.400000000000000000e+01,2.900000000000000000e+01,4.500000000000000111e-01,4.113927400000000000e+09
2.200000000000000000e+01,2.700000000000000000e+01,3.200000000000000000e+01,2.800000000000000000e+01,2.300000000000000000e+01,2.600000000000000000e+01,2.300000000000000000e+01,3.000000000000000000e+01,4.500000000000000111e-01,4.134688400000000000e+09
2.400000000000000000e+01,2.800000000000000000e+01,3.700000000000000000e+01,2.700000000000000000e+01,2.500000000000000000e+01,2.200000000000000000e+01,2.300000000000000000e+01,3.100000000000000000e+01,4.500000000000000111e-01,4.157530000000000000e+09
2.400000000000000000e+01,2.700000000000000000e+01,3.900000000000000000e+01,2.600000000000000000e+01,2.500000000000000000e+01,2.100000000000000000e+01,2.300000000000000000e+01,3.000000000000000000e+01,4.500000000000000111e-01,4.175915400000000000e+09
2.400000000000000000e+01,2.900000000000000000e+01,3.900000000000000000e+01,2.600000000000000000e+01,2.400000000000000000e+01,2.200000000000000000e+01,2.300000000000000000e+01,3.200000000000000000e+01,4.500000000000000111e-01,4.196597000000000000e+09
2.400000000000000000e+01,2.800000000000000000e+01,3.600000000000000000e+01,2.500000000000000000e+01,2.400000000000000000e+01,2.200000000000000000e+01,2.300000000000000000e+01,3.100000000000000000e+01,4.500000000000000111e-01,4.215582100000000000e+09
2.300000000000000000e+01,2.600000000000000000e+01,3.600000000000000000e+01,2.300000000000000000e+01,2.300000000000000000e+01,2.100000000000000000e+01,2.100000000000000000e+01,2.900000000000000000e+01,4.500000000000000111e-01,4.235227300000000000e+09
2.100000000000000000e+01,2.500000000000000000e+01,3.000000000000000000e+01,2.300000000000000000e+01,2.300000000000000000e+01,2.100000000000000000e+01,2.100000000000000000e+01,3.200000000000000000e+01,4.500000000000000111e-01,4.254102900000000000e+09
2.300000000000000000e+01,2.300000000000000000e+01,2.900000000000000000e+01,2.300000000000000000e+01,2.400000000000000000e+01,2.600000000000000000e+01,2.200000000000000000e+01,3.400000000000000000e+01,4.500000000000000111e-01,4.273281900000000000e+09
2.200000000000000000e+01,2.200000000000000000e+01,2.800000000000000000e+01,2.300000000000000000e+01,2.400000000000000000e+01,2.500000000000000000e+01,2.200000000000000000e+01,3.400000000000000000e+01,4.500000000000000111e-01,4.291922700000000000e+09
2.100000000000000000e+01,2.200000000000000000e+01,3.100000000000000000e+01,2.300000000000000000e+01,2.600000000000000000e+01,2.500000000000000000e+01,2.100000000000000000e+01,3.400000000000000000e+01,4.500000000000000111e-01,4.310295500000000000e+09
2.100000000000000000e+01,2.300000000000000000e+01,3.200000000000000000e+01,2.300000000000000000e+01,2.400000000000000000e+01,2.500000000000000000e+01,2.300000000000000000e+01,3.500000000000000000e+01,4.500000000000000111e-01,4.328736500000000000e+09
2.100000000000000000e+01,2.300000000000000000e+01,3.100000000000000000e+01,2.400000000000000000e+01,2.400000000000000000e+01,2.500000000000000000e+01,2.400000000000000000e+01,3.500000000000000000e+01,4.500000000000000111e-01,4.348133700000000000e+09
1.900000000000000000e+01,2.400000000000000000e+01,3.200000000000000000e+01,2.400000000000000000e+01,2.300000000000000000e+01,2.400000000000000000e+01,2.200000000000000000e+01,3.500000000000000000e+01,4.500000000000000111e-01,4.367568600000000000e+09
2.100000000000000000e+01,2.200000000000000000e+01,3.100000000000000000e+01,2.500000000000000000e+01,2.400000000000000000e+01,2.600000000000000000e+01,2.200000000000000000e+01,3.300000000000000000e+01,4.500000000000000111e-01,4.385369100000000000e+09
2.200000000000000000e+01,2.300000000000000000e+01,3.200000000000000000e+01,2.500000000000000000e+01,2.200000000000000000e+01,2.500000000000000000e+01,2.300000000000000000e+01,3.200000000000000000e+01,4.500000000000000111e-01,4.404602800000000000e+09
2.500000000000000000e+01,2.500000000000000000e+01,2.900000000000000000e+01,2.500000000000000000e+01,2.200000000000000000e+01,2.600000000000000000e+01,2.200000000000000000e+01,3.000000000000000000e+01,4.500000000000000111e-01,4.423329200000000000e+09
2.400000000000000000e+01,2.400000000000000000e+01,3.000000000000000000e+01,2.400000000000000000e+01,2.200000000000000000e+01,2.600000000000000000e+01,1.900000000000000000e+01,3.200000000000000000e+01,4.500000000000000111e-01,4.443120100000000000e+09
2.500000000000000000e+01,2.500000000000000000e+01,3.000000000000000000e+01,2.200000000000000000e+01,2.000000000000000000e+01,2.200000000000000000e+01,2.100000000000000000e+01,3.100000000000000000e+01,4.500000000000000111e-01,4.461347100000000000e+09
2.400000000000000000e+01,2.800000000000000000e+01,3.300000000000000000e+01,2.400000000000000000e+01,2.100000000000000000e+01,2.400000000000000000e+01,2.200000000000000000e+01,3.100000000000000000e+01,4.500000000000000111e-01,4.481014700000000000e+09
2.400000000000000000e+01,2.700000000000000000e+01,3.100000000000000000e+01,2.300000000000000000e+01,2.200000000000000000e+01,2.600000000000000000e+01,2.300000000000000000e+01,3.000000000000000000e+01,4.500000000000000111e-01,4.501019100000000000e+09
2.300000000000000000e+01,2.800000000000000000e+01,3.100000000000000000e+01,2.300000000000000000e+01,2.300000000000000000e+01,2.500000000000000000e+01,2.100000000000000000e+01,3.000000000000000000e+01,4.500000000000000111e-01,4.520134300000000000e+09
2.300000000000000000e+01,2.700000000000000000e+01,3.100000000000000000e+01,2.300000000000000000e+01,2.300000000000000000e+01,2.400000000000000000e+01,2.100000000000000000e+01,2.600000000000000000e+01,4.500000000000000111e-01,4.538017200000000000e+09
2.500000000000000000e+01,2.800000000000000000e+01,3.100000000000000000e+01,2.500000000000000000e+01,2.500000000000000000e+01,2.500000000000000000e+01,2.300000000000000000e+01,3.000000000000000000e+01,4.500000000000000111e-01,4.558029500000000000e+09
2.400000000000000000e+01,2.700000000000000000e+01,2.800000000000000000e+01,2.200000000000000000e+01,2.400000000000000000e+01,2.300000000000000000e+01,2.400000000000000000e+01,3.000000000000000000e+01,4.500000000000000111e-01,4.576829700000000000e+09
2.200000000000000000e+01,2.700000000000000000e+01,2.700000000000000000e+01,2.500000000000000000e+01,2.300000000000000000e+01,2.200000000000000000e+01,2.400000000000000000e+01,3.000000000000000000e+01,4.500000000000000111e-01,4.596182500000000000e+09
2.200000000000000000e+01,2.500000000000000000e+01,2.600000000000000000e+01,2.500000000000000000e+01,2.400000000000000000e+01,2.200000000000000000e+01,2.500000000000000000e+01,3.100000000000000000e+01,4.500000000000000111e-01,4.614478700000000000e+09
2.300000000000000000e+01,2.500000000000000000e+01,2.500000000000000000e+01,2.500000000000000000e+01,2.300000000000000000e+01,2.300000000000000000e+01,2.600000000000000000e+01,2.800000000000000000e+01,4.500000000000000111e-01,4.633940900000000000e+09
2.200000000000000000e+01,2.600000000000000000e+01,2.200000000000000000e+01,2.600000000000000000e+01,2.200000000000000000e+01,2.700000000000000000e+01,2.500000000000000000e+01,2.800000000000000000e+01,4.500000000000000111e-01,4.653107500000000000e+09
2.100000000000000000e+01,2.500000000000000000e+01,2.300000000000000000e+01,2.500000000000000000e+01,2.300000000000000000e+01,2.500000000000000000e+01,2.400000000000000000e+01,3.300000000000000000e+01,4.500000000000000111e-01,4.673646000000000000e+09
2.100000000000000000e+01,2.200000000000000000e+01,2.400000000000000000e+01,2.500000000000000000e+01,2.300000000000000000e+01,2.700000000000000000e+01,2.500000000000000000e+01,3.300000000000000000e+01,4.500000000000000111e-01,4.692887000000000000e+09
2.100000000000000000e+01,2.300000000000000000e+01,2.700000000000000000e+01,2.500000000000000000e+01,2.200000000000000000e+01,2.700000000000000000e+01,2.500000000000000000e+01,3.400000000000000000e+01,4.500000000000000111e-01,4.711342700000000000e+09
2.000000000000000000e+01,2.500000000000000000e+01,3.000000000000000000e+01,2.500000000000000000e+01,2.200000000000000000e+01,2.500000000000000000e+01,2.300000000000000000e+01,3.200000000000000000e+01,4.500000000000000111e-01,4.731312200000000000e+09
2.000000000000000000e+01,2.200000000000000000e+01,3.100000000000000000e+01,2.500000000000000000e+01,2.300000000000000000e+01,2.300000000000000000e+01,2.400000000000000000e+01,2.900000000000000000e+01,4.500000000000000111e-01,4.751882800000000000e+09
2.200000000000000000e+01,2.300000000000000000e+01,3.100000000000000000e+01,2.600000000000000000e+01,2.400000000000000000e+01,2.300000000000000000e+01,2.400000000000000000e+01,2.600000000000000000e+01,4.500000000000000111e-01,4.770478900000000000e+09
2.300000000000000000e+01,2.300000000000000000e+01,3.100000000000000000e+01,2.400000000000000000e+01,2.400000000000000000e+01,2.100000000000000000e+01,2.300000000000000000e+01,2.900000000000000000e+01,4.500000000000000111e-01,4.793689600000000000e+09
2.200000000000000000e+01,2.800000000000000000e+01,3.000000000000000000e+01,2.300000000000000000e+01,2.400000000000000000e+01,2.200000000000000000e+01,2.500000000000000000e+01,2.800000000000000000e+01,4.500000000000000111e-01,4.814864500000000000e+09
2.300000000000000000e+01,2.700000000000000000e+01,2.800000000000000000e+01,2.400000000000000000e+01,2.400000000000000000e+01,2.400000000000000000e+01,2.500000000000000000e+01,2.800000000000000000e+01,4.500000000000000111e-01,4.833711800000000000e+09
2.200000000000000000e+01,2.700000000000000000e+01,3.300000000000000000e+01,2.200000000000000000e+01,2.300000000000000000e+01,2.400000000000000000e+01,2.200000000000000000e+01,2.900000000000000000e+01,4.500000000000000111e-01,4.852098700000000000e+09
2.100000000000000000e+01,2.700000000000000000e+01,3.200000000000000000e+01,2.000000000000000000e+01,2.200000000000000000e+01,2.500000000000000000e+01,2.100000000000000000e+01,3.200000000000000000e+01,4.500000000000000111e-01,4.872981100000000000e+09
2.200000000000000000e+01,3.000000000000000000e+01,3.200000000000000000e+01,2.000000000000000000e+01,2.000000000000000000e+01,2.500000000000000000e+01,2.200000000000000000e+01,3.100000000000000000e+01,4.500000000000000111e-01,4.893833800000000000e+09
2.300000000000000000e+01,2.900000000000000000e+01,3.100000000000000000e+01,2.100000000000000000e+01,2.100000000000000000e+01,2.600000000000000000e+01,1.900000000000000000e+01,3.100000000000000000e+01,4.500000000000000111e-01,4.912692600000000000e+09
2.200000000000000000e+01,2.700000000000000000e+01,3.100000000000000000e+01,2.100000000000000000e+01,2.100000000000000000e+01,2.700000000000000000e+01,2.000000000000000000e+01,3.100000000000000000e+01,4.500000000000000111e-01,4.934992000000000000e+09
2.300000000000000000e+01,2.700000000000000000e+01,2.300000000000000000e+01,2.100000000000000000e+01,2.100000000000000000e+01,2.800000000000000000e+01,2.200000000000000000e+01,3.700000000000000000e+01,4.500000000000000111e-01,4.957629300000000000e+09
2.300000000000000000e+01,2.600000000000000000e+01,2.400000000000000000e+01,2.300000000000000000e+01,2.000000000000000000e+01,2.900000000000000000e+01,2.400000000000000000e+01,3.300000000000000000e+01,4.500000000000000111e-01,4.976472500000000000e+09
2.100000000000000000e+01,2.600000000000000000e+01,2.900000000000000000e+01,2.400000000000000000e+01,2.200000000000000000e+01,3.000000000000000000e+01,2.500000000000000000e+01,3.200000000000000000e+01,4.500000000000000111e-01,4.995420900000000000e+09
2.000000000000000000e+01,2.300000000000000000e+01,3.100000000000000000e+01,2.500000000000000000e+01,2.300000000000000000e+01,2.900000000000000000e+01,2.500000000000000000e+01,3.100000000000000000e+01,4.500000000000000111e-01,5.016403400000000000e+09
2.100000000000000000e+01,2.300000000000000000e+01,3.000000000000000000e+01,2.400000000000000000e+01,2.200000000000000000e+01,2.700000000000000000e+01,2.600000000000000000e+01,3.300000000000000000e+01,4.500000000000000111e-01,5.035853700000000000e+09
2.000000000000000000e+01,2.300000000000000000e+01,3.100000000000000000e+01,2.700000000000000000e+01,2.300000000000000000e+01,2.400000000000000000e+01,2.500000000000000000e+01,3.200000000000000000e+01,4.500000000000000111e-01,5.064316400000000000e+09
2.100000000000000000e+01,2.700000000000000000e+01,3.300000000000000000e+01,2.600000000000000000e+01,2.300000000000000000e+01,2.400000000000000000e+01,2.500000000000000000e+01,3.300000000000000000e+01,4.500000000000000111e-01,5.087884500000000000e+09
2.100000000000000000e+01,2.500000000000000000e+01,2.800000000000000000e+01,2.500000000000000000e+01,2.200000000000000000e+01,2.400000000000000000e+01,2.400000000000000000e+01,3.300000000000000000e+01,4.500000000000000111e-01,5.109193700000000000e+09
2.200000000000000000e+01,2.600000000000000000e+01,2.800000000000000000e+01,2.700000000000000000e+01,2.100000000000000000e+01,2.500000000000000000e+01,2.500000000000000000e+01,3.300000000000000000e+01,4.500000000000000111e-01,5.130264900000000000e+09
2.200000000000000000e+01,2.500000000000000000e+01,3.000000000000000000e+01,2.700000000000000000e+01,2.100000000000000000e+01,2.400000000000000000e+01,2.300000000000000000e+01,3.300000000000000000e+01,4.500000000000000111e-01,5.151452100000000000e+09
2.300000000000000000e+01,2.600000000000000000e+01,2.900000000000000000e+01,2.400000000000000000e+01,2.000000000000000000e+01,2.600000000000000000e+01,2.200000000000000000e+01,3.000000000000000000e+01,4.500000000000000111e-01,5.174443900000000000e+09
2.100000000000000000e+01,2.400000000000000000e+01,2.800000000000000000e+01,2.600000000000000000e+01,2.300000000000000000e+01,2.600000000000000000e+01,2.100000000000000000e+01,3.300000000000000000e+01,4.500000000000000111e-01,5.196393100000000000e+09
2.300000000000000000e+01,2.500000000000000000e+01,3.000000000000000000e+01,2.500000000000000000e+01,2.400000000000000000e+01,3.000000000000000000e+01,2.100000000000000000e+01,3.300000000000000000e+01,4.500000000000000111e-01,5.215325400000000000e+09
2.300000000000000000e+01,2.600000000000000000e+01,2.800000000000000000e+01,2.200000000000000000e+01,2.400000000000000000e+01,3.000000000000000000e+01,2.300000000000000000e+01,3.300000000000000000e+01,4.500000000000000111e-01,5.233657000000000000e+09
2.400000000000000000e+01,2.800000000000000000e+01,3.000000000000000000e+01,2.400000000000000000e+01,2.500000000000000000e+01,3.100000000000000000e+01,2.500000000000000000e+01,3.500000000000000000e+01,4.500000000000000111e-01,5.252978200000000000e+09
2.400000000000000000e+01,2.700000000000000000e+01,3.000000000000000000e+01,2.400000000000000000e+01,2.400000000000000000e+01,3.000000000000000000e+01,2.500000000000000000e+01,3.700000000000000000e+01,4.500000000000000111e-01,5.272497200000000000e+09
2.500000000000000000e+01,2.700000000000000000e+01,3.200000000000000000e+01,2.400000000000000000e+01,2.300000000000000000e+01,2.900000000000000000e+01,2.400000000000000000e+01,3.300000000000000000e+01,4.500000000000000111e-01,5.292666000000000000e+09
2.500000000000000000e+01,2.600000000000000000e+01,3.100000000000000000e+01,2.400000000000000000e+01,2.200000000000000000e+01,2.500000000000000000e+01,2.400000000000000000e+01,3.400000000000000000e+01,4.500000000000000111e-01,5.310373200000000000e+09
2.400000000000000000e+01,2.600000000000000000e+01,3.300000000000000000e+01,2.300000000000000000e+01,2.200000000000000000e+01,2.500000000000000000e+01,2.200000000000000000e+01,3.500000000000000000e+01,4.500000000000000111e-01,5.328795600000000000e+09
2.300000000000000000e+01,2.400000000000000000e+01,3.100000000000000000e+01,2.300000000000000000e+01,2.000000000000000000e+01,2.600000000000000000e+01,2.100000000000000000e+01,3.200000000000000000e+01,4.500000000000000111e-01,5.347797700000000000e+09
2.300000000000000000e+01,2.500000000000000000e+01,3.200000000000000000e+01,2.200000000000000000e+01,2.100000000000000000e+01,2.600000000000000000e+01,2.100000000000000000e+01,3.200000000000000000e+01,4.500000000000000111e-01,5.365909500000000000e+09
2.200000000000000000e+01,2.700000000000000000e+01,3.000000000000000000e+01,2.100000000000000000e+01,2.300000000000000000e+01,2.900000000000000000e+01,2.300000000000000000e+01,3.200000000000000000e+01,4.500000000000000111e-01,5.385506000000000000e+09
2.300000000000000000e+01,2.800000000000000000e+01,3.000000000000000000e+01,2.100000000000000000e+01,2.100000000000000000e+01,2.800000000000000000e+01,2.400000000000000000e+01,3.100000000000000000e+01,4.500000000000000111e-01,5.404055600000000000e+09
2.300000000000000000e+01,2.600000000000000000e+01,2.800000000000000000e+01,2.400000000000000000e+01,2.300000000000000000e+01,2.700000000000000000e+01,2.300000000000000000e+01,3.100000000000000000e+01,4.500000000000000111e-01,5.422452600000000000e+09
2.500000000000000000e+01,2.700000000000000000e+01,2.900000000000000000e+01,2.300000000000000000e+01,2.400000000000000000e+01,2.600000000000000000e+01,2.200000000000000000e+01,3.700000000000000000e+01,4.500000000000000111e-01,5.440682400000000000e+09
2.300000000000000000e+01,2.500000000000000000e+01,2.800000000000000000e+01,2.400000000000000000e+01,2.400000000000000000e+01,2.600000000000000000e+01,2.100000000000000000e+01,3.500000000000000000e+01,4.500000000000000111e-01,5.459455100000000000e+09
2.300000000000000000e+01,2.300000000000000000e+01,3.000000000000000000e+01,2.400000000000000000e+01,2.000000000000000000e+01,2.300000000000000000e+01,2.100000000000000000e+01,3.400000000000000000e+01,4.500000000000000111e-01,5.478592200000000000e+09
2.400000000000000000e+01,2.400000000000000000e+01,2.900000000000000000e+01,2.600000000000000000e+01,2.200000000000000000e+01,2.500000000000000000e+01,2.100000000000000000e+01,3.600000000000000000e+01,4.500000000000000111e-01,5.498106100000000000e+09
2.200000000000000000e+01,2.300000000000000000e+01,3.100000000000000000e+01,2.400000000000000000e+01,2.100000000000000000e+01,2.700000000000000000e+01,2.100000000000000000e+01,3.500000000000000000e+01,4.500000000000000111e-01,5.516871000000000000e+09
2.100000000000000000e+01,2.400000000000000000e+01,3.100000000000000000e+01,2.500000000000000000e+01,2.000000000000000000e+01,2.700000000000000000e+01,2.200000000000000000e+01,2.800000000000000000e+01,4.500000000000000111e-01,5.536027800000000000e+09
2.200000000000000000e+01,2.500000000000000000e+01,3.100000000000000000e+01,2.600000000000000000e+01,2.100000000000000000e+01,2.600000000000000000e+01,2.300000000000000000e+01,3.200000000000000000e+01,4.500000000000000111e-01,5.557011300000000000e+09
2.300000000000000000e+01,2.500000000000000000e+01,2.800000000000000000e+01,2.600000000000000000e+01,2.100000000000000000e+01,2.900000000000000000e+01,2.300000000000000000e+01,3.300000000000000000e+01,4.500000000000000111e-01,5.575950000000000000e+09
2.100000000000000000e+01,2.300000000000000000e+01,3.000000000000000000e+01,2.500000000000000000e+01,2.000000000000000000e+01,2.800000000000000000e+01,2.300000000000000000e+01,3.100000000000000000e+01,4.500000000000000111e-01,5.594001100000000000e+09
2.400000000000000000e+01,2.300000000000000000e+01,2.700000000000000000e+01,2.500000000000000000e+01,1.900000000000000000e+01,2.600000000000000000e+01,2.200000000000000000e+01,3.100000000000000000e+01,4.500000000000000111e-01,5.614016600000000000e+09
2.300000000000000000e+01,2.100000000000000000e+01,2.700000000000000000e+01,2.300000000000000000e+01,2.000000000000000000e+01,2.700000000000000000e+01,2.400000000000000000e+01,3.400000000000000000e+01,4.500000000000000111e-01,5.633302300000000000e+09
2.300000000000000000e+01,2.400000000000000000e+01,2.700000000000000000e+01,2.500000000000000000e+01,2.100000000000000000e+01,2.800000000000000000e+01,2.300000000000000000e+01,3.200000000000000000e+01,4.500000000000000111e-01,5.651499200000000000e+09
2.300000000000000000e+01,2.200000000000000000e+01,2.600000000000000000e+01,2.500000000000000000e+01,2.000000000000000000e+01,2.400000000000000000e+01,2.500000000000000000e+01,3.000000000000000000e+01,4.500000000000000111e-01,5.674044600000000000e+09
2.300000000000000000e+01,2.400000000000000000e+01,2.600000000000000000e+01,2.300000000000000000e+01,2.000000000000000000e+01,2.200000000000000000e+01,2.200000000000000000e+01,3.200000000000000000e+01,4.500000000000000111e-01,5.692165400000000000e+09
2.400000000000000000e+01,2.400000000000000000e+01,2.500000000000000000e+01,2.300000000000000000e+01,2.000000000000000000e+01,2.300000000000000000e+01,2.500000000000000000e+01,4.600000000000000000e+01,4.500000000000000111e-01,5.710312400000000000e+09
2.600000000000000000e+01,2.600000000000000000e+01,2.700000000000000000e+01,2.400000000000000000e+01,2.100000000000000000e+01,2.200000000000000000e+01,2.400000000000000000e+01,6.000000000000000000e+01,4.500000000000000111e-01,5.732510700000000000e+09
2.700000000000000000e+01,2.500000000000000000e+01,2.700000000000000000e+01,2.400000000000000000e+01,1.900000000000000000e+01,2.200000000000000000e+01,2.600000000000000000e+01,6.300000000000000000e+01,4.500000000000000111e-01,5.751698700000000000e+09
2.600000000000000000e+01,2.500000000000000000e+01,2.800000000000000000e+01,2.500000000000000000e+01,1.900000000000000000e+01,2.400000000000000000e+01,2.400000000000000000e+01,6.500000000000000000e+01,4.500000000000000111e-01,5.774647200000000000e+09
2.600000000000000000e+01,2.300000000000000000e+01,2.500000000000000000e+01,2.800000000000000000e+01,2.000000000000000000e+01,2.300000000000000000e+01,2.700000000000000000e+01,6.500000000000000000e+01,4.500000000000000111e-01,5.793323200000000000e+09
2.500000000000000000e+01,2.600000000000000000e+01,2.700000000000000000e+01,2.900000000000000000e+01,2.100000000000000000e+01,2.300000000000000000e+01,2.400000000000000000e+01,5.700000000000000000e+01,4.400000000000000022e-01,5.811218000000000000e+09
2.500000000000000000e+01,2.400000000000000000e+01,2.700000000000000000e+01,2.800000000000000000e+01,2.200000000000000000e+01,2.400000000000000000e+01,2.400000000000000000e+01,4.500000000000000000e+01,4.400000000000000022e-01,5.832499300000000000e+09
2.300000000000000000e+01,2.400000000000000000e+01,2.500000000000000000e+01,2.700000000000000000e+01,2.100000000000000000e+01,2.500000000000000000e+01,2.400000000000000000e+01,3.600000000000000000e+01,4.400000000000000022e-01,5.851293600000000000e+09
2.400000000000000000e+01,2.500000000000000000e+01,2.500000000000000000e+01,2.700000000000000000e+01,2.100000000000000000e+01,2.500000000000000000e+01,2.300000000000000000e+01,3.600000000000000000e+01,4.400000000000000022e-01,5.873635100000000000e+09
2.400000000000000000e+01,2.700000000000000000e+01,3.100000000000000000e+01,2.500000000000000000e+01,1.900000000000000000e+01,2.600000000000000000e+01,2.100000000000000000e+01,3.900000000000000000e+01,4.400000000000000022e-01,5.892377500000000000e+09
2.300000000000000000e+01,2.700000000000000000e+01,2.900000000000000000e+01,2.300000000000000000e+01,1.800000000000000000e+01,2.500000000000000000e+01,2.200000000000000000e+01,3.700000000000000000e+01,4.400000000000000022e-01,5.911637900000000000e+09
2.100000000000000000e+01,2.600000000000000000e+01,2.800000000000000000e+01,2.400000000000000000e+01,1.800000000000000000e+01,2.500000000000000000e+01,2.100000000000000000e+01,3.300000000000000000e+01,4.400000000000000022e-01,5.933499000000000000e+09
2.100000000000000000e+01,2.600000000000000000e+01,2.900000000000000000e+01,2.700000000000000000e+01,2.200000000000000000e+01,2.400000000000000000e+01,1.700000000000000000e+01,3.700000000000000000e+01,4.500000000000000111e-01,5.951995600000000000e+09
2.100000000000000000e+01,2.500000000000000000e+01,3.000000000000000000e+01,2.500000000000000000e+01,2.300000000000000000e+01,2.400000000000000000e+01,1.800000000000000000e+01,3.300000000000000000e+01,4.500000000000000111e-01,5.970611100000000000e+09
2.000000000000000000e+01,2.400000000000000000e+01,2.700000000000000000e+01,2.600000000000000000e+01,2.600000000000000000e+01,2.200000000000000000e+01,1.800000000000000000e+01,2.900000000000000000e+01,4.500000000000000111e-01,5.990948900000000000e+09
1.900000000000000000e+01,2.100000000000000000e+01,2.900000000000000000e+01,2.600000000000000000e+01,2.800000000000000000e+01,2.300000000000000000e+01,1.700000000000000000e+01,3.000000000000000000e+01,4.500000000000000111e-01,6.009225300000000000e+09
2.100000000000000000e+01,2.300000000000000000e+01,3.000000000000000000e+01,2.600000000000000000e+01,2.700000000000000000e+01,2.400000000000000000e+01,1.900000000000000000e+01,2.800000000000000000e+01,4.500000000000000111e-01,6.032351100000000000e+09
2.000000000000000000e+01,2.500000000000000000e+01,3.000000000000000000e+01,2.400000000000000000e+01,2.500000000000000000e+01,2.600000000000000000e+01,2.200000000000000000e+01,3.200000000000000000e+01,4.500000000000000111e-01,6.052559400000000000e+09
2.000000000000000000e+01,2.400000000000000000e+01,3.100000000000000000e+01,2.700000000000000000e+01,2.600000000000000000e+01,2.400000000000000000e+01,2.200000000000000000e+01,3.200000000000000000e+01,4.500000000000000111e-01,6.073783500000000000e+09
2.100000000000000000e+01,2.400000000000000000e+01,2.800000000000000000e+01,2.600000000000000000e+01,2.300000000000000000e+01,2.500000000000000000e+01,2.500000000000000000e+01,3.200000000000000000e+01,4.500000000000000111e-01,6.092571500000000000e+09
2.200000000000000000e+01,2.300000000000000000e+01,2.600000000000000000e+01,2.700000000000000000e+01,2.400000000000000000e+01,2.600000000000000000e+01,2.600000000000000000e+01,3.200000000000000000e+01,4.500000000000000111e-01,6.111457800000000000e+09
2.000000000000000000e+01,2.400000000000000000e+01,2.700000000000000000e+01,2.500000000000000000e+01,2.500000000000000000e+01,2.400000000000000000e+01,2.400000000000000000e+01,3.300000000000000000e+01,4.500000000000000111e-01,6.132498400000000000e+09
2.100000000000000000e+01,2.400000000000000000e+01,2.700000000000000000e+01,2.700000000000000000e+01,2.500000000000000000e+01,2.200000000000000000e+01,2.400000000000000000e+01,2.900000000000000000e+01,4.500000000000000111e-01,6.151021900000000000e+09
2.200000000000000000e+01,2.600000000000000000e+01,2.600000000000000000e+01,2.400000000000000000e+01,2.400000000000000000e+01,2.300000000000000000e+01,2.400000000000000000e+01,2.800000000000000000e+01,4.500000000000000111e-01,6.174380400000000000e+09
2.100000000000000000e+01,2.400000000000000000e+01,2.700000000000000000e+01,2.400000000000000000e+01,2.300000000000000000e+01,2.400000000000000000e+01,2.200000000000000000e+01,3.000000000000000000e+01,4.500000000000000111e-01,6.195262100000000000e+09
2.000000000000000000e+01,2.600000000000000000e+01,2.900000000000000000e+01,2.400000000000000000e+01,2.300000000000000000e+01,2.100000000000000000e+01,2.100000000000000000e+01,2.700000000000000000e+01,4.500000000000000111e-01,6.214186800000000000e+09
2.000000000000000000e+01,2.600000000000000000e+01,3.300000000000000000e+01,2.400000000000000000e+01,2.300000000000000000e+01,2.100000000000000000e+01,2.300000000000000000e+01,3.200000000000000000e+01,4.500000000000000111e-01,6.233800700000000000e+09
2.100000000000000000e+01,2.600000000000000000e+01,3.200000000000000000e+01,2.300000000000000000e+01,2.500000000000000000e+01,2.100000000000000000e+01,2.100000000000000000e+01,3.100000000000000000e+01,4.500000000000000111e-01,6.253018300000000000e+09
2.000000000000000000e+01,2.400000000000000000e+01,3.100000000000000000e+01,2.500000000000000000e+01,2.500000000000000000e+01,2.000000000000000000e+01,2.000000000000000000e+01,3.200000000000000000e+01,4.500000000000000111e-01,6.272838100000000000e+09
2.000000000000000000e+01,2.700000000000000000e+01,3.200000000000000000e+01,2.500000000000000000e+01,2.500000000000000000e+01,2.000000000000000000e+01,2.100000000000000000e+01,3.100000000000000000e+01,4.500000000000000111e-01,6.291235700000000000e+09
1.900000000000000000e+01,2.500000000000000000e+01,3.000000000000000000e+01,2.400000000000000000e+01,2.300000000000000000e+01,2.500000000000000000e+01,2.200000000000000000e+01,3.300000000000000000e+01,4.500000000000000111e-01,6.313367000000000000e+09
1.900000000000000000e+01,2.300000000000000000e+01,2.500000000000000000e+01,2.500000000000000000e+01,2.400000000000000000e+01,2.500000000000000000e+01,2.100000000000000000e+01,3.400000000000000000e+01,4.500000000000000111e-01,6.333357300000000000e+09
1.900000000000000000e+01,2.600000000000000000e+01,2.400000000000000000e+01,2.400000000000000000e+01,2.000000000000000000e+01,2.500000000000000000e+01,2.200000000000000000e+01,3.300000000000000000e+01,4.500000000000000111e-01,6.358000600000000000e+09
2.200000000000000000e+01,2.800000000000000000e+01,2.600000000000000000e+01,2.300000000000000000e+01,2.100000000000000000e+01,2.600000000000000000e+01,2.200000000000000000e+01,3.100000000000000000e+01,4.500000000000000111e-01,6.377222900000000000e+09
2.200000000000000000e+01,2.800000000000000000e+01,2.700000000000000000e+01,2.300000000000000000e+01,2.100000000000000000e+01,2.600000000000000000e+01,2.200000000000000000e+01,3.200000000000000000e+01,4.500000000000000111e-01,6.397330600000000000e+09
2.300000000000000000e+01,3.000000000000000000e+01,2.800000000000000000e+01,2.300000000000000000e+01,2.200000000000000000e+01,2.100000000000000000e+01,2.100000000000000000e+01,3.000000000000000000e+01,4.500000000000000111e-01,6.417290900000000000e+09
2.300000000000000000e+01,2.900000000000000000e+01,2.700000000000000000e+01,2.400000000000000000e+01,2.100000000000000000e+01,2.200000000000000000e+01,1.900000000000000000e+01,2.700000000000000000e+01,4.500000000000000111e-01,6.435333900000000000e+09
2.300000000000000000e+01,2.700000000000000000e+01,2.900000000000000000e+01,2.600000000000000000e+01,2.200000000000000000e+01,2.300000000000000000e+01,1.800000000000000000e+01,3.200000000000000000e+01,4.500000000000000111e-01,6.454425900000000000e+09
2.000000000000000000e+01,2.600000000000000000e+01,2.800000000000000000e+01,2.600000000000000000e+01,2.200000000000000000e+01,2.200000000000000000e+01,1.900000000000000000e+01,3.400000000000000000e+01,4.500000000000000111e-01,6.475987300000000000e+09
2.200000000000000000e+01,2.700000000000000000e+01,2.800000000000000000e+01,2.600000000000000000e+01,2.100000000000000000e+01,2.200000000000000000e+01,1.800000000000000000e+01,3.400000000000000000e+01,4.500000000000000111e-01,6.498833500000000000e+09
2.200000000000000000e+01,2.600000000000000000e+01,2.500000000000000000e+01,2.600000000000000000e+01,2.100000000000000000e+01,2.500000000000000000e+01,1.900000000000000000e+01,3.400000000000000000e+01,4.500000000000000111e-01,6.530961900000000000e+09
2.200000000000000000e+01,2.700000000000000000e+01,2.800000000000000000e+01,2.500000000000000000e+01,2.200000000000000000e+01,2.500000000000000000e+01,2.100000000000000000e+01,3.700000000000000000e+01,4.500000000000000111e-01,6.552293300000000000e+09
2.100000000000000000e+01,2.700000000000000000e+01,2.700000000000000000e+01,2.700000000000000000e+01,2.300000000000000000e+01,2.400000000000000000e+01,2.300000000000000000e+01,3.200000000000000000e+01,4.500000000000000111e-01,6.572130400000000000e+09
2.100000000000000000e+01,2.500000000000000000e+01,2.700000000000000000e+01,2.600000000000000000e+01,2.100000000000000000e+01,2.500000000000000000e+01,2.200000000000000000e+01,3.100000000000000000e+01,4.500000000000000111e-01,6.591186200000000000e+09
1.900000000000000000e+01,2.600000000000000000e+01,2.800000000000000000e+01,2.600000000000000000e+01,2.200000000000000000e+01,2.600000000000000000e+01,2.300000000000000000e+01,3.000000000000000000e+01,4.500000000000000111e-01,6.612552100000000000e+09
1.900000000000000000e+01,2.800000000000000000e+01,2.900000000000000000e+01,2.500000000000000000e+01,2.100000000000000000e+01,2.700000000000000000e+01,2.300000000000000000e+01,3.200000000000000000e+01,4.500000000000000111e-01,6.632706900000000000e+09
2.100000000000000000e+01,2.700000000000000000e+01,2.900000000000000000e+01,2.600000000000000000e+01,2.100000000000000000e+01,2.600000000000000000e+01,2.100000000000000000e+01,2.800000000000000000e+01,4.500000000000000111e-01,6.650922700000000000e+09
2.200000000000000000e+01,2.800000000000000000e+01,3.000000000000000000e+01,2.300000000000000000e+01,2.100000000000000000e+01,2.600000000000000000e+01,2.000000000000000000e+01,3.300000000000000000e+01,4.500000000000000111e-01,6.669077600000000000e+09
2.300000000000000000e+01,3.000000000000000000e+01,3.100000000000000000e+01,2.300000000000000000e+01,2.200000000000000000e+01,2.600000000000000000e+01,2.000000000000000000e+01,3.300000000000000000e+01,4.500000000000000111e-01,6.687900800000000000e+09
2.400000000000000000e+01,2.800000000000000000e+01,3.200000000000000000e+01,2.300000000000000000e+01,2.300000000000000000e+01,2.700000000000000000e+01,1.900000000000000000e+01,3.400000000000000000e+01,4.500000000000000111e-01,6.705927500000000000e+09
2.700000000000000000e+01,2.600000000000000000e+01,3.100000000000000000e+01,2.200000000000000000e+01,2.300000000000000000e+01,2.600000000000000000e+01,2.000000000000000000e+01,3.200000000000000000e+01,4.500000000000000111e-01,6.725779200000000000e+09
2.600000000000000000e+01,2.700000000000000000e+01,3.100000000000000000e+01,2.300000000000000000e+01,2.100000000000000000e+01,2.600000000000000000e+01,1.800000000000000000e+01,3.300000000000000000e+01,4.500000000000000111e-01,6.745123700000000000e+09
2.400000000000000000e+01,2.500000000000000000e+01,3.100000000000000000e+01,2.300000000000000000e+01,2.000000000000000000e+01,2.700000000000000000e+01,1.900000000000000000e+01,3.300000000000000000e+01,4.500000000000000111e-01,6.763377900000000000e+09
2.400000000000000000e+01,2.300000000000000000e+01,2.900000000000000000e+01,2.200000000000000000e+01,2.000000000000000000e+01,2.700000000000000000e+01,2.000000000000000000e+01,3.400000000000000000e+01,4.500000000000000111e-01,6.782518100000000000e+09
2.300000000000000000e+01,2.300000000000000000e+01,2.600000000000000000e+01,2.200000000000000000e+01,1.900000000000000000e+01,2.400000000000000000e+01,2.200000000000000000e+01,3.300000000000000000e+01,4.500000000000000111e-01,6.801423900000000000e+09
2.000000000000000000e+01,2.300000000000000000e+01,2.700000000000000000e+01,2.400000000000000000e+01,2.300000000000000000e+01,2.400000000000000000e+01,2.400000000000000000e+01,3.400000000000000000e+01,4.500000000000000111e-01,6.822546600000000000e+09
2.100000000000000000e+01,2.300000000000000000e+01,2.600000000000000000e+01,2.600000000000000000e+01,2.400000000000000000e+01,2.300000000000000000e+01,2.500000000000000000e+01,3.300000000000000000e+01,4.500000000000000111e-01,6.840829500000000000e+09
2.100000000000000000e+01,2.100000000000000000e+01,2.600000000000000000e+01,2.700000000000000000e+01,2.500000000000000000e+01,2.200000000000000000e+01,2.800000000000000000e+01,3.000000000000000000e+01,4.500000000000000111e-01,6.859258600000000000e+09
2.300000000000000000e+01,2.200000000000000000e+01,3.000000000000000000e+01,2.800000000000000000e+01,2.700000000000000000e+01,1.900000000000000000e+01,2.900000000000000000e+01,3.000000000000000000e+01,4.500000000000000111e-01,6.878265300000000000e+09
2.300000000000000000e+01,2.100000000000000000e+01,2.900000000000000000e+01,3.000000000000000000e+01,2.800000000000000000e+01,2.100000000000000000e+01,2.700000000000000000e+01,3.000000000000000000e+01,4.500000000000000111e-01,6.897824600000000000e+09
2.300000000000000000e+01,2.400000000000000000e+01,3.000000000000000000e+01,2.900000000000000000e+01,2.500000000000000000e+01,2.000000000000000000e+01,2.400000000000000000e+01,2.900000000000000000e+01,4.500000000000000111e-01,6.916513600000000000e+09
2.300000000000000000e+01,2.300000000000000000e+01,3.100000000000000000e+01,2.800000000000000000e+01,2.600000000000000000e+01,2.000000000000000000e+01,2.400000000000000000e+01,3.100000000000000000e+01,4.500000000000000111e-01,6.936607500000000000e+09
2.400000000000000000e+01,2.300000000000000000e+01,2.800000000000000000e+01,2.600000000000000000e+01,2.400000000000000000e+01,2.000000000000000000e+01,2.200000000000000000e+01,2.900000000000000000e+01,4.500000000000000111e-01,6.955363200000000000e+09
2.300000000000000000e+01,2.700000000000000000e+01,2.600000000000000000e+01,2.600000000000000000e+01,2.300000000000000000e+01,2.100000000000000000e+01,2.100000000000000000e+01,2.700000000000000000e+01,4.500000000000000111e-01,6.977001100000000000e+09
2.300000000000000000e+01,2.900000000000000000e+01,2.900000000000000000e+01,2.600000000000000000e+01,2.300000000000000000e+01,2.200000000000000000e+01,2.300000000000000000e+01,2.800000000000000000e+01,4.500000000000000111e-01,6.996055700000000000e+09
2.300000000000000000e+01,2.700000000000000000e+01,2.900000000000000000e+01,2.800000000000000000e+01,2.400000000000000000e+01,2.500000000000000000e+01,2.300000000000000000e+01,2.900000000000000000e+01,4.500000000000000111e-01,7.015217200000000000e+09
2.200000000000000000e+01,2.900000000000000000e+01,3.000000000000000000e+01,2.800000000000000000e+01,2.200000000000000000e+01,2.700000000000000000e+01,2.500000000000000000e+01,3.000000000000000000e+01,4.500000000000000111e-01,7.035104900000000000e+09
2.200000000000000000e+01,2.900000000000000000e+01,3.000000000000000000e+01,2.900000000000000000e+01,2.200000000000000000e+01,2.800000000000000000e+01,2.300000000000000000e+01,2.900000000000000000e+01,4.500000000000000111e-01,7.054390400000000000e+09
2.200000000000000000e+01,2.600000000000000000e+01,2.900000000000000000e+01,2.900000000000000000e+01,2.300000000000000000e+01,2.800000000000000000e+01,2.500000000000000000e+01,3.100000000000000000e+01,4.500000000000000111e-01,7.073855900000000000e+09
2.200000000000000000e+01,2.400000000000000000e+01,2.600000000000000000e+01,2.700000000000000000e+01,2.200000000000000000e+01,2.700000000000000000e+01,2.400000000000000000e+01,3.100000000000000000e+01,4.500000000000000111e-01,7.091722300000000000e+09
2.200000000000000000e+01,2.600000000000000000e+01,2.700000000000000000e+01,2.500000000000000000e+01,2.200000000000000000e+01,2.400000000000000000e+01,2.400000000000000000e+01,3.100000000000000000e+01,4.500000000000000111e-01,7.114455400000000000e+09
2.300000000000000000e+01,2.300000000000000000e+01,2.500000000000000000e+01,2.300000000000000000e+01,2.200000000000000000e+01,2.200000000000000000e+01,2.300000000000000000e+01,2.700000000000000000e+01,4.500000000000000111e-01,7.133801600000000000e+09
2.200000000000000000e+01,2.400000000000000000e+01,3.000000000000000000e+01,2.300000000000000000e+01,2.200000000000000000e+01,2.000000000000000000e+01,2.300000000000000000e+01,3.100000000000000000e+01,4.500000000000000111e-01,7.152237100000000000e+09
2.200000000000000000e+01,2.300000000000000000e+01,2.900000000000000000e+01,2.400000000000000000e+01,2.500000000000000000e+01,2.000000000000000000e+01,2.200000000000000000e+01,3.300000000000000000e+01,4.500000000000000111e-01,7.173317000000000000e+09
2.200000000000000000e+01,2.400000000000000000e+01,2.800000000000000000e+01,2.400000000000000000e+01,2.500000000000000000e+01,2.000000000000000000e+01,2.300000000000000000e+01,3.300000000000000000e+01,4.500000000000000111e-01,7.192474000000000000e+09
2.200000000000000000e+01,2.300000000000000000e+01,2.600000000000000000e+01,2.200000000000000000e+01,2.500000000000000000e+01,2.200000000000000000e+01,2.200000000000000000e+01,3.300000000000000000e+01,4.500000000000000111e-01,7.213506300000000000e+09
2.200000000000000000e+01,2.300000000000000000e+01,3.000000000000000000e+01,2.300000000000000000e+01,2.400000000000000000e+01,2.300000000000000000e+01,2.200000000000000000e+01,3.300000000000000000e+01,4.500000000000000111e-01,7.234283200000000000e+09
2.500000000000000000e+01,2.600000000000000000e+01,2.700000000000000000e+01,2.300000000000000000e+01,2.400000000000000000e+01,2.300000000000000000e+01,2.400000000000000000e+01,3.500000000000000000e+01,4.500000000000000111e-01,7.254051200000000000e+09
2.500000000000000000e+01,2.600000000000000000e+01,2.800000000000000000e+01,2.100000000000000000e+01,1.900000000000000000e+01,2.200000000000000000e+01,2.400000000000000000e+01,3.500000000000000000e+01,4.500000000000000111e-01,7.273590800000000000e+09
2.500000000000000000e+01,2.600000000000000000e+01,3.000000000000000000e+01,2.000000000000000000e+01,2.200000000000000000e+01,2.500000000000000000e+01,2.200000000000000000e+01,3.300000000000000000e+01,4.500000000000000111e-01,7.293389800000000000e+09
2.500000000000000000e+01,2.700000000000000000e+01,3.300000000000000000e+01,2.400000000000000000e+01,2.300000000000000000e+01,2.400000000000000000e+01,2.400000000000000000e+01,3.300000000000000000e+01,4.500000000000000111e-01,7.313880300000000000e+09
2.400000000000000000e+01,3.100000000000000000e+01,3.200000000000000000e+01,2.400000000000000000e+01,2.300000000000000000e+01,2.500000000000000000e+01,2.300000000000000000e+01,3.200000000000000000e+01,4.500000000000000111e-01,7.332628000000000000e+09
2.300000000000000000e+01,2.900000000000000000e+01,3.100000000000000000e+01,2.200000000000000000e+01,2.300000000000000000e+01,2.500000000000000000e+01,2.100000000000000000e+01,2.900000000000000000e+01,4.500000000000000111e-01,7.354097300000000000e+09
2.200000000000000000e+01,2.800000000000000000e+01,3.100000000000000000e+01,2.300000000000000000e+01,2.500000000000000000e+01,2.600000000000000000e+01,2.300000000000000000e+01,2.800000000000000000e+01,4.500000000000000111e-01,7.380112700000000000e+09
2.300000000000000000e+01,2.700000000000000000e+01,3.000000000000000000e+01,2.400000000000000000e+01,2.500000000000000000e+01,2.500000000000000000e+01,2.300000000000000000e+01,2.900000000000000000e+01,4.500000000000000111e-01,7.400564300000000000e+09
2.300000000000000000e+01,2.500000000000000000e+01,2.700000000000000000e+01,2.100000000000000000e+01,2.400000000000000000e+01,2.800000000000000000e+01,2.300000000000000000e+01,2.800000000000000000e+01,4.500000000000000111e-01,7.425510600000000000e+09
2.400000000000000000e+01,2.400000000000000000e+01,2.600000000000000000e+01,2.300000000000000000e+01,2.300000000000000000e+01,2.700000000000000000e+01,2.400000000000000000e+01,2.900000000000000000e+01,4.500000000000000111e-01,7.447599900000000000e+09
2.200000000000000000e+01,2.400000000000000000e+01,2.900000000000000000e+01,2.300000000000000000e+01,2.300000000000000000e+01,2.700000000000000000e+01,2.500000000000000000e+01,2.400000000000000000e+01,4.500000000000000111e-01,7.470322800000000000e+09
2.200000000000000000e+01,2.400000000000000000e+01,3.100000000000000000e+01,2.200000000000000000e+01,2.200000000000000000e+01,2.700000000000000000e+01,2.300000000000000000e+01,2.600000000000000000e+01,4.500000000000000111e-01,7.488278600000000000e+09
2.300000000000000000e+01,2.400000000000000000e+01,3.100000000000000000e+01,2.400000000000000000e+01,2.100000000000000000e+01,2.500000000000000000e+01,2.300000000000000000e+01,2.700000000000000000e+01,4.500000000000000111e-01,7.506495600000000000e+09
2.200000000000000000e+01,2.700000000000000000e+01,3.100000000000000000e+01,2.400000000000000000e+01,2.100000000000000000e+01,2.400000000000000000e+01,2.200000000000000000e+01,2.900000000000000000e+01,4.500000000000000111e-01,7.524739800000000000e+09
2.200000000000000000e+01,2.500000000000000000e+01,3.600000000000000000e+01,2.500000000000000000e+01,2.200000000000000000e+01,2.400000000000000000e+01,2.000000000000000000e+01,2.700000000000000000e+01,4.500000000000000111e-01,7.543899600000000000e+09
2.300000000000000000e+01,2.400000000000000000e+01,3.400000000000000000e+01,2.500000000000000000e+01,2.300000000000000000e+01,2.400000000000000000e+01,1.900000000000000000e+01,2.900000000000000000e+01,4.500000000000000111e-01,7.564410800000000000e+09
2.300000000000000000e+01,2.500000000000000000e+01,3.200000000000000000e+01,2.500000000000000000e+01,2.300000000000000000e+01,2.400000000000000000e+01,1.700000000000000000e+01,2.600000000000000000e+01,4.500000000000000111e-01,7.583007100000000000e+09
2.000000000000000000e+01,2.400000000000000000e+01,3.200000000000000000e+01,2.400000000000000000e+01,2.300000000000000000e+01,2.400000000000000000e+01,1.700000000000000000e+01,2.900000000000000000e+01,4.500000000000000111e-01,7.601897800000000000e+09
2.100000000000000000e+01,2.600000000000000000e+01,3.400000000000000000e+01,2.400000000000000000e+01,2.200000000000000000e+01,2.400000000000000000e+01,1.600000000000000000e+01,2.900000000000000000e+01,4.500000000000000111e-01,7.621447500000000000e+09
2.100000000000000000e+01,2.500000000000000000e+01,3.100000000000000000e+01,2.200000000000000000e+01,2.300000000000000000e+01,2.600000000000000000e+01,1.900000000000000000e+01,3.000000000000000000e+01,4.500000000000000111e-01,7.640417900000000000e+09
2.100000000000000000e+01,2.600000000000000000e+01,3.000000000000000000e+01,2.400000000000000000e+01,2.300000000000000000e+01,2.600000000000000000e+01,2.300000000000000000e+01,2.900000000000000000e+01,4.500000000000000111e-01,7.658189400000000000e+09
2.200000000000000000e+01,2.500000000000000000e+01,3.200000000000000000e+01,2.700000000000000000e+01,2.400000000000000000e+01,2.600000000000000000e+01,2.400000000000000000e+01,2.800000000000000000e+01,4.500000000000000111e-01,7.677094600000000000e+09
2.300000000000000000e+01,2.600000000000000000e+01,3.100000000000000000e+01,2.500000000000000000e+01,2.200000000000000000e+01,2.600000000000000000e+01,2.400000000000000000e+01,2.800000000000000000e+01,4.500000000000000111e-01,7.695584800000000000e+09
2.300000000000000000e+01,2.300000000000000000e+01,3.000000000000000000e+01,2.500000000000000000e+01,2.300000000000000000e+01,2.700000000000000000e+01,2.600000000000000000e+01,3.000000000000000000e+01,4.500000000000000111e-01,7.714773200000000000e+09
2.400000000000000000e+01,2.500000000000000000e+01,2.700000000000000000e+01,2.600000000000000000e+01,2.200000000000000000e+01,2.600000000000000000e+01,2.500000000000000000e+01,3.100000000000000000e+01,4.500000000000000111e-01,7.732768100000000000e+09
2.300000000000000000e+01,2.400000000000000000e+01,2.600000000000000000e+01,2.600000000000000000e+01,2.200000000000000000e+01,2.500000000000000000e+01,2.300000000000000000e+01,3.000000000000000000e+01,4.500000000000000111e-01,7.760094700000000000e+09
2.200000000000000000e+01,2.400000000000000000e+01,2.600000000000000000e+01,2.500000000000000000e+01,2.200000000000000000e+01,2.400000000000000000e+01,2.200000000000000000e+01,3.200000000000000000e+01,4.500000000000000111e-01,7.778847000000000000e+09
2.300000000000000000e+01,2.400000000000000000e+01,2.700000000000000000e+01,2.800000000000000000e+01,2.300000000000000000e+01,2.600000000000000000e+01,2.200000000000000000e+01,2.800000000000000000e+01,4.500000000000000111e-01,7.797013100000000000e+09
2.300000000000000000e+01,2.500000000000000000e+01,2.500000000000000000e+01,2.800000000000000000e+01,2.300000000000000000e+01,2.400000000000000000e+01,2.100000000000000000e+01,2.400000000000000000e+01,4.500000000000000111e-01,7.815880100000000000e+09
2.300000000000000000e+01,2.400000000000000000e+01,2.600000000000000000e+01,2.700000000000000000e+01,2.600000000000000000e+01,2.300000000000000000e+01,2.300000000000000000e+01,2.800000000000000000e+01,4.500000000000000111e-01,7.836592800000000000e+09
2.300000000000000000e+01,2.300000000000000000e+01,3.000000000000000000e+01,2.700000000000000000e+01,2.600000000000000000e+01,2.600000000000000000e+01,2.400000000000000000e+01,2.800000000000000000e+01,4.500000000000000111e-01,7.855325400000000000e+09
2.300000000000000000e+01,2.400000000000000000e+01,2.800000000000000000e+01,2.600000000000000000e+01,2.600000000000000000e+01,2.800000000000000000e+01,2.500000000000000000e+01,3.000000000000000000e+01,4.500000000000000111e-01,7.875555300000000000e+09
2.200000000000000000e+01,2.400000000000000000e+01,2.800000000000000000e+01,2.400000000000000000e+01,2.600000000000000000e+01,2.800000000000000000e+01,2.500000000000000000e+01,2.900000000000000000e+01,4.500000000000000111e-01,7.895227100000000000e+09
2.200000000000000000e+01,2.600000000000000000e+01,2.800000000000000000e+01,2.500000000000000000e+01,2.500000000000000000e+01,2.800000000000000000e+01,2.400000000000000000e+01,3.000000000000000000e+01,4.500000000000000111e-01,7.913595300000000000e+09
2.100000000000000000e+01,2.600000000000000000e+01,2.900000000000000000e+01,2.700000000000000000e+01,2.400000000000000000e+01,2.700000000000000000e+01,2.500000000000000000e+01,3.300000000000000000e+01,4.500000000000000111e-01,7.932922600000000000e+09
2.500000000000000000e+01,2.700000000000000000e+01,2.800000000000000000e+01,2.600000000000000000e+01,2.300000000000000000e+01,2.300000000000000000e+01,2.400000000000000000e+01,3.400000000000000000e+01,4.500000000000000111e-01,7.953752000000000000e+09
2.400000000000000000e+01,2.600000000000000000e+01,2.900000000000000000e+01,2.500000000000000000e+01,2.300000000000000000e+01,2.300000000000000000e+01,2.300000000000000000e+01,3.200000000000000000e+01,4.500000000000000111e-01,7.972193100000000000e+09
2.400000000000000000e+01,2.700000000000000000e+01,3.000000000000000000e+01,2.600000000000000000e+01,2.300000000000000000e+01,2.300000000000000000e+01,2.300000000000000000e+01,3.300000000000000000e+01,4.500000000000000111e-01,7.994287400000000000e+09
2.400000000000000000e+01,2.400000000000000000e+01,3.300000000000000000e+01,2.500000000000000000e+01,2.400000000000000000e+01,2.300000000000000000e+01,2.500000000000000000e+01,3.200000000000000000e+01,4.500000000000000111e-01,8.013099500000000000e+09
2.400000000000000000e+01,2.400000000000000000e+01,3.100000000000000000e+01,2.500000000000000000e+01,2.200000000000000000e+01,2.400000000000000000e+01,2.100000000000000000e+01,2.500000000000000000e+01,4.500000000000000111e-01,8.031021000000000000e+09
2.100000000000000000e+01,2.500000000000000000e+01,2.800000000000000000e+01,2.400000000000000000e+01,2.400000000000000000e+01,2.700000000000000000e+01,2.100000000000000000e+01,2.900000000000000000e+01,4.500000000000000111e-01,8.052963400000000000e+09
2.100000000000000000e+01,2.700000000000000000e+01,2.900000000000000000e+01,2.300000000000000000e+01,2.300000000000000000e+01,2.700000000000000000e+01,2.100000000000000000e+01,2.900000000000000000e+01,4.500000000000000111e-01,8.074005700000000000e+09
2.300000000000000000e+01,2.700000000000000000e+01,2.900000000000000000e+01,2.500000000000000000e+01,2.200000000000000000e+01,2.700000000000000000e+01,2.200000000000000000e+01,2.800000000000000000e+01,4.500000000000000111e-01,8.094913200000000000e+09
2.200000000000000000e+01,2.800000000000000000e+01,2.600000000000000000e+01,2.700000000000000000e+01,2.100000000000000000e+01,2.800000000000000000e+01,2.000000000000000000e+01,2.900000000000000000e+01,4.500000000000000111e-01,8.114396700000000000e+09
2.100000000000000000e+01,2.800000000000000000e+01,2.900000000000000000e+01,2.800000000000000000e+01,2.000000000000000000e+01,2.800000000000000000e+01,2.100000000000000000e+01,2.900000000000000000e+01,4.500000000000000111e-01,8.134493700000000000e+09
2.300000000000000000e+01,2.700000000000000000e+01,3.000000000000000000e+01,2.900000000000000000e+01,2.100000000000000000e+01,2.700000000000000000e+01,1.900000000000000000e+01,3.200000000000000000e+01,4.500000000000000111e-01,8.153785800000000000e+09
2.200000000000000000e+01,2.500000000000000000e+01,3.100000000000000000e+01,3.100000000000000000e+01,2.000000000000000000e+01,2.900000000000000000e+01,2.100000000000000000e+01,3.300000000000000000e+01,4.500000000000000111e-01,8.171978100000000000e+09
2.200000000000000000e+01,2.300000000000000000e+01,3.000000000000000000e+01,3.000000000000000000e+01,2.100000000000000000e+01,3.100000000000000000e+01,1.900000000000000000e+01,3.400000000000000000e+01,4.500000000000000111e-01,8.194420600000000000e+09
2.300000000000000000e+01,2.400000000000000000e+01,3.000000000000000000e+01,2.900000000000000000e+01,2.300000000000000000e+01,3.100000000000000000e+01,2.100000000000000000e+01,3.300000000000000000e+01,4.500000000000000111e-01,8.216635200000000000e+09
2.400000000000000000e+01,2.500000000000000000e+01,3.100000000000000000e+01,2.700000000000000000e+01,2.300000000000000000e+01,3.100000000000000000e+01,2.200000000000000000e+01,3.200000000000000000e+01,4.500000000000000111e-01,8.238550500000000000e+09
2.400000000000000000e+01,2.600000000000000000e+01,3.000000000000000000e+01,2.600000000000000000e+01,2.200000000000000000e+01,3.100000000000000000e+01,2.300000000000000000e+01,3.300000000000000000e+01,4.500000000000000111e-01,8.257737700000000000e+09
2.300000000000000000e+01,2.600000000000000000e+01,2.800000000000000000e+01,2.600000000000000000e+01,2.500000000000000000e+01,3.200000000000000000e+01,2.200000000000000000e+01,3.200000000000000000e+01,4.500000000000000111e-01,8.276909600000000000e+09
2.300000000000000000e+01,2.500000000000000000e+01,2.700000000000000000e+01,2.600000000000000000e+01,2.400000000000000000e+01,2.900000000000000000e+01,2.200000000000000000e+01,3.200000000000000000e+01,4.500000000000000111e-01,8.296048100000000000e+09
2.200000000000000000e+01,2.400000000000000000e+01,2.600000000000000000e+01,2.400000000000000000e+01,2.300000000000000000e+01,3.000000000000000000e+01,2.200000000000000000e+01,3.200000000000000000e+01,4.500000000000000111e-01,8.314979600000000000e+09
2.500000000000000000e+01,2.400000000000000000e+01,2.700000000000000000e+01,2.500000000000000000e+01,2.300000000000000000e+01,3.000000000000000000e+01,2.100000000000000000e+01,3.200000000000000000e+01,4.500000000000000111e-01,8.335601600000000000e+09
2.300000000000000000e+01,2.300000000000000000e+01,2.700000000000000000e+01,2.500000000000000000e+01,2.300000000000000000e+01,3.100000000000000000e+01,2.000000000000000000e+01,2.600000000000000000e+01,4.500000000000000111e-01,8.354505400000000000e+09
2.300000000000000000e+01,2.200000000000000000e+01,2.700000000000000000e+01,2.200000000000000000e+01,2.000000000000000000e+01,3.000000000000000000e+01,2.200000000000000000e+01,3.200000000000000000e+01,4.500000000000000111e-01,8.374161000000000000e+09
2.400000000000000000e+01,2.200000000000000000e+01,2.800000000000000000e+01,2.400000000000000000e+01,2.000000000000000000e+01,3.000000000000000000e+01,2.200000000000000000e+01,3.200000000000000000e+01,4.500000000000000111e-01,8.392214200000000000e+09
2.400000000000000000e+01,2.400000000000000000e+01,3.300000000000000000e+01,2.300000000000000000e+01,1.800000000000000000e+01,2.700000000000000000e+01,2.100000000000000000e+01,3.200000000000000000e+01,4.500000000000000111e-01,8.410594100000000000e+09
2.000000000000000000e+01,2.100000000000000000e+01,3.000000000000000000e+01,2.200000000000000000e+01,1.800000000000000000e+01,2.800000000000000000e+01,2.100000000000000000e+01,3.200000000000000000e+01,4.500000000000000111e-01,8.433341600000000000e+09
2.100000000000000000e+01,2.200000000000000000e+01,3.100000000000000000e+01,2.300000000000000000e+01,1.900000000000000000e+01,2.800000000000000000e+01,2.200000000000000000e+01,3.000000000000000000e+01,4.500000000000000111e-01,8.452732700000000000e+09
2.200000000000000000e+01,2.300000000000000000e+01,3.000000000000000000e+01,2.400000000000000000e+01,2.100000000000000000e+01,2.800000000000000000e+01,2.000000000000000000e+01,2.300000000000000000e+01,4.500000000000000111e-01,8.481309500000000000e+09
2.000000000000000000e+01,2.300000000000000000e+01,3.300000000000000000e+01,2.300000000000000000e+01,2.200000000000000000e+01,3.000000000000000000e+01,2.100000000000000000e+01,2.900000000000000000e+01,4.500000000000000111e-01,8.503258400000000000e+09
2.100000000000000000e+01,2.400000000000000000e+01,3.000000000000000000e+01,2.200000000000000000e+01,2.400000000000000000e+01,3.100000000000000000e+01,2.300000000000000000e+01,3.200000000000000000e+01,4.500000000000000111e-01,8.522014100000000000e+09
2.100000000000000000e+01,2.500000000000000000e+01,3.100000000000000000e+01,2.300000000000000000e+01,2.400000000000000000e+01,3.000000000000000000e+01,2.200000000000000000e+01,3.000000000000000000e+01,4.500000000000000111e-01,8.541693900000000000e+09
2.000000000000000000e+01,2.500000000000000000e+01,3.000000000000000000e+01,2.300000000000000000e+01,2.300000000000000000e+01,3.200000000000000000e+01,2.200000000000000000e+01,3.000000000000000000e+01,4.500000000000000111e-01,8.561497900000000000e+09
2.100000000000000000e+01,2.500000000000000000e+01,3.200000000000000000e+01,2.200000000000000000e+01,2.200000000000000000e+01,2.900000000000000000e+01,2.100000000000000000e+01,3.100000000000000000e+01,4.500000000000000111e-01,8.579810300000000000e+09
2.100000000000000000e+01,2.600000000000000000e+01,2.900000000000000000e+01,2.300000000000000000e+01,2.100000000000000000e+01,2.800000000000000000e+01,2.300000000000000000e+01,3.200000000000000000e+01,4.500000000000000111e-01,8.598030100000000000e+09
2.000000000000000000e+01,2.500000000000000000e+01,2.700000000000000000e+01,2.300000000000000000e+01,2.000000000000000000e+01,2.700000000000000000e+01,2.300000000000000000e+01,3.000000000000000000e+01,4.500000000000000111e-01,8.616762900000000000e+09
2.000000000000000000e+01,2.300000000000000000e+01,2.600000000000000000e+01,2.400000000000000000e+01,2.100000000000000000e+01,2.900000000000000000e+01,2.300000000000000000e+01,3.100000000000000000e+01,4.500000000000000111e-01,8.636163000000000000e+09
2.100000000000000000e+01,2.500000000000000000e+01,2.800000000000000000e+01,2.200000000000000000e+01,2.300000000000000000e+01,2.500000000000000000e+01,2.100000000000000000e+01,3.100000000000000000e+01,4.500000000000000111e-01,8.657287700000000000e+09
2.000000000000000000e+01,2.600000000000000000e+01,2.700000000000000000e+01,2.300000000000000000e+01,2.300000000000000000e+01,2.400000000000000000e+01,2.100000000000000000e+01,3.100000000000000000e+01,4.500000000000000111e-01,8.675844400000000000e+09
2.300000000000000000e+01,2.500000000000000000e+01,2.600000000000000000e+01,2.300000000000000000e+01,2.300000000000000000e+01,2.400000000000000000e+01,1.900000000000000000e+01,2.500000000000000000e+01,4.500000000000000111e-01,8.695492000000000000e+09
2.500000000000000000e+01,2.500000000000000000e+01,2.600000000000000000e+01,2.300000000000000000e+01,2.300000000000000000e+01,2.600000000000000000e+01,1.800000000000000000e+01,2.900000000000000000e+01,4.500000000000000111e-01,8.714314400000000000e+09
2.500000000000000000e+01,2.800000000000000000e+01,2.900000000000000000e+01,2.300000000000000000e+01,2.300000000000000000e+01,2.500000000000000000e+01,2.000000000000000000e+01,3.000000000000000000e+01,4.500000000000000111e-01,8.733406400000000000e+09
2.500000000000000000e+01,2.700000000000000000e+01,2.700000000000000000e+01,2.400000000000000000e+01,2.300000000000000000e+01,2.700000000000000000e+01,1.900000000000000000e+01,3.200000000000000000e+01,4.500000000000000111e-01,8.754899700000000000e+09
2.500000000000000000e+01,2.500000000000000000e+01,2.700000000000000000e+01,2.300000000000000000e+01,2.200000000000000000e+01,2.800000000000000000e+01,2.200000000000000000e+01,3.200000000000000000e+01,4.500000000000000111e-01,8.773501700000000000e+09
2.200000000000000000e+01,2.400000000000000000e+01,2.900000000000000000e+01,2.300000000000000000e+01,2.300000000000000000e+01,2.700000000000000000e+01,2.200000000000000000e+01,3.100000000000000000e+01,4.500000000000000111e-01,8.793142700000000000e+09
2.100000000000000000e+01,2.400000000000000000e+01,3.400000000000000000e+01,2.300000000000000000e+01,2.200000000000000000e+01,2.600000000000000000e+01,2.200000000000000000e+01,2.600000000000000000e+01,4.500000000000000111e-01,8.812576700000000000e+09
2.000000000000000000e+01,2.300000000000000000e+01,3.200000000000000000e+01,2.300000000000000000e+01,2.200000000000000000e+01,2.800000000000000000e+01,2.300000000000000000e+01,2.800000000000000000e+01,4.500000000000000111e-01,8.830409900000000000e+09
2.200000000000000000e+01,2.200000000000000000e+01,3.500000000000000000e+01,2.400000000000000000e+01,2.200000000000000000e+01,2.600000000000000000e+01,2.400000000000000000e+01,2.800000000000000000e+01,4.500000000000000111e-01,8.854244700000000000e+09
2.300000000000000000e+01,2.300000000000000000e+01,3.500000000000000000e+01,2.400000000000000000e+01,2.200000000000000000e+01,2.700000000000000000e+01,2.300000000000000000e+01,2.700000000000000000e+01,4.500000000000000111e-01,8.923561800000000000e+09
2.200000000000000000e+01,2.400000000000000000e+01,3.400000000000000000e+01,2.600000000000000000e+01,2.200000000000000000e+01,3.000000000000000000e+01,2.400000000000000000e+01,2.900000000000000000e+01,4.500000000000000111e-01,8.942660800000000000e+09
2.200000000000000000e+01,2.500000000000000000e+01,3.100000000000000000e+01,2.500000000000000000e+01,2.400000000000000000e+01,3.100000000000000000e+01,2.200000000000000000e+01,2.700000000000000000e+01,4.500000000000000111e-01,8.960153500000000000e+09
2.200000000000000000e+01,2.600000000000000000e+01,3.200000000000000000e+01,2.400000000000000000e+01,2.300000000000000000e+01,2.800000000000000000e+01,2.100000000000000000e+01,2.800000000000000000e+01,4.500000000000000111e-01,9.067572900000000000e+09
2.000000000000000000e+01,2.500000000000000000e+01,3.100000000000000000e+01,2.300000000000000000e+01,2.200000000000000000e+01,2.700000000000000000e+01,2.100000000000000000e+01,2.900000000000000000e+01,4.500000000000000111e-01,9.087153900000000000e+09
2.000000000000000000e+01,2.500000000000000000e+01,3.000000000000000000e+01,2.600000000000000000e+01,2.200000000000000000e+01,3.000000000000000000e+01,2.200000000000000000e+01,3.200000000000000000e+01,4.500000000000000111e-01,9.106048800000000000e+09
2.100000000000000000e+01,2.600000000000000000e+01,2.800000000000000000e+01,2.400000000000000000e+01,2.100000000000000000e+01,2.700000000000000000e+01,2.100000000000000000e+01,3.300000000000000000e+01,4.500000000000000111e-01,9.124810600000000000e+09
2.200000000000000000e+01,2.500000000000000000e+01,2.600000000000000000e+01,2.300000000000000000e+01,2.100000000000000000e+01,2.500000000000000000e+01,2.100000000000000000e+01,3.700000000000000000e+01,4.500000000000000111e-01,9.145316100000000000e+09
2.300000000000000000e+01,2.300000000000000000e+01,2.900000000000000000e+01,2.600000000000000000e+01,2.100000000000000000e+01,2.600000000000000000e+01,2.100000000000000000e+01,3.300000000000000000e+01,4.500000000000000111e-01,9.163364000000000000e+09
2.300000000000000000e+01,2.400000000000000000e+01,2.800000000000000000e+01,2.400000000000000000e+01,2.100000000000000000e+01,2.800000000000000000e+01,2.000000000000000000e+01,3.600000000000000000e+01,4.500000000000000111e-01,9.183364500000000000e+09
2.100000000000000000e+01,2.300000000000000000e+01,2.600000000000000000e+01,2.300000000000000000e+01,2.100000000000000000e+01,2.700000000000000000e+01,1.900000000000000000e+01,3.300000000000000000e+01,4.500000000000000111e-01,9.202696500000000000e+09
2.100000000000000000e+01,2.200000000000000000e+01,2.700000000000000000e+01,2.400000000000000000e+01,2.200000000000000000e+01,2.700000000000000000e+01,2.000000000000000000e+01,3.400000000000000000e+01,4.500000000000000111e-01,9.251185700000000000e+09
2.100000000000000000e+01,2.200000000000000000e+01,2.900000000000000000e+01,2.500000000000000000e+01,2.200000000000000000e+01,2.600000000000000000e+01,2.200000000000000000e+01,3.000000000000000000e+01,4.500000000000000111e-01,9.271349300000000000e+09
2.200000000000000000e+01,2.300000000000000000e+01,3.200000000000000000e+01,2.400000000000000000e+01,2.200000000000000000e+01,2.600000000000000000e+01,2.300000000000000000e+01,3.000000000000000000e+01,4.500000000000000111e-01,9.291012000000000000e+09
2.100000000000000000e+01,2.300000000000000000e+01,3.400000000000000000e+01,2.500000000000000000e+01,2.200000000000000000e+01,2.700000000000000000e+01,2.500000000000000000e+01,2.200000000000000000e+01,4.500000000000000111e-01,9.311618800000000000e+09
2.200000000000000000e+01,2.400000000000000000e+01,3.500000000000000000e+01,2.400000000000000000e+01,2.300000000000000000e+01,2.800000000000000000e+01,2.600000000000000000e+01,3.000000000000000000e+01,4.500000000000000111e-01,9.330881500000000000e+09
2.100000000000000000e+01,2.300000000000000000e+01,3.700000000000000000e+01,2.400000000000000000e+01,2.400000000000000000e+01,2.900000000000000000e+01,2.600000000000000000e+01,2.700000000000000000e+01,4.500000000000000111e-01,9.354553400000000000e+09
2.400000000000000000e+01,2.400000000000000000e+01,3.600000000000000000e+01,2.400000000000000000e+01,2.300000000000000000e+01,3.000000000000000000e+01,2.400000000000000000e+01,2.800000000000000000e+01,4.500000000000000111e-01,9.379282000000000000e+09
2.200000000000000000e+01,2.400000000000000000e+01,3.000000000000000000e+01,2.200000000000000000e+01,2.300000000000000000e+01,3.100000000000000000e+01,2.400000000000000000e+01,3.100000000000000000e+01,4.500000000000000111e-01,9.401666400000000000e+09
2.200000000000000000e+01,2.600000000000000000e+01,3.000000000000000000e+01,2.300000000000000000e+01,2.300000000000000000e+01,2.800000000000000000e+01,2.200000000000000000e+01,3.300000000000000000e+01,4.500000000000000111e-01,9.419592800000000000e+09
2.200000000000000000e+01,2.600000000000000000e+01,3.600000000000000000e+01,2.600000000000000000e+01,2.200000000000000000e+01,2.600000000000000000e+01,2.100000000000000000e+01,3.100000000000000000e+01,4.500000000000000111e-01,9.456806500000000000e+09
2.200000000000000000e+01,2.600000000000000000e+01,3.500000000000000000e+01,2.500000000000000000e+01,2.000000000000000000e+01,2.900000000000000000e+01,2.200000000000000000e+01,3.200000000000000000e+01,4.500000000000000111e-01,9.476187800000000000e+09
1.900000000000000000e+01,2.600000000000000000e+01,3.400000000000000000e+01,2.500000000000000000e+01,2.000000000000000000e+01,2.800000000000000000e+01,2.300000000000000000e+01,3.100000000000000000e+01,4.500000000000000111e-01,9.495385300000000000e+09
2.000000000000000000e+01,2.700000000000000000e+01,3.500000000000000000e+01,2.800000000000000000e+01,2.100000000000000000e+01,2.600000000000000000e+01,2.200000000000000000e+01,2.900000000000000000e+01,4.500000000000000111e-01,9.514441600000000000e+09
2.000000000000000000e+01,2.500000000000000000e+01,3.700000000000000000e+01,2.700000000000000000e+01,2.100000000000000000e+01,2.800000000000000000e+01,2.100000000000000000e+01,2.700000000000000000e+01,4.500000000000000111e-01,9.533140100000000000e+09
2.100000000000000000e+01,2.500000000000000000e+01,3.500000000000000000e+01,2.700000000000000000e+01,2.200000000000000000e+01,2.700000000000000000e+01,2.400000000000000000e+01,3.300000000000000000e+01,4.500000000000000111e-01,9.551031000000000000e+09
2.200000000000000000e+01,2.500000000000000000e+01,3.500000000000000000e+01,2.700000000000000000e+01,2.100000000000000000e+01,2.300000000000000000e+01,2.400000000000000000e+01,3.500000000000000000e+01,4.500000000000000111e-01,9.571017400000000000e+09
2.300000000000000000e+01,2.500000000000000000e+01,3.600000000000000000e+01,2.700000000000000000e+01,2.400000000000000000e+01,2.500000000000000000e+01,2.400000000000000000e+01,3.500000000000000000e+01,4.500000000000000111e-01,9.589321000000000000e+09
2.400000000000000000e+01,2.500000000000000000e+01,3.400000000000000000e+01,2.500000000000000000e+01,2.400000000000000000e+01,2.600000000000000000e+01,2.500000000000000000e+01,3.600000000000000000e+01,4.500000000000000111e-01,9.606910600000000000e+09
2.300000000000000000e+01,2.600000000000000000e+01,2.900000000000000000e+01,2.600000000000000000e+01,2.500000000000000000e+01,2.400000000000000000e+01,2.500000000000000000e+01,3.500000000000000000e+01,4.500000000000000111e-01,9.625323000000000000e+09
2.300000000000000000e+01,2.500000000000000000e+01,2.400000000000000000e+01,2.700000000000000000e+01,2.500000000000000000e+01,2.700000000000000000e+01,2.100000000000000000e+01,2.500000000000000000e+01,4.500000000000000111e-01,9.645699000000000000e+09
2.300000000000000000e+01,2.800000000000000000e+01,2.600000000000000000e+01,2.800000000000000000e+01,2.400000000000000000e+01,2.500000000000000000e+01,1.900000000000000000e+01,2.100000000000000000e+01,4.500000000000000111e-01,9.663810400000000000e+09
2.200000000000000000e+01,2.800000000000000000e+01,2.800000000000000000e+01,2.900000000000000000e+01,2.400000000000000000e+01,2.600000000000000000e+01,2.000000000000000000e+01,2.900000000000000000e+01,4.500000000000000111e-01,9.681607800000000000e+09
2.200000000000000000e+01,2.700000000000000000e+01,2.800000000000000000e+01,2.800000000000000000e+01,2.400000000000000000e+01,2.600000000000000000e+01,2.100000000000000000e+01,3.200000000000000000e+01,4.500000000000000111e-01,9.700579800000000000e+09
2.100000000000000000e+01,2.700000000000000000e+01,2.900000000000000000e+01,2.600000000000000000e+01,2.300000000000000000e+01,2.700000000000000000e+01,2.200000000000000000e+01,3.200000000000000000e+01,4.500000000000000111e-01,9.718402600000000000e+09
1.800000000000000000e+01,2.800000000000000000e+01,2.800000000000000000e+01,2.400000000000000000e+01,2.200000000000000000e+01,2.400000000000000000e+01,2.200000000000000000e+01,3.200000000000000000e+01,4.500000000000000111e-01,9.736249800000000000e+09
1.900000000000000000e+01,2.700000000000000000e+01,2.700000000000000000e+01,2.200000000000000000e+01,2.200000000000000000e+01,2.600000000000000000e+01,2.400000000000000000e+01,3.200000000000000000e+01,4.500000000000000111e-01,9.754669100000000000e+09
1.900000000000000000e+01,2.700000000000000000e+01,2.600000000000000000e+01,2.300000000000000000e+01,2.100000000000000000e+01,2.400000000000000000e+01,2.400000000000000000e+01,2.500000000000000000e+01,4.500000000000000111e-01,9.773558600000000000e+09
1.900000000000000000e+01,2.400000000000000000e+01,2.700000000000000000e+01,2.400000000000000000e+01,2.100000000000000000e+01,2.600000000000000000e+01,2.400000000000000000e+01,2.100000000000000000e+01,4.500000000000000111e-01,9.792640200000000000e+09
2.000000000000000000e+01,2.600000000000000000e+01,2.700000000000000000e+01,2.500000000000000000e+01,2.200000000000000000e+01,2.600000000000000000e+01,2.400000000000000000e+01,2.100000000000000000e+01,4.500000000000000111e-01,9.923477300000000000e+09
2.100000000000000000e+01,2.700000000000000000e+01,3.000000000000000000e+01,2.500000000000000000e+01,2.300000000000000000e+01,2.600000000000000000e+01,2.400000000000000000e+01,2.000000000000000000e+01,4.500000000000000111e-01,9.941621300000000000e+09
2.200000000000000000e+01,2.500000000000000000e+01,3.400000000000000000e+01,2.500000000000000000e+01,2.200000000000000000e+01,2.500000000000000000e+01,2.500000000000000000e+01,2.700000000000000000e+01,4.500000000000000111e-01,9.963768200000000000e+09
2.400000000000000000e+01,2.500000000000000000e+01,3.400000000000000000e+01,2.300000000000000000e+01,2.300000000000000000e+01,2.400000000000000000e+01,2.500000000000000000e+01,2.800000000000000000e+01,4.500000000000000111e-01,9.988680700000000000e+09
2.300000000000000000e+01,2.700000000000000000e+01,3.700000000000000000e+01,2.300000000000000000e+01,2.200000000000000000e+01,2.300000000000000000e+01,2.600000000000000000e+01,2.700000000000000000e+01,4.500000000000000111e-01,1.001463310000000000e+10
2.200000000000000000e+01,2.500000000000000000e+01,3.800000000000000000e+01,2.300000000000000000e+01,2.100000000000000000e+01,2.200000000000000000e+01,2.500000000000000000e+01,2.900000000000000000e+01,4.500000000000000111e-01,1.003378800000000000e+10
2.200000000000000000e+01,2.200000000000000000e+01,3.700000000000000000e+01,2.400000000000000000e+01,2.000000000000000000e+01,2.300000000000000000e+01,2.400000000000000000e+01,3.000000000000000000e+01,4.500000000000000111e-01,1.005179000000000000e+10
2.200000000000000000e+01,2.500000000000000000e+01,3.300000000000000000e+01,2.400000000000000000e+01,2.300000000000000000e+01,2.600000000000000000e+01,2.300000000000000000e+01,2.500000000000000000e+01,4.500000000000000111e-01,1.007033180000000000e+10
2.000000000000000000e+01,2.400000000000000000e+01,3.100000000000000000e+01,2.400000000000000000e+01,2.400000000000000000e+01,2.600000000000000000e+01,2.200000000000000000e+01,2.300000000000000000e+01,4.500000000000000111e-01,1.008839430000000000e+10
2.100000000000000000e+01,2.200000000000000000e+01,2.700000000000000000e+01,2.500000000000000000e+01,2.400000000000000000e+01,2.600000000000000000e+01,2.100000000000000000e+01,2.700000000000000000e+01,4.500000000000000111e-01,1.010575870000000000e+10
2.100000000000000000e+01,2.300000000000000000e+01,2.500000000000000000e+01,2.400000000000000000e+01,2.400000000000000000e+01,2.600000000000000000e+01,2.100000000000000000e+01,2.400000000000000000e+01,4.500000000000000111e-01,1.012380860000000000e+10
2.000000000000000000e+01,2.400000000000000000e+01,2.500000000000000000e+01,2.300000000000000000e+01,2.500000000000000000e+01,2.600000000000000000e+01,2.100000000000000000e+01,2.300000000000000000e+01,4.500000000000000111e-01,1.014285220000000000e+10
2.500000000000000000e+01,2.200000000000000000e+01,2.200000000000000000e+01,2.200000000000000000e+01,2.200000000000000000e+01,2.300000000000000000e+01,1.800000000000000000e+01,2.300000000000000000e+01,4.500000000000000111e-01,1.016146550000000000e+10
2.400000000000000000e+01,2.200000000000000000e+01,2.100000000000000000e+01,2.200000000000000000e+01,2.000000000000000000e+01,2.500000000000000000e+01,2.000000000000000000e+01,2.400000000000000000e+01,4.500000000000000111e-01,1.018047030000000000e+10
2.400000000000000000e+01,2.700000000000000000e+01,2.600000000000000000e+01,2.100000000000000000e+01,2.200000000000000000e+01,2.300000000000000000e+01,1.900000000000000000e+01,2.000000000000000000e+01,4.500000000000000111e-01,1.019990680000000000e+10
2.500000000000000000e+01,2.600000000000000000e+01,2.800000000000000000e+01,2.200000000000000000e+01,2.300000000000000000e+01,2.500000000000000000e+01,2.000000000000000000e+01,2.100000000000000000e+01,4.500000000000000111e-01,1.021743290000000000e+10
2.500000000000000000e+01,2.800000000000000000e+01,2.800000000000000000e+01,2.200000000000000000e+01,2.300000000000000000e+01,2.600000000000000000e+01,2.100000000000000000e+01,2.000000000000000000e+01,4.500000000000000111e-01,1.023511580000000000e+10
2.200000000000000000e+01,2.700000000000000000e+01,3.000000000000000000e+01,2.200000000000000000e+01,2.500000000000000000e+01,2.700000000000000000e+01,2.100000000000000000e+01,3.000000000000000000e+01,4.500000000000000111e-01,1.025337040000000000e+10
2.200000000000000000e+01,2.700000000000000000e+01,3.200000000000000000e+01,2.000000000000000000e+01,2.600000000000000000e+01,2.500000000000000000e+01,2.000000000000000000e+01,3.100000000000000000e+01,4.500000000000000111e-01,1.027225330000000000e+10
2.300000000000000000e+01,2.400000000000000000e+01,2.900000000000000000e+01,1.900000000000000000e+01,2.500000000000000000e+01,2.500000000000000000e+01,2.000000000000000000e+01,3.300000000000000000e+01,4.500000000000000111e-01,1.028993640000000000e+10
2.400000000000000000e+01,2.700000000000000000e+01,2.700000000000000000e+01,2.100000000000000000e+01,2.400000000000000000e+01,2.500000000000000000e+01,2.200000000000000000e+01,3.300000000000000000e+01,4.500000000000000111e-01,1.030794160000000000e+10
2.300000000000000000e+01,2.400000000000000000e+01,2.800000000000000000e+01,2.200000000000000000e+01,2.500000000000000000e+01,2.300000000000000000e+01,2.100000000000000000e+01,3.400000000000000000e+01,4.500000000000000111e-01,1.032615550000000000e+10
2.100000000000000000e+01,2.300000000000000000e+01,2.600000000000000000e+01,2.100000000000000000e+01,2.200000000000000000e+01,2.300000000000000000e+01,2.200000000000000000e+01,2.500000000000000000e+01,4.500000000000000111e-01,1.034475030000000000e+10
