3.400000000000000000e+01,7.200000000000000000e+01,3.180000000000000000e+02,9.400000000000000000e+01,2.700000000000000000e+01,2.400000000000000000e+01,2.200000000000000000e+01,2.700000000000000000e+01,5.999999999999999778e-01,4.836402000000000000e+08
3.300000000000000000e+01,6.000000000000000000e+01,3.090000000000000000e+02,9.000000000000000000e+01,2.700000000000000000e+01,2.600000000000000000e+01,2.200000000000000000e+01,2.800000000000000000e+01,5.999999999999999778e-01,5.161178000000000000e+08
3.400000000000000000e+01,6.000000000000000000e+01,3.000000000000000000e+02,9.600000000000000000e+01,3.000000000000000000e+01,2.700000000000000000e+01,2.300000000000000000e+01,2.800000000000000000e+01,5.999999999999999778e-01,8.683806000000000000e+08
3.300000000000000000e+01,6.000000000000000000e+01,2.950000000000000000e+02,9.100000000000000000e+01,2.800000000000000000e+01,2.600000000000000000e+01,2.100000000000000000e+01,2.500000000000000000e+01,5.999999999999999778e-01,8.864357000000000000e+08
3.300000000000000000e+01,7.300000000000000000e+01,2.910000000000000000e+02,9.700000000000000000e+01,2.800000000000000000e+01,2.400000000000000000e+01,2.100000000000000000e+01,2.600000000000000000e+01,5.999999999999999778e-01,9.047033000000000000e+08
3.700000000000000000e+01,7.300000000000000000e+01,2.920000000000000000e+02,9.900000000000000000e+01,2.900000000000000000e+01,2.500000000000000000e+01,2.000000000000000000e+01,2.600000000000000000e+01,5.899999999999999689e-01,9.240467000000000000e+08
4.000000000000000000e+01,7.600000000000000000e+01,2.850000000000000000e+02,9.900000000000000000e+01,2.700000000000000000e+01,2.500000000000000000e+01,1.900000000000000000e+01,2.600000000000000000e+01,5.899999999999999689e-01,9.424424000000000000e+08
4.300000000000000000e+01,7.600000000000000000e+01,3.060000000000000000e+02,1.050000000000000000e+02,2.800000000000000000e+01,2.700000000000000000e+01,2.000000000000000000e+01,2.700000000000000000e+01,5.899999999999999689e-01,9.626517000000000000e+08
4.500000000000000000e+01,8.800000000000000000e+01,2.760000000000000000e+02,1.110000000000000000e+02,2.800000000000000000e+01,2.800000000000000000e+01,2.200000000000000000e+01,2.900000000000000000e+01,5.899999999999999689e-01,9.804889000000000000e+08
4.700000000000000000e+01,8.400000000000000000e+01,2.760000000000000000e+02,1.190000000000000000e+02,3.300000000000000000e+01,2.800000000000000000e+01,2.100000000000000000e+01,2.900000000000000000e+01,5.899999999999999689e-01,9.980710000000000000e+08
4.700000000000000000e+01,8.700000000000000000e+01,2.780000000000000000e+02,1.090000000000000000e+02,3.100000000000000000e+01,2.800000000000000000e+01,2.200000000000000000e+01,2.800000000000000000e+01,5.899999999999999689e-01,1.015891600000000000e+09
4.600000000000000000e+01,8.700000000000000000e+01,3.050000000000000000e+02,1.180000000000000000e+02,3.300000000000000000e+01,2.800000000000000000e+01,2.200000000000000000e+01,3.000000000000000000e+01,5.899999999999999689e-01,1.035734500000000000e+09
4.400000000000000000e+01,9.300000000000000000e+01,2.920000000000000000e+02,1.060000000000000000e+02,2.900000000000000000e+01,2.500000000000000000e+01,2.100000000000000000e+01,3.000000000000000000e+01,5.899999999999999689e-01,1.054842400000000000e+09
3.900000000000000000e+01,8.000000000000000000e+01,2.960000000000000000e+02,1.130000000000000000e+02,2.900000000000000000e+01,2.600000000000000000e+01,2.300000000000000000e+01,3.000000000000000000e+01,5.899999999999999689e-01,1.072169900000000000e+09
3.800000000000000000e+01,7.400000000000000000e+01,2.870000000000000000e+02,1.050000000000000000e+02,2.500000000000000000e+01,2.700000000000000000e+01,2.500000000000000000e+01,2.900000000000000000e+01,5.899999999999999689e-01,1.088789300000000000e+09
3.400000000000000000e+01,6.700000000000000000e+01,2.720000000000000000e+02,1.020000000000000000e+02,2.700000000000000000e+01,2.900000000000000000e+01,2.500000000000000000e+01,3.100000000000000000e+01,5.899999999999999689e-01,1.105890900000000000e+09
3.000000000000000000e+01,6.600000000000000000e+01,2.740000000000000000e+02,9.100000000000000000e+01,2.500000000000000000e+01,2.900000000000000000e+01,2.600000000000000000e+01,2.800000000000000000e+01,5.899999999999999689e-01,1.122447900000000000e+09
2.800000000000000000e+01,5.200000000000000000e+01,2.580000000000000000e+02,9.300000000000000000e+01,2.600000000000000000e+01,2.900000000000000000e+01,2.600000000000000000e+01,2.600000000000000000e+01,5.899999999999999689e-01,1.140236000000000000e+09
3.300000000000000000e+01,5.200000000000000000e+01,2.460000000000000000e+02,1.090000000000000000e+02,2.800000000000000000e+01,2.800000000000000000e+01,2.500000000000000000e+01,2.700000000000000000e+01,5.899999999999999689e-01,1.181607900000000000e+09
3.300000000000000000e+01,5.600000000000000000e+01,2.470000000000000000e+02,1.090000000000000000e+02,2.800000000000000000e+01,2.700000000000000000e+01,2.300000000000000000e+01,2.600000000000000000e+01,5.899999999999999689e-01,1.200488100000000000e+09
3.200000000000000000e+01,6.100000000000000000e+01,2.340000000000000000e+02,1.170000000000000000e+02,2.900000000000000000e+01,2.400000000000000000e+01,2.400000000000000000e+01,2.300000000000000000e+01,5.899999999999999689e-01,1.217980400000000000e+09
3.400000000000000000e+01,6.300000000000000000e+01,2.650000000000000000e+02,1.170000000000000000e+02,2.900000000000000000e+01,2.300000000000000000e+01,2.400000000000000000e+01,2.500000000000000000e+01,5.899999999999999689e-01,1.238462000000000000e+09
3.700000000000000000e+01,7.200000000000000000e+01,2.680000000000000000e+02,1.200000000000000000e+02,2.900000000000000000e+01,2.300000000000000000e+01,2.300000000000000000e+01,2.800000000000000000e+01,5.899999999999999689e-01,1.256904200000000000e+09
3.200000000000000000e+01,7.400000000000000000e+01,2.570000000000000000e+02,1.110000000000000000e+02,2.700000000000000000e+01,2.200000000000000000e+01,2.200000000000000000e+01,2.900000000000000000e+01,5.899999999999999689e-01,1.274581300000000000e+09
3.200000000000000000e+01,7.300000000000000000e+01,2.730000000000000000e+02,1.150000000000000000e+02,2.700000000000000000e+01,2.200000000000000000e+01,2.300000000000000000e+01,3.000000000000000000e+01,5.899999999999999689e-01,1.291573400000000000e+09
3.100000000000000000e+01,7.200000000000000000e+01,3.000000000000000000e+02,1.190000000000000000e+02,2.300000000000000000e+01,2.300000000000000000e+01,2.100000000000000000e+01,3.000000000000000000e+01,5.899999999999999689e-01,1.310603100000000000e+09
3.600000000000000000e+01,7.000000000000000000e+01,2.970000000000000000e+02,1.260000000000000000e+02,2.400000000000000000e+01,2.400000000000000000e+01,2.100000000000000000e+01,3.200000000000000000e+01,5.899999999999999689e-01,1.329259800000000000e+09
3.400000000000000000e+01,6.700000000000000000e+01,3.040000000000000000e+02,1.220000000000000000e+02,2.300000000000000000e+01,2.400000000000000000e+01,2.200000000000000000e+01,2.800000000000000000e+01,5.999999999999999778e-01,1.348489700000000000e+09
3.400000000000000000e+01,6.300000000000000000e+01,3.210000000000000000e+02,1.010000000000000000e+02,2.300000000000000000e+01,2.600000000000000000e+01,2.200000000000000000e+01,2.700000000000000000e+01,5.999999999999999778e-01,1.366902400000000000e+09
3.500000000000000000e+01,6.400000000000000000e+01,3.410000000000000000e+02,1.150000000000000000e+02,2.900000000000000000e+01,2.500000000000000000e+01,2.300000000000000000e+01,2.500000000000000000e+01,5.999999999999999778e-01,1.384794700000000000e+09
3.800000000000000000e+01,7.200000000000000000e+01,3.160000000000000000e+02,1.110000000000000000e+02,2.800000000000000000e+01,2.600000000000000000e+01,2.100000000000000000e+01,2.500000000000000000e+01,5.999999999999999778e-01,1.401262800000000000e+09
3.300000000000000000e+01,7.400000000000000000e+01,2.870000000000000000e+02,1.110000000000000000e+02,2.800000000000000000e+01,2.500000000000000000e+01,2.200000000000000000e+01,2.200000000000000000e+01,5.999999999999999778e-01,1.418093100000000000e+09
3.400000000000000000e+01,8.700000000000000000e+01,2.970000000000000000e+02,1.370000000000000000e+02,3.400000000000000000e+01,2.400000000000000000e+01,2.200000000000000000e+01,2.500000000000000000e+01,5.999999999999999778e-01,1.439929100000000000e+09
3.800000000000000000e+01,8.800000000000000000e+01,3.000000000000000000e+02,1.390000000000000000e+02,3.600000000000000000e+01,2.400000000000000000e+01,2.300000000000000000e+01,2.500000000000000000e+01,5.999999999999999778e-01,1.457454400000000000e+09
3.900000000000000000e+01,9.000000000000000000e+01,2.720000000000000000e+02,1.210000000000000000e+02,3.000000000000000000e+01,2.300000000000000000e+01,2.100000000000000000e+01,2.700000000000000000e+01,6.099999999999999867e-01,1.476834200000000000e+09
3.700000000000000000e+01,8.200000000000000000e+01,3.440000000000000000e+02,1.320000000000000000e+02,3.500000000000000000e+01,2.400000000000000000e+01,2.200000000000000000e+01,2.700000000000000000e+01,6.099999999999999867e-01,1.494749200000000000e+09
3.500000000000000000e+01,8.100000000000000000e+01,3.480000000000000000e+02,1.280000000000000000e+02,3.400000000000000000e+01,2.400000000000000000e+01,2.100000000000000000e+01,2.500000000000000000e+01,6.099999999999999867e-01,1.513135200000000000e+09
3.500000000000000000e+01,6.600000000000000000e+01,3.510000000000000000e+02,1.030000000000000000e+02,2.800000000000000000e+01,2.700000000000000000e+01,2.000000000000000000e+01,2.500000000000000000e+01,6.099999999999999867e-01,1.532608400000000000e+09
3.500000000000000000e+01,7.300000000000000000e+01,3.770000000000000000e+02,1.060000000000000000e+02,3.000000000000000000e+01,2.600000000000000000e+01,2.200000000000000000e+01,2.800000000000000000e+01,6.099999999999999867e-01,1.552191400000000000e+09
4.200000000000000000e+01,6.500000000000000000e+01,4.440000000000000000e+02,1.070000000000000000e+02,3.100000000000000000e+01,2.700000000000000000e+01,2.200000000000000000e+01,3.100000000000000000e+01,6.099999999999999867e-01,1.571468100000000000e+09
4.300000000000000000e+01,6.500000000000000000e+01,3.980000000000000000e+02,1.130000000000000000e+02,3.000000000000000000e+01,2.600000000000000000e+01,2.200000000000000000e+01,3.100000000000000000e+01,6.099999999999999867e-01,1.590680700000000000e+09
4.600000000000000000e+01,7.600000000000000000e+01,4.780000000000000000e+02,1.290000000000000000e+02,3.400000000000000000e+01,3.000000000000000000e+01,2.500000000000000000e+01,3.400000000000000000e+01,6.199999999999999956e-01,1.608205800000000000e+09
4.800000000000000000e+01,8.100000000000000000e+01,4.900000000000000000e+02,1.570000000000000000e+02,4.000000000000000000e+01,2.900000000000000000e+01,2.500000000000000000e+01,3.500000000000000000e+01,6.199999999999999956e-01,1.626864100000000000e+09
5.000000000000000000e+01,7.800000000000000000e+01,5.520000000000000000e+02,1.730000000000000000e+02,3.700000000000000000e+01,3.100000000000000000e+01,2.300000000000000000e+01,3.600000000000000000e+01,6.199999999999999956e-01,1.646516400000000000e+09
4.500000000000000000e+01,8.200000000000000000e+01,5.230000000000000000e+02,1.920000000000000000e+02,3.900000000000000000e+01,3.300000000000000000e+01,2.500000000000000000e+01,3.500000000000000000e+01,6.300000000000000044e-01,1.663584800000000000e+09
5.300000000000000000e+01,8.800000000000000000e+01,5.590000000000000000e+02,1.860000000000000000e+02,4.200000000000000000e+01,3.400000000000000000e+01,2.900000000000000000e+01,1.390000000000000000e+02,6.300000000000000044e-01,1.680547700000000000e+09
5.400000000000000000e+01,8.000000000000000000e+01,5.480000000000000000e+02,1.880000000000000000e+02,4.000000000000000000e+01,3.300000000000000000e+01,2.800000000000000000e+01,1.490000000000000000e+02,6.300000000000000044e-01,1.697610300000000000e+09
5.300000000000000000e+01,7.500000000000000000e+01,5.620000000000000000e+02,1.800000000000000000e+02,4.300000000000000000e+01,3.500000000000000000e+01,3.500000000000000000e+01,1.540000000000000000e+02,6.300000000000000044e-01,1.715352500000000000e+09
5.300000000000000000e+01,7.700000000000000000e+01,5.010000000000000000e+02,1.800000000000000000e+02,4.400000000000000000e+01,3.500000000000000000e+01,3.400000000000000000e+01,1.600000000000000000e+02,6.300000000000000044e-01,1.736441700000000000e+09
5.400000000000000000e+01,7.300000000000000000e+01,4.720000000000000000e+02,1.690000000000000000e+02,4.200000000000000000e+01,3.600000000000000000e+01,3.400000000000000000e+01,2.080000000000000000e+02,6.300000000000000044e-01,1.757547100000000000e+09
4.800000000000000000e+01,7.900000000000000000e+01,4.680000000000000000e+02,1.590000000000000000e+02,3.900000000000000000e+01,3.500000000000000000e+01,3.300000000000000000e+01,1.780000000000000000e+02,6.300000000000000044e-01,1.775645500000000000e+09
5.300000000000000000e+01,8.100000000000000000e+01,4.500000000000000000e+02,1.870000000000000000e+02,4.100000000000000000e+01,3.500000000000000000e+01,3.400000000000000000e+01,2.290000000000000000e+02,6.199999999999999956e-01,1.793332100000000000e+09
5.800000000000000000e+01,9.000000000000000000e+01,4.370000000000000000e+02,1.770000000000000000e+02,3.500000000000000000e+01,3.200000000000000000e+01,3.100000000000000000e+01,2.290000000000000000e+02,6.199999999999999956e-01,1.811794800000000000e+09
6.600000000000000000e+01,8.700000000000000000e+01,4.630000000000000000e+02,1.890000000000000000e+02,3.600000000000000000e+01,3.400000000000000000e+01,4.700000000000000000e+01,2.820000000000000000e+02,6.199999999999999956e-01,1.830443700000000000e+09
6.700000000000000000e+01,9.500000000000000000e+01,5.090000000000000000e+02,2.230000000000000000e+02,4.500000000000000000e+01,3.600000000000000000e+01,5.000000000000000000e+01,2.660000000000000000e+02,6.099999999999999867e-01,1.850708200000000000e+09
7.100000000000000000e+01,1.050000000000000000e+02,4.700000000000000000e+02,2.380000000000000000e+02,4.800000000000000000e+01,3.800000000000000000e+01,5.300000000000000000e+01,2.940000000000000000e+02,6.099999999999999867e-01,1.868870800000000000e+09
7.600000000000000000e+01,1.710000000000000000e+02,4.750000000000000000e+02,2.360000000000000000e+02,4.800000000000000000e+01,3.600000000000000000e+01,5.700000000000000000e+01,2.900000000000000000e+02,5.999999999999999778e-01,1.886762500000000000e+09
7.900000000000000000e+01,1.670000000000000000e+02,4.810000000000000000e+02,2.340000000000000000e+02,4.800000000000000000e+01,3.600000000000000000e+01,6.900000000000000000e+01,3.200000000000000000e+02,5.999999999999999778e-01,1.904170400000000000e+09
7.400000000000000000e+01,1.740000000000000000e+02,4.620000000000000000e+02,2.350000000000000000e+02,4.800000000000000000e+01,3.400000000000000000e+01,6.500000000000000000e+01,2.750000000000000000e+02,5.899999999999999689e-01,1.921915500000000000e+09
7.800000000000000000e+01,1.930000000000000000e+02,5.040000000000000000e+02,2.140000000000000000e+02,4.400000000000000000e+01,3.000000000000000000e+01,6.900000000000000000e+01,2.980000000000000000e+02,5.799999999999999600e-01,1.940739600000000000e+09
8.100000000000000000e+01,2.200000000000000000e+02,5.330000000000000000e+02,2.060000000000000000e+02,4.200000000000000000e+01,3.000000000000000000e+01,9.200000000000000000e+01,2.770000000000000000e+02,5.799999999999999600e-01,1.960339300000000000e+09
7.400000000000000000e+01,1.960000000000000000e+02,6.030000000000000000e+02,2.550000000000000000e+02,5.300000000000000000e+01,3.300000000000000000e+01,9.100000000000000000e+01,2.790000000000000000e+02,5.799999999999999600e-01,1.978213200000000000e+09
6.800000000000000000e+01,2.230000000000000000e+02,6.810000000000000000e+02,2.680000000000000000e+02,5.300000000000000000e+01,3.600000000000000000e+01,9.400000000000000000e+01,2.720000000000000000e+02,5.699999999999999512e-01,2.183326300000000000e+09
7.200000000000000000e+01,2.300000000000000000e+02,7.530000000000000000e+02,2.610000000000000000e+02,5.400000000000000000e+01,4.000000000000000000e+01,1.050000000000000000e+02,3.020000000000000000e+02,5.699999999999999512e-01,2.201282600000000000e+09
8.200000000000000000e+01,2.300000000000000000e+02,7.310000000000000000e+02,2.520000000000000000e+02,5.200000000000000000e+01,5.200000000000000000e+01,1.970000000000000000e+02,3.510000000000000000e+02,5.600000000000000533e-01,2.218446400000000000e+09
8.700000000000000000e+01,2.260000000000000000e+02,7.230000000000000000e+02,2.550000000000000000e+02,5.000000000000000000e+01,5.300000000000000000e+01,2.010000000000000000e+02,3.430000000000000000e+02,5.600000000000000533e-01,2.238578800000000000e+09
8.900000000000000000e+01,2.090000000000000000e+02,6.350000000000000000e+02,2.090000000000000000e+02,4.100000000000000000e+01,5.400000000000000000e+01,2.120000000000000000e+02,3.210000000000000000e+02,5.600000000000000533e-01,2.256684200000000000e+09
9.400000000000000000e+01,2.100000000000000000e+02,5.740000000000000000e+02,2.110000000000000000e+02,3.900000000000000000e+01,5.500000000000000000e+01,2.150000000000000000e+02,3.410000000000000000e+02,5.500000000000000444e-01,2.274393500000000000e+09
9.500000000000000000e+01,2.050000000000000000e+02,4.790000000000000000e+02,2.050000000000000000e+02,4.000000000000000000e+01,5.500000000000000000e+01,2.230000000000000000e+02,3.850000000000000000e+02,5.500000000000000444e-01,2.291453700000000000e+09
8.200000000000000000e+01,1.850000000000000000e+02,5.050000000000000000e+02,2.190000000000000000e+02,4.200000000000000000e+01,4.600000000000000000e+01,2.050000000000000000e+02,3.210000000000000000e+02,5.500000000000000444e-01,2.308216900000000000e+09
8.600000000000000000e+01,1.540000000000000000e+02,5.440000000000000000e+02,2.080000000000000000e+02,4.000000000000000000e+01,4.300000000000000000e+01,1.980000000000000000e+02,3.210000000000000000e+02,5.400000000000000355e-01,2.325961100000000000e+09
9.500000000000000000e+01,1.570000000000000000e+02,5.690000000000000000e+02,1.990000000000000000e+02,3.500000000000000000e+01,4.000000000000000000e+01,1.910000000000000000e+02,3.140000000000000000e+02,5.400000000000000355e-01,2.346177500000000000e+09
9.100000000000000000e+01,1.140000000000000000e+02,5.280000000000000000e+02,1.840000000000000000e+02,3.600000000000000000e+01,3.500000000000000000e+01,2.040000000000000000e+02,2.970000000000000000e+02,5.400000000000000355e-01,2.365049000000000000e+09
8.700000000000000000e+01,1.060000000000000000e+02,5.770000000000000000e+02,1.870000000000000000e+02,4.100000000000000000e+01,4.000000000000000000e+01,2.260000000000000000e+02,2.230000000000000000e+02,5.400000000000000355e-01,2.382351700000000000e+09
9.000000000000000000e+01,1.160000000000000000e+02,5.380000000000000000e+02,1.990000000000000000e+02,4.000000000000000000e+01,3.700000000000000000e+01,1.790000000000000000e+02,2.170000000000000000e+02,5.400000000000000355e-01,2.399616500000000000e+09
8.000000000000000000e+01,1.110000000000000000e+02,5.140000000000000000e+02,2.110000000000000000e+02,4.500000000000000000e+01,4.000000000000000000e+01,1.790000000000000000e+02,2.110000000000000000e+02,5.400000000000000355e-01,2.416272200000000000e+09
6.400000000000000000e+01,1.010000000000000000e+02,5.110000000000000000e+02,2.030000000000000000e+02,4.400000000000000000e+01,3.800000000000000000e+01,1.740000000000000000e+02,2.530000000000000000e+02,5.400000000000000355e-01,2.437334900000000000e+09
7.000000000000000000e+01,1.090000000000000000e+02,5.200000000000000000e+02,1.930000000000000000e+02,4.400000000000000000e+01,4.000000000000000000e+01,1.590000000000000000e+02,2.140000000000000000e+02,5.400000000000000355e-01,2.455430200000000000e+09
6.900000000000000000e+01,1.180000000000000000e+02,4.590000000000000000e+02,1.890000000000000000e+02,3.900000000000000000e+01,3.500000000000000000e+01,1.150000000000000000e+02,2.330000000000000000e+02,5.400000000000000355e-01,2.473221900000000000e+09
6.400000000000000000e+01,1.090000000000000000e+02,4.940000000000000000e+02,1.980000000000000000e+02,4.100000000000000000e+01,3.700000000000000000e+01,1.180000000000000000e+02,2.300000000000000000e+02,5.400000000000000355e-01,2.491896400000000000e+09
5.500000000000000000e+01,1.030000000000000000e+02,4.910000000000000000e+02,2.100000000000000000e+02,3.900000000000000000e+01,3.400000000000000000e+01,1.100000000000000000e+02,2.310000000000000000e+02,5.400000000000000355e-01,2.508715500000000000e+09
6.400000000000000000e+01,1.170000000000000000e+02,4.840000000000000000e+02,1.940000000000000000e+02,4.000000000000000000e+01,3.900000000000000000e+01,1.220000000000000000e+02,1.880000000000000000e+02,5.500000000000000444e-01,2.526338800000000000e+09
6.200000000000000000e+01,1.110000000000000000e+02,4.940000000000000000e+02,2.110000000000000000e+02,4.100000000000000000e+01,3.900000000000000000e+01,1.140000000000000000e+02,2.450000000000000000e+02,5.500000000000000444e-01,2.547197300000000000e+09
6.800000000000000000e+01,1.140000000000000000e+02,5.030000000000000000e+02,2.090000000000000000e+02,4.000000000000000000e+01,3.900000000000000000e+01,9.500000000000000000e+01,2.340000000000000000e+02,5.500000000000000444e-01,2.565868300000000000e+09
7.200000000000000000e+01,1.190000000000000000e+02,4.710000000000000000e+02,1.720000000000000000e+02,3.800000000000000000e+01,3.700000000000000000e+01,8.700000000000000000e+01,2.320000000000000000e+02,5.600000000000000533e-01,2.583204700000000000e+09
7.900000000000000000e+01,1.200000000000000000e+02,4.740000000000000000e+02,1.470000000000000000e+02,3.600000000000000000e+01,3.800000000000000000e+01,1.010000000000000000e+02,2.310000000000000000e+02,5.600000000000000533e-01,2.601237900000000000e+09
7.300000000000000000e+01,1.270000000000000000e+02,4.610000000000000000e+02,1.450000000000000000e+02,3.500000000000000000e+01,3.300000000000000000e+01,8.400000000000000000e+01,2.500000000000000000e+02,5.600000000000000533e-01,2.618590200000000000e+09
6.900000000000000000e+01,1.380000000000000000e+02,5.270000000000000000e+02,1.550000000000000000e+02,3.900000000000000000e+01,3.400000000000000000e+01,1.260000000000000000e+02,2.250000000000000000e+02,5.500000000000000444e-01,2.638657800000000000e+09
6.300000000000000000e+01,1.220000000000000000e+02,5.320000000000000000e+02,1.600000000000000000e+02,3.800000000000000000e+01,3.300000000000000000e+01,1.350000000000000000e+02,1.980000000000000000e+02,5.600000000000000533e-01,2.656111100000000000e+09
5.700000000000000000e+01,1.170000000000000000e+02,5.610000000000000000e+02,1.710000000000000000e+02,3.900000000000000000e+01,3.500000000000000000e+01,1.570000000000000000e+02,1.900000000000000000e+02,5.600000000000000533e-01,2.673249100000000000e+09
5.300000000000000000e+01,1.250000000000000000e+02,6.040000000000000000e+02,1.770000000000000000e+02,3.800000000000000000e+01,3.300000000000000000e+01,1.520000000000000000e+02,1.900000000000000000e+02,5.600000000000000533e-01,2.690100500000000000e+09
7.700000000000000000e+01,1.260000000000000000e+02,6.610000000000000000e+02,2.110000000000000000e+02,4.300000000000000000e+01,4.000000000000000000e+01,1.860000000000000000e+02,3.050000000000000000e+02,5.600000000000000533e-01,2.707491000000000000e+09
7.600000000000000000e+01,1.170000000000000000e+02,6.480000000000000000e+02,1.920000000000000000e+02,3.800000000000000000e+01,3.900000000000000000e+01,2.040000000000000000e+02,3.030000000000000000e+02,5.600000000000000533e-01,2.725592100000000000e+09
7.700000000000000000e+01,1.370000000000000000e+02,7.300000000000000000e+02,2.090000000000000000e+02,4.700000000000000000e+01,6.400000000000000000e+01,2.800000000000000000e+02,3.370000000000000000e+02,5.500000000000000444e-01,2.746151400000000000e+09
8.100000000000000000e+01,1.490000000000000000e+02,6.820000000000000000e+02,2.230000000000000000e+02,4.600000000000000000e+01,6.500000000000000000e+01,3.060000000000000000e+02,3.830000000000000000e+02,5.500000000000000444e-01,2.765674300000000000e+09
8.100000000000000000e+01,1.410000000000000000e+02,6.240000000000000000e+02,2.240000000000000000e+02,4.800000000000000000e+01,6.500000000000000000e+01,3.880000000000000000e+02,3.910000000000000000e+02,5.400000000000000355e-01,2.783260000000000000e+09
5.600000000000000000e+01,1.210000000000000000e+02,5.630000000000000000e+02,1.970000000000000000e+02,4.300000000000000000e+01,6.600000000000000000e+01,4.450000000000000000e+02,3.460000000000000000e+02,5.400000000000000355e-01,2.800644600000000000e+09
6.800000000000000000e+01,1.190000000000000000e+02,5.190000000000000000e+02,2.070000000000000000e+02,4.700000000000000000e+01,7.000000000000000000e+01,4.950000000000000000e+02,3.420000000000000000e+02,5.300000000000000266e-01,2.818512300000000000e+09
7.100000000000000000e+01,1.100000000000000000e+02,3.380000000000000000e+02,1.960000000000000000e+02,4.200000000000000000e+01,6.300000000000000000e+01,5.300000000000000000e+02,3.230000000000000000e+02,5.300000000000000266e-01,2.840143900000000000e+09
6.800000000000000000e+01,1.160000000000000000e+02,5.300000000000000000e+02,1.890000000000000000e+02,4.300000000000000000e+01,7.100000000000000000e+01,5.540000000000000000e+02,3.240000000000000000e+02,5.300000000000000266e-01,2.858105900000000000e+09
6.900000000000000000e+01,1.230000000000000000e+02,6.080000000000000000e+02,1.930000000000000000e+02,4.200000000000000000e+01,7.300000000000000000e+01,5.370000000000000000e+02,3.280000000000000000e+02,5.200000000000000178e-01,2.875236700000000000e+09
7.000000000000000000e+01,1.320000000000000000e+02,6.050000000000000000e+02,2.080000000000000000e+02,4.700000000000000000e+01,7.100000000000000000e+01,4.960000000000000000e+02,2.840000000000000000e+02,5.100000000000000089e-01,2.892163600000000000e+09
6.100000000000000000e+01,1.420000000000000000e+02,6.910000000000000000e+02,2.280000000000000000e+02,5.200000000000000000e+01,7.300000000000000000e+01,4.620000000000000000e+02,2.800000000000000000e+02,5.100000000000000089e-01,2.908396400000000000e+09
7.200000000000000000e+01,1.410000000000000000e+02,8.980000000000000000e+02,2.370000000000000000e+02,5.300000000000000000e+01,8.300000000000000000e+01,4.400000000000000000e+02,2.970000000000000000e+02,5.000000000000000000e-01,2.926215500000000000e+09
7.800000000000000000e+01,1.230000000000000000e+02,8.260000000000000000e+02,2.240000000000000000e+02,5.200000000000000000e+01,7.900000000000000000e+01,4.160000000000000000e+02,2.370000000000000000e+02,4.899999999999999911e-01,2.946155700000000000e+09
7.800000000000000000e+01,1.310000000000000000e+02,7.910000000000000000e+02,2.160000000000000000e+02,5.200000000000000000e+01,7.900000000000000000e+01,4.150000000000000000e+02,2.230000000000000000e+02,4.899999999999999911e-01,2.964427200000000000e+09
8.200000000000000000e+01,1.290000000000000000e+02,8.140000000000000000e+02,2.110000000000000000e+02,4.900000000000000000e+01,7.900000000000000000e+01,4.350000000000000000e+02,2.170000000000000000e+02,4.799999999999999822e-01,2.983107400000000000e+09
8.800000000000000000e+01,1.230000000000000000e+02,7.530000000000000000e+02,1.810000000000000000e+02,4.400000000000000000e+01,8.200000000000000000e+01,4.710000000000000000e+02,2.510000000000000000e+02,4.799999999999999822e-01,3.000185500000000000e+09
7.800000000000000000e+01,1.180000000000000000e+02,5.530000000000000000e+02,1.690000000000000000e+02,4.300000000000000000e+01,7.200000000000000000e+01,4.630000000000000000e+02,2.130000000000000000e+02,4.799999999999999822e-01,3.017212500000000000e+09
8.100000000000000000e+01,1.370000000000000000e+02,5.610000000000000000e+02,1.660000000000000000e+02,4.300000000000000000e+01,7.500000000000000000e+01,4.880000000000000000e+02,2.400000000000000000e+02,4.799999999999999822e-01,3.037511200000000000e+09
8.900000000000000000e+01,1.310000000000000000e+02,6.120000000000000000e+02,1.690000000000000000e+02,4.200000000000000000e+01,7.600000000000000000e+01,4.770000000000000000e+02,3.100000000000000000e+02,4.799999999999999822e-01,3.055664000000000000e+09
9.000000000000000000e+01,1.360000000000000000e+02,6.680000000000000000e+02,2.140000000000000000e+02,5.100000000000000000e+01,7.800000000000000000e+01,4.430000000000000000e+02,3.370000000000000000e+02,4.699999999999999734e-01,3.072543000000000000e+09
9.100000000000000000e+01,1.350000000000000000e+02,6.830000000000000000e+02,2.240000000000000000e+02,5.100000000000000000e+01,8.900000000000000000e+01,4.390000000000000000e+02,3.450000000000000000e+02,4.699999999999999734e-01,3.089115900000000000e+09
1.040000000000000000e+02,1.530000000000000000e+02,7.030000000000000000e+02,2.520000000000000000e+02,6.100000000000000000e+01,9.200000000000000000e+01,4.740000000000000000e+02,3.490000000000000000e+02,4.699999999999999734e-01,3.106095600000000000e+09
1.000000000000000000e+02,1.470000000000000000e+02,7.260000000000000000e+02,2.740000000000000000e+02,6.500000000000000000e+01,9.400000000000000000e+01,4.750000000000000000e+02,3.410000000000000000e+02,4.699999999999999734e-01,3.122067800000000000e+09
9.900000000000000000e+01,1.710000000000000000e+02,6.950000000000000000e+02,3.080000000000000000e+02,6.800000000000000000e+01,9.700000000000000000e+01,4.720000000000000000e+02,3.390000000000000000e+02,4.799999999999999822e-01,3.143211500000000000e+09
1.020000000000000000e+02,1.930000000000000000e+02,7.400000000000000000e+02,2.880000000000000000e+02,6.300000000000000000e+01,9.500000000000000000e+01,5.130000000000000000e+02,3.360000000000000000e+02,4.799999999999999822e-01,3.160274800000000000e+09
9.600000000000000000e+01,1.920000000000000000e+02,7.250000000000000000e+02,2.920000000000000000e+02,6.700000000000000000e+01,8.700000000000000000e+01,5.240000000000000000e+02,3.360000000000000000e+02,4.899999999999999911e-01,3.178968600000000000e+09
9.700000000000000000e+01,1.900000000000000000e+02,6.780000000000000000e+02,2.630000000000000000e+02,5.600000000000000000e+01,7.700000000000000000e+01,4.760000000000000000e+02,3.320000000000000000e+02,4.899999999999999911e-01,3.197428700000000000e+09
1.030000000000000000e+02,2.160000000000000000e+02,6.880000000000000000e+02,2.600000000000000000e+02,5.900000000000000000e+01,9.000000000000000000e+01,5.510000000000000000e+02,3.390000000000000000e+02,5.000000000000000000e-01,3.214671700000000000e+09
9.700000000000000000e+01,2.030000000000000000e+02,7.260000000000000000e+02,2.260000000000000000e+02,5.900000000000000000e+01,8.800000000000000000e+01,5.340000000000000000e+02,2.770000000000000000e+02,4.899999999999999911e-01,3.233480000000000000e+09
9.300000000000000000e+01,1.850000000000000000e+02,5.900000000000000000e+02,2.320000000000000000e+02,6.000000000000000000e+01,9.100000000000000000e+01,5.080000000000000000e+02,2.420000000000000000e+02,4.899999999999999911e-01,3.252860100000000000e+09
9.700000000000000000e+01,2.060000000000000000e+02,5.920000000000000000e+02,2.440000000000000000e+02,5.300000000000000000e+01,9.100000000000000000e+01,4.970000000000000000e+02,2.910000000000000000e+02,5.000000000000000000e-01,3.270156400000000000e+09
9.200000000000000000e+01,1.930000000000000000e+02,6.460000000000000000e+02,2.440000000000000000e+02,5.400000000000000000e+01,9.800000000000000000e+01,5.060000000000000000e+02,3.110000000000000000e+02,5.000000000000000000e-01,3.286844400000000000e+09
1.130000000000000000e+02,1.700000000000000000e+02,7.240000000000000000e+02,2.360000000000000000e+02,5.700000000000000000e+01,9.900000000000000000e+01,4.480000000000000000e+02,3.460000000000000000e+02,5.100000000000000089e-01,3.304276800000000000e+09
1.170000000000000000e+02,1.790000000000000000e+02,7.060000000000000000e+02,2.420000000000000000e+02,5.800000000000000000e+01,1.010000000000000000e+02,4.880000000000000000e+02,3.880000000000000000e+02,5.100000000000000089e-01,3.320874100000000000e+09
1.360000000000000000e+02,1.770000000000000000e+02,7.390000000000000000e+02,2.410000000000000000e+02,5.900000000000000000e+01,1.080000000000000000e+02,4.890000000000000000e+02,4.040000000000000000e+02,5.100000000000000089e-01,3.341586000000000000e+09
1.340000000000000000e+02,1.880000000000000000e+02,8.500000000000000000e+02,2.440000000000000000e+02,6.600000000000000000e+01,1.030000000000000000e+02,4.460000000000000000e+02,3.450000000000000000e+02,5.100000000000000089e-01,3.360222800000000000e+09
1.360000000000000000e+02,1.990000000000000000e+02,8.210000000000000000e+02,2.390000000000000000e+02,6.600000000000000000e+01,1.150000000000000000e+02,4.910000000000000000e+02,3.350000000000000000e+02,5.100000000000000089e-01,3.378685100000000000e+09
1.170000000000000000e+02,2.150000000000000000e+02,7.690000000000000000e+02,2.350000000000000000e+02,6.000000000000000000e+01,1.090000000000000000e+02,4.880000000000000000e+02,3.280000000000000000e+02,5.100000000000000089e-01,3.396122500000000000e+09
1.190000000000000000e+02,2.180000000000000000e+02,7.930000000000000000e+02,2.160000000000000000e+02,5.800000000000000000e+01,1.120000000000000000e+02,4.730000000000000000e+02,2.990000000000000000e+02,5.100000000000000089e-01,3.413083000000000000e+09
1.160000000000000000e+02,2.240000000000000000e+02,8.200000000000000000e+02,2.070000000000000000e+02,6.200000000000000000e+01,1.100000000000000000e+02,4.780000000000000000e+02,3.350000000000000000e+02,5.000000000000000000e-01,3.431198600000000000e+09
1.230000000000000000e+02,1.940000000000000000e+02,7.010000000000000000e+02,1.740000000000000000e+02,5.800000000000000000e+01,1.230000000000000000e+02,5.870000000000000000e+02,4.340000000000000000e+02,5.000000000000000000e-01,3.451455500000000000e+09
1.250000000000000000e+02,1.920000000000000000e+02,7.550000000000000000e+02,1.800000000000000000e+02,5.700000000000000000e+01,1.210000000000000000e+02,6.410000000000000000e+02,4.790000000000000000e+02,5.000000000000000000e-01,3.468333400000000000e+09
1.240000000000000000e+02,1.630000000000000000e+02,6.970000000000000000e+02,1.860000000000000000e+02,5.500000000000000000e+01,1.120000000000000000e+02,6.100000000000000000e+02,4.570000000000000000e+02,4.899999999999999911e-01,3.486757900000000000e+09
1.310000000000000000e+02,1.370000000000000000e+02,6.610000000000000000e+02,2.000000000000000000e+02,5.700000000000000000e+01,1.230000000000000000e+02,6.150000000000000000e+02,4.880000000000000000e+02,4.899999999999999911e-01,3.503742300000000000e+09
1.140000000000000000e+02,1.210000000000000000e+02,5.990000000000000000e+02,1.860000000000000000e+02,4.700000000000000000e+01,1.260000000000000000e+02,6.600000000000000000e+02,4.570000000000000000e+02,4.899999999999999911e-01,3.521574300000000000e+09
1.090000000000000000e+02,1.440000000000000000e+02,6.110000000000000000e+02,1.860000000000000000e+02,5.000000000000000000e+01,1.180000000000000000e+02,5.740000000000000000e+02,3.810000000000000000e+02,4.799999999999999822e-01,3.542260200000000000e+09
1.400000000000000000e+02,1.460000000000000000e+02,5.690000000000000000e+02,1.830000000000000000e+02,5.000000000000000000e+01,1.080000000000000000e+02,4.890000000000000000e+02,3.590000000000000000e+02,4.799999999999999822e-01,3.560989300000000000e+09
1.450000000000000000e+02,1.550000000000000000e+02,5.940000000000000000e+02,1.680000000000000000e+02,5.100000000000000000e+01,1.340000000000000000e+02,5.540000000000000000e+02,3.880000000000000000e+02,4.799999999999999822e-01,3.577974100000000000e+09
1.420000000000000000e+02,1.870000000000000000e+02,6.000000000000000000e+02,1.660000000000000000e+02,5.400000000000000000e+01,1.320000000000000000e+02,5.830000000000000000e+02,3.670000000000000000e+02,4.699999999999999734e-01,3.594907400000000000e+09
1.430000000000000000e+02,1.860000000000000000e+02,6.900000000000000000e+02,1.880000000000000000e+02,5.400000000000000000e+01,1.350000000000000000e+02,5.870000000000000000e+02,3.900000000000000000e+02,4.699999999999999734e-01,3.611294600000000000e+09
1.460000000000000000e+02,1.770000000000000000e+02,7.300000000000000000e+02,1.910000000000000000e+02,5.000000000000000000e+01,1.320000000000000000e+02,6.290000000000000000e+02,4.180000000000000000e+02,4.699999999999999734e-01,3.629052800000000000e+09
1.360000000000000000e+02,1.730000000000000000e+02,7.380000000000000000e+02,1.960000000000000000e+02,5.200000000000000000e+01,1.510000000000000000e+02,7.320000000000000000e+02,4.200000000000000000e+02,4.699999999999999734e-01,3.649145100000000000e+09
1.400000000000000000e+02,1.830000000000000000e+02,7.470000000000000000e+02,2.100000000000000000e+02,5.500000000000000000e+01,1.380000000000000000e+02,7.010000000000000000e+02,4.520000000000000000e+02,4.699999999999999734e-01,3.667941000000000000e+09
1.430000000000000000e+02,1.570000000000000000e+02,7.300000000000000000e+02,2.160000000000000000e+02,6.200000000000000000e+01,1.410000000000000000e+02,7.210000000000000000e+02,4.560000000000000000e+02,4.699999999999999734e-01,3.686911600000000000e+09
1.490000000000000000e+02,1.570000000000000000e+02,7.030000000000000000e+02,1.970000000000000000e+02,6.100000000000000000e+01,1.310000000000000000e+02,6.830000000000000000e+02,4.470000000000000000e+02,4.699999999999999734e-01,3.704681300000000000e+09
1.530000000000000000e+02,1.510000000000000000e+02,6.690000000000000000e+02,1.890000000000000000e+02,6.400000000000000000e+01,1.490000000000000000e+02,6.940000000000000000e+02,4.270000000000000000e+02,4.699999999999999734e-01,3.721919600000000000e+09
1.410000000000000000e+02,1.550000000000000000e+02,6.300000000000000000e+02,1.920000000000000000e+02,6.500000000000000000e+01,1.490000000000000000e+02,6.620000000000000000e+02,4.370000000000000000e+02,4.699999999999999734e-01,3.741890300000000000e+09
1.370000000000000000e+02,1.460000000000000000e+02,6.080000000000000000e+02,1.870000000000000000e+02,6.300000000000000000e+01,1.450000000000000000e+02,6.300000000000000000e+02,3.750000000000000000e+02,4.699999999999999734e-01,3.759940900000000000e+09
1.360000000000000000e+02,1.600000000000000000e+02,6.360000000000000000e+02,1.910000000000000000e+02,5.900000000000000000e+01,1.330000000000000000e+02,5.620000000000000000e+02,3.410000000000000000e+02,4.699999999999999734e-01,3.776343400000000000e+09
1.320000000000000000e+02,1.610000000000000000e+02,6.060000000000000000e+02,1.960000000000000000e+02,6.000000000000000000e+01,1.370000000000000000e+02,5.800000000000000000e+02,3.380000000000000000e+02,4.699999999999999734e-01,3.794219500000000000e+09
1.440000000000000000e+02,1.770000000000000000e+02,6.260000000000000000e+02,2.100000000000000000e+02,6.300000000000000000e+01,1.430000000000000000e+02,5.310000000000000000e+02,4.330000000000000000e+02,4.699999999999999734e-01,3.812066600000000000e+09
1.360000000000000000e+02,1.730000000000000000e+02,6.710000000000000000e+02,2.180000000000000000e+02,6.300000000000000000e+01,1.230000000000000000e+02,3.930000000000000000e+02,3.890000000000000000e+02,4.699999999999999734e-01,3.834025200000000000e+09
1.330000000000000000e+02,1.620000000000000000e+02,6.540000000000000000e+02,2.170000000000000000e+02,6.400000000000000000e+01,1.230000000000000000e+02,4.600000000000000000e+02,3.980000000000000000e+02,4.699999999999999734e-01,3.853897400000000000e+09
1.420000000000000000e+02,1.620000000000000000e+02,8.090000000000000000e+02,3.030000000000000000e+02,6.900000000000000000e+01,1.210000000000000000e+02,4.750000000000000000e+02,4.260000000000000000e+02,4.699999999999999734e-01,3.871009000000000000e+09
1.410000000000000000e+02,1.650000000000000000e+02,7.920000000000000000e+02,3.010000000000000000e+02,6.900000000000000000e+01,1.330000000000000000e+02,5.580000000000000000e+02,5.290000000000000000e+02,4.799999999999999822e-01,3.888248200000000000e+09
1.420000000000000000e+02,1.800000000000000000e+02,7.830000000000000000e+02,3.290000000000000000e+02,7.200000000000000000e+01,1.180000000000000000e+02,5.980000000000000000e+02,4.890000000000000000e+02,4.799999999999999822e-01,3.904707300000000000e+09
1.500000000000000000e+02,1.930000000000000000e+02,7.540000000000000000e+02,3.320000000000000000e+02,7.600000000000000000e+01,1.280000000000000000e+02,6.880000000000000000e+02,5.170000000000000000e+02,4.899999999999999911e-01,3.921653500000000000e+09
1.680000000000000000e+02,1.950000000000000000e+02,7.800000000000000000e+02,3.620000000000000000e+02,7.800000000000000000e+01,1.360000000000000000e+02,7.380000000000000000e+02,5.210000000000000000e+02,4.899999999999999911e-01,3.942954300000000000e+09
1.600000000000000000e+02,1.970000000000000000e+02,6.650000000000000000e+02,2.990000000000000000e+02,7.300000000000000000e+01,1.390000000000000000e+02,7.800000000000000000e+02,5.090000000000000000e+02,5.000000000000000000e-01,3.961398000000000000e+09
1.640000000000000000e+02,1.940000000000000000e+02,8.030000000000000000e+02,3.060000000000000000e+02,7.600000000000000000e+01,1.360000000000000000e+02,7.510000000000000000e+02,4.300000000000000000e+02,5.100000000000000089e-01,3.978642200000000000e+09
1.810000000000000000e+02,1.760000000000000000e+02,8.700000000000000000e+02,2.730000000000000000e+02,7.300000000000000000e+01,1.580000000000000000e+02,9.440000000000000000e+02,5.600000000000000000e+02,5.200000000000000178e-01,3.995339300000000000e+09
1.800000000000000000e+02,1.740000000000000000e+02,8.840000000000000000e+02,3.230000000000000000e+02,7.600000000000000000e+01,1.560000000000000000e+02,9.230000000000000000e+02,5.580000000000000000e+02,5.300000000000000266e-01,4.012213200000000000e+09
1.720000000000000000e+02,1.810000000000000000e+02,9.520000000000000000e+02,2.980000000000000000e+02,7.600000000000000000e+01,1.620000000000000000e+02,9.080000000000000000e+02,5.810000000000000000e+02,5.400000000000000355e-01,4.030619000000000000e+09
1.710000000000000000e+02,1.660000000000000000e+02,9.320000000000000000e+02,2.770000000000000000e+02,7.500000000000000000e+01,1.740000000000000000e+02,9.640000000000000000e+02,6.230000000000000000e+02,5.600000000000000533e-01,4.050695400000000000e+09
1.680000000000000000e+02,1.780000000000000000e+02,8.800000000000000000e+02,2.810000000000000000e+02,7.200000000000000000e+01,1.720000000000000000e+02,1.013000000000000000e+03,6.150000000000000000e+02,5.699999999999999512e-01,4.068021100000000000e+09
1.550000000000000000e+02,1.940000000000000000e+02,7.980000000000000000e+02,2.740000000000000000e+02,6.700000000000000000e+01,1.560000000000000000e+02,8.640000000000000000e+02,5.230000000000000000e+02,5.799999999999999600e-01,4.085628600000000000e+09
1.490000000000000000e+02,1.750000000000000000e+02,7.600000000000000000e+02,2.030000000000000000e+02,6.100000000000000000e+01,1.510000000000000000e+02,8.440000000000000000e+02,5.040000000000000000e+02,5.799999999999999600e-01,4.103050600000000000e+09
1.370000000000000000e+02,1.700000000000000000e+02,6.580000000000000000e+02,2.050000000000000000e+02,5.700000000000000000e+01,1.380000000000000000e+02,9.040000000000000000e+02,5.010000000000000000e+02,5.799999999999999600e-01,4.119709400000000000e+09
1.450000000000000000e+02,1.880000000000000000e+02,5.990000000000000000e+02,2.520000000000000000e+02,6.800000000000000000e+01,1.370000000000000000e+02,8.830000000000000000e+02,4.550000000000000000e+02,5.799999999999999600e-01,4.138067400000000000e+09
1.560000000000000000e+02,1.970000000000000000e+02,5.550000000000000000e+02,2.530000000000000000e+02,7.300000000000000000e+01,1.420000000000000000e+02,8.530000000000000000e+02,4.340000000000000000e+02,5.799999999999999600e-01,4.157488100000000000e+09
1.440000000000000000e+02,1.990000000000000000e+02,6.000000000000000000e+02,2.740000000000000000e+02,7.600000000000000000e+01,1.320000000000000000e+02,8.200000000000000000e+02,3.880000000000000000e+02,5.799999999999999600e-01,4.175994300000000000e+09
1.400000000000000000e+02,2.100000000000000000e+02,7.010000000000000000e+02,2.690000000000000000e+02,7.500000000000000000e+01,1.280000000000000000e+02,8.230000000000000000e+02,4.200000000000000000e+02,5.799999999999999600e-01,4.193090100000000000e+09
1.540000000000000000e+02,2.620000000000000000e+02,8.670000000000000000e+02,2.840000000000000000e+02,7.600000000000000000e+01,1.300000000000000000e+02,7.710000000000000000e+02,4.070000000000000000e+02,5.799999999999999600e-01,4.209654700000000000e+09
1.540000000000000000e+02,2.590000000000000000e+02,9.530000000000000000e+02,2.800000000000000000e+02,7.300000000000000000e+01,1.310000000000000000e+02,7.470000000000000000e+02,4.030000000000000000e+02,5.699999999999999512e-01,4.227046400000000000e+09
1.350000000000000000e+02,2.640000000000000000e+02,1.006000000000000000e+03,2.730000000000000000e+02,7.100000000000000000e+01,1.240000000000000000e+02,7.840000000000000000e+02,4.350000000000000000e+02,5.699999999999999512e-01,4.247889800000000000e+09
1.250000000000000000e+02,2.520000000000000000e+02,9.890000000000000000e+02,3.010000000000000000e+02,8.100000000000000000e+01,1.310000000000000000e+02,8.240000000000000000e+02,4.180000000000000000e+02,5.600000000000000533e-01,4.266486600000000000e+09
1.310000000000000000e+02,2.850000000000000000e+02,9.670000000000000000e+02,3.000000000000000000e+02,8.100000000000000000e+01,1.420000000000000000e+02,8.470000000000000000e+02,3.990000000000000000e+02,5.500000000000000444e-01,4.283284400000000000e+09
1.180000000000000000e+02,2.370000000000000000e+02,8.680000000000000000e+02,2.790000000000000000e+02,7.600000000000000000e+01,1.360000000000000000e+02,8.320000000000000000e+02,3.830000000000000000e+02,5.400000000000000355e-01,4.300221400000000000e+09
1.180000000000000000e+02,2.240000000000000000e+02,8.300000000000000000e+02,2.800000000000000000e+02,7.200000000000000000e+01,1.190000000000000000e+02,7.830000000000000000e+02,4.170000000000000000e+02,5.500000000000000444e-01,4.316487600000000000e+09
1.260000000000000000e+02,2.150000000000000000e+02,7.760000000000000000e+02,3.230000000000000000e+02,7.700000000000000000e+01,1.120000000000000000e+02,7.570000000000000000e+02,3.820000000000000000e+02,5.500000000000000444e-01,4.334090700000000000e+09
1.390000000000000000e+02,2.550000000000000000e+02,8.200000000000000000e+02,3.730000000000000000e+02,8.300000000000000000e+01,1.060000000000000000e+02,7.470000000000000000e+02,3.660000000000000000e+02,5.500000000000000444e-01,4.354788800000000000e+09
1.410000000000000000e+02,2.410000000000000000e+02,8.290000000000000000e+02,4.040000000000000000e+02,9.300000000000000000e+01,1.200000000000000000e+02,7.090000000000000000e+02,3.930000000000000000e+02,5.500000000000000444e-01,4.372263600000000000e+09
1.380000000000000000e+02,2.510000000000000000e+02,7.930000000000000000e+02,4.280000000000000000e+02,9.800000000000000000e+01,1.200000000000000000e+02,6.690000000000000000e+02,3.940000000000000000e+02,5.500000000000000444e-01,4.389150100000000000e+09
1.430000000000000000e+02,2.580000000000000000e+02,7.510000000000000000e+02,4.270000000000000000e+02,9.800000000000000000e+01,1.650000000000000000e+02,8.240000000000000000e+02,5.270000000000000000e+02,5.400000000000000355e-01,4.407390100000000000e+09
1.400000000000000000e+02,2.780000000000000000e+02,8.550000000000000000e+02,4.480000000000000000e+02,1.020000000000000000e+02,1.610000000000000000e+02,7.740000000000000000e+02,5.240000000000000000e+02,5.400000000000000355e-01,4.425817400000000000e+09
1.230000000000000000e+02,2.450000000000000000e+02,9.120000000000000000e+02,3.830000000000000000e+02,8.500000000000000000e+01,1.580000000000000000e+02,7.610000000000000000e+02,5.250000000000000000e+02,5.400000000000000355e-01,4.445778800000000000e+09
1.130000000000000000e+02,2.170000000000000000e+02,9.560000000000000000e+02,3.600000000000000000e+02,7.400000000000000000e+01,1.440000000000000000e+02,7.480000000000000000e+02,5.000000000000000000e+02,5.400000000000000355e-01,4.462959400000000000e+09
1.180000000000000000e+02,2.160000000000000000e+02,9.680000000000000000e+02,3.170000000000000000e+02,6.500000000000000000e+01,1.380000000000000000e+02,7.440000000000000000e+02,5.030000000000000000e+02,5.500000000000000444e-01,4.480733900000000000e+09
1.160000000000000000e+02,2.370000000000000000e+02,9.790000000000000000e+02,3.710000000000000000e+02,7.600000000000000000e+01,8.700000000000000000e+01,6.070000000000000000e+02,3.560000000000000000e+02,5.500000000000000444e-01,4.497666500000000000e+09
1.340000000000000000e+02,1.950000000000000000e+02,9.140000000000000000e+02,2.960000000000000000e+02,6.100000000000000000e+01,9.900000000000000000e+01,6.010000000000000000e+02,3.770000000000000000e+02,5.500000000000000444e-01,4.514355600000000000e+09
1.450000000000000000e+02,1.880000000000000000e+02,8.220000000000000000e+02,3.210000000000000000e+02,7.000000000000000000e+01,9.400000000000000000e+01,5.530000000000000000e+02,4.050000000000000000e+02,5.500000000000000444e-01,4.532983300000000000e+09
1.490000000000000000e+02,1.810000000000000000e+02,7.120000000000000000e+02,3.090000000000000000e+02,7.100000000000000000e+01,9.000000000000000000e+01,5.450000000000000000e+02,4.220000000000000000e+02,5.500000000000000444e-01,4.555697600000000000e+09
1.470000000000000000e+02,1.640000000000000000e+02,6.840000000000000000e+02,3.220000000000000000e+02,7.500000000000000000e+01,1.020000000000000000e+02,5.310000000000000000e+02,4.240000000000000000e+02,5.500000000000000444e-01,4.573661700000000000e+09
1.330000000000000000e+02,1.270000000000000000e+02,7.250000000000000000e+02,2.460000000000000000e+02,6.100000000000000000e+01,9.200000000000000000e+01,4.460000000000000000e+02,3.850000000000000000e+02,5.500000000000000444e-01,4.590715800000000000e+09
1.130000000000000000e+02,1.330000000000000000e+02,6.780000000000000000e+02,2.530000000000000000e+02,6.100000000000000000e+01,8.000000000000000000e+01,3.690000000000000000e+02,3.830000000000000000e+02,5.500000000000000444e-01,4.608997800000000000e+09
9.900000000000000000e+01,1.290000000000000000e+02,7.030000000000000000e+02,2.130000000000000000e+02,5.300000000000000000e+01,7.500000000000000000e+01,3.180000000000000000e+02,3.540000000000000000e+02,5.500000000000000444e-01,4.627492700000000000e+09
9.300000000000000000e+01,1.360000000000000000e+02,7.470000000000000000e+02,2.610000000000000000e+02,5.300000000000000000e+01,6.900000000000000000e+01,3.750000000000000000e+02,3.040000000000000000e+02,5.500000000000000444e-01,4.647418800000000000e+09
9.800000000000000000e+01,1.440000000000000000e+02,8.010000000000000000e+02,2.680000000000000000e+02,5.300000000000000000e+01,6.100000000000000000e+01,4.070000000000000000e+02,2.870000000000000000e+02,5.500000000000000444e-01,4.665479500000000000e+09
9.700000000000000000e+01,1.370000000000000000e+02,7.380000000000000000e+02,2.470000000000000000e+02,5.500000000000000000e+01,6.400000000000000000e+01,4.220000000000000000e+02,3.080000000000000000e+02,5.500000000000000444e-01,4.682521600000000000e+09
1.000000000000000000e+02,1.340000000000000000e+02,6.950000000000000000e+02,2.510000000000000000e+02,5.600000000000000000e+01,6.600000000000000000e+01,4.460000000000000000e+02,2.850000000000000000e+02,5.500000000000000444e-01,4.699983700000000000e+09
9.600000000000000000e+01,1.270000000000000000e+02,6.450000000000000000e+02,2.440000000000000000e+02,5.600000000000000000e+01,6.800000000000000000e+01,4.530000000000000000e+02,2.640000000000000000e+02,5.500000000000000444e-01,4.718832200000000000e+09
9.800000000000000000e+01,1.300000000000000000e+02,5.740000000000000000e+02,2.220000000000000000e+02,5.900000000000000000e+01,6.600000000000000000e+01,3.700000000000000000e+02,2.620000000000000000e+02,5.500000000000000444e-01,4.737019700000000000e+09
1.020000000000000000e+02,1.360000000000000000e+02,4.610000000000000000e+02,2.040000000000000000e+02,6.100000000000000000e+01,7.700000000000000000e+01,3.970000000000000000e+02,2.880000000000000000e+02,5.400000000000000355e-01,4.757494000000000000e+09
1.260000000000000000e+02,1.390000000000000000e+02,5.120000000000000000e+02,1.980000000000000000e+02,5.900000000000000000e+01,9.000000000000000000e+01,4.310000000000000000e+02,3.370000000000000000e+02,5.400000000000000355e-01,4.775865700000000000e+09
1.220000000000000000e+02,1.490000000000000000e+02,4.980000000000000000e+02,1.930000000000000000e+02,6.100000000000000000e+01,9.000000000000000000e+01,4.060000000000000000e+02,3.310000000000000000e+02,5.400000000000000355e-01,4.793424700000000000e+09
1.270000000000000000e+02,1.520000000000000000e+02,5.660000000000000000e+02,1.890000000000000000e+02,6.000000000000000000e+01,9.100000000000000000e+01,4.000000000000000000e+02,3.650000000000000000e+02,5.300000000000000266e-01,4.811607400000000000e+09
1.260000000000000000e+02,1.540000000000000000e+02,6.100000000000000000e+02,1.720000000000000000e+02,5.700000000000000000e+01,9.100000000000000000e+01,4.150000000000000000e+02,3.690000000000000000e+02,5.300000000000000266e-01,4.831275600000000000e+09
1.110000000000000000e+02,1.480000000000000000e+02,7.290000000000000000e+02,1.780000000000000000e+02,5.300000000000000000e+01,7.700000000000000000e+01,3.100000000000000000e+02,3.280000000000000000e+02,5.200000000000000178e-01,4.851894700000000000e+09
8.900000000000000000e+01,1.390000000000000000e+02,7.070000000000000000e+02,1.810000000000000000e+02,5.000000000000000000e+01,5.500000000000000000e+01,2.140000000000000000e+02,2.640000000000000000e+02,5.200000000000000178e-01,4.869342700000000000e+09
9.800000000000000000e+01,1.300000000000000000e+02,7.180000000000000000e+02,1.890000000000000000e+02,4.600000000000000000e+01,6.200000000000000000e+01,3.380000000000000000e+02,3.100000000000000000e+02,5.100000000000000089e-01,4.886910000000000000e+09
9.000000000000000000e+01,1.250000000000000000e+02,6.560000000000000000e+02,1.890000000000000000e+02,4.800000000000000000e+01,6.000000000000000000e+01,3.410000000000000000e+02,2.800000000000000000e+02,5.100000000000000089e-01,4.905125300000000000e+09
8.700000000000000000e+01,1.190000000000000000e+02,6.490000000000000000e+02,1.860000000000000000e+02,4.800000000000000000e+01,6.200000000000000000e+01,3.230000000000000000e+02,2.770000000000000000e+02,5.000000000000000000e-01,4.922243500000000000e+09
9.500000000000000000e+01,1.250000000000000000e+02,5.210000000000000000e+02,2.160000000000000000e+02,5.100000000000000000e+01,6.800000000000000000e+01,3.750000000000000000e+02,2.830000000000000000e+02,5.000000000000000000e-01,4.940819400000000000e+09
8.400000000000000000e+01,1.240000000000000000e+02,5.330000000000000000e+02,2.200000000000000000e+02,5.300000000000000000e+01,6.800000000000000000e+01,3.940000000000000000e+02,2.540000000000000000e+02,5.000000000000000000e-01,4.961856400000000000e+09
8.700000000000000000e+01,1.350000000000000000e+02,5.420000000000000000e+02,2.120000000000000000e+02,5.300000000000000000e+01,5.900000000000000000e+01,3.520000000000000000e+02,2.700000000000000000e+02,5.000000000000000000e-01,4.979624800000000000e+09
8.900000000000000000e+01,1.700000000000000000e+02,6.520000000000000000e+02,2.330000000000000000e+02,5.100000000000000000e+01,5.700000000000000000e+01,3.540000000000000000e+02,2.680000000000000000e+02,5.000000000000000000e-01,4.997493800000000000e+09
9.100000000000000000e+01,1.680000000000000000e+02,6.180000000000000000e+02,2.220000000000000000e+02,4.900000000000000000e+01,5.300000000000000000e+01,3.780000000000000000e+02,2.720000000000000000e+02,5.000000000000000000e-01,5.016774900000000000e+09
8.000000000000000000e+01,1.540000000000000000e+02,6.600000000000000000e+02,1.950000000000000000e+02,4.100000000000000000e+01,4.000000000000000000e+01,3.280000000000000000e+02,2.770000000000000000e+02,5.000000000000000000e-01,5.036923700000000000e+09
8.300000000000000000e+01,1.620000000000000000e+02,7.540000000000000000e+02,1.970000000000000000e+02,3.900000000000000000e+01,4.400000000000000000e+01,3.290000000000000000e+02,3.260000000000000000e+02,5.000000000000000000e-01,5.056715300000000000e+09
6.700000000000000000e+01,1.520000000000000000e+02,7.840000000000000000e+02,2.010000000000000000e+02,3.600000000000000000e+01,3.900000000000000000e+01,2.800000000000000000e+02,2.610000000000000000e+02,4.899999999999999911e-01,5.075348000000000000e+09
5.500000000000000000e+01,1.090000000000000000e+02,6.850000000000000000e+02,1.810000000000000000e+02,3.400000000000000000e+01,3.900000000000000000e+01,2.660000000000000000e+02,2.380000000000000000e+02,4.899999999999999911e-01,5.093001900000000000e+09
8.900000000000000000e+01,1.400000000000000000e+02,7.390000000000000000e+02,2.090000000000000000e+02,5.100000000000000000e+01,6.200000000000000000e+01,2.610000000000000000e+02,2.580000000000000000e+02,4.899999999999999911e-01,5.110858100000000000e+09
8.800000000000000000e+01,1.460000000000000000e+02,7.590000000000000000e+02,1.980000000000000000e+02,5.000000000000000000e+01,6.200000000000000000e+01,2.530000000000000000e+02,2.420000000000000000e+02,4.899999999999999911e-01,5.130161400000000000e+09
9.100000000000000000e+01,1.490000000000000000e+02,6.170000000000000000e+02,1.950000000000000000e+02,5.000000000000000000e+01,6.000000000000000000e+01,2.390000000000000000e+02,2.210000000000000000e+02,4.899999999999999911e-01,5.152315300000000000e+09
9.700000000000000000e+01,1.510000000000000000e+02,5.830000000000000000e+02,1.790000000000000000e+02,5.100000000000000000e+01,6.000000000000000000e+01,2.160000000000000000e+02,2.190000000000000000e+02,4.899999999999999911e-01,5.170345700000000000e+09
1.140000000000000000e+02,1.510000000000000000e+02,5.930000000000000000e+02,1.660000000000000000e+02,5.100000000000000000e+01,7.000000000000000000e+01,3.070000000000000000e+02,2.560000000000000000e+02,4.899999999999999911e-01,5.188284700000000000e+09
9.000000000000000000e+01,1.190000000000000000e+02,5.270000000000000000e+02,1.290000000000000000e+02,3.300000000000000000e+01,5.600000000000000000e+01,3.130000000000000000e+02,2.370000000000000000e+02,4.899999999999999911e-01,5.207311600000000000e+09
9.700000000000000000e+01,1.190000000000000000e+02,4.420000000000000000e+02,1.330000000000000000e+02,3.600000000000000000e+01,6.000000000000000000e+01,3.210000000000000000e+02,2.480000000000000000e+02,4.899999999999999911e-01,5.226779900000000000e+09
1.020000000000000000e+02,1.070000000000000000e+02,4.690000000000000000e+02,1.160000000000000000e+02,3.400000000000000000e+01,5.900000000000000000e+01,3.190000000000000000e+02,2.340000000000000000e+02,4.899999999999999911e-01,5.246815400000000000e+09
1.010000000000000000e+02,1.140000000000000000e+02,4.780000000000000000e+02,1.340000000000000000e+02,3.700000000000000000e+01,6.000000000000000000e+01,3.240000000000000000e+02,2.270000000000000000e+02,4.899999999999999911e-01,5.265782400000000000e+09
8.500000000000000000e+01,1.230000000000000000e+02,4.760000000000000000e+02,1.500000000000000000e+02,3.700000000000000000e+01,4.800000000000000000e+01,2.330000000000000000e+02,1.930000000000000000e+02,4.899999999999999911e-01,5.285725900000000000e+09
8.300000000000000000e+01,1.210000000000000000e+02,4.670000000000000000e+02,1.630000000000000000e+02,3.700000000000000000e+01,4.000000000000000000e+01,1.910000000000000000e+02,1.850000000000000000e+02,5.000000000000000000e-01,5.305248800000000000e+09
7.700000000000000000e+01,1.130000000000000000e+02,4.370000000000000000e+02,1.610000000000000000e+02,3.400000000000000000e+01,3.400000000000000000e+01,1.930000000000000000e+02,1.690000000000000000e+02,5.100000000000000089e-01,5.322800600000000000e+09
6.300000000000000000e+01,1.120000000000000000e+02,4.820000000000000000e+02,1.590000000000000000e+02,3.500000000000000000e+01,4.100000000000000000e+01,2.050000000000000000e+02,1.150000000000000000e+02,5.200000000000000178e-01,5.344451900000000000e+09
6.400000000000000000e+01,1.030000000000000000e+02,4.550000000000000000e+02,1.620000000000000000e+02,3.800000000000000000e+01,4.000000000000000000e+01,1.950000000000000000e+02,1.850000000000000000e+02,5.300000000000000266e-01,5.366733100000000000e+09
6.400000000000000000e+01,9.200000000000000000e+01,4.520000000000000000e+02,1.490000000000000000e+02,3.500000000000000000e+01,3.700000000000000000e+01,1.750000000000000000e+02,1.720000000000000000e+02,5.300000000000000266e-01,5.385364800000000000e+09
6.900000000000000000e+01,9.500000000000000000e+01,5.250000000000000000e+02,1.560000000000000000e+02,3.900000000000000000e+01,3.900000000000000000e+01,1.770000000000000000e+02,1.700000000000000000e+02,5.400000000000000355e-01,5.403009300000000000e+09
6.700000000000000000e+01,1.050000000000000000e+02,5.560000000000000000e+02,1.500000000000000000e+02,4.100000000000000000e+01,3.900000000000000000e+01,1.660000000000000000e+02,1.750000000000000000e+02,5.500000000000000444e-01,5.422657700000000000e+09
7.000000000000000000e+01,1.070000000000000000e+02,5.150000000000000000e+02,1.550000000000000000e+02,4.000000000000000000e+01,3.400000000000000000e+01,1.290000000000000000e+02,1.810000000000000000e+02,5.600000000000000533e-01,5.446182500000000000e+09
7.300000000000000000e+01,1.220000000000000000e+02,5.290000000000000000e+02,1.480000000000000000e+02,3.600000000000000000e+01,3.700000000000000000e+01,1.200000000000000000e+02,1.090000000000000000e+02,5.600000000000000533e-01,5.464759900000000000e+09
6.900000000000000000e+01,1.240000000000000000e+02,5.760000000000000000e+02,1.720000000000000000e+02,3.800000000000000000e+01,3.600000000000000000e+01,1.160000000000000000e+02,1.030000000000000000e+02,5.799999999999999600e-01,5.484552800000000000e+09
7.100000000000000000e+01,1.240000000000000000e+02,5.340000000000000000e+02,1.520000000000000000e+02,3.300000000000000000e+01,3.300000000000000000e+01,8.200000000000000000e+01,1.770000000000000000e+02,5.799999999999999600e-01,5.502783400000000000e+09
7.900000000000000000e+01,1.240000000000000000e+02,5.610000000000000000e+02,1.470000000000000000e+02,3.200000000000000000e+01,3.500000000000000000e+01,8.300000000000000000e+01,2.040000000000000000e+02,5.899999999999999689e-01,5.522948400000000000e+09
7.600000000000000000e+01,1.220000000000000000e+02,6.110000000000000000e+02,1.420000000000000000e+02,3.200000000000000000e+01,3.300000000000000000e+01,7.600000000000000000e+01,2.010000000000000000e+02,5.799999999999999600e-01,5.542828000000000000e+09
6.900000000000000000e+01,1.100000000000000000e+02,6.480000000000000000e+02,1.400000000000000000e+02,3.300000000000000000e+01,3.400000000000000000e+01,7.500000000000000000e+01,2.020000000000000000e+02,5.799999999999999600e-01,5.563542200000000000e+09
7.200000000000000000e+01,1.140000000000000000e+02,6.120000000000000000e+02,1.100000000000000000e+02,3.400000000000000000e+01,3.400000000000000000e+01,7.600000000000000000e+01,2.020000000000000000e+02,5.799999999999999600e-01,5.582586000000000000e+09
7.700000000000000000e+01,1.130000000000000000e+02,6.120000000000000000e+02,1.100000000000000000e+02,3.300000000000000000e+01,3.400000000000000000e+01,6.800000000000000000e+01,1.400000000000000000e+02,5.799999999999999600e-01,5.601319600000000000e+09
7.200000000000000000e+01,1.160000000000000000e+02,6.700000000000000000e+02,1.250000000000000000e+02,3.500000000000000000e+01,3.200000000000000000e+01,6.400000000000000000e+01,1.580000000000000000e+02,5.799999999999999600e-01,5.622890400000000000e+09
7.700000000000000000e+01,1.230000000000000000e+02,6.430000000000000000e+02,1.230000000000000000e+02,3.500000000000000000e+01,3.400000000000000000e+01,7.700000000000000000e+01,1.630000000000000000e+02,5.799999999999999600e-01,5.644761400000000000e+09
8.000000000000000000e+01,1.290000000000000000e+02,6.040000000000000000e+02,1.290000000000000000e+02,3.100000000000000000e+01,3.000000000000000000e+01,8.100000000000000000e+01,1.610000000000000000e+02,5.799999999999999600e-01,5.664241100000000000e+09
7.600000000000000000e+01,1.190000000000000000e+02,6.400000000000000000e+02,1.300000000000000000e+02,3.200000000000000000e+01,3.100000000000000000e+01,8.100000000000000000e+01,1.810000000000000000e+02,5.799999999999999600e-01,5.683980300000000000e+09
6.200000000000000000e+01,1.140000000000000000e+02,6.330000000000000000e+02,1.300000000000000000e+02,3.100000000000000000e+01,3.300000000000000000e+01,9.500000000000000000e+01,1.790000000000000000e+02,5.699999999999999512e-01,5.703755100000000000e+09
7.100000000000000000e+01,1.200000000000000000e+02,5.140000000000000000e+02,1.370000000000000000e+02,3.100000000000000000e+01,3.300000000000000000e+01,8.700000000000000000e+01,1.980000000000000000e+02,5.699999999999999512e-01,5.723160300000000000e+09
7.100000000000000000e+01,1.140000000000000000e+02,4.890000000000000000e+02,1.480000000000000000e+02,3.200000000000000000e+01,3.500000000000000000e+01,1.780000000000000000e+02,2.040000000000000000e+02,5.600000000000000533e-01,5.745023300000000000e+09
7.200000000000000000e+01,1.070000000000000000e+02,5.060000000000000000e+02,1.410000000000000000e+02,3.100000000000000000e+01,3.400000000000000000e+01,1.930000000000000000e+02,2.520000000000000000e+02,5.600000000000000533e-01,5.765995900000000000e+09
8.300000000000000000e+01,1.200000000000000000e+02,5.740000000000000000e+02,2.030000000000000000e+02,3.700000000000000000e+01,3.400000000000000000e+01,2.130000000000000000e+02,2.610000000000000000e+02,5.600000000000000533e-01,5.784261500000000000e+09
8.300000000000000000e+01,1.310000000000000000e+02,5.670000000000000000e+02,1.980000000000000000e+02,3.700000000000000000e+01,3.600000000000000000e+01,2.750000000000000000e+02,2.690000000000000000e+02,5.600000000000000533e-01,5.802308300000000000e+09
7.300000000000000000e+01,1.290000000000000000e+02,6.010000000000000000e+02,1.980000000000000000e+02,3.700000000000000000e+01,4.200000000000000000e+01,2.850000000000000000e+02,2.550000000000000000e+02,5.500000000000000444e-01,5.821522900000000000e+09
7.200000000000000000e+01,1.380000000000000000e+02,6.520000000000000000e+02,2.230000000000000000e+02,3.900000000000000000e+01,4.100000000000000000e+01,2.390000000000000000e+02,2.480000000000000000e+02,5.500000000000000444e-01,5.842082600000000000e+09
6.800000000000000000e+01,1.490000000000000000e+02,6.800000000000000000e+02,2.250000000000000000e+02,4.300000000000000000e+01,4.300000000000000000e+01,2.320000000000000000e+02,2.070000000000000000e+02,5.500000000000000444e-01,5.864418200000000000e+09
5.900000000000000000e+01,1.380000000000000000e+02,5.760000000000000000e+02,1.670000000000000000e+02,3.600000000000000000e+01,4.200000000000000000e+01,2.210000000000000000e+02,1.800000000000000000e+02,5.500000000000000444e-01,5.884424700000000000e+09
6.500000000000000000e+01,1.330000000000000000e+02,5.880000000000000000e+02,1.750000000000000000e+02,3.600000000000000000e+01,4.000000000000000000e+01,1.320000000000000000e+02,1.690000000000000000e+02,5.500000000000000444e-01,5.903345600000000000e+09
7.200000000000000000e+01,1.270000000000000000e+02,5.710000000000000000e+02,1.840000000000000000e+02,3.700000000000000000e+01,3.800000000000000000e+01,1.830000000000000000e+02,1.110000000000000000e+02,5.500000000000000444e-01,5.922606700000000000e+09
7.200000000000000000e+01,1.270000000000000000e+02,5.180000000000000000e+02,1.950000000000000000e+02,4.100000000000000000e+01,3.900000000000000000e+01,1.940000000000000000e+02,1.800000000000000000e+02,5.600000000000000533e-01,5.944374900000000000e+09
8.200000000000000000e+01,1.160000000000000000e+02,4.540000000000000000e+02,2.100000000000000000e+02,4.100000000000000000e+01,4.200000000000000000e+01,1.940000000000000000e+02,1.700000000000000000e+02,5.600000000000000533e-01,5.966478000000000000e+09
8.300000000000000000e+01,1.240000000000000000e+02,4.420000000000000000e+02,2.160000000000000000e+02,4.300000000000000000e+01,4.400000000000000000e+01,1.900000000000000000e+02,1.690000000000000000e+02,5.699999999999999512e-01,5.986735600000000000e+09
9.500000000000000000e+01,1.290000000000000000e+02,4.670000000000000000e+02,2.160000000000000000e+02,4.400000000000000000e+01,4.600000000000000000e+01,1.940000000000000000e+02,1.730000000000000000e+02,5.799999999999999600e-01,6.004164600000000000e+09
9.500000000000000000e+01,1.270000000000000000e+02,4.910000000000000000e+02,2.030000000000000000e+02,4.100000000000000000e+01,4.200000000000000000e+01,1.290000000000000000e+02,1.690000000000000000e+02,5.899999999999999689e-01,6.023284800000000000e+09
9.800000000000000000e+01,1.210000000000000000e+02,4.810000000000000000e+02,1.660000000000000000e+02,3.700000000000000000e+01,4.400000000000000000e+01,2.040000000000000000e+02,9.400000000000000000e+01,5.999999999999999778e-01,6.041942400000000000e+09
8.800000000000000000e+01,1.140000000000000000e+02,4.510000000000000000e+02,1.370000000000000000e+02,3.100000000000000000e+01,4.000000000000000000e+01,2.200000000000000000e+02,1.000000000000000000e+02,5.999999999999999778e-01,6.062650700000000000e+09
8.700000000000000000e+01,1.050000000000000000e+02,4.730000000000000000e+02,1.340000000000000000e+02,2.900000000000000000e+01,3.700000000000000000e+01,2.230000000000000000e+02,1.030000000000000000e+02,6.099999999999999867e-01,6.080938400000000000e+09
7.600000000000000000e+01,9.400000000000000000e+01,4.990000000000000000e+02,1.310000000000000000e+02,3.500000000000000000e+01,3.600000000000000000e+01,2.180000000000000000e+02,9.100000000000000000e+01,6.099999999999999867e-01,6.100726900000000000e+09
6.800000000000000000e+01,8.600000000000000000e+01,4.610000000000000000e+02,1.360000000000000000e+02,3.500000000000000000e+01,3.700000000000000000e+01,2.150000000000000000e+02,9.000000000000000000e+01,6.199999999999999956e-01,6.119572400000000000e+09
6.000000000000000000e+01,7.600000000000000000e+01,4.460000000000000000e+02,1.330000000000000000e+02,3.100000000000000000e+01,3.200000000000000000e+01,1.270000000000000000e+02,7.700000000000000000e+01,6.199999999999999956e-01,6.143765600000000000e+09
6.700000000000000000e+01,7.900000000000000000e+01,5.220000000000000000e+02,1.320000000000000000e+02,3.500000000000000000e+01,3.100000000000000000e+01,8.400000000000000000e+01,6.200000000000000000e+01,6.199999999999999956e-01,6.165542400000000000e+09
8.600000000000000000e+01,9.700000000000000000e+01,5.180000000000000000e+02,1.710000000000000000e+02,4.200000000000000000e+01,4.000000000000000000e+01,1.020000000000000000e+02,1.900000000000000000e+02,6.199999999999999956e-01,6.183882900000000000e+09
8.000000000000000000e+01,9.200000000000000000e+01,4.490000000000000000e+02,1.680000000000000000e+02,3.700000000000000000e+01,4.000000000000000000e+01,1.000000000000000000e+02,1.970000000000000000e+02,6.199999999999999956e-01,6.201886800000000000e+09
8.300000000000000000e+01,9.200000000000000000e+01,5.030000000000000000e+02,1.630000000000000000e+02,3.900000000000000000e+01,3.900000000000000000e+01,9.900000000000000000e+01,2.040000000000000000e+02,6.099999999999999867e-01,6.220846100000000000e+09
8.200000000000000000e+01,9.500000000000000000e+01,4.870000000000000000e+02,1.680000000000000000e+02,4.100000000000000000e+01,3.800000000000000000e+01,9.600000000000000000e+01,2.060000000000000000e+02,6.099999999999999867e-01,6.240722600000000000e+09
7.600000000000000000e+01,9.500000000000000000e+01,4.750000000000000000e+02,1.660000000000000000e+02,3.900000000000000000e+01,3.900000000000000000e+01,9.700000000000000000e+01,2.070000000000000000e+02,6.099999999999999867e-01,6.262202600000000000e+09
6.200000000000000000e+01,8.100000000000000000e+01,5.150000000000000000e+02,1.360000000000000000e+02,3.400000000000000000e+01,2.900000000000000000e+01,6.000000000000000000e+01,1.050000000000000000e+02,6.099999999999999867e-01,6.280999800000000000e+09
7.500000000000000000e+01,9.100000000000000000e+01,5.190000000000000000e+02,1.320000000000000000e+02,3.400000000000000000e+01,3.100000000000000000e+01,6.400000000000000000e+01,1.600000000000000000e+02,6.099999999999999867e-01,6.300724200000000000e+09
7.500000000000000000e+01,8.900000000000000000e+01,4.650000000000000000e+02,1.240000000000000000e+02,3.300000000000000000e+01,3.000000000000000000e+01,6.800000000000000000e+01,1.510000000000000000e+02,5.999999999999999778e-01,6.320402800000000000e+09
7.400000000000000000e+01,1.020000000000000000e+02,5.140000000000000000e+02,1.080000000000000000e+02,3.100000000000000000e+01,2.900000000000000000e+01,7.500000000000000000e+01,1.500000000000000000e+02,5.999999999999999778e-01,6.345802700000000000e+09
7.600000000000000000e+01,9.900000000000000000e+01,4.780000000000000000e+02,1.070000000000000000e+02,3.000000000000000000e+01,2.800000000000000000e+01,6.900000000000000000e+01,1.510000000000000000e+02,5.999999999999999778e-01,6.366110100000000000e+09
7.200000000000000000e+01,9.700000000000000000e+01,4.300000000000000000e+02,1.130000000000000000e+02,3.100000000000000000e+01,2.900000000000000000e+01,7.000000000000000000e+01,1.480000000000000000e+02,5.999999999999999778e-01,6.384891200000000000e+09
6.000000000000000000e+01,1.050000000000000000e+02,5.120000000000000000e+02,1.080000000000000000e+02,3.300000000000000000e+01,2.800000000000000000e+01,6.200000000000000000e+01,7.300000000000000000e+01,5.999999999999999778e-01,6.402908500000000000e+09
6.500000000000000000e+01,1.180000000000000000e+02,5.540000000000000000e+02,1.300000000000000000e+02,3.200000000000000000e+01,3.100000000000000000e+01,6.600000000000000000e+01,8.000000000000000000e+01,5.999999999999999778e-01,6.421996100000000000e+09
7.400000000000000000e+01,1.020000000000000000e+02,5.270000000000000000e+02,1.360000000000000000e+02,3.500000000000000000e+01,3.300000000000000000e+01,6.200000000000000000e+01,1.720000000000000000e+02,5.999999999999999778e-01,6.442200100000000000e+09
7.000000000000000000e+01,1.010000000000000000e+02,5.460000000000000000e+02,1.320000000000000000e+02,3.500000000000000000e+01,3.400000000000000000e+01,7.300000000000000000e+01,1.720000000000000000e+02,5.999999999999999778e-01,6.463566500000000000e+09
7.300000000000000000e+01,1.080000000000000000e+02,5.200000000000000000e+02,1.150000000000000000e+02,3.100000000000000000e+01,3.400000000000000000e+01,6.800000000000000000e+01,1.870000000000000000e+02,5.999999999999999778e-01,6.481566400000000000e+09
7.500000000000000000e+01,8.800000000000000000e+01,4.470000000000000000e+02,1.430000000000000000e+02,3.400000000000000000e+01,3.100000000000000000e+01,6.900000000000000000e+01,1.880000000000000000e+02,5.999999999999999778e-01,6.501197100000000000e+09
7.500000000000000000e+01,7.700000000000000000e+01,3.860000000000000000e+02,1.380000000000000000e+02,3.500000000000000000e+01,3.100000000000000000e+01,7.200000000000000000e+01,1.910000000000000000e+02,5.999999999999999778e-01,6.520250300000000000e+09
7.000000000000000000e+01,9.000000000000000000e+01,3.800000000000000000e+02,1.460000000000000000e+02,3.400000000000000000e+01,3.200000000000000000e+01,7.400000000000000000e+01,1.730000000000000000e+02,5.999999999999999778e-01,6.540284200000000000e+09
7.700000000000000000e+01,1.020000000000000000e+02,3.110000000000000000e+02,1.700000000000000000e+02,3.700000000000000000e+01,3.600000000000000000e+01,6.200000000000000000e+01,1.710000000000000000e+02,5.999999999999999778e-01,6.562991400000000000e+09
6.900000000000000000e+01,9.300000000000000000e+01,3.450000000000000000e+02,1.730000000000000000e+02,3.700000000000000000e+01,3.400000000000000000e+01,6.400000000000000000e+01,1.590000000000000000e+02,5.999999999999999778e-01,6.581942700000000000e+09
6.400000000000000000e+01,9.900000000000000000e+01,3.480000000000000000e+02,1.600000000000000000e+02,3.300000000000000000e+01,3.600000000000000000e+01,7.800000000000000000e+01,1.580000000000000000e+02,5.999999999999999778e-01,6.600829500000000000e+09
7.800000000000000000e+01,1.270000000000000000e+02,5.040000000000000000e+02,2.110000000000000000e+02,4.300000000000000000e+01,3.800000000000000000e+01,6.900000000000000000e+01,1.580000000000000000e+02,5.999999999999999778e-01,6.621586900000000000e+09
8.100000000000000000e+01,1.260000000000000000e+02,5.230000000000000000e+02,2.030000000000000000e+02,4.200000000000000000e+01,3.700000000000000000e+01,7.200000000000000000e+01,9.300000000000000000e+01,5.999999999999999778e-01,6.641674400000000000e+09
7.800000000000000000e+01,1.290000000000000000e+02,5.930000000000000000e+02,1.910000000000000000e+02,4.100000000000000000e+01,3.200000000000000000e+01,9.500000000000000000e+01,9.100000000000000000e+01,6.099999999999999867e-01,6.662729400000000000e+09
7.800000000000000000e+01,1.280000000000000000e+02,6.110000000000000000e+02,1.830000000000000000e+02,4.100000000000000000e+01,3.200000000000000000e+01,9.600000000000000000e+01,7.800000000000000000e+01,6.099999999999999867e-01,6.682304900000000000e+09
8.400000000000000000e+01,1.340000000000000000e+02,6.120000000000000000e+02,1.940000000000000000e+02,4.300000000000000000e+01,3.400000000000000000e+01,9.700000000000000000e+01,7.400000000000000000e+01,6.199999999999999956e-01,6.701114800000000000e+09
7.900000000000000000e+01,1.080000000000000000e+02,5.000000000000000000e+02,1.610000000000000000e+02,3.600000000000000000e+01,3.100000000000000000e+01,9.900000000000000000e+01,6.400000000000000000e+01,6.199999999999999956e-01,6.720838200000000000e+09
9.200000000000000000e+01,1.100000000000000000e+02,5.220000000000000000e+02,1.590000000000000000e+02,3.800000000000000000e+01,3.300000000000000000e+01,1.020000000000000000e+02,1.430000000000000000e+02,6.199999999999999956e-01,6.746150900000000000e+09
9.200000000000000000e+01,9.400000000000000000e+01,4.490000000000000000e+02,1.540000000000000000e+02,3.600000000000000000e+01,3.300000000000000000e+01,8.000000000000000000e+01,1.460000000000000000e+02,6.300000000000000044e-01,6.766079600000000000e+09
9.200000000000000000e+01,9.300000000000000000e+01,4.360000000000000000e+02,1.610000000000000000e+02,3.600000000000000000e+01,3.400000000000000000e+01,8.300000000000000000e+01,1.570000000000000000e+02,6.300000000000000044e-01,6.785956400000000000e+09
9.200000000000000000e+01,9.000000000000000000e+01,5.040000000000000000e+02,1.490000000000000000e+02,3.400000000000000000e+01,3.500000000000000000e+01,8.100000000000000000e+01,1.650000000000000000e+02,6.300000000000000044e-01,6.803548400000000000e+09
8.300000000000000000e+01,8.400000000000000000e+01,5.010000000000000000e+02,1.050000000000000000e+02,2.900000000000000000e+01,3.200000000000000000e+01,8.500000000000000000e+01,1.670000000000000000e+02,6.300000000000000044e-01,6.823489400000000000e+09
6.500000000000000000e+01,7.900000000000000000e+01,5.120000000000000000e+02,1.290000000000000000e+02,3.100000000000000000e+01,3.000000000000000000e+01,8.200000000000000000e+01,1.040000000000000000e+02,6.400000000000000133e-01,6.851847100000000000e+09
6.500000000000000000e+01,8.300000000000000000e+01,5.250000000000000000e+02,1.320000000000000000e+02,3.300000000000000000e+01,3.000000000000000000e+01,8.300000000000000000e+01,1.010000000000000000e+02,6.300000000000000044e-01,6.870392900000000000e+09
6.500000000000000000e+01,8.300000000000000000e+01,5.210000000000000000e+02,1.400000000000000000e+02,3.300000000000000000e+01,3.000000000000000000e+01,7.900000000000000000e+01,8.300000000000000000e+01,6.300000000000000044e-01,6.888501500000000000e+09
6.100000000000000000e+01,8.000000000000000000e+01,5.220000000000000000e+02,1.560000000000000000e+02,3.700000000000000000e+01,2.600000000000000000e+01,7.000000000000000000e+01,6.900000000000000000e+01,6.300000000000000044e-01,6.908122200000000000e+09
6.100000000000000000e+01,8.100000000000000000e+01,5.210000000000000000e+02,1.610000000000000000e+02,3.800000000000000000e+01,3.000000000000000000e+01,7.200000000000000000e+01,6.000000000000000000e+01,6.300000000000000044e-01,6.927271600000000000e+09
6.200000000000000000e+01,7.300000000000000000e+01,4.770000000000000000e+02,1.440000000000000000e+02,3.400000000000000000e+01,2.900000000000000000e+01,6.400000000000000000e+01,6.600000000000000000e+01,6.300000000000000044e-01,6.947181700000000000e+09
6.100000000000000000e+01,7.900000000000000000e+01,5.080000000000000000e+02,1.480000000000000000e+02,3.700000000000000000e+01,3.100000000000000000e+01,6.400000000000000000e+01,7.000000000000000000e+01,6.300000000000000044e-01,6.965200300000000000e+09
6.200000000000000000e+01,8.000000000000000000e+01,4.960000000000000000e+02,1.830000000000000000e+02,4.000000000000000000e+01,3.200000000000000000e+01,6.500000000000000000e+01,7.000000000000000000e+01,6.300000000000000044e-01,6.984150600000000000e+09
6.400000000000000000e+01,7.300000000000000000e+01,4.120000000000000000e+02,1.640000000000000000e+02,3.400000000000000000e+01,3.100000000000000000e+01,5.900000000000000000e+01,6.500000000000000000e+01,6.300000000000000044e-01,7.002258900000000000e+09
5.700000000000000000e+01,7.200000000000000000e+01,4.190000000000000000e+02,1.590000000000000000e+02,3.200000000000000000e+01,2.700000000000000000e+01,4.500000000000000000e+01,5.900000000000000000e+01,6.300000000000000044e-01,7.020989800000000000e+09
6.200000000000000000e+01,7.400000000000000000e+01,4.280000000000000000e+02,1.640000000000000000e+02,3.400000000000000000e+01,2.700000000000000000e+01,4.100000000000000000e+01,5.400000000000000000e+01,6.300000000000000044e-01,7.042557400000000000e+09
6.500000000000000000e+01,7.900000000000000000e+01,4.010000000000000000e+02,1.850000000000000000e+02,3.900000000000000000e+01,2.800000000000000000e+01,3.800000000000000000e+01,4.300000000000000000e+01,6.400000000000000133e-01,7.064659800000000000e+09
6.500000000000000000e+01,9.200000000000000000e+01,3.940000000000000000e+02,1.380000000000000000e+02,3.700000000000000000e+01,2.600000000000000000e+01,3.400000000000000000e+01,4.400000000000000000e+01,6.400000000000000133e-01,7.082989100000000000e+09
6.200000000000000000e+01,1.050000000000000000e+02,4.030000000000000000e+02,1.390000000000000000e+02,3.800000000000000000e+01,2.800000000000000000e+01,3.600000000000000000e+01,4.800000000000000000e+01,6.400000000000000133e-01,7.100871200000000000e+09
6.600000000000000000e+01,1.100000000000000000e+02,3.790000000000000000e+02,1.380000000000000000e+02,3.800000000000000000e+01,3.000000000000000000e+01,3.600000000000000000e+01,5.500000000000000000e+01,6.400000000000000133e-01,7.120045000000000000e+09
5.500000000000000000e+01,1.120000000000000000e+02,3.520000000000000000e+02,1.420000000000000000e+02,4.000000000000000000e+01,3.100000000000000000e+01,3.600000000000000000e+01,4.900000000000000000e+01,6.400000000000000133e-01,7.143645800000000000e+09
5.400000000000000000e+01,1.100000000000000000e+02,4.300000000000000000e+02,1.140000000000000000e+02,3.300000000000000000e+01,3.000000000000000000e+01,3.500000000000000000e+01,5.100000000000000000e+01,6.400000000000000133e-01,7.162778900000000000e+09
5.500000000000000000e+01,9.500000000000000000e+01,4.500000000000000000e+02,1.110000000000000000e+02,3.200000000000000000e+01,3.000000000000000000e+01,3.400000000000000000e+01,5.500000000000000000e+01,6.400000000000000133e-01,7.181978900000000000e+09
5.200000000000000000e+01,9.800000000000000000e+01,4.430000000000000000e+02,1.080000000000000000e+02,3.200000000000000000e+01,2.900000000000000000e+01,2.900000000000000000e+01,5.100000000000000000e+01,6.400000000000000133e-01,7.201399300000000000e+09
5.600000000000000000e+01,9.700000000000000000e+01,4.620000000000000000e+02,1.160000000000000000e+02,3.300000000000000000e+01,2.800000000000000000e+01,2.900000000000000000e+01,5.400000000000000000e+01,6.400000000000000133e-01,7.221140000000000000e+09
6.200000000000000000e+01,9.200000000000000000e+01,4.780000000000000000e+02,1.010000000000000000e+02,3.000000000000000000e+01,2.700000000000000000e+01,2.800000000000000000e+01,5.400000000000000000e+01,6.400000000000000133e-01,7.242023100000000000e+09
6.800000000000000000e+01,9.700000000000000000e+01,3.770000000000000000e+02,9.200000000000000000e+01,2.900000000000000000e+01,2.600000000000000000e+01,2.400000000000000000e+01,5.400000000000000000e+01,6.400000000000000133e-01,7.263219200000000000e+09
6.600000000000000000e+01,9.700000000000000000e+01,3.650000000000000000e+02,1.000000000000000000e+02,2.900000000000000000e+01,2.700000000000000000e+01,2.600000000000000000e+01,4.700000000000000000e+01,6.400000000000000133e-01,7.282003400000000000e+09
6.800000000000000000e+01,8.400000000000000000e+01,3.830000000000000000e+02,1.150000000000000000e+02,2.900000000000000000e+01,2.800000000000000000e+01,3.100000000000000000e+01,5.000000000000000000e+01,6.400000000000000133e-01,7.300742200000000000e+09
6.600000000000000000e+01,8.400000000000000000e+01,4.510000000000000000e+02,1.070000000000000000e+02,2.900000000000000000e+01,3.000000000000000000e+01,3.100000000000000000e+01,4.400000000000000000e+01,6.400000000000000133e-01,7.320541400000000000e+09
6.800000000000000000e+01,8.700000000000000000e+01,4.310000000000000000e+02,1.130000000000000000e+02,2.800000000000000000e+01,2.900000000000000000e+01,3.200000000000000000e+01,4.600000000000000000e+01,6.400000000000000133e-01,7.343900100000000000e+09
5.500000000000000000e+01,7.200000000000000000e+01,4.300000000000000000e+02,1.170000000000000000e+02,2.600000000000000000e+01,2.800000000000000000e+01,3.200000000000000000e+01,4.200000000000000000e+01,6.400000000000000133e-01,7.364537000000000000e+09
6.500000000000000000e+01,9.200000000000000000e+01,4.320000000000000000e+02,1.210000000000000000e+02,3.000000000000000000e+01,2.700000000000000000e+01,3.200000000000000000e+01,4.300000000000000000e+01,6.400000000000000133e-01,7.383452600000000000e+09
7.200000000000000000e+01,1.160000000000000000e+02,5.180000000000000000e+02,1.250000000000000000e+02,3.400000000000000000e+01,2.700000000000000000e+01,2.500000000000000000e+01,3.900000000000000000e+01,6.400000000000000133e-01,7.402132300000000000e+09
7.300000000000000000e+01,1.190000000000000000e+02,5.060000000000000000e+02,1.280000000000000000e+02,3.300000000000000000e+01,2.500000000000000000e+01,2.500000000000000000e+01,3.900000000000000000e+01,6.400000000000000133e-01,7.421172500000000000e+09
6.800000000000000000e+01,1.200000000000000000e+02,5.000000000000000000e+02,1.280000000000000000e+02,3.300000000000000000e+01,2.700000000000000000e+01,2.300000000000000000e+01,3.800000000000000000e+01,6.400000000000000133e-01,7.441570600000000000e+09
6.600000000000000000e+01,1.230000000000000000e+02,5.550000000000000000e+02,1.330000000000000000e+02,3.400000000000000000e+01,2.600000000000000000e+01,2.400000000000000000e+01,3.700000000000000000e+01,6.400000000000000133e-01,7.463226800000000000e+09
6.000000000000000000e+01,1.140000000000000000e+02,5.360000000000000000e+02,1.320000000000000000e+02,3.200000000000000000e+01,2.800000000000000000e+01,2.200000000000000000e+01,3.600000000000000000e+01,6.400000000000000133e-01,7.481911100000000000e+09
6.700000000000000000e+01,8.900000000000000000e+01,4.260000000000000000e+02,1.160000000000000000e+02,2.600000000000000000e+01,2.600000000000000000e+01,3.200000000000000000e+01,4.600000000000000000e+01,6.400000000000000133e-01,7.502252300000000000e+09
6.900000000000000000e+01,8.600000000000000000e+01,4.470000000000000000e+02,1.260000000000000000e+02,2.800000000000000000e+01,2.600000000000000000e+01,3.300000000000000000e+01,4.500000000000000000e+01,6.400000000000000133e-01,7.521673000000000000e+09
6.900000000000000000e+01,8.700000000000000000e+01,4.530000000000000000e+02,1.220000000000000000e+02,2.800000000000000000e+01,2.300000000000000000e+01,3.400000000000000000e+01,4.600000000000000000e+01,6.500000000000000222e-01,7.545266100000000000e+09
6.800000000000000000e+01,8.600000000000000000e+01,3.870000000000000000e+02,1.080000000000000000e+02,2.900000000000000000e+01,2.600000000000000000e+01,3.600000000000000000e+01,4.700000000000000000e+01,6.500000000000000222e-01,7.563874400000000000e+09
6.900000000000000000e+01,7.900000000000000000e+01,3.880000000000000000e+02,1.080000000000000000e+02,2.800000000000000000e+01,2.600000000000000000e+01,3.800000000000000000e+01,5.000000000000000000e+01,6.500000000000000222e-01,7.583060500000000000e+09
5.400000000000000000e+01,7.000000000000000000e+01,4.930000000000000000e+02,1.110000000000000000e+02,2.900000000000000000e+01,2.400000000000000000e+01,4.900000000000000000e+01,4.200000000000000000e+01,6.500000000000000222e-01,7.602025300000000000e+09
5.800000000000000000e+01,6.300000000000000000e+01,4.070000000000000000e+02,9.300000000000000000e+01,2.800000000000000000e+01,2.700000000000000000e+01,4.900000000000000000e+01,4.400000000000000000e+01,6.400000000000000133e-01,7.621295700000000000e+09
6.200000000000000000e+01,6.300000000000000000e+01,3.820000000000000000e+02,1.010000000000000000e+02,2.800000000000000000e+01,2.800000000000000000e+01,6.300000000000000000e+01,4.900000000000000000e+01,6.400000000000000133e-01,7.641557400000000000e+09
6.400000000000000000e+01,6.100000000000000000e+01,3.790000000000000000e+02,1.050000000000000000e+02,2.400000000000000000e+01,2.600000000000000000e+01,6.600000000000000000e+01,5.100000000000000000e+01,6.400000000000000133e-01,7.662742200000000000e+09
6.100000000000000000e+01,6.400000000000000000e+01,3.740000000000000000e+02,9.900000000000000000e+01,2.900000000000000000e+01,2.500000000000000000e+01,6.800000000000000000e+01,4.900000000000000000e+01,6.400000000000000133e-01,7.681426600000000000e+09
6.000000000000000000e+01,7.200000000000000000e+01,3.630000000000000000e+02,1.100000000000000000e+02,3.300000000000000000e+01,3.000000000000000000e+01,8.300000000000000000e+01,5.600000000000000000e+01,6.400000000000000133e-01,7.700221900000000000e+09
5.200000000000000000e+01,8.100000000000000000e+01,5.000000000000000000e+02,1.210000000000000000e+02,3.200000000000000000e+01,2.700000000000000000e+01,8.400000000000000000e+01,5.200000000000000000e+01,6.400000000000000133e-01,7.720158700000000000e+09
4.800000000000000000e+01,1.020000000000000000e+02,5.590000000000000000e+02,1.390000000000000000e+02,3.600000000000000000e+01,3.000000000000000000e+01,8.000000000000000000e+01,4.600000000000000000e+01,6.400000000000000133e-01,7.744810300000000000e+09
5.100000000000000000e+01,1.060000000000000000e+02,6.020000000000000000e+02,1.410000000000000000e+02,3.700000000000000000e+01,3.100000000000000000e+01,7.900000000000000000e+01,4.600000000000000000e+01,6.400000000000000133e-01,7.764504400000000000e+09
6.200000000000000000e+01,1.120000000000000000e+02,6.400000000000000000e+02,1.420000000000000000e+02,3.400000000000000000e+01,3.100000000000000000e+01,9.300000000000000000e+01,6.700000000000000000e+01,6.300000000000000044e-01,7.783553900000000000e+09
6.700000000000000000e+01,1.110000000000000000e+02,5.890000000000000000e+02,1.440000000000000000e+02,3.400000000000000000e+01,3.300000000000000000e+01,9.500000000000000000e+01,6.600000000000000000e+01,6.300000000000000044e-01,7.803001700000000000e+09
6.400000000000000000e+01,1.030000000000000000e+02,5.140000000000000000e+02,1.380000000000000000e+02,3.700000000000000000e+01,3.300000000000000000e+01,9.700000000000000000e+01,6.600000000000000000e+01,6.300000000000000044e-01,7.821745900000000000e+09
6.600000000000000000e+01,8.200000000000000000e+01,5.320000000000000000e+02,1.150000000000000000e+02,3.500000000000000000e+01,3.100000000000000000e+01,9.400000000000000000e+01,6.800000000000000000e+01,6.300000000000000044e-01,7.843975600000000000e+09
6.400000000000000000e+01,7.800000000000000000e+01,5.090000000000000000e+02,1.370000000000000000e+02,3.600000000000000000e+01,3.200000000000000000e+01,9.400000000000000000e+01,6.700000000000000000e+01,6.300000000000000044e-01,7.866589600000000000e+09
6.700000000000000000e+01,9.900000000000000000e+01,4.590000000000000000e+02,1.330000000000000000e+02,3.400000000000000000e+01,3.100000000000000000e+01,7.800000000000000000e+01,4.800000000000000000e+01,6.300000000000000044e-01,7.885507600000000000e+09
6.500000000000000000e+01,9.700000000000000000e+01,4.420000000000000000e+02,1.180000000000000000e+02,3.000000000000000000e+01,2.600000000000000000e+01,4.500000000000000000e+01,4.500000000000000000e+01,6.300000000000000044e-01,7.903753700000000000e+09
7.000000000000000000e+01,1.040000000000000000e+02,4.180000000000000000e+02,1.270000000000000000e+02,2.900000000000000000e+01,2.700000000000000000e+01,4.100000000000000000e+01,4.800000000000000000e+01,6.300000000000000044e-01,7.922278000000000000e+09
7.000000000000000000e+01,1.090000000000000000e+02,3.150000000000000000e+02,1.320000000000000000e+02,3.300000000000000000e+01,2.900000000000000000e+01,3.600000000000000000e+01,4.400000000000000000e+01,6.300000000000000044e-01,7.942153600000000000e+09
7.500000000000000000e+01,1.180000000000000000e+02,4.000000000000000000e+02,1.380000000000000000e+02,3.300000000000000000e+01,2.800000000000000000e+01,3.500000000000000000e+01,4.300000000000000000e+01,6.300000000000000044e-01,7.964597300000000000e+09
6.400000000000000000e+01,9.500000000000000000e+01,4.240000000000000000e+02,1.430000000000000000e+02,3.600000000000000000e+01,3.100000000000000000e+01,3.400000000000000000e+01,4.000000000000000000e+01,6.300000000000000044e-01,7.984813100000000000e+09
5.900000000000000000e+01,9.300000000000000000e+01,4.320000000000000000e+02,1.480000000000000000e+02,3.700000000000000000e+01,3.000000000000000000e+01,3.500000000000000000e+01,3.400000000000000000e+01,6.300000000000000044e-01,8.003028600000000000e+09
5.200000000000000000e+01,8.700000000000000000e+01,4.160000000000000000e+02,1.410000000000000000e+02,3.800000000000000000e+01,3.000000000000000000e+01,3.500000000000000000e+01,3.400000000000000000e+01,6.400000000000000133e-01,8.021497100000000000e+09
5.200000000000000000e+01,7.900000000000000000e+01,4.200000000000000000e+02,1.470000000000000000e+02,3.300000000000000000e+01,2.800000000000000000e+01,3.400000000000000000e+01,3.500000000000000000e+01,6.400000000000000133e-01,8.045982600000000000e+09
5.400000000000000000e+01,6.200000000000000000e+01,3.360000000000000000e+02,1.300000000000000000e+02,3.000000000000000000e+01,3.000000000000000000e+01,3.600000000000000000e+01,4.600000000000000000e+01,6.400000000000000133e-01,8.065371400000000000e+09
5.600000000000000000e+01,7.800000000000000000e+01,3.580000000000000000e+02,1.450000000000000000e+02,3.100000000000000000e+01,3.100000000000000000e+01,3.300000000000000000e+01,4.700000000000000000e+01,6.400000000000000133e-01,8.084421700000000000e+09
5.600000000000000000e+01,8.600000000000000000e+01,4.490000000000000000e+02,1.560000000000000000e+02,3.400000000000000000e+01,3.000000000000000000e+01,3.300000000000000000e+01,4.700000000000000000e+01,6.400000000000000133e-01,8.103401200000000000e+09
5.900000000000000000e+01,8.600000000000000000e+01,4.460000000000000000e+02,1.590000000000000000e+02,3.300000000000000000e+01,2.900000000000000000e+01,5.400000000000000000e+01,4.600000000000000000e+01,6.400000000000000133e-01,8.122572600000000000e+09
6.300000000000000000e+01,8.500000000000000000e+01,4.610000000000000000e+02,1.470000000000000000e+02,3.200000000000000000e+01,2.900000000000000000e+01,5.400000000000000000e+01,4.600000000000000000e+01,6.500000000000000222e-01,8.143939500000000000e+09
5.900000000000000000e+01,8.800000000000000000e+01,4.600000000000000000e+02,1.350000000000000000e+02,3.200000000000000000e+01,2.800000000000000000e+01,5.400000000000000000e+01,3.600000000000000000e+01,6.500000000000000222e-01,8.164515000000000000e+09
6.000000000000000000e+01,7.900000000000000000e+01,4.410000000000000000e+02,1.160000000000000000e+02,3.000000000000000000e+01,2.600000000000000000e+01,5.300000000000000000e+01,3.700000000000000000e+01,6.500000000000000222e-01,8.184396100000000000e+09
6.000000000000000000e+01,6.600000000000000000e+01,3.400000000000000000e+02,1.130000000000000000e+02,3.000000000000000000e+01,2.800000000000000000e+01,6.700000000000000000e+01,4.300000000000000000e+01,6.500000000000000222e-01,8.203207400000000000e+09
6.300000000000000000e+01,7.500000000000000000e+01,3.430000000000000000e+02,1.070000000000000000e+02,3.000000000000000000e+01,2.800000000000000000e+01,6.300000000000000000e+01,3.900000000000000000e+01,6.500000000000000222e-01,8.221947600000000000e+09
5.600000000000000000e+01,7.500000000000000000e+01,3.950000000000000000e+02,1.090000000000000000e+02,3.100000000000000000e+01,3.100000000000000000e+01,6.800000000000000000e+01,4.100000000000000000e+01,6.500000000000000222e-01,8.245105400000000000e+09
5.500000000000000000e+01,6.800000000000000000e+01,3.700000000000000000e+02,1.110000000000000000e+02,3.100000000000000000e+01,2.800000000000000000e+01,7.100000000000000000e+01,4.100000000000000000e+01,6.400000000000000133e-01,8.263931000000000000e+09
5.400000000000000000e+01,7.300000000000000000e+01,3.590000000000000000e+02,1.160000000000000000e+02,3.000000000000000000e+01,2.700000000000000000e+01,7.200000000000000000e+01,3.900000000000000000e+01,6.400000000000000133e-01,8.283038500000000000e+09
5.600000000000000000e+01,7.900000000000000000e+01,4.020000000000000000e+02,1.060000000000000000e+02,2.900000000000000000e+01,2.800000000000000000e+01,6.100000000000000000e+01,3.600000000000000000e+01,6.400000000000000133e-01,8.302520100000000000e+09
5.000000000000000000e+01,7.700000000000000000e+01,4.230000000000000000e+02,1.060000000000000000e+02,3.100000000000000000e+01,3.000000000000000000e+01,4.700000000000000000e+01,3.500000000000000000e+01,6.400000000000000133e-01,8.321373500000000000e+09
5.700000000000000000e+01,7.900000000000000000e+01,3.760000000000000000e+02,1.110000000000000000e+02,2.900000000000000000e+01,2.700000000000000000e+01,4.400000000000000000e+01,4.700000000000000000e+01,6.400000000000000133e-01,8.340893800000000000e+09
5.300000000000000000e+01,9.100000000000000000e+01,4.330000000000000000e+02,1.280000000000000000e+02,2.900000000000000000e+01,3.200000000000000000e+01,3.700000000000000000e+01,4.500000000000000000e+01,6.400000000000000133e-01,8.363624800000000000e+09
4.900000000000000000e+01,7.900000000000000000e+01,4.250000000000000000e+02,1.160000000000000000e+02,2.800000000000000000e+01,3.300000000000000000e+01,3.400000000000000000e+01,4.500000000000000000e+01,6.400000000000000133e-01,8.382542200000000000e+09
5.000000000000000000e+01,7.800000000000000000e+01,3.750000000000000000e+02,1.150000000000000000e+02,2.900000000000000000e+01,3.200000000000000000e+01,3.200000000000000000e+01,4.500000000000000000e+01,6.400000000000000133e-01,8.401256400000000000e+09
5.000000000000000000e+01,7.000000000000000000e+01,3.440000000000000000e+02,1.110000000000000000e+02,2.600000000000000000e+01,2.900000000000000000e+01,3.100000000000000000e+01,4.300000000000000000e+01,6.400000000000000133e-01,8.421804200000000000e+09
4.400000000000000000e+01,6.500000000000000000e+01,3.130000000000000000e+02,9.900000000000000000e+01,2.600000000000000000e+01,2.800000000000000000e+01,2.500000000000000000e+01,2.900000000000000000e+01,6.300000000000000044e-01,8.445581300000000000e+09
5.700000000000000000e+01,4.800000000000000000e+01,1.880000000000000000e+02,7.300000000000000000e+01,2.600000000000000000e+01,2.700000000000000000e+01,2.500000000000000000e+01,3.600000000000000000e+01,6.300000000000000044e-01,8.464874600000000000e+09
5.600000000000000000e+01,4.700000000000000000e+01,2.130000000000000000e+02,7.400000000000000000e+01,2.700000000000000000e+01,2.500000000000000000e+01,2.400000000000000000e+01,4.300000000000000000e+01,6.300000000000000044e-01,8.484192100000000000e+09
5.300000000000000000e+01,7.500000000000000000e+01,2.200000000000000000e+02,6.700000000000000000e+01,2.400000000000000000e+01,2.600000000000000000e+01,2.500000000000000000e+01,4.400000000000000000e+01,6.199999999999999956e-01,8.502470000000000000e+09
5.500000000000000000e+01,9.700000000000000000e+01,3.140000000000000000e+02,9.100000000000000000e+01,2.700000000000000000e+01,2.700000000000000000e+01,2.500000000000000000e+01,4.800000000000000000e+01,6.199999999999999956e-01,8.521339100000000000e+09
5.500000000000000000e+01,1.030000000000000000e+02,3.400000000000000000e+02,1.230000000000000000e+02,3.500000000000000000e+01,2.800000000000000000e+01,2.500000000000000000e+01,5.000000000000000000e+01,6.199999999999999956e-01,8.542684200000000000e+09
4.000000000000000000e+01,1.040000000000000000e+02,3.540000000000000000e+02,1.430000000000000000e+02,3.600000000000000000e+01,2.700000000000000000e+01,2.500000000000000000e+01,4.300000000000000000e+01,6.099999999999999867e-01,8.563240500000000000e+09
4.700000000000000000e+01,1.080000000000000000e+02,3.850000000000000000e+02,1.730000000000000000e+02,4.100000000000000000e+01,3.100000000000000000e+01,2.700000000000000000e+01,4.100000000000000000e+01,6.199999999999999956e-01,8.582349700000000000e+09
4.800000000000000000e+01,9.600000000000000000e+01,3.800000000000000000e+02,1.830000000000000000e+02,4.200000000000000000e+01,3.000000000000000000e+01,2.600000000000000000e+01,4.000000000000000000e+01,6.199999999999999956e-01,8.602162300000000000e+09
4.500000000000000000e+01,8.100000000000000000e+01,3.360000000000000000e+02,1.780000000000000000e+02,4.200000000000000000e+01,2.900000000000000000e+01,2.400000000000000000e+01,3.800000000000000000e+01,6.099999999999999867e-01,8.621466100000000000e+09
4.200000000000000000e+01,8.900000000000000000e+01,3.400000000000000000e+02,2.140000000000000000e+02,4.500000000000000000e+01,3.200000000000000000e+01,2.300000000000000000e+01,3.600000000000000000e+01,6.199999999999999956e-01,8.645695700000000000e+09
4.500000000000000000e+01,9.700000000000000000e+01,3.660000000000000000e+02,2.380000000000000000e+02,5.500000000000000000e+01,3.400000000000000000e+01,2.200000000000000000e+01,3.600000000000000000e+01,6.199999999999999956e-01,8.664529300000000000e+09
4.500000000000000000e+01,1.080000000000000000e+02,3.940000000000000000e+02,2.630000000000000000e+02,6.100000000000000000e+01,3.800000000000000000e+01,2.500000000000000000e+01,3.600000000000000000e+01,6.199999999999999956e-01,8.683354400000000000e+09
6.900000000000000000e+01,1.990000000000000000e+02,4.570000000000000000e+02,3.340000000000000000e+02,7.500000000000000000e+01,4.700000000000000000e+01,3.200000000000000000e+01,4.100000000000000000e+01,6.300000000000000044e-01,8.701761200000000000e+09
8.800000000000000000e+01,2.550000000000000000e+02,6.510000000000000000e+02,5.300000000000000000e+02,1.140000000000000000e+02,6.600000000000000000e+01,4.300000000000000000e+01,5.000000000000000000e+01,6.300000000000000044e-01,8.721360100000000000e+09
1.330000000000000000e+02,3.670000000000000000e+02,9.160000000000000000e+02,7.010000000000000000e+02,1.690000000000000000e+02,1.050000000000000000e+02,6.400000000000000000e+01,7.300000000000000000e+01,6.099999999999999867e-01,8.743206500000000000e+09
1.680000000000000000e+02,4.520000000000000000e+02,9.760000000000000000e+02,8.320000000000000000e+02,2.060000000000000000e+02,1.310000000000000000e+02,7.900000000000000000e+01,9.300000000000000000e+01,5.999999999999999778e-01,8.764395000000000000e+09
1.850000000000000000e+02,4.770000000000000000e+02,1.012000000000000000e+03,9.290000000000000000e+02,2.220000000000000000e+02,1.400000000000000000e+02,8.200000000000000000e+01,9.800000000000000000e+01,5.799999999999999600e-01,8.784138900000000000e+09
1.820000000000000000e+02,4.590000000000000000e+02,1.039000000000000000e+03,9.590000000000000000e+02,2.220000000000000000e+02,1.400000000000000000e+02,8.100000000000000000e+01,9.800000000000000000e+01,5.600000000000000533e-01,8.802773300000000000e+09
1.870000000000000000e+02,4.640000000000000000e+02,1.025000000000000000e+03,8.940000000000000000e+02,2.170000000000000000e+02,1.400000000000000000e+02,8.100000000000000000e+01,1.010000000000000000e+02,5.300000000000000266e-01,8.822973100000000000e+09
1.920000000000000000e+02,4.700000000000000000e+02,9.070000000000000000e+02,8.600000000000000000e+02,1.900000000000000000e+02,1.240000000000000000e+02,7.600000000000000000e+01,9.900000000000000000e+01,5.100000000000000089e-01,8.843963200000000000e+09
1.770000000000000000e+02,4.220000000000000000e+02,8.930000000000000000e+02,8.620000000000000000e+02,1.620000000000000000e+02,1.070000000000000000e+02,7.100000000000000000e+01,9.200000000000000000e+01,4.899999999999999911e-01,8.863937800000000000e+09
1.910000000000000000e+02,4.530000000000000000e+02,9.240000000000000000e+02,8.720000000000000000e+02,2.390000000000000000e+02,1.400000000000000000e+02,8.600000000000000000e+01,1.040000000000000000e+02,4.600000000000000200e-01,8.883621700000000000e+09
2.740000000000000000e+02,6.300000000000000000e+02,1.020000000000000000e+03,1.011000000000000000e+03,3.530000000000000000e+02,2.310000000000000000e+02,1.200000000000000000e+02,1.490000000000000000e+02,4.299999999999999933e-01,8.903160000000000000e+09
2.800000000000000000e+02,6.310000000000000000e+02,1.008000000000000000e+03,1.028000000000000000e+03,3.770000000000000000e+02,2.700000000000000000e+02,1.340000000000000000e+02,1.510000000000000000e+02,4.000000000000000222e-01,8.922189200000000000e+09
2.690000000000000000e+02,5.870000000000000000e+02,1.002000000000000000e+03,9.850000000000000000e+02,3.880000000000000000e+02,2.750000000000000000e+02,1.410000000000000000e+02,1.490000000000000000e+02,3.599999999999999867e-01,8.942729600000000000e+09
2.690000000000000000e+02,6.020000000000000000e+02,1.130000000000000000e+03,9.350000000000000000e+02,3.980000000000000000e+02,2.780000000000000000e+02,1.420000000000000000e+02,1.490000000000000000e+02,3.400000000000000244e-01,8.965384200000000000e+09
2.740000000000000000e+02,6.320000000000000000e+02,1.163000000000000000e+03,9.400000000000000000e+02,3.880000000000000000e+02,2.800000000000000000e+02,1.430000000000000000e+02,1.490000000000000000e+02,3.200000000000000067e-01,8.985756200000000000e+09
2.240000000000000000e+02,5.070000000000000000e+02,1.258000000000000000e+03,8.660000000000000000e+02,3.180000000000000000e+02,2.280000000000000000e+02,1.290000000000000000e+02,1.210000000000000000e+02,3.099999999999999978e-01,9.004257000000000000e+09
2.140000000000000000e+02,5.630000000000000000e+02,1.344000000000000000e+03,9.180000000000000000e+02,3.050000000000000000e+02,1.960000000000000000e+02,1.220000000000000000e+02,1.220000000000000000e+02,2.899999999999999800e-01,9.025494900000000000e+09
2.150000000000000000e+02,5.850000000000000000e+02,1.381000000000000000e+03,9.260000000000000000e+02,3.100000000000000000e+02,1.990000000000000000e+02,1.170000000000000000e+02,1.200000000000000000e+02,2.800000000000000266e-01,9.047146000000000000e+09
2.220000000000000000e+02,6.200000000000000000e+02,1.377000000000000000e+03,9.260000000000000000e+02,3.120000000000000000e+02,2.010000000000000000e+02,1.150000000000000000e+02,1.210000000000000000e+02,2.700000000000000178e-01,9.065767700000000000e+09
2.120000000000000000e+02,6.030000000000000000e+02,1.373000000000000000e+03,8.950000000000000000e+02,2.820000000000000000e+02,1.800000000000000000e+02,1.060000000000000000e+02,1.160000000000000000e+02,2.500000000000000000e-01,9.085408300000000000e+09
1.880000000000000000e+02,5.960000000000000000e+02,1.204000000000000000e+03,8.900000000000000000e+02,2.740000000000000000e+02,1.840000000000000000e+02,1.050000000000000000e+02,1.080000000000000000e+02,2.399999999999999911e-01,9.104063400000000000e+09
2.650000000000000000e+02,6.530000000000000000e+02,1.168000000000000000e+03,9.070000000000000000e+02,3.080000000000000000e+02,2.000000000000000000e+02,1.270000000000000000e+02,1.440000000000000000e+02,2.200000000000000011e-01,9.122105600000000000e+09
2.730000000000000000e+02,6.530000000000000000e+02,1.147000000000000000e+03,1.025000000000000000e+03,3.180000000000000000e+02,2.030000000000000000e+02,1.280000000000000000e+02,1.540000000000000000e+02,2.099999999999999922e-01,9.143310000000000000e+09
2.780000000000000000e+02,6.220000000000000000e+02,1.070000000000000000e+03,1.073000000000000000e+03,3.310000000000000000e+02,2.190000000000000000e+02,1.360000000000000000e+02,1.640000000000000000e+02,2.099999999999999922e-01,9.164404200000000000e+09
2.890000000000000000e+02,6.270000000000000000e+02,1.065000000000000000e+03,1.122000000000000000e+03,3.560000000000000000e+02,2.430000000000000000e+02,1.460000000000000000e+02,1.730000000000000000e+02,2.000000000000000111e-01,9.184873500000000000e+09
3.160000000000000000e+02,6.710000000000000000e+02,1.107000000000000000e+03,1.189000000000000000e+03,3.660000000000000000e+02,2.440000000000000000e+02,1.480000000000000000e+02,1.860000000000000000e+02,2.000000000000000111e-01,9.203646800000000000e+09
2.740000000000000000e+02,5.640000000000000000e+02,1.091000000000000000e+03,1.154000000000000000e+03,3.440000000000000000e+02,2.310000000000000000e+02,1.320000000000000000e+02,1.690000000000000000e+02,1.900000000000000022e-01,9.224142500000000000e+09
2.660000000000000000e+02,5.810000000000000000e+02,1.031000000000000000e+03,1.076000000000000000e+03,3.230000000000000000e+02,2.200000000000000000e+02,1.260000000000000000e+02,1.590000000000000000e+02,1.900000000000000022e-01,9.247993700000000000e+09
2.650000000000000000e+02,5.840000000000000000e+02,1.026000000000000000e+03,1.009000000000000000e+03,3.210000000000000000e+02,2.110000000000000000e+02,1.260000000000000000e+02,1.540000000000000000e+02,1.900000000000000022e-01,9.266543200000000000e+09
2.410000000000000000e+02,5.660000000000000000e+02,1.032000000000000000e+03,9.590000000000000000e+02,2.790000000000000000e+02,1.830000000000000000e+02,1.090000000000000000e+02,1.370000000000000000e+02,1.799999999999999933e-01,9.285241100000000000e+09
2.150000000000000000e+02,5.180000000000000000e+02,1.026000000000000000e+03,8.020000000000000000e+02,2.690000000000000000e+02,1.790000000000000000e+02,1.020000000000000000e+02,1.270000000000000000e+02,1.799999999999999933e-01,9.304437900000000000e+09
1.870000000000000000e+02,5.150000000000000000e+02,1.091000000000000000e+03,7.830000000000000000e+02,2.440000000000000000e+02,1.600000000000000000e+02,8.800000000000000000e+01,1.080000000000000000e+02,1.799999999999999933e-01,9.322827400000000000e+09
2.170000000000000000e+02,5.500000000000000000e+02,1.136000000000000000e+03,8.030000000000000000e+02,2.730000000000000000e+02,1.780000000000000000e+02,9.700000000000000000e+01,1.260000000000000000e+02,1.799999999999999933e-01,9.342294800000000000e+09
2.010000000000000000e+02,5.280000000000000000e+02,1.103000000000000000e+03,7.860000000000000000e+02,2.440000000000000000e+02,1.680000000000000000e+02,8.500000000000000000e+01,1.180000000000000000e+02,1.700000000000000122e-01,9.364061700000000000e+09
2.150000000000000000e+02,5.230000000000000000e+02,1.054000000000000000e+03,7.860000000000000000e+02,2.810000000000000000e+02,1.790000000000000000e+02,9.300000000000000000e+01,1.300000000000000000e+02,1.700000000000000122e-01,9.383067800000000000e+09
2.070000000000000000e+02,5.180000000000000000e+02,1.097000000000000000e+03,8.010000000000000000e+02,2.680000000000000000e+02,1.680000000000000000e+02,9.200000000000000000e+01,1.230000000000000000e+02,1.700000000000000122e-01,9.402189800000000000e+09
2.190000000000000000e+02,5.370000000000000000e+02,9.140000000000000000e+02,8.650000000000000000e+02,2.960000000000000000e+02,1.780000000000000000e+02,9.800000000000000000e+01,1.310000000000000000e+02,1.700000000000000122e-01,9.421177000000000000e+09
1.900000000000000000e+02,4.720000000000000000e+02,1.043000000000000000e+03,8.150000000000000000e+02,2.810000000000000000e+02,1.660000000000000000e+02,9.200000000000000000e+01,1.180000000000000000e+02,1.600000000000000033e-01,9.444095600000000000e+09
1.850000000000000000e+02,4.740000000000000000e+02,1.000000000000000000e+03,8.150000000000000000e+02,2.760000000000000000e+02,1.600000000000000000e+02,9.100000000000000000e+01,1.150000000000000000e+02,1.600000000000000033e-01,9.464162700000000000e+09
1.690000000000000000e+02,4.720000000000000000e+02,1.130000000000000000e+03,7.570000000000000000e+02,2.370000000000000000e+02,1.400000000000000000e+02,8.400000000000000000e+01,1.050000000000000000e+02,1.499999999999999944e-01,9.483158500000000000e+09
1.860000000000000000e+02,5.030000000000000000e+02,1.126000000000000000e+03,7.480000000000000000e+02,2.720000000000000000e+02,1.650000000000000000e+02,9.700000000000000000e+01,1.160000000000000000e+02,1.499999999999999944e-01,9.502309100000000000e+09
1.820000000000000000e+02,4.870000000000000000e+02,1.168000000000000000e+03,6.500000000000000000e+02,2.460000000000000000e+02,1.570000000000000000e+02,9.300000000000000000e+01,1.110000000000000000e+02,1.499999999999999944e-01,9.521692300000000000e+09
1.860000000000000000e+02,4.500000000000000000e+02,1.067000000000000000e+03,6.630000000000000000e+02,2.400000000000000000e+02,1.590000000000000000e+02,9.600000000000000000e+01,1.130000000000000000e+02,1.400000000000000133e-01,9.548308700000000000e+09
1.950000000000000000e+02,5.000000000000000000e+02,1.175000000000000000e+03,7.020000000000000000e+02,2.540000000000000000e+02,1.630000000000000000e+02,9.800000000000000000e+01,1.160000000000000000e+02,1.400000000000000133e-01,9.569159100000000000e+09
1.980000000000000000e+02,4.910000000000000000e+02,1.105000000000000000e+03,7.610000000000000000e+02,3.010000000000000000e+02,1.770000000000000000e+02,1.060000000000000000e+02,1.200000000000000000e+02,1.400000000000000133e-01,9.587878200000000000e+09
1.740000000000000000e+02,4.370000000000000000e+02,1.070000000000000000e+03,7.250000000000000000e+02,2.670000000000000000e+02,1.490000000000000000e+02,9.000000000000000000e+01,1.040000000000000000e+02,1.400000000000000133e-01,9.606154200000000000e+09
1.760000000000000000e+02,4.730000000000000000e+02,1.066000000000000000e+03,7.250000000000000000e+02,2.710000000000000000e+02,1.530000000000000000e+02,9.300000000000000000e+01,1.040000000000000000e+02,1.400000000000000133e-01,9.624956700000000000e+09
1.590000000000000000e+02,4.810000000000000000e+02,1.014000000000000000e+03,7.350000000000000000e+02,2.590000000000000000e+02,1.420000000000000000e+02,8.600000000000000000e+01,9.400000000000000000e+01,1.300000000000000044e-01,9.644987400000000000e+09
1.540000000000000000e+02,4.420000000000000000e+02,9.770000000000000000e+02,6.880000000000000000e+02,2.510000000000000000e+02,1.450000000000000000e+02,8.700000000000000000e+01,9.600000000000000000e+01,1.300000000000000044e-01,9.664106600000000000e+09
1.600000000000000000e+02,4.360000000000000000e+02,8.590000000000000000e+02,6.300000000000000000e+02,2.030000000000000000e+02,1.370000000000000000e+02,8.200000000000000000e+01,9.300000000000000000e+01,1.300000000000000044e-01,9.682482100000000000e+09
1.560000000000000000e+02,4.390000000000000000e+02,8.190000000000000000e+02,6.280000000000000000e+02,1.980000000000000000e+02,1.350000000000000000e+02,8.100000000000000000e+01,9.200000000000000000e+01,1.199999999999999956e-01,9.701382000000000000e+09
1.440000000000000000e+02,3.940000000000000000e+02,8.240000000000000000e+02,5.760000000000000000e+02,1.810000000000000000e+02,1.240000000000000000e+02,7.600000000000000000e+01,8.600000000000000000e+01,1.199999999999999956e-01,9.720861000000000000e+09
1.430000000000000000e+02,3.890000000000000000e+02,8.660000000000000000e+02,5.330000000000000000e+02,1.740000000000000000e+02,1.180000000000000000e+02,7.500000000000000000e+01,8.200000000000000000e+01,1.199999999999999956e-01,9.744964200000000000e+09
1.320000000000000000e+02,3.620000000000000000e+02,8.180000000000000000e+02,5.500000000000000000e+02,1.540000000000000000e+02,1.000000000000000000e+02,6.700000000000000000e+01,7.300000000000000000e+01,1.300000000000000044e-01,9.767633500000000000e+09
1.130000000000000000e+02,3.510000000000000000e+02,8.900000000000000000e+02,4.840000000000000000e+02,1.290000000000000000e+02,8.200000000000000000e+01,5.700000000000000000e+01,6.500000000000000000e+01,1.300000000000000044e-01,9.786429200000000000e+09
9.700000000000000000e+01,3.090000000000000000e+02,8.560000000000000000e+02,4.270000000000000000e+02,1.040000000000000000e+02,7.200000000000000000e+01,4.900000000000000000e+01,5.600000000000000000e+01,1.400000000000000133e-01,9.805451500000000000e+09
8.600000000000000000e+01,2.780000000000000000e+02,8.820000000000000000e+02,5.010000000000000000e+02,9.400000000000000000e+01,7.000000000000000000e+01,4.100000000000000000e+01,5.200000000000000000e+01,1.600000000000000033e-01,9.826764000000000000e+09
8.000000000000000000e+01,2.600000000000000000e+02,7.790000000000000000e+02,4.300000000000000000e+02,8.600000000000000000e+01,7.400000000000000000e+01,4.200000000000000000e+01,5.000000000000000000e+01,1.700000000000000122e-01,9.848987000000000000e+09
7.700000000000000000e+01,2.640000000000000000e+02,7.620000000000000000e+02,3.620000000000000000e+02,8.900000000000000000e+01,7.500000000000000000e+01,4.500000000000000000e+01,4.800000000000000000e+01,1.900000000000000022e-01,9.869117700000000000e+09
6.800000000000000000e+01,2.210000000000000000e+02,6.580000000000000000e+02,3.610000000000000000e+02,1.000000000000000000e+02,8.100000000000000000e+01,4.600000000000000000e+01,4.700000000000000000e+01,2.099999999999999922e-01,9.887961000000000000e+09
6.900000000000000000e+01,2.070000000000000000e+02,6.410000000000000000e+02,3.510000000000000000e+02,1.040000000000000000e+02,8.100000000000000000e+01,4.700000000000000000e+01,5.000000000000000000e+01,2.300000000000000100e-01,9.906847300000000000e+09
6.400000000000000000e+01,1.890000000000000000e+02,4.650000000000000000e+02,2.290000000000000000e+02,9.400000000000000000e+01,7.700000000000000000e+01,4.700000000000000000e+01,4.500000000000000000e+01,2.600000000000000089e-01,9.925733100000000000e+09
6.200000000000000000e+01,1.880000000000000000e+02,4.330000000000000000e+02,2.150000000000000000e+02,8.600000000000000000e+01,6.900000000000000000e+01,4.300000000000000000e+01,4.400000000000000000e+01,2.800000000000000266e-01,9.946975500000000000e+09
7.400000000000000000e+01,1.320000000000000000e+02,3.220000000000000000e+02,1.890000000000000000e+02,8.100000000000000000e+01,6.600000000000000000e+01,4.000000000000000000e+01,9.300000000000000000e+01,3.099999999999999978e-01,9.965625200000000000e+09
9.000000000000000000e+01,1.450000000000000000e+02,3.310000000000000000e+02,1.590000000000000000e+02,6.200000000000000000e+01,5.200000000000000000e+01,3.700000000000000000e+01,2.140000000000000000e+02,3.300000000000000155e-01,9.985016900000000000e+09
1.040000000000000000e+02,1.580000000000000000e+02,3.440000000000000000e+02,1.750000000000000000e+02,6.000000000000000000e+01,1.260000000000000000e+02,8.600000000000000000e+01,2.980000000000000000e+02,3.499999999999999778e-01,1.000286910000000000e+10
1.250000000000000000e+02,1.560000000000000000e+02,3.710000000000000000e+02,1.840000000000000000e+02,6.000000000000000000e+01,2.040000000000000000e+02,2.320000000000000000e+02,4.380000000000000000e+02,3.699999999999999956e-01,1.002165410000000000e+10
1.440000000000000000e+02,1.500000000000000000e+02,3.750000000000000000e+02,1.520000000000000000e+02,5.500000000000000000e+01,2.520000000000000000e+02,2.900000000000000000e+02,4.850000000000000000e+02,3.800000000000000044e-01,1.004390910000000000e+10
1.420000000000000000e+02,1.370000000000000000e+02,3.570000000000000000e+02,1.540000000000000000e+02,5.100000000000000000e+01,2.770000000000000000e+02,2.960000000000000000e+02,5.260000000000000000e+02,3.900000000000000133e-01,1.006351200000000000e+10
1.430000000000000000e+02,1.150000000000000000e+02,3.520000000000000000e+02,1.690000000000000000e+02,5.200000000000000000e+01,2.770000000000000000e+02,3.040000000000000000e+02,5.420000000000000000e+02,4.000000000000000222e-01,1.008278190000000000e+10
1.430000000000000000e+02,1.160000000000000000e+02,3.730000000000000000e+02,1.730000000000000000e+02,5.400000000000000000e+01,2.730000000000000000e+02,2.980000000000000000e+02,5.420000000000000000e+02,4.000000000000000222e-01,1.010141360000000000e+10
1.280000000000000000e+02,1.140000000000000000e+02,3.430000000000000000e+02,1.570000000000000000e+02,5.300000000000000000e+01,2.400000000000000000e+02,2.320000000000000000e+02,4.990000000000000000e+02,4.000000000000000222e-01,1.012040890000000000e+10
1.330000000000000000e+02,1.160000000000000000e+02,3.630000000000000000e+02,1.570000000000000000e+02,5.600000000000000000e+01,2.310000000000000000e+02,1.900000000000000000e+02,4.780000000000000000e+02,4.099999999999999756e-01,1.014541930000000000e+10
1.490000000000000000e+02,1.200000000000000000e+02,4.180000000000000000e+02,1.650000000000000000e+02,5.700000000000000000e+01,2.120000000000000000e+02,2.050000000000000000e+02,4.450000000000000000e+02,4.000000000000000222e-01,1.016563900000000000e+10
1.490000000000000000e+02,1.180000000000000000e+02,4.150000000000000000e+02,1.340000000000000000e+02,5.200000000000000000e+01,2.150000000000000000e+02,2.030000000000000000e+02,3.960000000000000000e+02,4.000000000000000222e-01,1.018432090000000000e+10
1.420000000000000000e+02,1.080000000000000000e+02,3.860000000000000000e+02,1.100000000000000000e+02,4.100000000000000000e+01,1.900000000000000000e+02,1.980000000000000000e+02,3.400000000000000000e+02,4.000000000000000222e-01,1.020293230000000000e+10
1.420000000000000000e+02,1.140000000000000000e+02,4.150000000000000000e+02,1.110000000000000000e+02,3.800000000000000000e+01,1.770000000000000000e+02,2.040000000000000000e+02,2.940000000000000000e+02,4.000000000000000222e-01,1.022097410000000000e+10
