4.200000000000000000e+01,1.260000000000000000e+02,3.230000000000000000e+02,7.300000000000000000e+01,3.400000000000000000e+01,3.300000000000000000e+01,2.400000000000000000e+01,8.800000000000000000e+01,5.500000000000000444e-01,4.711420000000000000e+08
3.600000000000000000e+01,1.300000000000000000e+02,4.050000000000000000e+02,6.400000000000000000e+01,3.000000000000000000e+01,3.200000000000000000e+01,2.400000000000000000e+01,8.500000000000000000e+01,5.500000000000000444e-01,4.996850000000000000e+08
3.900000000000000000e+01,1.340000000000000000e+02,4.200000000000000000e+02,7.800000000000000000e+01,3.500000000000000000e+01,3.000000000000000000e+01,2.300000000000000000e+01,8.700000000000000000e+01,5.500000000000000444e-01,7.841580000000000000e+08
3.900000000000000000e+01,1.360000000000000000e+02,4.340000000000000000e+02,8.100000000000000000e+01,3.500000000000000000e+01,2.800000000000000000e+01,2.300000000000000000e+01,9.100000000000000000e+01,5.600000000000000533e-01,8.011137000000000000e+08
3.800000000000000000e+01,1.350000000000000000e+02,4.950000000000000000e+02,7.800000000000000000e+01,3.300000000000000000e+01,2.600000000000000000e+01,2.300000000000000000e+01,8.700000000000000000e+01,5.600000000000000533e-01,8.185787000000000000e+08
3.900000000000000000e+01,1.260000000000000000e+02,5.330000000000000000e+02,9.100000000000000000e+01,3.400000000000000000e+01,2.600000000000000000e+01,2.200000000000000000e+01,8.800000000000000000e+01,5.699999999999999512e-01,8.357441000000000000e+08
4.100000000000000000e+01,1.400000000000000000e+02,5.180000000000000000e+02,1.020000000000000000e+02,3.600000000000000000e+01,2.900000000000000000e+01,2.200000000000000000e+01,9.500000000000000000e+01,5.699999999999999512e-01,8.530717000000000000e+08
4.200000000000000000e+01,1.450000000000000000e+02,5.310000000000000000e+02,9.500000000000000000e+01,3.300000000000000000e+01,2.800000000000000000e+01,2.200000000000000000e+01,1.340000000000000000e+02,5.699999999999999512e-01,8.697117000000000000e+08
4.100000000000000000e+01,1.450000000000000000e+02,5.460000000000000000e+02,9.700000000000000000e+01,3.400000000000000000e+01,3.100000000000000000e+01,2.200000000000000000e+01,1.170000000000000000e+02,5.699999999999999512e-01,8.865640000000000000e+08
4.100000000000000000e+01,1.520000000000000000e+02,5.500000000000000000e+02,9.700000000000000000e+01,3.400000000000000000e+01,3.100000000000000000e+01,2.300000000000000000e+01,1.200000000000000000e+02,5.699999999999999512e-01,9.030134000000000000e+08
4.900000000000000000e+01,1.510000000000000000e+02,6.310000000000000000e+02,1.080000000000000000e+02,3.700000000000000000e+01,3.400000000000000000e+01,2.800000000000000000e+01,1.220000000000000000e+02,5.699999999999999512e-01,9.202032000000000000e+08
5.100000000000000000e+01,1.430000000000000000e+02,6.200000000000000000e+02,1.000000000000000000e+02,3.500000000000000000e+01,3.200000000000000000e+01,2.700000000000000000e+01,1.180000000000000000e+02,5.699999999999999512e-01,9.376902000000000000e+08
5.000000000000000000e+01,1.370000000000000000e+02,6.940000000000000000e+02,1.060000000000000000e+02,3.600000000000000000e+01,3.200000000000000000e+01,2.800000000000000000e+01,1.330000000000000000e+02,5.699999999999999512e-01,9.550037000000000000e+08
5.200000000000000000e+01,1.440000000000000000e+02,7.650000000000000000e+02,1.140000000000000000e+02,3.500000000000000000e+01,2.900000000000000000e+01,2.800000000000000000e+01,1.350000000000000000e+02,5.699999999999999512e-01,9.721448000000000000e+08
5.200000000000000000e+01,1.300000000000000000e+02,7.200000000000000000e+02,1.110000000000000000e+02,3.300000000000000000e+01,2.800000000000000000e+01,2.600000000000000000e+01,1.400000000000000000e+02,5.699999999999999512e-01,9.896237000000000000e+08
4.100000000000000000e+01,1.050000000000000000e+02,6.270000000000000000e+02,9.000000000000000000e+01,2.800000000000000000e+01,2.400000000000000000e+01,2.200000000000000000e+01,1.380000000000000000e+02,5.699999999999999512e-01,1.006516200000000000e+09
4.300000000000000000e+01,1.050000000000000000e+02,7.210000000000000000e+02,1.120000000000000000e+02,3.600000000000000000e+01,2.800000000000000000e+01,2.300000000000000000e+01,1.380000000000000000e+02,5.699999999999999512e-01,1.024763500000000000e+09
4.700000000000000000e+01,1.030000000000000000e+02,6.380000000000000000e+02,1.110000000000000000e+02,3.700000000000000000e+01,2.700000000000000000e+01,2.300000000000000000e+01,1.180000000000000000e+02,5.699999999999999512e-01,1.043140000000000000e+09
4.600000000000000000e+01,9.200000000000000000e+01,5.270000000000000000e+02,9.900000000000000000e+01,3.700000000000000000e+01,2.800000000000000000e+01,2.400000000000000000e+01,1.150000000000000000e+02,5.699999999999999512e-01,1.059975400000000000e+09
4.600000000000000000e+01,9.400000000000000000e+01,5.680000000000000000e+02,1.020000000000000000e+02,3.700000000000000000e+01,2.800000000000000000e+01,2.400000000000000000e+01,1.050000000000000000e+02,5.699999999999999512e-01,1.076743500000000000e+09
4.600000000000000000e+01,9.100000000000000000e+01,5.860000000000000000e+02,1.070000000000000000e+02,3.800000000000000000e+01,2.800000000000000000e+01,2.400000000000000000e+01,1.040000000000000000e+02,5.699999999999999512e-01,1.093273500000000000e+09
4.600000000000000000e+01,1.060000000000000000e+02,5.060000000000000000e+02,8.900000000000000000e+01,3.200000000000000000e+01,2.500000000000000000e+01,2.400000000000000000e+01,1.050000000000000000e+02,5.699999999999999512e-01,1.110471300000000000e+09
4.400000000000000000e+01,1.090000000000000000e+02,5.100000000000000000e+02,8.600000000000000000e+01,3.000000000000000000e+01,2.500000000000000000e+01,2.300000000000000000e+01,9.500000000000000000e+01,5.699999999999999512e-01,1.126465100000000000e+09
4.600000000000000000e+01,1.120000000000000000e+02,4.990000000000000000e+02,9.700000000000000000e+01,3.200000000000000000e+01,2.500000000000000000e+01,2.200000000000000000e+01,9.300000000000000000e+01,5.699999999999999512e-01,1.143578200000000000e+09
4.600000000000000000e+01,1.120000000000000000e+02,4.340000000000000000e+02,9.500000000000000000e+01,3.200000000000000000e+01,2.500000000000000000e+01,2.300000000000000000e+01,9.400000000000000000e+01,5.699999999999999512e-01,1.161049800000000000e+09
5.000000000000000000e+01,1.130000000000000000e+02,4.600000000000000000e+02,8.700000000000000000e+01,3.100000000000000000e+01,2.700000000000000000e+01,2.400000000000000000e+01,9.500000000000000000e+01,5.799999999999999600e-01,1.178341600000000000e+09
4.600000000000000000e+01,7.700000000000000000e+01,4.060000000000000000e+02,8.200000000000000000e+01,3.100000000000000000e+01,2.800000000000000000e+01,2.300000000000000000e+01,1.090000000000000000e+02,5.799999999999999600e-01,1.194890700000000000e+09
4.500000000000000000e+01,1.030000000000000000e+02,4.210000000000000000e+02,8.200000000000000000e+01,2.900000000000000000e+01,2.600000000000000000e+01,2.400000000000000000e+01,1.000000000000000000e+02,5.799999999999999600e-01,1.211119600000000000e+09
4.100000000000000000e+01,9.800000000000000000e+01,4.310000000000000000e+02,7.400000000000000000e+01,2.500000000000000000e+01,2.600000000000000000e+01,2.400000000000000000e+01,1.010000000000000000e+02,5.799999999999999600e-01,1.229912600000000000e+09
3.900000000000000000e+01,1.010000000000000000e+02,4.640000000000000000e+02,7.900000000000000000e+01,2.400000000000000000e+01,2.500000000000000000e+01,2.300000000000000000e+01,9.900000000000000000e+01,5.799999999999999600e-01,1.247165200000000000e+09
4.100000000000000000e+01,1.170000000000000000e+02,4.490000000000000000e+02,9.700000000000000000e+01,2.800000000000000000e+01,2.400000000000000000e+01,2.300000000000000000e+01,1.030000000000000000e+02,5.799999999999999600e-01,1.264807200000000000e+09
4.800000000000000000e+01,1.180000000000000000e+02,4.530000000000000000e+02,1.130000000000000000e+02,3.100000000000000000e+01,2.600000000000000000e+01,2.300000000000000000e+01,1.170000000000000000e+02,5.799999999999999600e-01,1.282743900000000000e+09
5.300000000000000000e+01,1.140000000000000000e+02,4.610000000000000000e+02,1.220000000000000000e+02,3.500000000000000000e+01,2.900000000000000000e+01,2.200000000000000000e+01,1.150000000000000000e+02,5.899999999999999689e-01,1.301703000000000000e+09
6.200000000000000000e+01,1.300000000000000000e+02,5.830000000000000000e+02,1.430000000000000000e+02,4.200000000000000000e+01,3.200000000000000000e+01,2.300000000000000000e+01,1.140000000000000000e+02,5.899999999999999689e-01,1.319773600000000000e+09
6.200000000000000000e+01,1.310000000000000000e+02,5.960000000000000000e+02,1.450000000000000000e+02,4.200000000000000000e+01,3.300000000000000000e+01,2.300000000000000000e+01,1.370000000000000000e+02,5.899999999999999689e-01,1.336278700000000000e+09
9.600000000000000000e+01,2.300000000000000000e+02,6.460000000000000000e+02,2.690000000000000000e+02,7.400000000000000000e+01,4.500000000000000000e+01,3.200000000000000000e+01,1.400000000000000000e+02,5.899999999999999689e-01,1.353767600000000000e+09
1.010000000000000000e+02,2.460000000000000000e+02,6.710000000000000000e+02,2.730000000000000000e+02,7.700000000000000000e+01,4.400000000000000000e+01,3.300000000000000000e+01,1.290000000000000000e+02,5.799999999999999600e-01,1.371481400000000000e+09
9.800000000000000000e+01,2.380000000000000000e+02,6.430000000000000000e+02,2.700000000000000000e+02,7.600000000000000000e+01,4.300000000000000000e+01,3.500000000000000000e+01,1.420000000000000000e+02,5.799999999999999600e-01,1.389163600000000000e+09
9.400000000000000000e+01,2.320000000000000000e+02,5.270000000000000000e+02,2.600000000000000000e+02,7.400000000000000000e+01,4.800000000000000000e+01,3.500000000000000000e+01,1.480000000000000000e+02,5.799999999999999600e-01,1.406243700000000000e+09
9.500000000000000000e+01,2.330000000000000000e+02,4.800000000000000000e+02,2.620000000000000000e+02,7.600000000000000000e+01,4.900000000000000000e+01,3.700000000000000000e+01,1.330000000000000000e+02,5.799999999999999600e-01,1.423006500000000000e+09
5.800000000000000000e+01,1.310000000000000000e+02,3.490000000000000000e+02,1.240000000000000000e+02,4.300000000000000000e+01,3.900000000000000000e+01,2.800000000000000000e+01,1.360000000000000000e+02,5.799999999999999600e-01,1.440319400000000000e+09
4.100000000000000000e+01,1.200000000000000000e+02,2.480000000000000000e+02,1.030000000000000000e+02,3.500000000000000000e+01,3.900000000000000000e+01,2.800000000000000000e+01,1.250000000000000000e+02,5.799999999999999600e-01,1.457264400000000000e+09
4.300000000000000000e+01,1.460000000000000000e+02,2.760000000000000000e+02,9.900000000000000000e+01,3.500000000000000000e+01,3.900000000000000000e+01,2.700000000000000000e+01,9.900000000000000000e+01,5.799999999999999600e-01,1.473401000000000000e+09
4.100000000000000000e+01,1.460000000000000000e+02,2.710000000000000000e+02,9.900000000000000000e+01,3.400000000000000000e+01,2.900000000000000000e+01,2.600000000000000000e+01,9.800000000000000000e+01,5.799999999999999600e-01,1.490630200000000000e+09
4.200000000000000000e+01,1.500000000000000000e+02,2.910000000000000000e+02,9.600000000000000000e+01,3.000000000000000000e+01,2.800000000000000000e+01,2.500000000000000000e+01,1.150000000000000000e+02,5.799999999999999600e-01,1.507412500000000000e+09
4.300000000000000000e+01,1.430000000000000000e+02,3.930000000000000000e+02,9.400000000000000000e+01,3.300000000000000000e+01,2.700000000000000000e+01,2.600000000000000000e+01,1.200000000000000000e+02,5.699999999999999512e-01,1.524399200000000000e+09
4.200000000000000000e+01,1.560000000000000000e+02,5.450000000000000000e+02,1.030000000000000000e+02,3.300000000000000000e+01,2.500000000000000000e+01,2.800000000000000000e+01,1.850000000000000000e+02,5.699999999999999512e-01,1.543552000000000000e+09
4.600000000000000000e+01,1.470000000000000000e+02,5.650000000000000000e+02,1.240000000000000000e+02,3.500000000000000000e+01,2.600000000000000000e+01,2.800000000000000000e+01,1.890000000000000000e+02,5.699999999999999512e-01,1.560622900000000000e+09
5.100000000000000000e+01,1.540000000000000000e+02,5.810000000000000000e+02,1.520000000000000000e+02,4.200000000000000000e+01,2.700000000000000000e+01,2.900000000000000000e+01,1.900000000000000000e+02,5.699999999999999512e-01,1.578545300000000000e+09
4.800000000000000000e+01,1.460000000000000000e+02,7.190000000000000000e+02,1.720000000000000000e+02,4.800000000000000000e+01,2.800000000000000000e+01,2.800000000000000000e+01,1.760000000000000000e+02,5.699999999999999512e-01,1.596162700000000000e+09
5.100000000000000000e+01,1.500000000000000000e+02,6.980000000000000000e+02,1.900000000000000000e+02,5.200000000000000000e+01,3.200000000000000000e+01,3.000000000000000000e+01,1.840000000000000000e+02,5.699999999999999512e-01,1.613682900000000000e+09
6.500000000000000000e+01,1.430000000000000000e+02,6.740000000000000000e+02,2.050000000000000000e+02,6.100000000000000000e+01,3.700000000000000000e+01,3.100000000000000000e+01,1.250000000000000000e+02,5.699999999999999512e-01,1.631398700000000000e+09
6.200000000000000000e+01,1.480000000000000000e+02,6.790000000000000000e+02,2.000000000000000000e+02,6.000000000000000000e+01,3.500000000000000000e+01,2.900000000000000000e+01,1.160000000000000000e+02,5.600000000000000533e-01,1.649040700000000000e+09
6.700000000000000000e+01,1.550000000000000000e+02,7.590000000000000000e+02,1.940000000000000000e+02,6.300000000000000000e+01,3.900000000000000000e+01,2.800000000000000000e+01,1.080000000000000000e+02,5.600000000000000533e-01,1.667159700000000000e+09
7.000000000000000000e+01,1.530000000000000000e+02,6.390000000000000000e+02,1.720000000000000000e+02,5.900000000000000000e+01,3.800000000000000000e+01,2.800000000000000000e+01,1.350000000000000000e+02,5.600000000000000533e-01,1.684015600000000000e+09
6.700000000000000000e+01,1.530000000000000000e+02,7.010000000000000000e+02,1.550000000000000000e+02,5.500000000000000000e+01,3.400000000000000000e+01,2.600000000000000000e+01,1.070000000000000000e+02,5.600000000000000533e-01,1.700749400000000000e+09
6.900000000000000000e+01,1.540000000000000000e+02,6.760000000000000000e+02,1.740000000000000000e+02,5.900000000000000000e+01,4.100000000000000000e+01,2.800000000000000000e+01,1.030000000000000000e+02,5.600000000000000533e-01,1.717086300000000000e+09
7.400000000000000000e+01,1.420000000000000000e+02,6.660000000000000000e+02,1.830000000000000000e+02,6.200000000000000000e+01,4.200000000000000000e+01,2.900000000000000000e+01,1.000000000000000000e+02,5.500000000000000444e-01,1.733624000000000000e+09
6.800000000000000000e+01,1.320000000000000000e+02,5.640000000000000000e+02,1.840000000000000000e+02,5.600000000000000000e+01,3.800000000000000000e+01,2.800000000000000000e+01,9.900000000000000000e+01,5.600000000000000533e-01,1.750576300000000000e+09
7.400000000000000000e+01,1.830000000000000000e+02,6.990000000000000000e+02,2.380000000000000000e+02,6.800000000000000000e+01,4.400000000000000000e+01,3.200000000000000000e+01,6.200000000000000000e+01,5.500000000000000444e-01,1.768090000000000000e+09
9.300000000000000000e+01,2.810000000000000000e+02,8.680000000000000000e+02,2.720000000000000000e+02,8.500000000000000000e+01,5.300000000000000000e+01,4.000000000000000000e+01,6.500000000000000000e+01,5.500000000000000444e-01,1.785100000000000000e+09
9.000000000000000000e+01,2.830000000000000000e+02,8.500000000000000000e+02,3.040000000000000000e+02,8.500000000000000000e+01,4.900000000000000000e+01,3.500000000000000000e+01,5.800000000000000000e+01,5.400000000000000355e-01,1.802176800000000000e+09
1.010000000000000000e+02,3.160000000000000000e+02,9.410000000000000000e+02,3.340000000000000000e+02,1.100000000000000000e+02,6.800000000000000000e+01,4.200000000000000000e+01,6.700000000000000000e+01,5.300000000000000266e-01,1.818919600000000000e+09
1.070000000000000000e+02,3.330000000000000000e+02,1.070000000000000000e+03,4.140000000000000000e+02,1.210000000000000000e+02,7.500000000000000000e+01,4.900000000000000000e+01,6.600000000000000000e+01,5.100000000000000089e-01,1.837190300000000000e+09
1.100000000000000000e+02,3.330000000000000000e+02,1.102000000000000000e+03,4.400000000000000000e+02,1.190000000000000000e+02,7.600000000000000000e+01,4.900000000000000000e+01,6.800000000000000000e+01,5.000000000000000000e-01,1.855721700000000000e+09
1.290000000000000000e+02,3.770000000000000000e+02,1.058000000000000000e+03,5.170000000000000000e+02,1.520000000000000000e+02,9.500000000000000000e+01,5.500000000000000000e+01,7.900000000000000000e+01,4.799999999999999822e-01,1.874384100000000000e+09
1.330000000000000000e+02,4.020000000000000000e+02,1.182000000000000000e+03,5.720000000000000000e+02,1.570000000000000000e+02,9.600000000000000000e+01,5.700000000000000000e+01,8.100000000000000000e+01,4.600000000000000200e-01,1.891699700000000000e+09
1.510000000000000000e+02,4.220000000000000000e+02,1.221000000000000000e+03,6.510000000000000000e+02,1.610000000000000000e+02,1.040000000000000000e+02,5.800000000000000000e+01,8.500000000000000000e+01,4.400000000000000022e-01,1.908524800000000000e+09
1.680000000000000000e+02,4.460000000000000000e+02,1.161000000000000000e+03,6.970000000000000000e+02,1.790000000000000000e+02,1.190000000000000000e+02,6.300000000000000000e+01,9.600000000000000000e+01,4.199999999999999845e-01,1.926608700000000000e+09
1.790000000000000000e+02,5.070000000000000000e+02,1.152000000000000000e+03,7.330000000000000000e+02,2.010000000000000000e+02,1.310000000000000000e+02,6.900000000000000000e+01,9.800000000000000000e+01,4.000000000000000222e-01,1.944316100000000000e+09
1.750000000000000000e+02,4.520000000000000000e+02,1.072000000000000000e+03,6.900000000000000000e+02,1.830000000000000000e+02,1.240000000000000000e+02,6.600000000000000000e+01,9.300000000000000000e+01,3.699999999999999956e-01,1.960868300000000000e+09
1.940000000000000000e+02,4.910000000000000000e+02,1.048000000000000000e+03,7.150000000000000000e+02,2.080000000000000000e+02,1.350000000000000000e+02,7.700000000000000000e+01,1.060000000000000000e+02,3.400000000000000244e-01,1.977541600000000000e+09
1.800000000000000000e+02,4.700000000000000000e+02,9.720000000000000000e+02,6.900000000000000000e+02,2.050000000000000000e+02,1.270000000000000000e+02,7.700000000000000000e+01,1.090000000000000000e+02,3.200000000000000067e-01,1.995930000000000000e+09
1.690000000000000000e+02,4.670000000000000000e+02,9.480000000000000000e+02,6.170000000000000000e+02,1.890000000000000000e+02,1.120000000000000000e+02,7.200000000000000000e+01,1.020000000000000000e+02,2.999999999999999889e-01,2.016123700000000000e+09
1.630000000000000000e+02,4.090000000000000000e+02,8.820000000000000000e+02,5.620000000000000000e+02,1.770000000000000000e+02,1.020000000000000000e+02,6.900000000000000000e+01,1.010000000000000000e+02,2.800000000000000266e-01,2.038304200000000000e+09
1.690000000000000000e+02,4.590000000000000000e+02,9.920000000000000000e+02,6.050000000000000000e+02,1.790000000000000000e+02,9.800000000000000000e+01,6.900000000000000000e+01,1.060000000000000000e+02,2.700000000000000178e-01,2.058433400000000000e+09
1.480000000000000000e+02,3.980000000000000000e+02,9.450000000000000000e+02,5.070000000000000000e+02,1.440000000000000000e+02,8.200000000000000000e+01,5.800000000000000000e+01,9.400000000000000000e+01,2.600000000000000089e-01,2.079445200000000000e+09
1.760000000000000000e+02,4.500000000000000000e+02,9.540000000000000000e+02,5.180000000000000000e+02,1.720000000000000000e+02,9.800000000000000000e+01,6.400000000000000000e+01,9.800000000000000000e+01,2.500000000000000000e-01,2.097290400000000000e+09
1.750000000000000000e+02,4.980000000000000000e+02,1.029000000000000000e+03,5.330000000000000000e+02,1.890000000000000000e+02,1.000000000000000000e+02,6.400000000000000000e+01,9.900000000000000000e+01,2.399999999999999911e-01,2.117733400000000000e+09
1.940000000000000000e+02,5.430000000000000000e+02,1.103000000000000000e+03,5.780000000000000000e+02,2.030000000000000000e+02,1.110000000000000000e+02,7.100000000000000000e+01,1.060000000000000000e+02,2.200000000000000011e-01,2.137802700000000000e+09
1.780000000000000000e+02,5.180000000000000000e+02,1.024000000000000000e+03,5.430000000000000000e+02,1.940000000000000000e+02,1.080000000000000000e+02,6.600000000000000000e+01,9.700000000000000000e+01,2.099999999999999922e-01,2.157063000000000000e+09
1.890000000000000000e+02,5.810000000000000000e+02,9.510000000000000000e+02,5.990000000000000000e+02,2.110000000000000000e+02,1.140000000000000000e+02,7.200000000000000000e+01,1.010000000000000000e+02,2.000000000000000111e-01,2.174483300000000000e+09
1.580000000000000000e+02,5.520000000000000000e+02,9.260000000000000000e+02,5.450000000000000000e+02,1.840000000000000000e+02,9.300000000000000000e+01,6.300000000000000000e+01,8.400000000000000000e+01,1.900000000000000022e-01,2.192753200000000000e+09
1.650000000000000000e+02,5.410000000000000000e+02,9.060000000000000000e+02,5.750000000000000000e+02,1.760000000000000000e+02,9.700000000000000000e+01,6.400000000000000000e+01,8.600000000000000000e+01,1.799999999999999933e-01,2.212392500000000000e+09
1.380000000000000000e+02,5.160000000000000000e+02,8.880000000000000000e+02,5.170000000000000000e+02,1.600000000000000000e+02,9.100000000000000000e+01,5.800000000000000000e+01,7.300000000000000000e+01,1.700000000000000122e-01,2.230404400000000000e+09
1.790000000000000000e+02,5.290000000000000000e+02,8.660000000000000000e+02,6.410000000000000000e+02,1.920000000000000000e+02,1.050000000000000000e+02,6.900000000000000000e+01,9.500000000000000000e+01,1.600000000000000033e-01,2.249424000000000000e+09
1.740000000000000000e+02,4.690000000000000000e+02,9.980000000000000000e+02,5.840000000000000000e+02,1.930000000000000000e+02,1.070000000000000000e+02,6.700000000000000000e+01,9.400000000000000000e+01,1.600000000000000033e-01,2.268997400000000000e+09
1.730000000000000000e+02,4.710000000000000000e+02,1.143000000000000000e+03,5.810000000000000000e+02,1.880000000000000000e+02,1.090000000000000000e+02,6.800000000000000000e+01,9.400000000000000000e+01,1.499999999999999944e-01,2.287707500000000000e+09
1.680000000000000000e+02,4.270000000000000000e+02,1.150000000000000000e+03,5.240000000000000000e+02,1.840000000000000000e+02,1.050000000000000000e+02,6.700000000000000000e+01,9.300000000000000000e+01,1.400000000000000133e-01,2.305715100000000000e+09
1.760000000000000000e+02,4.010000000000000000e+02,1.148000000000000000e+03,5.530000000000000000e+02,1.860000000000000000e+02,1.040000000000000000e+02,6.600000000000000000e+01,9.700000000000000000e+01,1.400000000000000133e-01,2.323675200000000000e+09
1.500000000000000000e+02,3.850000000000000000e+02,1.216000000000000000e+03,3.830000000000000000e+02,1.640000000000000000e+02,9.100000000000000000e+01,5.900000000000000000e+01,8.400000000000000000e+01,1.400000000000000133e-01,2.343669200000000000e+09
1.370000000000000000e+02,3.620000000000000000e+02,1.123000000000000000e+03,3.790000000000000000e+02,1.450000000000000000e+02,8.400000000000000000e+01,5.200000000000000000e+01,7.400000000000000000e+01,1.400000000000000133e-01,2.361819000000000000e+09
1.410000000000000000e+02,3.440000000000000000e+02,1.020000000000000000e+03,3.860000000000000000e+02,1.480000000000000000e+02,8.200000000000000000e+01,5.100000000000000000e+01,7.800000000000000000e+01,1.400000000000000133e-01,2.381225600000000000e+09
1.410000000000000000e+02,3.370000000000000000e+02,9.660000000000000000e+02,3.880000000000000000e+02,1.490000000000000000e+02,8.400000000000000000e+01,5.100000000000000000e+01,7.600000000000000000e+01,1.400000000000000133e-01,2.399764800000000000e+09
1.260000000000000000e+02,3.300000000000000000e+02,9.340000000000000000e+02,3.400000000000000000e+02,1.300000000000000000e+02,7.200000000000000000e+01,4.500000000000000000e+01,6.600000000000000000e+01,1.499999999999999944e-01,2.418601700000000000e+09
9.600000000000000000e+01,2.790000000000000000e+02,8.030000000000000000e+02,3.030000000000000000e+02,1.110000000000000000e+02,6.100000000000000000e+01,3.600000000000000000e+01,5.100000000000000000e+01,1.600000000000000033e-01,2.437753000000000000e+09
1.140000000000000000e+02,3.330000000000000000e+02,8.310000000000000000e+02,3.220000000000000000e+02,1.200000000000000000e+02,6.800000000000000000e+01,4.200000000000000000e+01,6.300000000000000000e+01,1.700000000000000122e-01,2.456646000000000000e+09
1.120000000000000000e+02,3.350000000000000000e+02,8.610000000000000000e+02,2.920000000000000000e+02,1.180000000000000000e+02,6.900000000000000000e+01,4.300000000000000000e+01,6.100000000000000000e+01,1.700000000000000122e-01,2.475479500000000000e+09
1.010000000000000000e+02,3.180000000000000000e+02,9.260000000000000000e+02,2.630000000000000000e+02,1.000000000000000000e+02,6.100000000000000000e+01,3.900000000000000000e+01,5.700000000000000000e+01,1.799999999999999933e-01,2.493585700000000000e+09
1.070000000000000000e+02,3.380000000000000000e+02,9.540000000000000000e+02,2.560000000000000000e+02,1.060000000000000000e+02,6.500000000000000000e+01,4.200000000000000000e+01,5.900000000000000000e+01,1.900000000000000022e-01,2.511266400000000000e+09
1.230000000000000000e+02,4.100000000000000000e+02,1.033000000000000000e+03,2.780000000000000000e+02,1.140000000000000000e+02,7.300000000000000000e+01,4.700000000000000000e+01,6.600000000000000000e+01,1.900000000000000022e-01,2.530481900000000000e+09
1.130000000000000000e+02,4.000000000000000000e+02,1.088000000000000000e+03,3.620000000000000000e+02,1.000000000000000000e+02,6.900000000000000000e+01,4.300000000000000000e+01,6.200000000000000000e+01,1.900000000000000022e-01,2.549396000000000000e+09
1.110000000000000000e+02,4.310000000000000000e+02,1.037000000000000000e+03,3.560000000000000000e+02,9.400000000000000000e+01,6.600000000000000000e+01,4.200000000000000000e+01,6.000000000000000000e+01,2.000000000000000111e-01,2.568746500000000000e+09
1.150000000000000000e+02,4.450000000000000000e+02,9.750000000000000000e+02,3.760000000000000000e+02,1.000000000000000000e+02,6.800000000000000000e+01,4.300000000000000000e+01,6.300000000000000000e+01,2.000000000000000111e-01,2.586944500000000000e+09
1.050000000000000000e+02,4.140000000000000000e+02,9.080000000000000000e+02,3.950000000000000000e+02,9.500000000000000000e+01,6.500000000000000000e+01,4.100000000000000000e+01,5.900000000000000000e+01,2.099999999999999922e-01,2.605013600000000000e+09
8.800000000000000000e+01,3.370000000000000000e+02,8.690000000000000000e+02,3.750000000000000000e+02,8.300000000000000000e+01,5.900000000000000000e+01,3.600000000000000000e+01,5.200000000000000000e+01,2.200000000000000011e-01,2.624975000000000000e+09
8.300000000000000000e+01,3.120000000000000000e+02,8.470000000000000000e+02,3.200000000000000000e+02,8.100000000000000000e+01,5.000000000000000000e+01,3.300000000000000000e+01,4.600000000000000000e+01,2.300000000000000100e-01,2.642800800000000000e+09
8.900000000000000000e+01,2.990000000000000000e+02,8.410000000000000000e+02,3.220000000000000000e+02,8.100000000000000000e+01,5.200000000000000000e+01,3.400000000000000000e+01,4.900000000000000000e+01,2.300000000000000100e-01,2.662862100000000000e+09
8.200000000000000000e+01,2.710000000000000000e+02,8.970000000000000000e+02,3.000000000000000000e+02,7.200000000000000000e+01,5.000000000000000000e+01,3.000000000000000000e+01,4.500000000000000000e+01,2.399999999999999911e-01,2.680894600000000000e+09
8.200000000000000000e+01,2.760000000000000000e+02,9.400000000000000000e+02,2.770000000000000000e+02,6.700000000000000000e+01,4.900000000000000000e+01,2.900000000000000000e+01,4.500000000000000000e+01,2.500000000000000000e-01,2.699251400000000000e+09
1.000000000000000000e+02,3.110000000000000000e+02,9.530000000000000000e+02,3.190000000000000000e+02,9.000000000000000000e+01,5.500000000000000000e+01,3.200000000000000000e+01,5.500000000000000000e+01,2.500000000000000000e-01,2.718095100000000000e+09
1.220000000000000000e+02,3.340000000000000000e+02,8.870000000000000000e+02,3.760000000000000000e+02,1.150000000000000000e+02,6.600000000000000000e+01,4.100000000000000000e+01,6.900000000000000000e+01,2.600000000000000089e-01,2.736512700000000000e+09
1.200000000000000000e+02,2.890000000000000000e+02,8.700000000000000000e+02,3.830000000000000000e+02,1.190000000000000000e+02,6.500000000000000000e+01,4.000000000000000000e+01,6.800000000000000000e+01,2.700000000000000178e-01,2.756015600000000000e+09
1.270000000000000000e+02,3.000000000000000000e+02,9.110000000000000000e+02,4.350000000000000000e+02,1.270000000000000000e+02,6.800000000000000000e+01,4.400000000000000000e+01,7.200000000000000000e+01,2.700000000000000178e-01,2.775116500000000000e+09
1.310000000000000000e+02,3.240000000000000000e+02,9.420000000000000000e+02,4.530000000000000000e+02,1.320000000000000000e+02,7.000000000000000000e+01,4.500000000000000000e+01,7.400000000000000000e+01,2.800000000000000266e-01,2.793541400000000000e+09
1.200000000000000000e+02,3.060000000000000000e+02,9.030000000000000000e+02,4.280000000000000000e+02,1.210000000000000000e+02,6.600000000000000000e+01,4.400000000000000000e+01,6.800000000000000000e+01,2.800000000000000266e-01,2.813625600000000000e+09
9.200000000000000000e+01,2.700000000000000000e+02,9.190000000000000000e+02,3.400000000000000000e+02,9.000000000000000000e+01,5.300000000000000000e+01,3.500000000000000000e+01,5.200000000000000000e+01,2.899999999999999800e-01,2.832890800000000000e+09
8.300000000000000000e+01,2.710000000000000000e+02,9.450000000000000000e+02,3.200000000000000000e+02,9.000000000000000000e+01,5.400000000000000000e+01,3.600000000000000000e+01,5.100000000000000000e+01,2.999999999999999889e-01,2.851179800000000000e+09
7.600000000000000000e+01,2.700000000000000000e+02,8.880000000000000000e+02,2.660000000000000000e+02,8.400000000000000000e+01,5.200000000000000000e+01,3.400000000000000000e+01,4.600000000000000000e+01,2.999999999999999889e-01,2.869926100000000000e+09
8.000000000000000000e+01,2.730000000000000000e+02,9.410000000000000000e+02,2.520000000000000000e+02,8.400000000000000000e+01,5.200000000000000000e+01,3.600000000000000000e+01,4.700000000000000000e+01,2.999999999999999889e-01,2.889381600000000000e+09
7.900000000000000000e+01,2.690000000000000000e+02,9.690000000000000000e+02,2.650000000000000000e+02,8.100000000000000000e+01,5.000000000000000000e+01,3.700000000000000000e+01,4.700000000000000000e+01,3.099999999999999978e-01,2.907625200000000000e+09
8.100000000000000000e+01,2.790000000000000000e+02,9.740000000000000000e+02,2.570000000000000000e+02,8.600000000000000000e+01,5.400000000000000000e+01,4.000000000000000000e+01,4.800000000000000000e+01,3.099999999999999978e-01,2.927483600000000000e+09
1.240000000000000000e+02,3.330000000000000000e+02,9.940000000000000000e+02,3.420000000000000000e+02,1.210000000000000000e+02,7.700000000000000000e+01,5.300000000000000000e+01,6.900000000000000000e+01,2.999999999999999889e-01,2.946154900000000000e+09
1.250000000000000000e+02,3.190000000000000000e+02,9.650000000000000000e+02,3.450000000000000000e+02,1.210000000000000000e+02,7.800000000000000000e+01,5.400000000000000000e+01,7.100000000000000000e+01,3.099999999999999978e-01,2.965349000000000000e+09
1.180000000000000000e+02,2.960000000000000000e+02,8.040000000000000000e+02,3.290000000000000000e+02,1.160000000000000000e+02,7.600000000000000000e+01,5.200000000000000000e+01,6.800000000000000000e+01,3.099999999999999978e-01,2.984324200000000000e+09
1.210000000000000000e+02,2.830000000000000000e+02,8.050000000000000000e+02,3.230000000000000000e+02,1.200000000000000000e+02,7.800000000000000000e+01,5.300000000000000000e+01,7.000000000000000000e+01,3.099999999999999978e-01,3.004342700000000000e+09
1.160000000000000000e+02,2.650000000000000000e+02,8.310000000000000000e+02,3.390000000000000000e+02,1.150000000000000000e+02,7.500000000000000000e+01,5.000000000000000000e+01,6.800000000000000000e+01,3.200000000000000067e-01,3.023317800000000000e+09
6.800000000000000000e+01,1.830000000000000000e+02,7.440000000000000000e+02,2.730000000000000000e+02,7.100000000000000000e+01,4.700000000000000000e+01,3.500000000000000000e+01,4.600000000000000000e+01,3.300000000000000155e-01,3.041389100000000000e+09
7.100000000000000000e+01,2.160000000000000000e+02,8.710000000000000000e+02,2.850000000000000000e+02,7.300000000000000000e+01,4.500000000000000000e+01,3.300000000000000000e+01,4.700000000000000000e+01,3.400000000000000244e-01,3.061030500000000000e+09
7.400000000000000000e+01,2.270000000000000000e+02,8.860000000000000000e+02,2.800000000000000000e+02,7.000000000000000000e+01,4.500000000000000000e+01,3.100000000000000000e+01,4.700000000000000000e+01,3.400000000000000244e-01,3.081143300000000000e+09
6.800000000000000000e+01,2.150000000000000000e+02,8.370000000000000000e+02,2.700000000000000000e+02,6.300000000000000000e+01,4.000000000000000000e+01,2.700000000000000000e+01,5.600000000000000000e+01,3.499999999999999778e-01,3.101348000000000000e+09
7.600000000000000000e+01,2.140000000000000000e+02,7.380000000000000000e+02,2.550000000000000000e+02,6.300000000000000000e+01,4.100000000000000000e+01,3.000000000000000000e+01,1.120000000000000000e+02,3.599999999999999867e-01,3.120351900000000000e+09
7.500000000000000000e+01,2.190000000000000000e+02,7.050000000000000000e+02,2.160000000000000000e+02,6.100000000000000000e+01,4.100000000000000000e+01,2.900000000000000000e+01,1.150000000000000000e+02,3.699999999999999956e-01,3.138901100000000000e+09
6.800000000000000000e+01,1.850000000000000000e+02,4.480000000000000000e+02,1.540000000000000000e+02,4.600000000000000000e+01,3.500000000000000000e+01,2.700000000000000000e+01,1.180000000000000000e+02,3.800000000000000044e-01,3.157205700000000000e+09
6.900000000000000000e+01,1.490000000000000000e+02,3.480000000000000000e+02,1.270000000000000000e+02,4.300000000000000000e+01,3.100000000000000000e+01,2.800000000000000000e+01,1.700000000000000000e+02,4.000000000000000222e-01,3.176799500000000000e+09
6.400000000000000000e+01,1.750000000000000000e+02,2.530000000000000000e+02,1.170000000000000000e+02,3.400000000000000000e+01,2.700000000000000000e+01,3.100000000000000000e+01,2.220000000000000000e+02,4.199999999999999845e-01,3.194984500000000000e+09
5.400000000000000000e+01,1.840000000000000000e+02,2.220000000000000000e+02,8.000000000000000000e+01,2.800000000000000000e+01,2.700000000000000000e+01,2.700000000000000000e+01,2.140000000000000000e+02,4.299999999999999933e-01,3.214625500000000000e+09
5.200000000000000000e+01,1.680000000000000000e+02,1.960000000000000000e+02,7.100000000000000000e+01,2.800000000000000000e+01,2.800000000000000000e+01,2.800000000000000000e+01,2.210000000000000000e+02,4.400000000000000022e-01,3.233768600000000000e+09
4.200000000000000000e+01,1.600000000000000000e+02,1.520000000000000000e+02,7.100000000000000000e+01,2.500000000000000000e+01,2.800000000000000000e+01,2.700000000000000000e+01,2.210000000000000000e+02,4.600000000000000200e-01,3.254288500000000000e+09
2.700000000000000000e+01,1.610000000000000000e+02,1.360000000000000000e+02,9.200000000000000000e+01,4.600000000000000000e+01,3.400000000000000000e+01,2.600000000000000000e+01,1.880000000000000000e+02,4.600000000000000200e-01,3.272683900000000000e+09
2.900000000000000000e+01,1.540000000000000000e+02,1.730000000000000000e+02,9.200000000000000000e+01,4.900000000000000000e+01,3.500000000000000000e+01,2.300000000000000000e+01,1.180000000000000000e+02,4.699999999999999734e-01,3.293581100000000000e+09
2.900000000000000000e+01,1.370000000000000000e+02,1.890000000000000000e+02,1.290000000000000000e+02,5.100000000000000000e+01,3.200000000000000000e+01,2.300000000000000000e+01,8.800000000000000000e+01,4.799999999999999822e-01,3.313179600000000000e+09
2.700000000000000000e+01,1.280000000000000000e+02,2.130000000000000000e+02,1.320000000000000000e+02,5.000000000000000000e+01,3.300000000000000000e+01,2.400000000000000000e+01,6.300000000000000000e+01,4.899999999999999911e-01,3.333321600000000000e+09
2.600000000000000000e+01,1.500000000000000000e+02,2.350000000000000000e+02,1.300000000000000000e+02,5.100000000000000000e+01,3.600000000000000000e+01,2.300000000000000000e+01,5.100000000000000000e+01,5.000000000000000000e-01,3.353140300000000000e+09
2.500000000000000000e+01,1.450000000000000000e+02,2.450000000000000000e+02,1.150000000000000000e+02,3.500000000000000000e+01,3.200000000000000000e+01,2.300000000000000000e+01,3.800000000000000000e+01,5.100000000000000089e-01,3.372148300000000000e+09
2.300000000000000000e+01,1.140000000000000000e+02,2.090000000000000000e+02,1.320000000000000000e+02,3.300000000000000000e+01,3.200000000000000000e+01,2.200000000000000000e+01,2.800000000000000000e+01,5.100000000000000089e-01,3.391367800000000000e+09
2.100000000000000000e+01,1.050000000000000000e+02,1.870000000000000000e+02,1.080000000000000000e+02,2.900000000000000000e+01,3.000000000000000000e+01,2.200000000000000000e+01,2.500000000000000000e+01,5.200000000000000178e-01,3.409363700000000000e+09
2.900000000000000000e+01,1.500000000000000000e+02,3.950000000000000000e+02,1.440000000000000000e+02,3.500000000000000000e+01,2.800000000000000000e+01,2.300000000000000000e+01,2.400000000000000000e+01,5.300000000000000266e-01,3.430208200000000000e+09
3.300000000000000000e+01,1.480000000000000000e+02,4.660000000000000000e+02,1.610000000000000000e+02,3.500000000000000000e+01,2.400000000000000000e+01,2.400000000000000000e+01,2.400000000000000000e+01,5.400000000000000355e-01,3.448354800000000000e+09
3.500000000000000000e+01,1.490000000000000000e+02,4.740000000000000000e+02,1.680000000000000000e+02,3.600000000000000000e+01,2.300000000000000000e+01,2.200000000000000000e+01,2.200000000000000000e+01,5.500000000000000444e-01,3.467031900000000000e+09
3.400000000000000000e+01,1.460000000000000000e+02,4.820000000000000000e+02,1.570000000000000000e+02,3.300000000000000000e+01,2.400000000000000000e+01,2.500000000000000000e+01,2.400000000000000000e+01,5.600000000000000533e-01,3.485803500000000000e+09
3.500000000000000000e+01,1.470000000000000000e+02,5.050000000000000000e+02,1.530000000000000000e+02,3.300000000000000000e+01,2.500000000000000000e+01,2.400000000000000000e+01,2.400000000000000000e+01,5.699999999999999512e-01,3.508104400000000000e+09
3.000000000000000000e+01,1.330000000000000000e+02,3.750000000000000000e+02,1.330000000000000000e+02,2.800000000000000000e+01,2.400000000000000000e+01,2.400000000000000000e+01,2.300000000000000000e+01,5.799999999999999600e-01,3.530153300000000000e+09
4.700000000000000000e+01,1.480000000000000000e+02,3.800000000000000000e+02,1.770000000000000000e+02,4.600000000000000000e+01,3.400000000000000000e+01,2.400000000000000000e+01,2.900000000000000000e+01,5.899999999999999689e-01,3.547998400000000000e+09
5.100000000000000000e+01,1.670000000000000000e+02,4.170000000000000000e+02,1.840000000000000000e+02,4.700000000000000000e+01,3.500000000000000000e+01,2.500000000000000000e+01,3.000000000000000000e+01,5.999999999999999778e-01,3.568420000000000000e+09
5.100000000000000000e+01,1.660000000000000000e+02,4.250000000000000000e+02,1.840000000000000000e+02,4.700000000000000000e+01,3.300000000000000000e+01,2.300000000000000000e+01,2.900000000000000000e+01,6.099999999999999867e-01,3.590919200000000000e+09
5.100000000000000000e+01,1.810000000000000000e+02,4.110000000000000000e+02,1.860000000000000000e+02,4.700000000000000000e+01,3.300000000000000000e+01,2.300000000000000000e+01,2.900000000000000000e+01,6.099999999999999867e-01,3.609280400000000000e+09
5.400000000000000000e+01,1.630000000000000000e+02,4.670000000000000000e+02,1.820000000000000000e+02,4.800000000000000000e+01,3.400000000000000000e+01,2.300000000000000000e+01,3.100000000000000000e+01,6.199999999999999956e-01,3.626674100000000000e+09
4.500000000000000000e+01,1.620000000000000000e+02,4.110000000000000000e+02,1.260000000000000000e+02,3.800000000000000000e+01,2.500000000000000000e+01,2.400000000000000000e+01,2.800000000000000000e+01,6.300000000000000044e-01,3.650225700000000000e+09
4.500000000000000000e+01,1.620000000000000000e+02,4.180000000000000000e+02,1.200000000000000000e+02,3.600000000000000000e+01,2.400000000000000000e+01,2.400000000000000000e+01,2.900000000000000000e+01,6.300000000000000044e-01,3.667976700000000000e+09
4.500000000000000000e+01,1.650000000000000000e+02,4.250000000000000000e+02,1.230000000000000000e+02,3.700000000000000000e+01,2.500000000000000000e+01,2.300000000000000000e+01,2.800000000000000000e+01,6.300000000000000044e-01,3.688634600000000000e+09
4.600000000000000000e+01,1.470000000000000000e+02,4.240000000000000000e+02,1.140000000000000000e+02,3.700000000000000000e+01,2.700000000000000000e+01,2.400000000000000000e+01,2.900000000000000000e+01,6.400000000000000133e-01,3.707202400000000000e+09
4.200000000000000000e+01,1.520000000000000000e+02,4.000000000000000000e+02,1.070000000000000000e+02,3.400000000000000000e+01,2.300000000000000000e+01,2.500000000000000000e+01,2.900000000000000000e+01,6.400000000000000133e-01,3.725077500000000000e+09
3.600000000000000000e+01,1.210000000000000000e+02,3.750000000000000000e+02,1.100000000000000000e+02,2.900000000000000000e+01,2.600000000000000000e+01,2.200000000000000000e+01,2.500000000000000000e+01,6.400000000000000133e-01,3.756558700000000000e+09
3.000000000000000000e+01,1.190000000000000000e+02,3.410000000000000000e+02,1.100000000000000000e+02,2.800000000000000000e+01,2.700000000000000000e+01,2.100000000000000000e+01,2.200000000000000000e+01,6.400000000000000133e-01,3.774372100000000000e+09
2.900000000000000000e+01,1.250000000000000000e+02,3.510000000000000000e+02,1.130000000000000000e+02,2.900000000000000000e+01,2.500000000000000000e+01,2.100000000000000000e+01,2.400000000000000000e+01,6.400000000000000133e-01,3.791830200000000000e+09
2.900000000000000000e+01,1.400000000000000000e+02,3.850000000000000000e+02,1.150000000000000000e+02,2.900000000000000000e+01,2.300000000000000000e+01,2.200000000000000000e+01,2.300000000000000000e+01,6.400000000000000133e-01,3.810358500000000000e+09
3.400000000000000000e+01,1.380000000000000000e+02,3.840000000000000000e+02,1.280000000000000000e+02,3.300000000000000000e+01,2.600000000000000000e+01,1.900000000000000000e+01,2.500000000000000000e+01,6.400000000000000133e-01,3.829525900000000000e+09
3.400000000000000000e+01,1.460000000000000000e+02,4.230000000000000000e+02,1.130000000000000000e+02,3.300000000000000000e+01,2.300000000000000000e+01,2.100000000000000000e+01,2.500000000000000000e+01,6.400000000000000133e-01,3.848027300000000000e+09
3.500000000000000000e+01,1.320000000000000000e+02,4.140000000000000000e+02,1.080000000000000000e+02,3.100000000000000000e+01,2.400000000000000000e+01,2.300000000000000000e+01,2.500000000000000000e+01,6.400000000000000133e-01,3.866464200000000000e+09
3.700000000000000000e+01,1.240000000000000000e+02,4.350000000000000000e+02,1.060000000000000000e+02,3.000000000000000000e+01,2.600000000000000000e+01,2.300000000000000000e+01,2.500000000000000000e+01,6.400000000000000133e-01,3.888687000000000000e+09
4.000000000000000000e+01,1.130000000000000000e+02,4.040000000000000000e+02,1.140000000000000000e+02,3.200000000000000000e+01,2.900000000000000000e+01,2.300000000000000000e+01,2.900000000000000000e+01,6.400000000000000133e-01,3.906534000000000000e+09
4.100000000000000000e+01,1.140000000000000000e+02,4.130000000000000000e+02,1.230000000000000000e+02,3.300000000000000000e+01,2.800000000000000000e+01,2.400000000000000000e+01,2.900000000000000000e+01,6.400000000000000133e-01,3.925013200000000000e+09
4.200000000000000000e+01,1.300000000000000000e+02,4.290000000000000000e+02,1.290000000000000000e+02,3.300000000000000000e+01,2.900000000000000000e+01,2.300000000000000000e+01,2.900000000000000000e+01,6.400000000000000133e-01,3.944192000000000000e+09
4.300000000000000000e+01,1.270000000000000000e+02,4.750000000000000000e+02,1.210000000000000000e+02,3.300000000000000000e+01,2.700000000000000000e+01,2.200000000000000000e+01,3.200000000000000000e+01,6.400000000000000133e-01,3.966380900000000000e+09
4.400000000000000000e+01,1.310000000000000000e+02,5.110000000000000000e+02,1.240000000000000000e+02,3.400000000000000000e+01,2.700000000000000000e+01,2.200000000000000000e+01,3.200000000000000000e+01,6.400000000000000133e-01,3.988576300000000000e+09
3.900000000000000000e+01,1.340000000000000000e+02,5.460000000000000000e+02,1.170000000000000000e+02,3.100000000000000000e+01,2.500000000000000000e+01,2.200000000000000000e+01,2.800000000000000000e+01,6.400000000000000133e-01,4.017871300000000000e+09
3.800000000000000000e+01,1.340000000000000000e+02,5.560000000000000000e+02,9.700000000000000000e+01,2.900000000000000000e+01,2.400000000000000000e+01,2.300000000000000000e+01,2.700000000000000000e+01,6.400000000000000133e-01,4.035643600000000000e+09
3.400000000000000000e+01,1.320000000000000000e+02,5.460000000000000000e+02,8.900000000000000000e+01,2.800000000000000000e+01,2.300000000000000000e+01,2.200000000000000000e+01,2.600000000000000000e+01,6.400000000000000133e-01,4.054692900000000000e+09
3.400000000000000000e+01,1.310000000000000000e+02,5.100000000000000000e+02,8.800000000000000000e+01,2.800000000000000000e+01,2.300000000000000000e+01,2.300000000000000000e+01,2.300000000000000000e+01,6.400000000000000133e-01,4.073004200000000000e+09
3.300000000000000000e+01,1.300000000000000000e+02,4.680000000000000000e+02,7.500000000000000000e+01,2.400000000000000000e+01,2.200000000000000000e+01,2.200000000000000000e+01,2.300000000000000000e+01,6.400000000000000133e-01,4.091054100000000000e+09
3.200000000000000000e+01,1.220000000000000000e+02,4.350000000000000000e+02,7.300000000000000000e+01,2.700000000000000000e+01,2.200000000000000000e+01,2.300000000000000000e+01,2.600000000000000000e+01,6.400000000000000133e-01,4.109088700000000000e+09
3.100000000000000000e+01,1.140000000000000000e+02,4.150000000000000000e+02,7.400000000000000000e+01,2.500000000000000000e+01,2.400000000000000000e+01,2.000000000000000000e+01,2.400000000000000000e+01,6.300000000000000044e-01,4.127495800000000000e+09
5.000000000000000000e+01,1.050000000000000000e+02,4.570000000000000000e+02,1.010000000000000000e+02,3.800000000000000000e+01,2.900000000000000000e+01,2.700000000000000000e+01,3.100000000000000000e+01,6.300000000000000044e-01,4.145738500000000000e+09
4.900000000000000000e+01,1.240000000000000000e+02,4.530000000000000000e+02,1.100000000000000000e+02,3.900000000000000000e+01,2.800000000000000000e+01,2.700000000000000000e+01,3.000000000000000000e+01,6.300000000000000044e-01,4.164207300000000000e+09
4.800000000000000000e+01,1.240000000000000000e+02,4.190000000000000000e+02,1.280000000000000000e+02,4.000000000000000000e+01,2.900000000000000000e+01,2.800000000000000000e+01,2.800000000000000000e+01,6.300000000000000044e-01,4.186484300000000000e+09
5.300000000000000000e+01,1.290000000000000000e+02,5.100000000000000000e+02,1.400000000000000000e+02,4.300000000000000000e+01,3.100000000000000000e+01,2.900000000000000000e+01,3.000000000000000000e+01,6.300000000000000044e-01,4.208634700000000000e+09
5.000000000000000000e+01,1.490000000000000000e+02,4.890000000000000000e+02,1.360000000000000000e+02,4.400000000000000000e+01,2.900000000000000000e+01,2.900000000000000000e+01,3.000000000000000000e+01,6.300000000000000044e-01,4.226940400000000000e+09
3.100000000000000000e+01,1.320000000000000000e+02,4.200000000000000000e+02,1.190000000000000000e+02,3.300000000000000000e+01,2.500000000000000000e+01,2.300000000000000000e+01,2.200000000000000000e+01,6.300000000000000044e-01,4.250894000000000000e+09
3.300000000000000000e+01,1.260000000000000000e+02,4.210000000000000000e+02,1.210000000000000000e+02,3.200000000000000000e+01,2.600000000000000000e+01,2.300000000000000000e+01,2.400000000000000000e+01,6.300000000000000044e-01,4.270029100000000000e+09
3.400000000000000000e+01,1.270000000000000000e+02,4.380000000000000000e+02,1.070000000000000000e+02,3.200000000000000000e+01,2.600000000000000000e+01,2.300000000000000000e+01,2.500000000000000000e+01,6.300000000000000044e-01,4.289020200000000000e+09
3.300000000000000000e+01,1.290000000000000000e+02,4.060000000000000000e+02,1.010000000000000000e+02,2.800000000000000000e+01,2.300000000000000000e+01,2.200000000000000000e+01,2.200000000000000000e+01,6.300000000000000044e-01,4.310384500000000000e+09
3.400000000000000000e+01,1.160000000000000000e+02,4.010000000000000000e+02,1.050000000000000000e+02,2.700000000000000000e+01,2.400000000000000000e+01,2.200000000000000000e+01,2.000000000000000000e+01,6.300000000000000044e-01,4.328478900000000000e+09
3.700000000000000000e+01,1.280000000000000000e+02,4.160000000000000000e+02,1.210000000000000000e+02,3.300000000000000000e+01,2.500000000000000000e+01,2.500000000000000000e+01,2.500000000000000000e+01,6.400000000000000133e-01,4.346456500000000000e+09
3.500000000000000000e+01,1.470000000000000000e+02,4.110000000000000000e+02,1.090000000000000000e+02,3.100000000000000000e+01,2.500000000000000000e+01,2.400000000000000000e+01,2.400000000000000000e+01,6.400000000000000133e-01,4.365130200000000000e+09
4.200000000000000000e+01,1.580000000000000000e+02,4.130000000000000000e+02,1.150000000000000000e+02,3.300000000000000000e+01,2.500000000000000000e+01,2.500000000000000000e+01,2.600000000000000000e+01,6.400000000000000133e-01,4.386588000000000000e+09
4.100000000000000000e+01,1.710000000000000000e+02,3.620000000000000000e+02,1.320000000000000000e+02,3.700000000000000000e+01,2.500000000000000000e+01,2.300000000000000000e+01,2.600000000000000000e+01,6.400000000000000133e-01,4.408956100000000000e+09
4.000000000000000000e+01,1.690000000000000000e+02,3.430000000000000000e+02,1.340000000000000000e+02,3.600000000000000000e+01,2.400000000000000000e+01,2.300000000000000000e+01,2.700000000000000000e+01,6.400000000000000133e-01,4.427360300000000000e+09
3.600000000000000000e+01,1.680000000000000000e+02,3.590000000000000000e+02,1.180000000000000000e+02,3.300000000000000000e+01,2.200000000000000000e+01,2.100000000000000000e+01,2.300000000000000000e+01,6.400000000000000133e-01,4.445590800000000000e+09
3.600000000000000000e+01,1.400000000000000000e+02,3.640000000000000000e+02,1.160000000000000000e+02,3.600000000000000000e+01,2.400000000000000000e+01,2.100000000000000000e+01,2.500000000000000000e+01,6.400000000000000133e-01,4.465986000000000000e+09
2.900000000000000000e+01,1.390000000000000000e+02,4.520000000000000000e+02,1.180000000000000000e+02,3.400000000000000000e+01,2.400000000000000000e+01,1.900000000000000000e+01,2.500000000000000000e+01,6.400000000000000133e-01,4.488274600000000000e+09
2.400000000000000000e+01,1.370000000000000000e+02,4.280000000000000000e+02,9.400000000000000000e+01,3.000000000000000000e+01,2.300000000000000000e+01,1.900000000000000000e+01,2.500000000000000000e+01,6.400000000000000133e-01,4.511001000000000000e+09
2.700000000000000000e+01,1.270000000000000000e+02,4.260000000000000000e+02,9.300000000000000000e+01,3.200000000000000000e+01,2.200000000000000000e+01,1.900000000000000000e+01,2.800000000000000000e+01,6.400000000000000133e-01,4.529759500000000000e+09
2.900000000000000000e+01,1.270000000000000000e+02,4.210000000000000000e+02,9.600000000000000000e+01,3.100000000000000000e+01,2.200000000000000000e+01,2.100000000000000000e+01,2.900000000000000000e+01,6.400000000000000133e-01,4.547687900000000000e+09
3.100000000000000000e+01,1.390000000000000000e+02,4.650000000000000000e+02,9.800000000000000000e+01,2.900000000000000000e+01,2.000000000000000000e+01,2.200000000000000000e+01,2.800000000000000000e+01,6.400000000000000133e-01,4.573617600000000000e+09
2.800000000000000000e+01,1.260000000000000000e+02,4.270000000000000000e+02,8.200000000000000000e+01,2.900000000000000000e+01,2.200000000000000000e+01,2.200000000000000000e+01,2.600000000000000000e+01,6.400000000000000133e-01,4.591910900000000000e+09
3.000000000000000000e+01,1.070000000000000000e+02,4.530000000000000000e+02,7.300000000000000000e+01,2.600000000000000000e+01,2.200000000000000000e+01,2.300000000000000000e+01,2.500000000000000000e+01,6.400000000000000133e-01,4.609519400000000000e+09
2.800000000000000000e+01,1.280000000000000000e+02,4.560000000000000000e+02,6.500000000000000000e+01,2.500000000000000000e+01,2.400000000000000000e+01,2.400000000000000000e+01,2.600000000000000000e+01,6.300000000000000044e-01,4.627741100000000000e+09
2.800000000000000000e+01,1.320000000000000000e+02,4.740000000000000000e+02,7.600000000000000000e+01,2.800000000000000000e+01,2.400000000000000000e+01,2.300000000000000000e+01,2.600000000000000000e+01,6.300000000000000044e-01,4.645989200000000000e+09
3.000000000000000000e+01,1.290000000000000000e+02,4.450000000000000000e+02,8.300000000000000000e+01,2.900000000000000000e+01,2.500000000000000000e+01,2.400000000000000000e+01,2.700000000000000000e+01,6.300000000000000044e-01,4.671965200000000000e+09
3.400000000000000000e+01,1.340000000000000000e+02,3.790000000000000000e+02,9.200000000000000000e+01,2.900000000000000000e+01,2.400000000000000000e+01,2.500000000000000000e+01,2.800000000000000000e+01,6.300000000000000044e-01,4.690300500000000000e+09
3.400000000000000000e+01,1.290000000000000000e+02,3.530000000000000000e+02,9.500000000000000000e+01,2.900000000000000000e+01,2.400000000000000000e+01,2.400000000000000000e+01,2.800000000000000000e+01,6.300000000000000044e-01,4.708381800000000000e+09
3.500000000000000000e+01,1.110000000000000000e+02,3.520000000000000000e+02,9.800000000000000000e+01,2.800000000000000000e+01,2.400000000000000000e+01,2.300000000000000000e+01,2.800000000000000000e+01,6.300000000000000044e-01,4.730435900000000000e+09
3.300000000000000000e+01,9.300000000000000000e+01,3.640000000000000000e+02,9.900000000000000000e+01,2.900000000000000000e+01,2.700000000000000000e+01,2.200000000000000000e+01,2.600000000000000000e+01,6.199999999999999956e-01,4.748678400000000000e+09
3.300000000000000000e+01,8.200000000000000000e+01,3.480000000000000000e+02,9.800000000000000000e+01,2.900000000000000000e+01,2.600000000000000000e+01,2.200000000000000000e+01,2.500000000000000000e+01,6.199999999999999956e-01,4.768037800000000000e+09
3.300000000000000000e+01,7.500000000000000000e+01,3.440000000000000000e+02,8.900000000000000000e+01,2.800000000000000000e+01,2.600000000000000000e+01,2.000000000000000000e+01,2.500000000000000000e+01,6.199999999999999956e-01,4.790189400000000000e+09
3.300000000000000000e+01,9.100000000000000000e+01,3.890000000000000000e+02,8.900000000000000000e+01,3.000000000000000000e+01,2.700000000000000000e+01,2.100000000000000000e+01,2.500000000000000000e+01,6.199999999999999956e-01,4.808665700000000000e+09
3.300000000000000000e+01,8.600000000000000000e+01,4.020000000000000000e+02,8.500000000000000000e+01,3.100000000000000000e+01,2.500000000000000000e+01,2.000000000000000000e+01,2.100000000000000000e+01,6.199999999999999956e-01,4.827627300000000000e+09
4.000000000000000000e+01,1.050000000000000000e+02,4.050000000000000000e+02,1.230000000000000000e+02,3.800000000000000000e+01,2.600000000000000000e+01,2.300000000000000000e+01,2.600000000000000000e+01,6.199999999999999956e-01,4.850503300000000000e+09
3.600000000000000000e+01,1.040000000000000000e+02,4.430000000000000000e+02,1.300000000000000000e+02,3.600000000000000000e+01,2.600000000000000000e+01,2.200000000000000000e+01,2.500000000000000000e+01,6.199999999999999956e-01,4.869080900000000000e+09
3.300000000000000000e+01,1.210000000000000000e+02,4.430000000000000000e+02,1.270000000000000000e+02,3.500000000000000000e+01,2.500000000000000000e+01,2.400000000000000000e+01,2.500000000000000000e+01,6.199999999999999956e-01,4.890195200000000000e+09
3.200000000000000000e+01,1.110000000000000000e+02,3.920000000000000000e+02,1.270000000000000000e+02,3.500000000000000000e+01,2.400000000000000000e+01,2.300000000000000000e+01,2.200000000000000000e+01,6.199999999999999956e-01,4.907991800000000000e+09
3.300000000000000000e+01,1.160000000000000000e+02,4.000000000000000000e+02,1.340000000000000000e+02,3.700000000000000000e+01,2.500000000000000000e+01,2.300000000000000000e+01,2.500000000000000000e+01,6.300000000000000044e-01,4.932669400000000000e+09
2.600000000000000000e+01,1.010000000000000000e+02,3.860000000000000000e+02,9.200000000000000000e+01,2.600000000000000000e+01,2.200000000000000000e+01,2.100000000000000000e+01,2.000000000000000000e+01,6.300000000000000044e-01,4.950392800000000000e+09
2.800000000000000000e+01,9.900000000000000000e+01,3.490000000000000000e+02,7.800000000000000000e+01,2.500000000000000000e+01,2.100000000000000000e+01,2.000000000000000000e+01,2.000000000000000000e+01,6.300000000000000044e-01,4.969768600000000000e+09
2.900000000000000000e+01,1.080000000000000000e+02,4.050000000000000000e+02,9.500000000000000000e+01,2.600000000000000000e+01,2.100000000000000000e+01,1.800000000000000000e+01,1.900000000000000000e+01,6.300000000000000044e-01,4.990129100000000000e+09
3.100000000000000000e+01,1.120000000000000000e+02,4.280000000000000000e+02,1.030000000000000000e+02,2.800000000000000000e+01,2.200000000000000000e+01,2.100000000000000000e+01,2.200000000000000000e+01,6.300000000000000044e-01,5.009004200000000000e+09
3.100000000000000000e+01,1.090000000000000000e+02,4.720000000000000000e+02,9.500000000000000000e+01,2.500000000000000000e+01,2.300000000000000000e+01,2.000000000000000000e+01,2.200000000000000000e+01,6.300000000000000044e-01,5.028566400000000000e+09
2.900000000000000000e+01,1.120000000000000000e+02,4.880000000000000000e+02,9.900000000000000000e+01,2.500000000000000000e+01,2.400000000000000000e+01,2.100000000000000000e+01,2.200000000000000000e+01,6.300000000000000044e-01,5.046489100000000000e+09
3.200000000000000000e+01,1.150000000000000000e+02,4.820000000000000000e+02,1.180000000000000000e+02,2.900000000000000000e+01,2.500000000000000000e+01,2.300000000000000000e+01,2.300000000000000000e+01,6.300000000000000044e-01,5.067945200000000000e+09
3.200000000000000000e+01,8.700000000000000000e+01,4.410000000000000000e+02,1.060000000000000000e+02,2.800000000000000000e+01,2.600000000000000000e+01,2.300000000000000000e+01,2.500000000000000000e+01,6.300000000000000044e-01,5.090169800000000000e+09
3.300000000000000000e+01,8.400000000000000000e+01,4.810000000000000000e+02,1.100000000000000000e+02,3.000000000000000000e+01,2.900000000000000000e+01,2.300000000000000000e+01,2.500000000000000000e+01,6.300000000000000044e-01,5.108171900000000000e+09
3.400000000000000000e+01,8.400000000000000000e+01,4.200000000000000000e+02,1.290000000000000000e+02,3.100000000000000000e+01,2.800000000000000000e+01,2.400000000000000000e+01,2.400000000000000000e+01,6.300000000000000044e-01,5.128287300000000000e+09
3.500000000000000000e+01,8.800000000000000000e+01,3.570000000000000000e+02,1.280000000000000000e+02,3.100000000000000000e+01,2.700000000000000000e+01,2.400000000000000000e+01,2.500000000000000000e+01,6.300000000000000044e-01,5.150056300000000000e+09
3.300000000000000000e+01,9.400000000000000000e+01,4.100000000000000000e+02,1.130000000000000000e+02,3.000000000000000000e+01,2.600000000000000000e+01,2.200000000000000000e+01,2.300000000000000000e+01,6.300000000000000044e-01,5.168867500000000000e+09
3.600000000000000000e+01,9.900000000000000000e+01,4.460000000000000000e+02,1.230000000000000000e+02,3.300000000000000000e+01,2.500000000000000000e+01,2.200000000000000000e+01,2.300000000000000000e+01,6.300000000000000044e-01,5.190055200000000000e+09
3.200000000000000000e+01,1.050000000000000000e+02,4.220000000000000000e+02,1.210000000000000000e+02,2.900000000000000000e+01,2.500000000000000000e+01,2.000000000000000000e+01,2.200000000000000000e+01,6.400000000000000133e-01,5.207801300000000000e+09
3.100000000000000000e+01,1.090000000000000000e+02,4.840000000000000000e+02,1.010000000000000000e+02,2.900000000000000000e+01,2.400000000000000000e+01,1.900000000000000000e+01,2.100000000000000000e+01,6.400000000000000133e-01,5.226644800000000000e+09
2.900000000000000000e+01,1.060000000000000000e+02,5.230000000000000000e+02,9.800000000000000000e+01,2.900000000000000000e+01,2.400000000000000000e+01,1.900000000000000000e+01,2.000000000000000000e+01,6.400000000000000133e-01,5.247346300000000000e+09
3.000000000000000000e+01,1.010000000000000000e+02,5.090000000000000000e+02,1.100000000000000000e+02,3.100000000000000000e+01,2.600000000000000000e+01,1.900000000000000000e+01,2.200000000000000000e+01,6.400000000000000133e-01,5.267892100000000000e+09
3.000000000000000000e+01,1.030000000000000000e+02,5.950000000000000000e+02,1.080000000000000000e+02,2.900000000000000000e+01,2.700000000000000000e+01,2.000000000000000000e+01,2.400000000000000000e+01,6.400000000000000133e-01,5.290143700000000000e+09
3.000000000000000000e+01,1.050000000000000000e+02,6.340000000000000000e+02,1.070000000000000000e+02,3.000000000000000000e+01,2.400000000000000000e+01,2.100000000000000000e+01,2.300000000000000000e+01,6.400000000000000133e-01,5.308523200000000000e+09
3.100000000000000000e+01,1.160000000000000000e+02,5.950000000000000000e+02,1.060000000000000000e+02,3.100000000000000000e+01,2.500000000000000000e+01,2.200000000000000000e+01,2.400000000000000000e+01,6.400000000000000133e-01,5.327122100000000000e+09
3.100000000000000000e+01,1.110000000000000000e+02,5.640000000000000000e+02,1.040000000000000000e+02,3.200000000000000000e+01,2.500000000000000000e+01,2.200000000000000000e+01,2.500000000000000000e+01,6.400000000000000133e-01,5.345548700000000000e+09
3.500000000000000000e+01,1.210000000000000000e+02,5.770000000000000000e+02,1.010000000000000000e+02,3.200000000000000000e+01,2.500000000000000000e+01,2.300000000000000000e+01,2.500000000000000000e+01,6.400000000000000133e-01,5.368114000000000000e+09
3.900000000000000000e+01,1.370000000000000000e+02,5.780000000000000000e+02,1.150000000000000000e+02,3.400000000000000000e+01,2.200000000000000000e+01,2.200000000000000000e+01,2.600000000000000000e+01,6.400000000000000133e-01,5.390030100000000000e+09
4.200000000000000000e+01,1.470000000000000000e+02,5.480000000000000000e+02,1.170000000000000000e+02,3.500000000000000000e+01,2.400000000000000000e+01,2.100000000000000000e+01,2.800000000000000000e+01,6.300000000000000044e-01,5.409411700000000000e+09
4.100000000000000000e+01,1.410000000000000000e+02,5.710000000000000000e+02,1.180000000000000000e+02,3.400000000000000000e+01,2.300000000000000000e+01,2.000000000000000000e+01,2.900000000000000000e+01,6.300000000000000044e-01,5.428539200000000000e+09
4.200000000000000000e+01,1.440000000000000000e+02,5.950000000000000000e+02,1.190000000000000000e+02,3.200000000000000000e+01,2.400000000000000000e+01,2.000000000000000000e+01,2.900000000000000000e+01,6.300000000000000044e-01,5.446130200000000000e+09
4.400000000000000000e+01,1.460000000000000000e+02,6.130000000000000000e+02,1.350000000000000000e+02,3.700000000000000000e+01,2.600000000000000000e+01,2.100000000000000000e+01,3.700000000000000000e+01,6.300000000000000044e-01,5.467741700000000000e+09
3.900000000000000000e+01,1.220000000000000000e+02,5.540000000000000000e+02,1.310000000000000000e+02,3.400000000000000000e+01,2.800000000000000000e+01,2.100000000000000000e+01,3.800000000000000000e+01,6.300000000000000044e-01,5.491938500000000000e+09
3.900000000000000000e+01,1.010000000000000000e+02,5.820000000000000000e+02,1.250000000000000000e+02,3.200000000000000000e+01,2.700000000000000000e+01,2.200000000000000000e+01,3.800000000000000000e+01,6.300000000000000044e-01,5.509847800000000000e+09
3.900000000000000000e+01,1.000000000000000000e+02,6.210000000000000000e+02,1.300000000000000000e+02,3.200000000000000000e+01,4.900000000000000000e+01,4.000000000000000000e+01,3.900000000000000000e+01,6.300000000000000044e-01,5.527864900000000000e+09
4.500000000000000000e+01,1.280000000000000000e+02,7.030000000000000000e+02,1.500000000000000000e+02,4.000000000000000000e+01,9.600000000000000000e+01,7.000000000000000000e+01,6.200000000000000000e+01,6.300000000000000044e-01,5.547470800000000000e+09
4.500000000000000000e+01,1.270000000000000000e+02,7.320000000000000000e+02,1.540000000000000000e+02,3.700000000000000000e+01,1.290000000000000000e+02,7.400000000000000000e+01,1.080000000000000000e+02,6.199999999999999956e-01,5.567804200000000000e+09
4.500000000000000000e+01,1.360000000000000000e+02,6.950000000000000000e+02,1.410000000000000000e+02,3.500000000000000000e+01,1.410000000000000000e+02,7.700000000000000000e+01,1.330000000000000000e+02,6.199999999999999956e-01,5.590096300000000000e+09
4.500000000000000000e+01,1.370000000000000000e+02,6.570000000000000000e+02,1.480000000000000000e+02,3.900000000000000000e+01,1.480000000000000000e+02,7.800000000000000000e+01,1.480000000000000000e+02,6.099999999999999867e-01,5.608641200000000000e+09
4.700000000000000000e+01,1.350000000000000000e+02,6.010000000000000000e+02,1.490000000000000000e+02,3.900000000000000000e+01,1.460000000000000000e+02,7.300000000000000000e+01,1.490000000000000000e+02,6.099999999999999867e-01,5.626983300000000000e+09
4.300000000000000000e+01,1.170000000000000000e+02,5.290000000000000000e+02,1.300000000000000000e+02,4.400000000000000000e+01,1.220000000000000000e+02,4.500000000000000000e+01,1.460000000000000000e+02,6.099999999999999867e-01,5.645393400000000000e+09
4.300000000000000000e+01,1.320000000000000000e+02,5.680000000000000000e+02,1.390000000000000000e+02,7.000000000000000000e+01,9.600000000000000000e+01,4.300000000000000000e+01,1.170000000000000000e+02,5.999999999999999778e-01,5.667721600000000000e+09
7.700000000000000000e+01,1.970000000000000000e+02,7.220000000000000000e+02,2.390000000000000000e+02,1.050000000000000000e+02,8.500000000000000000e+01,4.000000000000000000e+01,9.000000000000000000e+01,5.899999999999999689e-01,5.689858400000000000e+09
1.100000000000000000e+02,2.840000000000000000e+02,8.020000000000000000e+02,3.470000000000000000e+02,1.340000000000000000e+02,9.000000000000000000e+01,4.500000000000000000e+01,7.900000000000000000e+01,5.699999999999999512e-01,5.708751700000000000e+09
1.170000000000000000e+02,3.040000000000000000e+02,9.490000000000000000e+02,4.160000000000000000e+02,1.410000000000000000e+02,8.800000000000000000e+01,4.500000000000000000e+01,8.000000000000000000e+01,5.500000000000000444e-01,5.727009400000000000e+09
1.310000000000000000e+02,3.220000000000000000e+02,1.027000000000000000e+03,4.800000000000000000e+02,1.490000000000000000e+02,9.200000000000000000e+01,4.700000000000000000e+01,8.000000000000000000e+01,5.300000000000000266e-01,5.750888000000000000e+09
1.470000000000000000e+02,4.160000000000000000e+02,1.161000000000000000e+03,5.140000000000000000e+02,1.550000000000000000e+02,8.700000000000000000e+01,4.700000000000000000e+01,8.100000000000000000e+01,5.100000000000000089e-01,5.769626500000000000e+09
1.590000000000000000e+02,4.490000000000000000e+02,1.174000000000000000e+03,5.110000000000000000e+02,1.560000000000000000e+02,8.800000000000000000e+01,5.300000000000000000e+01,9.100000000000000000e+01,4.799999999999999822e-01,5.795045000000000000e+09
1.570000000000000000e+02,4.300000000000000000e+02,1.200000000000000000e+03,5.720000000000000000e+02,1.540000000000000000e+02,8.600000000000000000e+01,5.200000000000000000e+01,8.900000000000000000e+01,4.699999999999999734e-01,5.813256600000000000e+09
2.100000000000000000e+02,5.670000000000000000e+02,1.184000000000000000e+03,6.570000000000000000e+02,2.010000000000000000e+02,1.110000000000000000e+02,7.100000000000000000e+01,1.130000000000000000e+02,4.400000000000000022e-01,5.831794000000000000e+09
2.510000000000000000e+02,6.640000000000000000e+02,1.241000000000000000e+03,7.360000000000000000e+02,2.580000000000000000e+02,1.410000000000000000e+02,8.700000000000000000e+01,1.340000000000000000e+02,4.199999999999999845e-01,5.851021800000000000e+09
2.490000000000000000e+02,6.240000000000000000e+02,1.151000000000000000e+03,7.240000000000000000e+02,2.550000000000000000e+02,1.390000000000000000e+02,8.600000000000000000e+01,1.320000000000000000e+02,3.900000000000000133e-01,5.869350900000000000e+09
2.390000000000000000e+02,6.220000000000000000e+02,1.168000000000000000e+03,7.720000000000000000e+02,2.580000000000000000e+02,1.440000000000000000e+02,8.500000000000000000e+01,1.270000000000000000e+02,3.599999999999999867e-01,5.887889400000000000e+09
2.510000000000000000e+02,6.680000000000000000e+02,1.144000000000000000e+03,7.250000000000000000e+02,2.630000000000000000e+02,1.430000000000000000e+02,8.800000000000000000e+01,1.310000000000000000e+02,3.300000000000000155e-01,5.909348900000000000e+09
2.350000000000000000e+02,6.180000000000000000e+02,1.142000000000000000e+03,6.680000000000000000e+02,2.540000000000000000e+02,1.340000000000000000e+02,8.500000000000000000e+01,1.340000000000000000e+02,2.999999999999999889e-01,5.930648500000000000e+09
1.950000000000000000e+02,5.520000000000000000e+02,1.054000000000000000e+03,5.820000000000000000e+02,2.120000000000000000e+02,1.130000000000000000e+02,7.500000000000000000e+01,1.100000000000000000e+02,2.800000000000000266e-01,5.961829000000000000e+09
2.070000000000000000e+02,6.100000000000000000e+02,1.039000000000000000e+03,6.660000000000000000e+02,2.410000000000000000e+02,1.260000000000000000e+02,7.700000000000000000e+01,1.170000000000000000e+02,2.600000000000000089e-01,5.980351500000000000e+09
2.080000000000000000e+02,6.020000000000000000e+02,9.750000000000000000e+02,6.400000000000000000e+02,2.290000000000000000e+02,1.210000000000000000e+02,7.700000000000000000e+01,1.190000000000000000e+02,2.399999999999999911e-01,5.997603800000000000e+09
1.820000000000000000e+02,5.460000000000000000e+02,9.670000000000000000e+02,6.020000000000000000e+02,2.140000000000000000e+02,1.130000000000000000e+02,6.900000000000000000e+01,1.060000000000000000e+02,2.200000000000000011e-01,6.015628300000000000e+09
1.600000000000000000e+02,5.060000000000000000e+02,9.790000000000000000e+02,5.920000000000000000e+02,1.860000000000000000e+02,1.050000000000000000e+02,5.800000000000000000e+01,8.800000000000000000e+01,2.099999999999999922e-01,6.033351900000000000e+09
1.720000000000000000e+02,5.040000000000000000e+02,9.390000000000000000e+02,6.170000000000000000e+02,2.070000000000000000e+02,1.080000000000000000e+02,6.100000000000000000e+01,9.800000000000000000e+01,1.900000000000000022e-01,6.051763900000000000e+09
1.610000000000000000e+02,4.610000000000000000e+02,9.230000000000000000e+02,5.110000000000000000e+02,1.710000000000000000e+02,9.100000000000000000e+01,6.100000000000000000e+01,9.300000000000000000e+01,1.799999999999999933e-01,6.073841700000000000e+09
1.590000000000000000e+02,4.770000000000000000e+02,9.340000000000000000e+02,4.540000000000000000e+02,1.810000000000000000e+02,9.300000000000000000e+01,5.800000000000000000e+01,8.800000000000000000e+01,1.700000000000000122e-01,6.092075700000000000e+09
1.590000000000000000e+02,4.870000000000000000e+02,9.220000000000000000e+02,4.630000000000000000e+02,1.790000000000000000e+02,9.200000000000000000e+01,5.800000000000000000e+01,8.800000000000000000e+01,1.600000000000000033e-01,6.110453000000000000e+09
1.570000000000000000e+02,5.030000000000000000e+02,9.380000000000000000e+02,4.350000000000000000e+02,1.930000000000000000e+02,1.000000000000000000e+02,5.900000000000000000e+01,8.500000000000000000e+01,1.499999999999999944e-01,6.129016800000000000e+09
1.390000000000000000e+02,4.800000000000000000e+02,9.570000000000000000e+02,3.510000000000000000e+02,1.500000000000000000e+02,8.400000000000000000e+01,5.200000000000000000e+01,7.800000000000000000e+01,1.400000000000000133e-01,6.147537800000000000e+09
1.330000000000000000e+02,4.540000000000000000e+02,9.560000000000000000e+02,4.050000000000000000e+02,1.690000000000000000e+02,9.300000000000000000e+01,5.500000000000000000e+01,7.800000000000000000e+01,1.400000000000000133e-01,6.169388400000000000e+09
1.350000000000000000e+02,4.140000000000000000e+02,9.610000000000000000e+02,4.680000000000000000e+02,1.770000000000000000e+02,9.500000000000000000e+01,5.900000000000000000e+01,8.100000000000000000e+01,1.300000000000000044e-01,6.188585500000000000e+09
1.470000000000000000e+02,3.910000000000000000e+02,1.023000000000000000e+03,4.920000000000000000e+02,1.900000000000000000e+02,1.020000000000000000e+02,6.200000000000000000e+01,8.700000000000000000e+01,1.300000000000000044e-01,6.206767900000000000e+09
1.460000000000000000e+02,3.250000000000000000e+02,9.270000000000000000e+02,4.770000000000000000e+02,1.840000000000000000e+02,9.600000000000000000e+01,6.300000000000000000e+01,8.400000000000000000e+01,1.300000000000000044e-01,6.237890500000000000e+09
1.520000000000000000e+02,3.040000000000000000e+02,9.800000000000000000e+02,5.050000000000000000e+02,1.930000000000000000e+02,1.010000000000000000e+02,6.300000000000000000e+01,8.700000000000000000e+01,1.300000000000000044e-01,6.255656900000000000e+09
1.600000000000000000e+02,3.430000000000000000e+02,1.082000000000000000e+03,5.260000000000000000e+02,1.820000000000000000e+02,9.100000000000000000e+01,5.900000000000000000e+01,8.600000000000000000e+01,1.300000000000000044e-01,6.274816800000000000e+09
1.560000000000000000e+02,3.280000000000000000e+02,1.099000000000000000e+03,4.800000000000000000e+02,1.630000000000000000e+02,8.700000000000000000e+01,5.600000000000000000e+01,8.300000000000000000e+01,1.300000000000000044e-01,6.293471100000000000e+09
1.560000000000000000e+02,3.760000000000000000e+02,1.064000000000000000e+03,4.670000000000000000e+02,1.550000000000000000e+02,9.100000000000000000e+01,5.700000000000000000e+01,8.200000000000000000e+01,1.300000000000000044e-01,6.311297500000000000e+09
1.490000000000000000e+02,4.010000000000000000e+02,1.091000000000000000e+03,4.700000000000000000e+02,1.520000000000000000e+02,8.800000000000000000e+01,5.100000000000000000e+01,7.800000000000000000e+01,1.300000000000000044e-01,6.330280400000000000e+09
1.420000000000000000e+02,4.090000000000000000e+02,1.079000000000000000e+03,4.570000000000000000e+02,1.420000000000000000e+02,8.400000000000000000e+01,4.800000000000000000e+01,7.400000000000000000e+01,1.400000000000000133e-01,6.348497300000000000e+09
1.340000000000000000e+02,3.830000000000000000e+02,9.250000000000000000e+02,4.170000000000000000e+02,1.420000000000000000e+02,8.500000000000000000e+01,4.800000000000000000e+01,7.300000000000000000e+01,1.400000000000000133e-01,6.367336700000000000e+09
1.440000000000000000e+02,4.120000000000000000e+02,8.700000000000000000e+02,4.220000000000000000e+02,1.610000000000000000e+02,9.600000000000000000e+01,5.500000000000000000e+01,8.000000000000000000e+01,1.400000000000000133e-01,6.387108200000000000e+09
1.370000000000000000e+02,3.800000000000000000e+02,8.310000000000000000e+02,4.070000000000000000e+02,1.570000000000000000e+02,8.900000000000000000e+01,5.500000000000000000e+01,7.700000000000000000e+01,1.499999999999999944e-01,6.410955000000000000e+09
1.290000000000000000e+02,3.560000000000000000e+02,8.030000000000000000e+02,3.730000000000000000e+02,1.460000000000000000e+02,8.300000000000000000e+01,5.400000000000000000e+01,7.200000000000000000e+01,1.499999999999999944e-01,6.429157400000000000e+09
1.290000000000000000e+02,3.510000000000000000e+02,7.550000000000000000e+02,3.780000000000000000e+02,1.480000000000000000e+02,8.500000000000000000e+01,5.500000000000000000e+01,7.100000000000000000e+01,1.600000000000000033e-01,6.447614000000000000e+09
1.190000000000000000e+02,3.160000000000000000e+02,7.510000000000000000e+02,3.490000000000000000e+02,1.350000000000000000e+02,8.300000000000000000e+01,5.200000000000000000e+01,6.600000000000000000e+01,1.600000000000000033e-01,6.469441800000000000e+09
1.020000000000000000e+02,2.840000000000000000e+02,7.450000000000000000e+02,3.360000000000000000e+02,1.050000000000000000e+02,6.600000000000000000e+01,4.500000000000000000e+01,5.300000000000000000e+01,1.799999999999999933e-01,6.487733600000000000e+09
9.400000000000000000e+01,2.540000000000000000e+02,8.470000000000000000e+02,3.200000000000000000e+02,9.500000000000000000e+01,5.900000000000000000e+01,4.000000000000000000e+01,4.800000000000000000e+01,1.900000000000000022e-01,6.546254400000000000e+09
8.700000000000000000e+01,2.340000000000000000e+02,8.420000000000000000e+02,3.350000000000000000e+02,9.600000000000000000e+01,6.000000000000000000e+01,3.900000000000000000e+01,4.700000000000000000e+01,2.000000000000000111e-01,6.563816500000000000e+09
6.900000000000000000e+01,1.890000000000000000e+02,8.550000000000000000e+02,2.750000000000000000e+02,8.400000000000000000e+01,5.100000000000000000e+01,3.400000000000000000e+01,3.800000000000000000e+01,2.200000000000000011e-01,6.582446700000000000e+09
5.900000000000000000e+01,1.750000000000000000e+02,8.240000000000000000e+02,2.430000000000000000e+02,8.200000000000000000e+01,4.600000000000000000e+01,3.300000000000000000e+01,3.600000000000000000e+01,2.399999999999999911e-01,6.599496900000000000e+09
5.800000000000000000e+01,1.480000000000000000e+02,8.370000000000000000e+02,2.220000000000000000e+02,8.200000000000000000e+01,4.500000000000000000e+01,3.100000000000000000e+01,3.800000000000000000e+01,2.500000000000000000e-01,6.617083100000000000e+09
5.700000000000000000e+01,1.750000000000000000e+02,7.180000000000000000e+02,2.090000000000000000e+02,8.000000000000000000e+01,4.400000000000000000e+01,2.900000000000000000e+01,3.500000000000000000e+01,2.700000000000000178e-01,6.634971300000000000e+09
5.500000000000000000e+01,1.690000000000000000e+02,6.570000000000000000e+02,1.890000000000000000e+02,7.600000000000000000e+01,4.100000000000000000e+01,2.900000000000000000e+01,3.300000000000000000e+01,2.899999999999999800e-01,6.652434100000000000e+09
5.100000000000000000e+01,1.640000000000000000e+02,5.430000000000000000e+02,1.740000000000000000e+02,6.200000000000000000e+01,3.800000000000000000e+01,2.900000000000000000e+01,3.200000000000000000e+01,3.200000000000000067e-01,6.669599400000000000e+09
5.000000000000000000e+01,1.710000000000000000e+02,5.310000000000000000e+02,1.720000000000000000e+02,6.100000000000000000e+01,3.700000000000000000e+01,2.800000000000000000e+01,2.800000000000000000e+01,3.400000000000000244e-01,6.688322400000000000e+09
4.100000000000000000e+01,1.760000000000000000e+02,4.010000000000000000e+02,1.340000000000000000e+02,6.100000000000000000e+01,3.300000000000000000e+01,2.800000000000000000e+01,2.400000000000000000e+01,3.699999999999999956e-01,6.705528500000000000e+09
4.800000000000000000e+01,1.690000000000000000e+02,3.140000000000000000e+02,1.390000000000000000e+02,6.100000000000000000e+01,3.500000000000000000e+01,3.000000000000000000e+01,2.900000000000000000e+01,4.000000000000000222e-01,6.723308100000000000e+09
5.200000000000000000e+01,1.890000000000000000e+02,3.690000000000000000e+02,1.420000000000000000e+02,6.400000000000000000e+01,4.100000000000000000e+01,3.000000000000000000e+01,3.200000000000000000e+01,4.099999999999999756e-01,6.740984000000000000e+09
5.200000000000000000e+01,1.980000000000000000e+02,3.560000000000000000e+02,1.370000000000000000e+02,1.220000000000000000e+02,4.700000000000000000e+01,2.800000000000000000e+01,3.200000000000000000e+01,4.299999999999999933e-01,6.758402600000000000e+09
4.900000000000000000e+01,2.200000000000000000e+02,3.690000000000000000e+02,1.650000000000000000e+02,1.320000000000000000e+02,4.900000000000000000e+01,2.700000000000000000e+01,3.300000000000000000e+01,4.400000000000000022e-01,6.777409000000000000e+09
5.200000000000000000e+01,2.320000000000000000e+02,4.710000000000000000e+02,1.630000000000000000e+02,1.320000000000000000e+02,5.100000000000000000e+01,2.800000000000000000e+01,3.400000000000000000e+01,4.500000000000000111e-01,6.794856200000000000e+09
4.000000000000000000e+01,2.130000000000000000e+02,4.500000000000000000e+02,1.470000000000000000e+02,1.310000000000000000e+02,4.700000000000000000e+01,2.500000000000000000e+01,2.900000000000000000e+01,4.600000000000000200e-01,6.814187500000000000e+09
3.200000000000000000e+01,2.020000000000000000e+02,3.930000000000000000e+02,1.230000000000000000e+02,1.280000000000000000e+02,4.000000000000000000e+01,2.500000000000000000e+01,2.500000000000000000e+01,4.699999999999999734e-01,6.831811200000000000e+09
3.200000000000000000e+01,1.900000000000000000e+02,3.910000000000000000e+02,1.360000000000000000e+02,7.400000000000000000e+01,3.200000000000000000e+01,2.500000000000000000e+01,2.300000000000000000e+01,4.899999999999999911e-01,6.850325300000000000e+09
3.700000000000000000e+01,1.620000000000000000e+02,4.070000000000000000e+02,1.160000000000000000e+02,5.700000000000000000e+01,3.400000000000000000e+01,2.600000000000000000e+01,2.600000000000000000e+01,5.000000000000000000e-01,6.874047100000000000e+09
3.300000000000000000e+01,1.270000000000000000e+02,3.120000000000000000e+02,1.220000000000000000e+02,4.600000000000000000e+01,3.100000000000000000e+01,2.300000000000000000e+01,2.300000000000000000e+01,5.100000000000000089e-01,6.892264200000000000e+09
3.400000000000000000e+01,1.380000000000000000e+02,3.050000000000000000e+02,1.260000000000000000e+02,4.400000000000000000e+01,3.400000000000000000e+01,2.400000000000000000e+01,2.400000000000000000e+01,5.200000000000000178e-01,6.910073900000000000e+09
3.500000000000000000e+01,1.290000000000000000e+02,2.880000000000000000e+02,1.210000000000000000e+02,3.900000000000000000e+01,3.400000000000000000e+01,2.300000000000000000e+01,2.400000000000000000e+01,5.200000000000000178e-01,6.928624500000000000e+09
3.400000000000000000e+01,1.270000000000000000e+02,2.930000000000000000e+02,1.020000000000000000e+02,3.800000000000000000e+01,3.400000000000000000e+01,2.300000000000000000e+01,2.400000000000000000e+01,5.300000000000000266e-01,6.948905300000000000e+09
3.600000000000000000e+01,1.250000000000000000e+02,3.680000000000000000e+02,9.200000000000000000e+01,3.400000000000000000e+01,3.500000000000000000e+01,2.400000000000000000e+01,2.700000000000000000e+01,5.300000000000000266e-01,6.967474700000000000e+09
3.400000000000000000e+01,1.170000000000000000e+02,3.450000000000000000e+02,8.500000000000000000e+01,3.600000000000000000e+01,3.300000000000000000e+01,2.300000000000000000e+01,3.100000000000000000e+01,5.400000000000000355e-01,6.995941300000000000e+09
3.400000000000000000e+01,1.220000000000000000e+02,3.490000000000000000e+02,7.900000000000000000e+01,3.600000000000000000e+01,3.000000000000000000e+01,2.300000000000000000e+01,3.000000000000000000e+01,5.400000000000000355e-01,7.013569300000000000e+09
3.300000000000000000e+01,1.370000000000000000e+02,3.550000000000000000e+02,7.900000000000000000e+01,3.600000000000000000e+01,2.900000000000000000e+01,2.300000000000000000e+01,3.100000000000000000e+01,5.500000000000000444e-01,7.033079300000000000e+09
3.300000000000000000e+01,1.460000000000000000e+02,3.670000000000000000e+02,7.800000000000000000e+01,3.500000000000000000e+01,2.900000000000000000e+01,2.200000000000000000e+01,3.100000000000000000e+01,5.600000000000000533e-01,7.051153800000000000e+09
2.600000000000000000e+01,1.370000000000000000e+02,3.420000000000000000e+02,6.400000000000000000e+01,2.800000000000000000e+01,2.200000000000000000e+01,2.100000000000000000e+01,2.500000000000000000e+01,5.699999999999999512e-01,7.069845000000000000e+09
3.300000000000000000e+01,1.470000000000000000e+02,3.630000000000000000e+02,1.000000000000000000e+02,4.000000000000000000e+01,3.000000000000000000e+01,2.900000000000000000e+01,2.700000000000000000e+01,5.699999999999999512e-01,7.091079500000000000e+09
3.400000000000000000e+01,1.310000000000000000e+02,3.590000000000000000e+02,1.130000000000000000e+02,4.400000000000000000e+01,3.000000000000000000e+01,2.900000000000000000e+01,2.900000000000000000e+01,5.799999999999999600e-01,7.109523200000000000e+09
3.400000000000000000e+01,1.090000000000000000e+02,3.570000000000000000e+02,1.120000000000000000e+02,4.400000000000000000e+01,3.300000000000000000e+01,3.100000000000000000e+01,2.700000000000000000e+01,5.799999999999999600e-01,7.128943300000000000e+09
3.700000000000000000e+01,1.100000000000000000e+02,4.560000000000000000e+02,1.120000000000000000e+02,4.400000000000000000e+01,3.300000000000000000e+01,3.100000000000000000e+01,4.700000000000000000e+01,5.799999999999999600e-01,7.152066900000000000e+09
4.800000000000000000e+01,1.200000000000000000e+02,4.390000000000000000e+02,1.280000000000000000e+02,5.000000000000000000e+01,3.500000000000000000e+01,3.200000000000000000e+01,6.500000000000000000e+01,5.799999999999999600e-01,7.169738500000000000e+09
5.900000000000000000e+01,1.290000000000000000e+02,5.110000000000000000e+02,1.310000000000000000e+02,4.500000000000000000e+01,2.900000000000000000e+01,2.700000000000000000e+01,6.800000000000000000e+01,5.899999999999999689e-01,7.188882000000000000e+09
6.000000000000000000e+01,1.230000000000000000e+02,5.210000000000000000e+02,1.290000000000000000e+02,4.200000000000000000e+01,4.300000000000000000e+01,2.700000000000000000e+01,6.800000000000000000e+01,5.899999999999999689e-01,7.228193200000000000e+09
6.100000000000000000e+01,1.260000000000000000e+02,5.610000000000000000e+02,1.300000000000000000e+02,4.100000000000000000e+01,4.200000000000000000e+01,2.500000000000000000e+01,6.900000000000000000e+01,5.899999999999999689e-01,7.245632000000000000e+09
6.000000000000000000e+01,1.170000000000000000e+02,5.530000000000000000e+02,1.370000000000000000e+02,4.200000000000000000e+01,4.300000000000000000e+01,2.500000000000000000e+01,5.900000000000000000e+01,5.999999999999999778e-01,7.263983600000000000e+09
5.600000000000000000e+01,1.210000000000000000e+02,6.580000000000000000e+02,1.440000000000000000e+02,4.100000000000000000e+01,4.700000000000000000e+01,2.600000000000000000e+01,4.200000000000000000e+01,5.999999999999999778e-01,7.282372400000000000e+09
3.800000000000000000e+01,9.700000000000000000e+01,5.940000000000000000e+02,1.130000000000000000e+02,3.500000000000000000e+01,4.700000000000000000e+01,2.500000000000000000e+01,3.200000000000000000e+01,5.999999999999999778e-01,7.300530800000000000e+09
4.000000000000000000e+01,1.340000000000000000e+02,6.850000000000000000e+02,1.080000000000000000e+02,3.600000000000000000e+01,3.500000000000000000e+01,2.400000000000000000e+01,3.000000000000000000e+01,6.099999999999999867e-01,7.318475800000000000e+09
3.900000000000000000e+01,1.390000000000000000e+02,6.710000000000000000e+02,1.150000000000000000e+02,3.700000000000000000e+01,3.200000000000000000e+01,2.500000000000000000e+01,3.000000000000000000e+01,6.099999999999999867e-01,7.335552600000000000e+09
4.000000000000000000e+01,1.350000000000000000e+02,6.260000000000000000e+02,1.110000000000000000e+02,3.700000000000000000e+01,3.100000000000000000e+01,2.500000000000000000e+01,2.900000000000000000e+01,6.099999999999999867e-01,7.353495800000000000e+09
3.400000000000000000e+01,1.240000000000000000e+02,5.130000000000000000e+02,8.400000000000000000e+01,3.100000000000000000e+01,2.300000000000000000e+01,2.200000000000000000e+01,2.600000000000000000e+01,6.099999999999999867e-01,7.371988200000000000e+09
3.600000000000000000e+01,1.380000000000000000e+02,5.320000000000000000e+02,8.700000000000000000e+01,2.800000000000000000e+01,2.100000000000000000e+01,2.100000000000000000e+01,2.600000000000000000e+01,6.099999999999999867e-01,7.392135800000000000e+09
3.300000000000000000e+01,1.040000000000000000e+02,4.300000000000000000e+02,8.700000000000000000e+01,2.900000000000000000e+01,2.200000000000000000e+01,2.200000000000000000e+01,2.700000000000000000e+01,6.099999999999999867e-01,7.411102800000000000e+09
3.200000000000000000e+01,9.700000000000000000e+01,4.380000000000000000e+02,7.900000000000000000e+01,2.700000000000000000e+01,2.200000000000000000e+01,2.300000000000000000e+01,2.500000000000000000e+01,6.099999999999999867e-01,7.429554200000000000e+09
3.500000000000000000e+01,1.150000000000000000e+02,4.610000000000000000e+02,8.300000000000000000e+01,2.700000000000000000e+01,2.200000000000000000e+01,2.300000000000000000e+01,2.700000000000000000e+01,6.099999999999999867e-01,7.452321800000000000e+09
3.500000000000000000e+01,1.280000000000000000e+02,4.330000000000000000e+02,8.400000000000000000e+01,2.900000000000000000e+01,2.900000000000000000e+01,2.300000000000000000e+01,2.700000000000000000e+01,6.099999999999999867e-01,7.470157500000000000e+09
3.400000000000000000e+01,1.170000000000000000e+02,4.630000000000000000e+02,9.500000000000000000e+01,3.500000000000000000e+01,3.000000000000000000e+01,2.600000000000000000e+01,2.700000000000000000e+01,6.099999999999999867e-01,7.490468600000000000e+09
3.600000000000000000e+01,1.220000000000000000e+02,5.260000000000000000e+02,1.120000000000000000e+02,3.800000000000000000e+01,3.300000000000000000e+01,2.600000000000000000e+01,2.700000000000000000e+01,6.099999999999999867e-01,7.511493300000000000e+09
3.500000000000000000e+01,1.250000000000000000e+02,5.200000000000000000e+02,1.130000000000000000e+02,3.800000000000000000e+01,3.400000000000000000e+01,2.600000000000000000e+01,2.600000000000000000e+01,6.199999999999999956e-01,7.529630200000000000e+09
3.200000000000000000e+01,1.090000000000000000e+02,4.710000000000000000e+02,1.060000000000000000e+02,3.700000000000000000e+01,3.400000000000000000e+01,2.600000000000000000e+01,2.500000000000000000e+01,6.199999999999999956e-01,7.551600800000000000e+09
3.000000000000000000e+01,9.400000000000000000e+01,5.390000000000000000e+02,1.070000000000000000e+02,3.600000000000000000e+01,3.000000000000000000e+01,2.400000000000000000e+01,2.300000000000000000e+01,6.199999999999999956e-01,7.581111200000000000e+09
3.400000000000000000e+01,1.110000000000000000e+02,5.260000000000000000e+02,1.020000000000000000e+02,3.200000000000000000e+01,2.900000000000000000e+01,2.200000000000000000e+01,2.600000000000000000e+01,6.199999999999999956e-01,7.598869500000000000e+09
3.000000000000000000e+01,1.030000000000000000e+02,5.150000000000000000e+02,8.000000000000000000e+01,2.600000000000000000e+01,2.600000000000000000e+01,1.900000000000000000e+01,2.300000000000000000e+01,6.199999999999999956e-01,7.616725200000000000e+09
3.200000000000000000e+01,1.020000000000000000e+02,4.950000000000000000e+02,7.700000000000000000e+01,2.800000000000000000e+01,2.500000000000000000e+01,1.800000000000000000e+01,2.600000000000000000e+01,6.199999999999999956e-01,7.634691500000000000e+09
3.100000000000000000e+01,9.900000000000000000e+01,5.010000000000000000e+02,7.500000000000000000e+01,2.800000000000000000e+01,2.700000000000000000e+01,1.900000000000000000e+01,2.500000000000000000e+01,6.199999999999999956e-01,7.653452200000000000e+09
3.600000000000000000e+01,1.170000000000000000e+02,4.770000000000000000e+02,9.500000000000000000e+01,3.100000000000000000e+01,2.700000000000000000e+01,2.300000000000000000e+01,2.700000000000000000e+01,6.199999999999999956e-01,7.671844400000000000e+09
3.000000000000000000e+01,9.300000000000000000e+01,5.030000000000000000e+02,8.800000000000000000e+01,3.100000000000000000e+01,2.500000000000000000e+01,2.200000000000000000e+01,2.400000000000000000e+01,6.199999999999999956e-01,7.691389300000000000e+09
3.000000000000000000e+01,9.300000000000000000e+01,4.740000000000000000e+02,8.500000000000000000e+01,3.500000000000000000e+01,2.600000000000000000e+01,2.300000000000000000e+01,2.600000000000000000e+01,6.199999999999999956e-01,7.709652600000000000e+09
3.100000000000000000e+01,9.100000000000000000e+01,4.950000000000000000e+02,9.500000000000000000e+01,3.400000000000000000e+01,2.900000000000000000e+01,2.400000000000000000e+01,2.500000000000000000e+01,6.199999999999999956e-01,7.729277400000000000e+09
3.300000000000000000e+01,9.600000000000000000e+01,5.400000000000000000e+02,9.700000000000000000e+01,3.400000000000000000e+01,2.800000000000000000e+01,2.300000000000000000e+01,2.600000000000000000e+01,6.199999999999999956e-01,7.752035200000000000e+09
2.700000000000000000e+01,1.020000000000000000e+02,5.300000000000000000e+02,7.500000000000000000e+01,3.200000000000000000e+01,2.700000000000000000e+01,2.100000000000000000e+01,2.300000000000000000e+01,6.199999999999999956e-01,7.770234400000000000e+09
3.100000000000000000e+01,1.130000000000000000e+02,5.670000000000000000e+02,9.500000000000000000e+01,3.400000000000000000e+01,3.000000000000000000e+01,2.400000000000000000e+01,2.600000000000000000e+01,6.099999999999999867e-01,7.797739500000000000e+09
3.400000000000000000e+01,1.180000000000000000e+02,5.590000000000000000e+02,9.900000000000000000e+01,3.100000000000000000e+01,3.200000000000000000e+01,2.500000000000000000e+01,2.800000000000000000e+01,6.099999999999999867e-01,7.815312000000000000e+09
3.400000000000000000e+01,1.160000000000000000e+02,5.480000000000000000e+02,9.500000000000000000e+01,3.300000000000000000e+01,3.100000000000000000e+01,2.400000000000000000e+01,2.800000000000000000e+01,6.099999999999999867e-01,7.833571300000000000e+09
3.300000000000000000e+01,1.120000000000000000e+02,5.310000000000000000e+02,1.040000000000000000e+02,3.400000000000000000e+01,3.100000000000000000e+01,2.400000000000000000e+01,2.700000000000000000e+01,6.099999999999999867e-01,7.852056000000000000e+09
3.300000000000000000e+01,8.800000000000000000e+01,5.010000000000000000e+02,1.030000000000000000e+02,3.300000000000000000e+01,3.200000000000000000e+01,2.400000000000000000e+01,2.900000000000000000e+01,6.099999999999999867e-01,7.872493900000000000e+09
3.200000000000000000e+01,7.800000000000000000e+01,4.600000000000000000e+02,8.900000000000000000e+01,2.900000000000000000e+01,2.800000000000000000e+01,2.200000000000000000e+01,2.700000000000000000e+01,6.099999999999999867e-01,7.890969000000000000e+09
3.000000000000000000e+01,6.800000000000000000e+01,4.210000000000000000e+02,8.100000000000000000e+01,2.900000000000000000e+01,2.700000000000000000e+01,2.000000000000000000e+01,2.500000000000000000e+01,6.099999999999999867e-01,7.918240600000000000e+09
2.700000000000000000e+01,7.200000000000000000e+01,4.450000000000000000e+02,7.600000000000000000e+01,2.700000000000000000e+01,2.400000000000000000e+01,1.900000000000000000e+01,2.500000000000000000e+01,6.099999999999999867e-01,7.935803500000000000e+09
3.000000000000000000e+01,7.800000000000000000e+01,4.220000000000000000e+02,6.800000000000000000e+01,2.700000000000000000e+01,2.300000000000000000e+01,2.300000000000000000e+01,2.500000000000000000e+01,6.099999999999999867e-01,7.953996400000000000e+09
3.100000000000000000e+01,7.700000000000000000e+01,4.220000000000000000e+02,7.700000000000000000e+01,2.800000000000000000e+01,2.300000000000000000e+01,2.300000000000000000e+01,2.400000000000000000e+01,6.099999999999999867e-01,7.972830800000000000e+09
3.100000000000000000e+01,7.200000000000000000e+01,3.910000000000000000e+02,8.800000000000000000e+01,2.900000000000000000e+01,2.600000000000000000e+01,2.400000000000000000e+01,2.600000000000000000e+01,6.099999999999999867e-01,7.992541100000000000e+09
3.500000000000000000e+01,8.400000000000000000e+01,4.730000000000000000e+02,9.800000000000000000e+01,3.100000000000000000e+01,2.400000000000000000e+01,2.600000000000000000e+01,2.700000000000000000e+01,6.099999999999999867e-01,8.009893100000000000e+09
3.400000000000000000e+01,7.900000000000000000e+01,4.950000000000000000e+02,9.700000000000000000e+01,2.900000000000000000e+01,2.400000000000000000e+01,2.700000000000000000e+01,2.600000000000000000e+01,6.099999999999999867e-01,8.030391900000000000e+09
3.200000000000000000e+01,7.700000000000000000e+01,5.090000000000000000e+02,9.500000000000000000e+01,2.900000000000000000e+01,2.500000000000000000e+01,2.400000000000000000e+01,2.600000000000000000e+01,6.099999999999999867e-01,8.051857800000000000e+09
3.200000000000000000e+01,7.500000000000000000e+01,5.460000000000000000e+02,9.700000000000000000e+01,2.800000000000000000e+01,2.800000000000000000e+01,2.300000000000000000e+01,2.500000000000000000e+01,6.099999999999999867e-01,8.075030400000000000e+09
3.200000000000000000e+01,7.600000000000000000e+01,5.410000000000000000e+02,7.800000000000000000e+01,2.600000000000000000e+01,2.700000000000000000e+01,2.200000000000000000e+01,2.100000000000000000e+01,6.099999999999999867e-01,8.094534300000000000e+09
2.500000000000000000e+01,5.800000000000000000e+01,4.710000000000000000e+02,7.300000000000000000e+01,2.300000000000000000e+01,2.800000000000000000e+01,2.100000000000000000e+01,2.000000000000000000e+01,6.099999999999999867e-01,8.115110400000000000e+09
2.700000000000000000e+01,7.000000000000000000e+01,4.640000000000000000e+02,8.600000000000000000e+01,2.500000000000000000e+01,2.900000000000000000e+01,2.100000000000000000e+01,2.400000000000000000e+01,6.099999999999999867e-01,8.136098300000000000e+09
2.900000000000000000e+01,6.900000000000000000e+01,4.530000000000000000e+02,8.400000000000000000e+01,2.400000000000000000e+01,2.900000000000000000e+01,2.100000000000000000e+01,2.200000000000000000e+01,6.099999999999999867e-01,8.154345200000000000e+09
2.600000000000000000e+01,6.800000000000000000e+01,4.020000000000000000e+02,7.200000000000000000e+01,2.300000000000000000e+01,2.500000000000000000e+01,2.100000000000000000e+01,2.300000000000000000e+01,6.099999999999999867e-01,8.180476100000000000e+09
2.700000000000000000e+01,6.600000000000000000e+01,3.950000000000000000e+02,7.600000000000000000e+01,2.300000000000000000e+01,2.500000000000000000e+01,2.000000000000000000e+01,2.300000000000000000e+01,6.099999999999999867e-01,8.202354500000000000e+09
3.200000000000000000e+01,8.000000000000000000e+01,4.340000000000000000e+02,8.800000000000000000e+01,2.600000000000000000e+01,2.500000000000000000e+01,2.200000000000000000e+01,2.500000000000000000e+01,6.099999999999999867e-01,8.220075600000000000e+09
3.200000000000000000e+01,8.500000000000000000e+01,4.450000000000000000e+02,9.100000000000000000e+01,2.700000000000000000e+01,2.300000000000000000e+01,2.300000000000000000e+01,2.300000000000000000e+01,6.099999999999999867e-01,8.237688200000000000e+09
3.800000000000000000e+01,1.040000000000000000e+02,5.130000000000000000e+02,1.090000000000000000e+02,3.000000000000000000e+01,2.500000000000000000e+01,2.400000000000000000e+01,2.600000000000000000e+01,6.099999999999999867e-01,8.261365700000000000e+09
3.800000000000000000e+01,1.090000000000000000e+02,5.400000000000000000e+02,1.150000000000000000e+02,2.900000000000000000e+01,2.500000000000000000e+01,2.500000000000000000e+01,2.600000000000000000e+01,6.099999999999999867e-01,8.280181300000000000e+09
3.700000000000000000e+01,1.090000000000000000e+02,5.040000000000000000e+02,1.200000000000000000e+02,3.400000000000000000e+01,2.900000000000000000e+01,2.500000000000000000e+01,2.700000000000000000e+01,6.099999999999999867e-01,8.298314900000000000e+09
3.300000000000000000e+01,1.010000000000000000e+02,4.710000000000000000e+02,1.090000000000000000e+02,3.200000000000000000e+01,2.800000000000000000e+01,2.400000000000000000e+01,2.600000000000000000e+01,6.099999999999999867e-01,8.315204800000000000e+09
3.500000000000000000e+01,9.300000000000000000e+01,4.280000000000000000e+02,9.800000000000000000e+01,3.100000000000000000e+01,3.000000000000000000e+01,2.200000000000000000e+01,2.600000000000000000e+01,6.099999999999999867e-01,8.332497000000000000e+09
3.000000000000000000e+01,8.200000000000000000e+01,4.890000000000000000e+02,9.200000000000000000e+01,3.200000000000000000e+01,3.100000000000000000e+01,2.200000000000000000e+01,2.500000000000000000e+01,6.199999999999999956e-01,8.351878000000000000e+09
3.400000000000000000e+01,7.700000000000000000e+01,4.990000000000000000e+02,1.050000000000000000e+02,3.900000000000000000e+01,3.400000000000000000e+01,2.300000000000000000e+01,2.700000000000000000e+01,6.199999999999999956e-01,8.374983000000000000e+09
3.300000000000000000e+01,7.500000000000000000e+01,4.960000000000000000e+02,9.600000000000000000e+01,3.500000000000000000e+01,3.300000000000000000e+01,2.200000000000000000e+01,2.600000000000000000e+01,6.199999999999999956e-01,8.393263300000000000e+09
4.000000000000000000e+01,9.300000000000000000e+01,5.120000000000000000e+02,1.020000000000000000e+02,3.900000000000000000e+01,3.500000000000000000e+01,2.300000000000000000e+01,2.900000000000000000e+01,6.199999999999999956e-01,8.412135700000000000e+09
3.800000000000000000e+01,9.000000000000000000e+01,5.020000000000000000e+02,9.900000000000000000e+01,3.800000000000000000e+01,3.300000000000000000e+01,2.400000000000000000e+01,2.900000000000000000e+01,6.199999999999999956e-01,8.436151000000000000e+09
3.600000000000000000e+01,8.200000000000000000e+01,3.620000000000000000e+02,8.900000000000000000e+01,3.400000000000000000e+01,3.000000000000000000e+01,2.300000000000000000e+01,2.800000000000000000e+01,6.199999999999999956e-01,8.457403300000000000e+09
3.900000000000000000e+01,1.020000000000000000e+02,3.820000000000000000e+02,8.500000000000000000e+01,3.300000000000000000e+01,2.900000000000000000e+01,2.200000000000000000e+01,2.800000000000000000e+01,6.199999999999999956e-01,8.474921700000000000e+09
4.300000000000000000e+01,1.150000000000000000e+02,4.100000000000000000e+02,9.200000000000000000e+01,3.300000000000000000e+01,2.600000000000000000e+01,2.200000000000000000e+01,2.900000000000000000e+01,6.199999999999999956e-01,8.502150300000000000e+09
3.900000000000000000e+01,1.030000000000000000e+02,3.990000000000000000e+02,8.800000000000000000e+01,3.000000000000000000e+01,2.800000000000000000e+01,2.000000000000000000e+01,2.600000000000000000e+01,6.199999999999999956e-01,8.519608700000000000e+09
3.800000000000000000e+01,1.020000000000000000e+02,4.120000000000000000e+02,8.900000000000000000e+01,3.000000000000000000e+01,2.700000000000000000e+01,1.900000000000000000e+01,2.500000000000000000e+01,6.199999999999999956e-01,8.537167700000000000e+09
4.200000000000000000e+01,1.020000000000000000e+02,4.480000000000000000e+02,1.080000000000000000e+02,3.400000000000000000e+01,2.800000000000000000e+01,1.900000000000000000e+01,2.700000000000000000e+01,6.199999999999999956e-01,8.563654100000000000e+09
3.600000000000000000e+01,9.000000000000000000e+01,4.160000000000000000e+02,1.030000000000000000e+02,2.900000000000000000e+01,2.600000000000000000e+01,1.800000000000000000e+01,2.300000000000000000e+01,6.199999999999999956e-01,8.581726400000000000e+09
4.500000000000000000e+01,1.040000000000000000e+02,4.520000000000000000e+02,1.240000000000000000e+02,3.800000000000000000e+01,3.000000000000000000e+01,2.300000000000000000e+01,3.000000000000000000e+01,6.199999999999999956e-01,8.600159800000000000e+09
4.300000000000000000e+01,1.060000000000000000e+02,5.170000000000000000e+02,1.220000000000000000e+02,3.800000000000000000e+01,2.600000000000000000e+01,2.300000000000000000e+01,3.000000000000000000e+01,6.199999999999999956e-01,8.618090000000000000e+09
4.500000000000000000e+01,1.140000000000000000e+02,5.170000000000000000e+02,1.240000000000000000e+02,4.000000000000000000e+01,2.700000000000000000e+01,2.300000000000000000e+01,3.000000000000000000e+01,6.199999999999999956e-01,8.635741400000000000e+09
4.200000000000000000e+01,1.100000000000000000e+02,4.760000000000000000e+02,1.030000000000000000e+02,3.600000000000000000e+01,2.700000000000000000e+01,2.300000000000000000e+01,2.800000000000000000e+01,6.199999999999999956e-01,8.653318400000000000e+09
4.200000000000000000e+01,1.040000000000000000e+02,4.420000000000000000e+02,1.000000000000000000e+02,3.800000000000000000e+01,2.700000000000000000e+01,2.300000000000000000e+01,3.000000000000000000e+01,6.199999999999999956e-01,8.674423300000000000e+09
5.400000000000000000e+01,1.080000000000000000e+02,5.550000000000000000e+02,1.540000000000000000e+02,5.300000000000000000e+01,3.600000000000000000e+01,2.400000000000000000e+01,3.400000000000000000e+01,6.199999999999999956e-01,8.692354900000000000e+09
5.600000000000000000e+01,1.060000000000000000e+02,5.120000000000000000e+02,1.650000000000000000e+02,5.500000000000000000e+01,3.800000000000000000e+01,2.400000000000000000e+01,3.400000000000000000e+01,6.199999999999999956e-01,8.712201500000000000e+09
5.600000000000000000e+01,9.600000000000000000e+01,4.910000000000000000e+02,1.650000000000000000e+02,5.400000000000000000e+01,3.700000000000000000e+01,2.400000000000000000e+01,3.500000000000000000e+01,6.300000000000000044e-01,8.735971900000000000e+09
5.500000000000000000e+01,9.700000000000000000e+01,4.990000000000000000e+02,1.690000000000000000e+02,5.400000000000000000e+01,3.700000000000000000e+01,2.500000000000000000e+01,3.500000000000000000e+01,6.300000000000000044e-01,8.753767700000000000e+09
5.700000000000000000e+01,9.800000000000000000e+01,4.890000000000000000e+02,1.660000000000000000e+02,5.500000000000000000e+01,3.800000000000000000e+01,2.500000000000000000e+01,3.400000000000000000e+01,6.300000000000000044e-01,8.781227000000000000e+09
4.500000000000000000e+01,8.900000000000000000e+01,2.900000000000000000e+02,1.040000000000000000e+02,4.100000000000000000e+01,3.000000000000000000e+01,2.500000000000000000e+01,3.000000000000000000e+01,6.300000000000000044e-01,8.798833700000000000e+09
4.300000000000000000e+01,9.400000000000000000e+01,2.290000000000000000e+02,8.300000000000000000e+01,3.800000000000000000e+01,2.800000000000000000e+01,2.600000000000000000e+01,2.800000000000000000e+01,6.199999999999999956e-01,8.817517500000000000e+09
4.200000000000000000e+01,9.900000000000000000e+01,2.280000000000000000e+02,8.400000000000000000e+01,4.000000000000000000e+01,3.000000000000000000e+01,2.500000000000000000e+01,2.700000000000000000e+01,6.199999999999999956e-01,8.834791400000000000e+09
4.300000000000000000e+01,1.010000000000000000e+02,2.060000000000000000e+02,7.800000000000000000e+01,3.900000000000000000e+01,3.200000000000000000e+01,2.600000000000000000e+01,2.800000000000000000e+01,6.199999999999999956e-01,8.854614600000000000e+09
4.000000000000000000e+01,1.050000000000000000e+02,2.470000000000000000e+02,8.900000000000000000e+01,3.800000000000000000e+01,3.300000000000000000e+01,2.700000000000000000e+01,2.800000000000000000e+01,6.199999999999999956e-01,8.872855000000000000e+09
4.000000000000000000e+01,1.090000000000000000e+02,3.690000000000000000e+02,1.160000000000000000e+02,3.600000000000000000e+01,3.300000000000000000e+01,2.100000000000000000e+01,2.400000000000000000e+01,6.199999999999999956e-01,8.892464100000000000e+09
4.100000000000000000e+01,1.130000000000000000e+02,3.920000000000000000e+02,1.230000000000000000e+02,4.000000000000000000e+01,3.700000000000000000e+01,2.300000000000000000e+01,2.700000000000000000e+01,6.199999999999999956e-01,8.914805600000000000e+09
4.100000000000000000e+01,1.130000000000000000e+02,4.290000000000000000e+02,1.440000000000000000e+02,4.200000000000000000e+01,3.600000000000000000e+01,2.300000000000000000e+01,2.700000000000000000e+01,6.199999999999999956e-01,8.932672900000000000e+09
5.000000000000000000e+01,1.200000000000000000e+02,5.070000000000000000e+02,2.090000000000000000e+02,5.000000000000000000e+01,3.500000000000000000e+01,2.600000000000000000e+01,3.400000000000000000e+01,6.199999999999999956e-01,8.952721500000000000e+09
5.800000000000000000e+01,1.460000000000000000e+02,6.000000000000000000e+02,2.350000000000000000e+02,6.000000000000000000e+01,4.300000000000000000e+01,2.500000000000000000e+01,3.800000000000000000e+01,6.199999999999999956e-01,8.974979500000000000e+09
6.100000000000000000e+01,1.660000000000000000e+02,6.990000000000000000e+02,3.110000000000000000e+02,5.900000000000000000e+01,4.200000000000000000e+01,2.700000000000000000e+01,4.200000000000000000e+01,6.199999999999999956e-01,8.997224500000000000e+09
7.900000000000000000e+01,2.100000000000000000e+02,7.880000000000000000e+02,3.680000000000000000e+02,8.400000000000000000e+01,5.200000000000000000e+01,3.100000000000000000e+01,4.800000000000000000e+01,6.099999999999999867e-01,9.015011400000000000e+09
1.050000000000000000e+02,3.490000000000000000e+02,8.980000000000000000e+02,3.960000000000000000e+02,1.110000000000000000e+02,6.500000000000000000e+01,3.400000000000000000e+01,5.600000000000000000e+01,5.899999999999999689e-01,9.034237300000000000e+09
1.190000000000000000e+02,3.920000000000000000e+02,9.100000000000000000e+02,3.960000000000000000e+02,1.420000000000000000e+02,7.600000000000000000e+01,3.600000000000000000e+01,6.200000000000000000e+01,5.799999999999999600e-01,9.057132900000000000e+09
1.240000000000000000e+02,4.050000000000000000e+02,9.900000000000000000e+02,4.540000000000000000e+02,1.460000000000000000e+02,7.500000000000000000e+01,3.900000000000000000e+01,6.200000000000000000e+01,5.600000000000000533e-01,9.075597000000000000e+09
1.260000000000000000e+02,4.210000000000000000e+02,1.011000000000000000e+03,4.460000000000000000e+02,1.560000000000000000e+02,7.900000000000000000e+01,4.100000000000000000e+01,6.200000000000000000e+01,5.400000000000000355e-01,9.095686100000000000e+09
1.370000000000000000e+02,4.320000000000000000e+02,1.024000000000000000e+03,4.870000000000000000e+02,1.670000000000000000e+02,8.300000000000000000e+01,4.500000000000000000e+01,6.800000000000000000e+01,5.100000000000000089e-01,9.125606700000000000e+09
1.320000000000000000e+02,4.210000000000000000e+02,1.158000000000000000e+03,5.340000000000000000e+02,1.570000000000000000e+02,7.800000000000000000e+01,4.400000000000000000e+01,6.800000000000000000e+01,4.899999999999999911e-01,9.144033700000000000e+09
1.570000000000000000e+02,4.630000000000000000e+02,1.209000000000000000e+03,6.140000000000000000e+02,1.640000000000000000e+02,8.000000000000000000e+01,5.200000000000000000e+01,7.900000000000000000e+01,4.600000000000000200e-01,9.162099000000000000e+09
1.570000000000000000e+02,4.640000000000000000e+02,1.174000000000000000e+03,6.010000000000000000e+02,1.660000000000000000e+02,8.600000000000000000e+01,5.500000000000000000e+01,8.200000000000000000e+01,4.299999999999999933e-01,9.179678400000000000e+09
1.620000000000000000e+02,4.760000000000000000e+02,1.135000000000000000e+03,5.790000000000000000e+02,1.650000000000000000e+02,8.500000000000000000e+01,5.700000000000000000e+01,8.300000000000000000e+01,4.000000000000000222e-01,9.197419900000000000e+09
1.520000000000000000e+02,4.630000000000000000e+02,1.129000000000000000e+03,5.300000000000000000e+02,1.490000000000000000e+02,7.800000000000000000e+01,5.300000000000000000e+01,7.800000000000000000e+01,3.699999999999999956e-01,9.214463400000000000e+09
1.520000000000000000e+02,4.180000000000000000e+02,9.330000000000000000e+02,5.460000000000000000e+02,1.580000000000000000e+02,7.900000000000000000e+01,5.600000000000000000e+01,7.800000000000000000e+01,3.400000000000000244e-01,9.237470900000000000e+09
1.170000000000000000e+02,3.340000000000000000e+02,8.970000000000000000e+02,4.620000000000000000e+02,1.310000000000000000e+02,7.000000000000000000e+01,4.700000000000000000e+01,6.300000000000000000e+01,3.200000000000000067e-01,9.256092200000000000e+09
1.100000000000000000e+02,3.170000000000000000e+02,8.410000000000000000e+02,4.100000000000000000e+02,1.190000000000000000e+02,5.900000000000000000e+01,4.200000000000000000e+01,5.800000000000000000e+01,3.099999999999999978e-01,9.275019500000000000e+09
9.900000000000000000e+01,3.210000000000000000e+02,8.260000000000000000e+02,4.080000000000000000e+02,1.110000000000000000e+02,5.600000000000000000e+01,4.000000000000000000e+01,5.500000000000000000e+01,2.999999999999999889e-01,9.298581300000000000e+09
9.300000000000000000e+01,3.080000000000000000e+02,7.530000000000000000e+02,4.040000000000000000e+02,1.030000000000000000e+02,5.100000000000000000e+01,3.800000000000000000e+01,5.100000000000000000e+01,2.999999999999999889e-01,9.316475600000000000e+09
7.100000000000000000e+01,2.730000000000000000e+02,6.920000000000000000e+02,2.850000000000000000e+02,7.700000000000000000e+01,4.100000000000000000e+01,3.200000000000000000e+01,4.000000000000000000e+01,2.999999999999999889e-01,9.334893500000000000e+09
6.300000000000000000e+01,2.840000000000000000e+02,7.360000000000000000e+02,2.390000000000000000e+02,6.000000000000000000e+01,3.500000000000000000e+01,2.800000000000000000e+01,3.500000000000000000e+01,3.099999999999999978e-01,9.357344500000000000e+09
6.800000000000000000e+01,2.930000000000000000e+02,8.320000000000000000e+02,2.530000000000000000e+02,6.400000000000000000e+01,4.000000000000000000e+01,2.900000000000000000e+01,3.700000000000000000e+01,3.200000000000000067e-01,9.375285300000000000e+09
6.300000000000000000e+01,2.350000000000000000e+02,7.910000000000000000e+02,2.350000000000000000e+02,6.200000000000000000e+01,3.800000000000000000e+01,2.800000000000000000e+01,3.400000000000000000e+01,3.300000000000000155e-01,9.394802600000000000e+09
5.800000000000000000e+01,2.490000000000000000e+02,7.820000000000000000e+02,1.980000000000000000e+02,5.300000000000000000e+01,3.700000000000000000e+01,2.600000000000000000e+01,3.200000000000000000e+01,3.400000000000000244e-01,9.424714900000000000e+09
6.100000000000000000e+01,2.380000000000000000e+02,7.930000000000000000e+02,1.780000000000000000e+02,5.600000000000000000e+01,3.900000000000000000e+01,2.700000000000000000e+01,3.800000000000000000e+01,3.499999999999999778e-01,9.442651600000000000e+09
5.800000000000000000e+01,2.300000000000000000e+02,6.530000000000000000e+02,1.690000000000000000e+02,5.300000000000000000e+01,3.800000000000000000e+01,2.800000000000000000e+01,3.900000000000000000e+01,3.699999999999999956e-01,9.461223200000000000e+09
6.900000000000000000e+01,2.150000000000000000e+02,4.750000000000000000e+02,1.560000000000000000e+02,5.800000000000000000e+01,3.800000000000000000e+01,2.700000000000000000e+01,5.800000000000000000e+01,3.900000000000000133e-01,9.478591700000000000e+09
7.000000000000000000e+01,2.130000000000000000e+02,4.520000000000000000e+02,1.530000000000000000e+02,5.400000000000000000e+01,3.600000000000000000e+01,2.600000000000000000e+01,6.100000000000000000e+01,4.099999999999999756e-01,9.496811100000000000e+09
7.300000000000000000e+01,2.130000000000000000e+02,5.250000000000000000e+02,1.420000000000000000e+02,5.500000000000000000e+01,3.900000000000000000e+01,2.700000000000000000e+01,6.900000000000000000e+01,4.299999999999999933e-01,9.514509600000000000e+09
7.400000000000000000e+01,2.340000000000000000e+02,5.740000000000000000e+02,1.330000000000000000e+02,5.200000000000000000e+01,3.900000000000000000e+01,2.700000000000000000e+01,9.400000000000000000e+01,4.500000000000000111e-01,9.537700300000000000e+09
7.800000000000000000e+01,2.660000000000000000e+02,6.080000000000000000e+02,1.400000000000000000e+02,5.500000000000000000e+01,5.200000000000000000e+01,3.400000000000000000e+01,1.280000000000000000e+02,4.699999999999999734e-01,9.555903900000000000e+09
6.400000000000000000e+01,2.640000000000000000e+02,6.830000000000000000e+02,1.630000000000000000e+02,5.200000000000000000e+01,5.100000000000000000e+01,4.500000000000000000e+01,1.970000000000000000e+02,4.699999999999999734e-01,9.583470600000000000e+09
6.500000000000000000e+01,2.820000000000000000e+02,7.040000000000000000e+02,1.580000000000000000e+02,5.300000000000000000e+01,6.900000000000000000e+01,8.000000000000000000e+01,2.040000000000000000e+02,4.799999999999999822e-01,9.600817400000000000e+09
6.300000000000000000e+01,2.620000000000000000e+02,6.550000000000000000e+02,1.540000000000000000e+02,5.600000000000000000e+01,8.400000000000000000e+01,8.100000000000000000e+01,2.100000000000000000e+02,4.799999999999999822e-01,9.619468000000000000e+09
6.200000000000000000e+01,2.390000000000000000e+02,5.910000000000000000e+02,1.530000000000000000e+02,5.900000000000000000e+01,2.460000000000000000e+02,9.700000000000000000e+01,2.320000000000000000e+02,4.799999999999999822e-01,9.638050200000000000e+09
5.500000000000000000e+01,1.820000000000000000e+02,5.770000000000000000e+02,1.550000000000000000e+02,5.600000000000000000e+01,2.620000000000000000e+02,9.600000000000000000e+01,2.160000000000000000e+02,4.899999999999999911e-01,9.657668900000000000e+09
5.400000000000000000e+01,1.710000000000000000e+02,4.800000000000000000e+02,1.250000000000000000e+02,5.000000000000000000e+01,2.640000000000000000e+02,9.100000000000000000e+01,1.570000000000000000e+02,5.000000000000000000e-01,9.675487000000000000e+09
5.000000000000000000e+01,1.380000000000000000e+02,4.770000000000000000e+02,2.590000000000000000e+02,6.600000000000000000e+01,2.630000000000000000e+02,6.600000000000000000e+01,1.510000000000000000e+02,5.100000000000000089e-01,9.695810000000000000e+09
5.700000000000000000e+01,1.530000000000000000e+02,5.400000000000000000e+02,2.830000000000000000e+02,6.700000000000000000e+01,2.590000000000000000e+02,6.400000000000000000e+01,1.420000000000000000e+02,5.100000000000000089e-01,9.717403400000000000e+09
5.500000000000000000e+01,1.630000000000000000e+02,5.640000000000000000e+02,2.920000000000000000e+02,6.600000000000000000e+01,1.190000000000000000e+02,3.800000000000000000e+01,8.000000000000000000e+01,5.200000000000000178e-01,9.735393800000000000e+09
5.500000000000000000e+01,1.750000000000000000e+02,5.850000000000000000e+02,2.970000000000000000e+02,6.600000000000000000e+01,7.400000000000000000e+01,3.600000000000000000e+01,7.400000000000000000e+01,5.200000000000000178e-01,9.754335800000000000e+09
5.700000000000000000e+01,1.730000000000000000e+02,6.050000000000000000e+02,3.010000000000000000e+02,6.300000000000000000e+01,6.300000000000000000e+01,3.500000000000000000e+01,5.900000000000000000e+01,5.200000000000000178e-01,9.777511200000000000e+09
5.200000000000000000e+01,1.890000000000000000e+02,5.950000000000000000e+02,1.970000000000000000e+02,4.400000000000000000e+01,4.900000000000000000e+01,2.900000000000000000e+01,4.200000000000000000e+01,5.300000000000000266e-01,9.795337100000000000e+09
6.900000000000000000e+01,2.230000000000000000e+02,5.350000000000000000e+02,1.620000000000000000e+02,3.400000000000000000e+01,4.300000000000000000e+01,2.500000000000000000e+01,3.300000000000000000e+01,5.400000000000000355e-01,9.815331200000000000e+09
9.600000000000000000e+01,2.330000000000000000e+02,5.740000000000000000e+02,1.510000000000000000e+02,4.100000000000000000e+01,3.400000000000000000e+01,2.800000000000000000e+01,3.700000000000000000e+01,5.500000000000000444e-01,9.838930700000000000e+09
9.800000000000000000e+01,2.250000000000000000e+02,5.550000000000000000e+02,1.360000000000000000e+02,4.200000000000000000e+01,4.800000000000000000e+01,2.700000000000000000e+01,3.600000000000000000e+01,5.699999999999999512e-01,9.857312700000000000e+09
9.700000000000000000e+01,2.270000000000000000e+02,5.100000000000000000e+02,1.320000000000000000e+02,4.300000000000000000e+01,5.100000000000000000e+01,2.800000000000000000e+01,3.600000000000000000e+01,5.799999999999999600e-01,9.875127900000000000e+09
1.000000000000000000e+02,2.080000000000000000e+02,4.530000000000000000e+02,1.220000000000000000e+02,4.800000000000000000e+01,8.200000000000000000e+01,4.500000000000000000e+01,3.600000000000000000e+01,5.899999999999999689e-01,9.897772100000000000e+09
8.600000000000000000e+01,1.960000000000000000e+02,4.400000000000000000e+02,1.290000000000000000e+02,5.500000000000000000e+01,1.230000000000000000e+02,5.400000000000000000e+01,3.500000000000000000e+01,5.999999999999999778e-01,9.915745400000000000e+09
6.800000000000000000e+01,2.340000000000000000e+02,5.870000000000000000e+02,1.500000000000000000e+02,6.200000000000000000e+01,1.250000000000000000e+02,5.500000000000000000e+01,4.000000000000000000e+01,5.999999999999999778e-01,9.934906900000000000e+09
1.380000000000000000e+02,2.660000000000000000e+02,5.780000000000000000e+02,1.510000000000000000e+02,6.300000000000000000e+01,1.620000000000000000e+02,7.100000000000000000e+01,9.300000000000000000e+01,5.999999999999999778e-01,9.958624600000000000e+09
1.420000000000000000e+02,2.660000000000000000e+02,6.040000000000000000e+02,1.450000000000000000e+02,7.300000000000000000e+01,2.780000000000000000e+02,8.500000000000000000e+01,1.000000000000000000e+02,5.999999999999999778e-01,9.980418800000000000e+09
1.440000000000000000e+02,2.610000000000000000e+02,6.530000000000000000e+02,1.520000000000000000e+02,7.300000000000000000e+01,2.930000000000000000e+02,7.800000000000000000e+01,1.030000000000000000e+02,5.999999999999999778e-01,9.997942900000000000e+09
1.450000000000000000e+02,2.320000000000000000e+02,6.490000000000000000e+02,1.830000000000000000e+02,7.000000000000000000e+01,3.000000000000000000e+02,8.700000000000000000e+01,1.040000000000000000e+02,5.999999999999999778e-01,1.001795850000000000e+10
1.790000000000000000e+02,3.410000000000000000e+02,4.560000000000000000e+02,1.830000000000000000e+02,6.500000000000000000e+01,3.140000000000000000e+02,8.900000000000000000e+01,1.080000000000000000e+02,5.999999999999999778e-01,1.004692000000000000e+10
1.450000000000000000e+02,3.420000000000000000e+02,4.510000000000000000e+02,1.770000000000000000e+02,6.300000000000000000e+01,2.970000000000000000e+02,8.900000000000000000e+01,9.200000000000000000e+01,5.999999999999999778e-01,1.006509840000000000e+10
1.460000000000000000e+02,3.540000000000000000e+02,4.450000000000000000e+02,1.730000000000000000e+02,5.200000000000000000e+01,2.520000000000000000e+02,8.100000000000000000e+01,8.700000000000000000e+01,6.099999999999999867e-01,1.008315130000000000e+10
