3.100000000000000000e+01,6.700000000000000000e+01,5.290000000000000000e+02,9.300000000000000000e+01,3.200000000000000000e+01,1.790000000000000000e+02,9.800000000000000000e+01,2.500000000000000000e+01,6.400000000000000133e-01,4.855750000000000000e+08
3.100000000000000000e+01,6.400000000000000000e+01,5.340000000000000000e+02,9.100000000000000000e+01,3.400000000000000000e+01,2.190000000000000000e+02,1.030000000000000000e+02,2.900000000000000000e+01,6.400000000000000133e-01,5.143905000000000000e+08
3.200000000000000000e+01,6.400000000000000000e+01,5.110000000000000000e+02,8.000000000000000000e+01,3.300000000000000000e+01,2.350000000000000000e+02,1.020000000000000000e+02,2.700000000000000000e+01,6.400000000000000133e-01,1.062729500000000000e+09
3.400000000000000000e+01,5.600000000000000000e+01,4.210000000000000000e+02,9.200000000000000000e+01,3.300000000000000000e+01,2.470000000000000000e+02,9.500000000000000000e+01,3.000000000000000000e+01,6.400000000000000133e-01,1.079674900000000000e+09
5.000000000000000000e+01,7.100000000000000000e+01,5.220000000000000000e+02,1.310000000000000000e+02,4.300000000000000000e+01,2.410000000000000000e+02,1.090000000000000000e+02,3.500000000000000000e+01,6.400000000000000133e-01,1.097542200000000000e+09
5.100000000000000000e+01,6.700000000000000000e+01,4.540000000000000000e+02,1.360000000000000000e+02,4.600000000000000000e+01,2.350000000000000000e+02,1.070000000000000000e+02,3.700000000000000000e+01,6.400000000000000133e-01,1.114729400000000000e+09
5.600000000000000000e+01,7.900000000000000000e+01,5.060000000000000000e+02,1.540000000000000000e+02,5.200000000000000000e+01,1.990000000000000000e+02,1.010000000000000000e+02,3.700000000000000000e+01,6.300000000000000044e-01,1.131124800000000000e+09
5.600000000000000000e+01,7.900000000000000000e+01,5.620000000000000000e+02,1.550000000000000000e+02,5.300000000000000000e+01,2.160000000000000000e+02,1.200000000000000000e+02,3.900000000000000000e+01,6.300000000000000044e-01,1.147537500000000000e+09
5.400000000000000000e+01,8.200000000000000000e+01,5.780000000000000000e+02,1.490000000000000000e+02,5.400000000000000000e+01,2.080000000000000000e+02,1.280000000000000000e+02,3.800000000000000000e+01,6.300000000000000044e-01,1.164694200000000000e+09
3.900000000000000000e+01,6.400000000000000000e+01,4.790000000000000000e+02,1.290000000000000000e+02,4.700000000000000000e+01,1.950000000000000000e+02,1.180000000000000000e+02,3.200000000000000000e+01,6.300000000000000044e-01,1.184338300000000000e+09
4.900000000000000000e+01,7.100000000000000000e+01,4.770000000000000000e+02,1.240000000000000000e+02,4.500000000000000000e+01,1.830000000000000000e+02,1.150000000000000000e+02,3.300000000000000000e+01,6.400000000000000133e-01,1.202663600000000000e+09
4.400000000000000000e+01,6.200000000000000000e+01,4.220000000000000000e+02,1.040000000000000000e+02,3.500000000000000000e+01,1.940000000000000000e+02,1.160000000000000000e+02,2.900000000000000000e+01,6.400000000000000133e-01,1.219735800000000000e+09
4.700000000000000000e+01,7.000000000000000000e+01,3.450000000000000000e+02,1.140000000000000000e+02,3.600000000000000000e+01,2.170000000000000000e+02,1.100000000000000000e+02,2.900000000000000000e+01,6.400000000000000133e-01,1.237268300000000000e+09
4.800000000000000000e+01,7.200000000000000000e+01,4.030000000000000000e+02,1.320000000000000000e+02,3.600000000000000000e+01,2.240000000000000000e+02,9.900000000000000000e+01,2.900000000000000000e+01,6.400000000000000133e-01,1.256728600000000000e+09
4.800000000000000000e+01,7.700000000000000000e+01,4.480000000000000000e+02,1.300000000000000000e+02,3.500000000000000000e+01,2.270000000000000000e+02,9.400000000000000000e+01,2.900000000000000000e+01,6.400000000000000133e-01,1.275748400000000000e+09
4.100000000000000000e+01,7.400000000000000000e+01,4.680000000000000000e+02,1.250000000000000000e+02,3.500000000000000000e+01,2.220000000000000000e+02,8.800000000000000000e+01,2.900000000000000000e+01,6.400000000000000133e-01,1.292289900000000000e+09
4.000000000000000000e+01,7.300000000000000000e+01,4.810000000000000000e+02,1.370000000000000000e+02,3.700000000000000000e+01,2.060000000000000000e+02,8.700000000000000000e+01,2.900000000000000000e+01,6.400000000000000133e-01,1.308768600000000000e+09
3.600000000000000000e+01,8.000000000000000000e+01,4.960000000000000000e+02,1.420000000000000000e+02,4.000000000000000000e+01,2.330000000000000000e+02,7.900000000000000000e+01,3.100000000000000000e+01,6.500000000000000222e-01,1.326330200000000000e+09
3.700000000000000000e+01,8.000000000000000000e+01,4.490000000000000000e+02,1.400000000000000000e+02,4.000000000000000000e+01,2.150000000000000000e+02,9.500000000000000000e+01,3.100000000000000000e+01,6.500000000000000222e-01,1.352379800000000000e+09
3.500000000000000000e+01,7.600000000000000000e+01,3.900000000000000000e+02,1.340000000000000000e+02,3.900000000000000000e+01,2.130000000000000000e+02,9.400000000000000000e+01,3.100000000000000000e+01,6.500000000000000222e-01,1.371146500000000000e+09
2.900000000000000000e+01,7.100000000000000000e+01,3.940000000000000000e+02,1.430000000000000000e+02,3.900000000000000000e+01,2.210000000000000000e+02,1.020000000000000000e+02,2.800000000000000000e+01,6.500000000000000222e-01,1.390051200000000000e+09
3.500000000000000000e+01,7.800000000000000000e+01,3.900000000000000000e+02,1.320000000000000000e+02,4.400000000000000000e+01,2.330000000000000000e+02,1.220000000000000000e+02,3.200000000000000000e+01,6.500000000000000222e-01,1.410605900000000000e+09
3.700000000000000000e+01,6.900000000000000000e+01,3.930000000000000000e+02,1.240000000000000000e+02,4.000000000000000000e+01,1.700000000000000000e+02,1.170000000000000000e+02,3.100000000000000000e+01,6.600000000000000311e-01,1.428218300000000000e+09
3.400000000000000000e+01,6.600000000000000000e+01,4.210000000000000000e+02,1.120000000000000000e+02,3.800000000000000000e+01,1.720000000000000000e+02,1.200000000000000000e+02,2.900000000000000000e+01,6.600000000000000311e-01,1.445259400000000000e+09
3.600000000000000000e+01,7.500000000000000000e+01,4.990000000000000000e+02,1.130000000000000000e+02,3.900000000000000000e+01,1.800000000000000000e+02,1.250000000000000000e+02,3.200000000000000000e+01,6.600000000000000311e-01,1.462463500000000000e+09
3.800000000000000000e+01,7.500000000000000000e+01,4.580000000000000000e+02,9.600000000000000000e+01,3.600000000000000000e+01,2.030000000000000000e+02,1.250000000000000000e+02,3.100000000000000000e+01,6.600000000000000311e-01,1.479900800000000000e+09
3.200000000000000000e+01,6.500000000000000000e+01,4.360000000000000000e+02,8.900000000000000000e+01,2.700000000000000000e+01,1.960000000000000000e+02,1.330000000000000000e+02,5.700000000000000000e+01,6.500000000000000222e-01,1.498395000000000000e+09
3.300000000000000000e+01,7.300000000000000000e+01,4.390000000000000000e+02,8.400000000000000000e+01,2.700000000000000000e+01,1.640000000000000000e+02,1.350000000000000000e+02,5.800000000000000000e+01,6.500000000000000222e-01,1.516106800000000000e+09
3.300000000000000000e+01,7.500000000000000000e+01,4.210000000000000000e+02,7.300000000000000000e+01,2.800000000000000000e+01,1.680000000000000000e+02,1.210000000000000000e+02,6.000000000000000000e+01,6.500000000000000222e-01,1.533620000000000000e+09
3.400000000000000000e+01,7.500000000000000000e+01,4.010000000000000000e+02,7.100000000000000000e+01,3.300000000000000000e+01,1.920000000000000000e+02,1.410000000000000000e+02,6.700000000000000000e+01,6.400000000000000133e-01,1.550651800000000000e+09
3.200000000000000000e+01,7.500000000000000000e+01,4.030000000000000000e+02,6.300000000000000000e+01,3.400000000000000000e+01,1.730000000000000000e+02,1.470000000000000000e+02,7.100000000000000000e+01,6.300000000000000044e-01,1.567641600000000000e+09
3.300000000000000000e+01,7.400000000000000000e+01,4.410000000000000000e+02,7.100000000000000000e+01,3.400000000000000000e+01,1.780000000000000000e+02,1.290000000000000000e+02,6.200000000000000000e+01,6.300000000000000044e-01,1.584487600000000000e+09
3.600000000000000000e+01,8.100000000000000000e+01,4.260000000000000000e+02,8.400000000000000000e+01,4.200000000000000000e+01,2.170000000000000000e+02,1.300000000000000000e+02,6.600000000000000000e+01,6.199999999999999956e-01,1.601656900000000000e+09
3.700000000000000000e+01,8.200000000000000000e+01,4.700000000000000000e+02,1.010000000000000000e+02,4.300000000000000000e+01,2.340000000000000000e+02,1.330000000000000000e+02,6.500000000000000000e+01,6.199999999999999956e-01,1.620636300000000000e+09
3.500000000000000000e+01,8.400000000000000000e+01,5.560000000000000000e+02,1.120000000000000000e+02,4.100000000000000000e+01,2.270000000000000000e+02,1.110000000000000000e+02,5.900000000000000000e+01,6.199999999999999956e-01,1.638883900000000000e+09
3.900000000000000000e+01,1.000000000000000000e+02,6.060000000000000000e+02,1.180000000000000000e+02,4.000000000000000000e+01,2.200000000000000000e+02,1.040000000000000000e+02,8.000000000000000000e+01,6.099999999999999867e-01,1.658157400000000000e+09
4.000000000000000000e+01,9.900000000000000000e+01,5.860000000000000000e+02,1.270000000000000000e+02,5.300000000000000000e+01,3.520000000000000000e+02,1.210000000000000000e+02,7.600000000000000000e+01,6.099999999999999867e-01,1.678358500000000000e+09
3.500000000000000000e+01,8.200000000000000000e+01,6.150000000000000000e+02,1.180000000000000000e+02,4.800000000000000000e+01,3.490000000000000000e+02,1.270000000000000000e+02,7.300000000000000000e+01,6.099999999999999867e-01,1.697184800000000000e+09
3.300000000000000000e+01,7.900000000000000000e+01,5.970000000000000000e+02,1.290000000000000000e+02,4.800000000000000000e+01,3.370000000000000000e+02,1.280000000000000000e+02,7.400000000000000000e+01,6.099999999999999867e-01,1.723894600000000000e+09
3.600000000000000000e+01,8.100000000000000000e+01,5.330000000000000000e+02,1.330000000000000000e+02,4.900000000000000000e+01,3.370000000000000000e+02,1.380000000000000000e+02,7.200000000000000000e+01,6.099999999999999867e-01,1.746735100000000000e+09
3.600000000000000000e+01,6.200000000000000000e+01,5.070000000000000000e+02,1.370000000000000000e+02,5.000000000000000000e+01,3.420000000000000000e+02,1.380000000000000000e+02,4.600000000000000000e+01,6.099999999999999867e-01,1.767262800000000000e+09
3.400000000000000000e+01,6.100000000000000000e+01,5.020000000000000000e+02,1.260000000000000000e+02,3.700000000000000000e+01,2.270000000000000000e+02,1.320000000000000000e+02,3.800000000000000000e+01,6.199999999999999956e-01,1.786567700000000000e+09
3.500000000000000000e+01,7.800000000000000000e+01,5.410000000000000000e+02,1.410000000000000000e+02,3.700000000000000000e+01,2.280000000000000000e+02,1.190000000000000000e+02,3.500000000000000000e+01,6.199999999999999956e-01,1.806322800000000000e+09
3.700000000000000000e+01,8.200000000000000000e+01,6.000000000000000000e+02,1.420000000000000000e+02,3.700000000000000000e+01,2.370000000000000000e+02,1.300000000000000000e+02,3.300000000000000000e+01,6.300000000000000044e-01,1.828304200000000000e+09
3.200000000000000000e+01,7.000000000000000000e+01,5.710000000000000000e+02,1.350000000000000000e+02,3.400000000000000000e+01,2.210000000000000000e+02,1.180000000000000000e+02,3.400000000000000000e+01,6.300000000000000044e-01,1.846942800000000000e+09
3.000000000000000000e+01,6.700000000000000000e+01,5.460000000000000000e+02,1.260000000000000000e+02,3.400000000000000000e+01,2.310000000000000000e+02,1.190000000000000000e+02,2.900000000000000000e+01,6.300000000000000044e-01,1.865297500000000000e+09
3.300000000000000000e+01,6.900000000000000000e+01,5.640000000000000000e+02,1.280000000000000000e+02,3.300000000000000000e+01,2.080000000000000000e+02,1.050000000000000000e+02,2.900000000000000000e+01,6.300000000000000044e-01,1.887529700000000000e+09
3.400000000000000000e+01,5.100000000000000000e+01,5.020000000000000000e+02,1.170000000000000000e+02,3.100000000000000000e+01,1.730000000000000000e+02,1.040000000000000000e+02,3.100000000000000000e+01,6.400000000000000133e-01,1.909059900000000000e+09
3.700000000000000000e+01,5.000000000000000000e+01,4.220000000000000000e+02,8.400000000000000000e+01,3.000000000000000000e+01,1.490000000000000000e+02,9.000000000000000000e+01,3.000000000000000000e+01,6.400000000000000133e-01,1.928080200000000000e+09
3.800000000000000000e+01,7.400000000000000000e+01,4.390000000000000000e+02,7.500000000000000000e+01,3.200000000000000000e+01,1.430000000000000000e+02,8.600000000000000000e+01,2.800000000000000000e+01,6.400000000000000133e-01,1.947992300000000000e+09
3.900000000000000000e+01,1.120000000000000000e+02,4.630000000000000000e+02,8.600000000000000000e+01,3.300000000000000000e+01,1.130000000000000000e+02,7.500000000000000000e+01,2.800000000000000000e+01,6.400000000000000133e-01,1.967433200000000000e+09
4.000000000000000000e+01,1.180000000000000000e+02,4.780000000000000000e+02,9.900000000000000000e+01,3.900000000000000000e+01,2.770000000000000000e+02,8.500000000000000000e+01,2.900000000000000000e+01,6.400000000000000133e-01,1.987282500000000000e+09
4.400000000000000000e+01,1.240000000000000000e+02,5.750000000000000000e+02,1.090000000000000000e+02,4.200000000000000000e+01,3.020000000000000000e+02,9.300000000000000000e+01,9.200000000000000000e+01,6.400000000000000133e-01,2.006946700000000000e+09
4.100000000000000000e+01,1.760000000000000000e+02,5.850000000000000000e+02,1.130000000000000000e+02,4.300000000000000000e+01,3.230000000000000000e+02,1.060000000000000000e+02,9.600000000000000000e+01,6.400000000000000133e-01,2.027768600000000000e+09
4.600000000000000000e+01,1.710000000000000000e+02,6.000000000000000000e+02,1.150000000000000000e+02,4.500000000000000000e+01,3.470000000000000000e+02,1.110000000000000000e+02,9.800000000000000000e+01,6.300000000000000044e-01,2.047182100000000000e+09
5.000000000000000000e+01,1.580000000000000000e+02,5.960000000000000000e+02,1.130000000000000000e+02,4.200000000000000000e+01,3.530000000000000000e+02,1.230000000000000000e+02,1.080000000000000000e+02,6.300000000000000044e-01,2.065996200000000000e+09
4.800000000000000000e+01,1.590000000000000000e+02,5.700000000000000000e+02,9.700000000000000000e+01,4.600000000000000000e+01,2.900000000000000000e+02,1.560000000000000000e+02,1.160000000000000000e+02,6.300000000000000044e-01,2.085563900000000000e+09
4.400000000000000000e+01,1.560000000000000000e+02,5.190000000000000000e+02,8.800000000000000000e+01,4.700000000000000000e+01,2.850000000000000000e+02,1.670000000000000000e+02,7.800000000000000000e+01,6.300000000000000044e-01,2.104179700000000000e+09
4.600000000000000000e+01,9.700000000000000000e+01,5.190000000000000000e+02,9.800000000000000000e+01,4.900000000000000000e+01,2.800000000000000000e+02,1.710000000000000000e+02,7.600000000000000000e+01,6.300000000000000044e-01,2.122951400000000000e+09
4.200000000000000000e+01,1.000000000000000000e+02,4.740000000000000000e+02,1.120000000000000000e+02,4.800000000000000000e+01,2.680000000000000000e+02,1.770000000000000000e+02,7.400000000000000000e+01,6.300000000000000044e-01,2.379900900000000000e+09
3.600000000000000000e+01,8.300000000000000000e+01,4.750000000000000000e+02,1.110000000000000000e+02,5.300000000000000000e+01,2.840000000000000000e+02,1.880000000000000000e+02,7.700000000000000000e+01,6.300000000000000044e-01,2.398217800000000000e+09
3.600000000000000000e+01,8.300000000000000000e+01,4.570000000000000000e+02,1.160000000000000000e+02,5.000000000000000000e+01,2.870000000000000000e+02,1.620000000000000000e+02,7.200000000000000000e+01,6.300000000000000044e-01,2.416916300000000000e+09
3.700000000000000000e+01,8.800000000000000000e+01,4.350000000000000000e+02,1.210000000000000000e+02,5.400000000000000000e+01,3.330000000000000000e+02,1.520000000000000000e+02,7.100000000000000000e+01,6.300000000000000044e-01,2.434986700000000000e+09
3.700000000000000000e+01,9.000000000000000000e+01,5.060000000000000000e+02,1.340000000000000000e+02,5.100000000000000000e+01,3.280000000000000000e+02,1.370000000000000000e+02,6.900000000000000000e+01,6.300000000000000044e-01,2.453327900000000000e+09
3.600000000000000000e+01,8.500000000000000000e+01,5.300000000000000000e+02,1.310000000000000000e+02,4.800000000000000000e+01,3.400000000000000000e+02,1.380000000000000000e+02,7.000000000000000000e+01,6.300000000000000044e-01,2.472453500000000000e+09
3.400000000000000000e+01,8.600000000000000000e+01,5.060000000000000000e+02,1.310000000000000000e+02,4.500000000000000000e+01,3.300000000000000000e+02,1.210000000000000000e+02,5.100000000000000000e+01,6.300000000000000044e-01,2.490833400000000000e+09
3.300000000000000000e+01,8.300000000000000000e+01,5.570000000000000000e+02,1.380000000000000000e+02,4.500000000000000000e+01,3.020000000000000000e+02,1.110000000000000000e+02,3.900000000000000000e+01,6.300000000000000044e-01,2.510791100000000000e+09
3.100000000000000000e+01,9.200000000000000000e+01,5.730000000000000000e+02,1.520000000000000000e+02,3.500000000000000000e+01,2.550000000000000000e+02,1.080000000000000000e+02,3.700000000000000000e+01,6.300000000000000044e-01,2.530292200000000000e+09
2.700000000000000000e+01,9.100000000000000000e+01,5.250000000000000000e+02,1.460000000000000000e+02,3.500000000000000000e+01,2.450000000000000000e+02,1.110000000000000000e+02,3.500000000000000000e+01,6.400000000000000133e-01,2.548852900000000000e+09
3.500000000000000000e+01,8.800000000000000000e+01,4.860000000000000000e+02,1.430000000000000000e+02,4.200000000000000000e+01,2.380000000000000000e+02,1.280000000000000000e+02,5.500000000000000000e+01,6.400000000000000133e-01,2.567562500000000000e+09
4.400000000000000000e+01,9.100000000000000000e+01,5.180000000000000000e+02,1.490000000000000000e+02,4.400000000000000000e+01,2.670000000000000000e+02,1.450000000000000000e+02,5.400000000000000000e+01,6.500000000000000222e-01,2.586129500000000000e+09
4.400000000000000000e+01,8.500000000000000000e+01,5.410000000000000000e+02,1.460000000000000000e+02,3.900000000000000000e+01,2.640000000000000000e+02,1.490000000000000000e+02,5.600000000000000000e+01,6.500000000000000222e-01,2.604748700000000000e+09
4.600000000000000000e+01,9.700000000000000000e+01,5.160000000000000000e+02,1.280000000000000000e+02,4.200000000000000000e+01,2.740000000000000000e+02,1.530000000000000000e+02,6.100000000000000000e+01,6.500000000000000222e-01,2.623664800000000000e+09
5.000000000000000000e+01,1.000000000000000000e+02,4.620000000000000000e+02,1.110000000000000000e+02,4.200000000000000000e+01,2.780000000000000000e+02,1.640000000000000000e+02,7.900000000000000000e+01,6.500000000000000222e-01,2.643014200000000000e+09
4.700000000000000000e+01,1.260000000000000000e+02,4.920000000000000000e+02,1.000000000000000000e+02,3.800000000000000000e+01,2.600000000000000000e+02,1.520000000000000000e+02,6.600000000000000000e+01,6.500000000000000222e-01,2.662649000000000000e+09
4.200000000000000000e+01,1.250000000000000000e+02,4.740000000000000000e+02,8.600000000000000000e+01,3.600000000000000000e+01,2.290000000000000000e+02,1.390000000000000000e+02,7.100000000000000000e+01,6.500000000000000222e-01,2.682224200000000000e+09
4.200000000000000000e+01,1.270000000000000000e+02,4.100000000000000000e+02,9.300000000000000000e+01,3.900000000000000000e+01,2.520000000000000000e+02,1.400000000000000000e+02,7.000000000000000000e+01,6.500000000000000222e-01,2.702395700000000000e+09
4.000000000000000000e+01,1.110000000000000000e+02,4.640000000000000000e+02,9.100000000000000000e+01,4.100000000000000000e+01,2.250000000000000000e+02,1.310000000000000000e+02,6.700000000000000000e+01,6.500000000000000222e-01,2.722425300000000000e+09
3.800000000000000000e+01,1.020000000000000000e+02,5.470000000000000000e+02,1.810000000000000000e+02,4.800000000000000000e+01,2.140000000000000000e+02,1.150000000000000000e+02,4.700000000000000000e+01,6.500000000000000222e-01,2.740855100000000000e+09
3.600000000000000000e+01,8.000000000000000000e+01,5.210000000000000000e+02,1.890000000000000000e+02,4.500000000000000000e+01,2.540000000000000000e+02,9.900000000000000000e+01,4.500000000000000000e+01,6.600000000000000311e-01,2.758369900000000000e+09
3.300000000000000000e+01,8.900000000000000000e+01,5.890000000000000000e+02,1.990000000000000000e+02,4.400000000000000000e+01,2.640000000000000000e+02,1.040000000000000000e+02,3.700000000000000000e+01,6.600000000000000311e-01,2.775408600000000000e+09
3.200000000000000000e+01,9.400000000000000000e+01,6.060000000000000000e+02,2.010000000000000000e+02,4.300000000000000000e+01,2.270000000000000000e+02,1.230000000000000000e+02,3.300000000000000000e+01,6.600000000000000311e-01,2.793489000000000000e+09
3.300000000000000000e+01,8.700000000000000000e+01,5.780000000000000000e+02,2.020000000000000000e+02,3.600000000000000000e+01,2.500000000000000000e+02,1.430000000000000000e+02,3.400000000000000000e+01,6.600000000000000311e-01,2.810748900000000000e+09
3.800000000000000000e+01,9.900000000000000000e+01,5.540000000000000000e+02,1.350000000000000000e+02,3.400000000000000000e+01,3.100000000000000000e+02,1.530000000000000000e+02,3.400000000000000000e+01,6.600000000000000311e-01,2.827872500000000000e+09
3.800000000000000000e+01,9.800000000000000000e+01,5.580000000000000000e+02,1.360000000000000000e+02,3.700000000000000000e+01,3.020000000000000000e+02,1.590000000000000000e+02,6.400000000000000000e+01,6.600000000000000311e-01,2.845813100000000000e+09
4.100000000000000000e+01,9.400000000000000000e+01,4.730000000000000000e+02,1.370000000000000000e+02,4.100000000000000000e+01,2.890000000000000000e+02,1.680000000000000000e+02,6.900000000000000000e+01,6.700000000000000400e-01,2.863580600000000000e+09
4.700000000000000000e+01,1.090000000000000000e+02,5.370000000000000000e+02,1.430000000000000000e+02,4.100000000000000000e+01,2.930000000000000000e+02,1.570000000000000000e+02,7.300000000000000000e+01,6.700000000000000400e-01,2.881176600000000000e+09
4.700000000000000000e+01,1.120000000000000000e+02,5.000000000000000000e+02,1.360000000000000000e+02,5.200000000000000000e+01,3.670000000000000000e+02,1.460000000000000000e+02,7.800000000000000000e+01,6.700000000000000400e-01,2.898418300000000000e+09
4.300000000000000000e+01,1.070000000000000000e+02,4.460000000000000000e+02,1.390000000000000000e+02,5.200000000000000000e+01,3.900000000000000000e+02,1.570000000000000000e+02,7.700000000000000000e+01,6.800000000000000488e-01,2.915498400000000000e+09
4.300000000000000000e+01,1.050000000000000000e+02,4.680000000000000000e+02,1.350000000000000000e+02,5.100000000000000000e+01,3.710000000000000000e+02,1.650000000000000000e+02,5.600000000000000000e+01,6.800000000000000488e-01,2.932598600000000000e+09
4.000000000000000000e+01,1.020000000000000000e+02,4.790000000000000000e+02,1.340000000000000000e+02,5.100000000000000000e+01,3.690000000000000000e+02,1.560000000000000000e+02,5.000000000000000000e+01,6.800000000000000488e-01,2.950541500000000000e+09
3.800000000000000000e+01,9.700000000000000000e+01,3.880000000000000000e+02,1.110000000000000000e+02,5.200000000000000000e+01,3.670000000000000000e+02,1.550000000000000000e+02,4.600000000000000000e+01,6.800000000000000488e-01,2.967769800000000000e+09
3.700000000000000000e+01,9.900000000000000000e+01,4.050000000000000000e+02,1.150000000000000000e+02,4.400000000000000000e+01,2.720000000000000000e+02,1.460000000000000000e+02,3.600000000000000000e+01,6.800000000000000488e-01,2.988098900000000000e+09
3.800000000000000000e+01,9.900000000000000000e+01,5.590000000000000000e+02,1.150000000000000000e+02,4.600000000000000000e+01,1.760000000000000000e+02,1.380000000000000000e+02,3.600000000000000000e+01,6.800000000000000488e-01,3.006411500000000000e+09
4.000000000000000000e+01,9.500000000000000000e+01,5.840000000000000000e+02,1.100000000000000000e+02,4.400000000000000000e+01,1.830000000000000000e+02,1.450000000000000000e+02,5.900000000000000000e+01,6.700000000000000400e-01,3.024494000000000000e+09
4.000000000000000000e+01,9.300000000000000000e+01,5.960000000000000000e+02,9.900000000000000000e+01,4.100000000000000000e+01,1.960000000000000000e+02,1.320000000000000000e+02,5.900000000000000000e+01,6.700000000000000400e-01,3.041872200000000000e+09
3.600000000000000000e+01,8.000000000000000000e+01,6.420000000000000000e+02,1.040000000000000000e+02,3.900000000000000000e+01,2.250000000000000000e+02,1.530000000000000000e+02,6.300000000000000000e+01,6.600000000000000311e-01,3.058510900000000000e+09
3.600000000000000000e+01,7.200000000000000000e+01,6.430000000000000000e+02,9.900000000000000000e+01,3.700000000000000000e+01,2.300000000000000000e+02,1.570000000000000000e+02,6.300000000000000000e+01,6.600000000000000311e-01,3.075606700000000000e+09
3.400000000000000000e+01,8.100000000000000000e+01,5.230000000000000000e+02,9.400000000000000000e+01,3.200000000000000000e+01,2.220000000000000000e+02,1.450000000000000000e+02,6.200000000000000000e+01,6.500000000000000222e-01,3.093141900000000000e+09
3.100000000000000000e+01,7.900000000000000000e+01,5.240000000000000000e+02,9.100000000000000000e+01,3.800000000000000000e+01,2.320000000000000000e+02,1.370000000000000000e+02,3.800000000000000000e+01,6.500000000000000222e-01,3.110077600000000000e+09
3.000000000000000000e+01,8.900000000000000000e+01,5.120000000000000000e+02,8.600000000000000000e+01,4.000000000000000000e+01,2.160000000000000000e+02,1.390000000000000000e+02,3.900000000000000000e+01,6.500000000000000222e-01,3.128462100000000000e+09
3.200000000000000000e+01,1.090000000000000000e+02,4.260000000000000000e+02,1.160000000000000000e+02,4.400000000000000000e+01,2.000000000000000000e+02,1.110000000000000000e+02,3.200000000000000000e+01,6.400000000000000133e-01,3.146329800000000000e+09
3.700000000000000000e+01,1.100000000000000000e+02,4.780000000000000000e+02,1.320000000000000000e+02,4.700000000000000000e+01,2.530000000000000000e+02,1.160000000000000000e+02,4.400000000000000000e+01,6.400000000000000133e-01,3.163744100000000000e+09
4.100000000000000000e+01,1.090000000000000000e+02,5.710000000000000000e+02,1.520000000000000000e+02,4.700000000000000000e+01,2.510000000000000000e+02,1.100000000000000000e+02,6.400000000000000000e+01,6.400000000000000133e-01,3.181013100000000000e+09
4.400000000000000000e+01,1.570000000000000000e+02,5.580000000000000000e+02,1.520000000000000000e+02,4.100000000000000000e+01,2.290000000000000000e+02,8.600000000000000000e+01,6.400000000000000000e+01,6.300000000000000044e-01,3.197851200000000000e+09
4.800000000000000000e+01,2.190000000000000000e+02,5.410000000000000000e+02,1.830000000000000000e+02,4.600000000000000000e+01,2.270000000000000000e+02,7.300000000000000000e+01,6.500000000000000000e+01,6.400000000000000133e-01,3.215496000000000000e+09
7.000000000000000000e+01,3.290000000000000000e+02,5.630000000000000000e+02,2.070000000000000000e+02,5.100000000000000000e+01,2.050000000000000000e+02,6.400000000000000000e+01,6.600000000000000000e+01,6.400000000000000133e-01,3.235676600000000000e+09
7.900000000000000000e+01,3.560000000000000000e+02,5.120000000000000000e+02,2.040000000000000000e+02,4.900000000000000000e+01,1.020000000000000000e+02,3.700000000000000000e+01,6.000000000000000000e+01,6.400000000000000133e-01,3.253638000000000000e+09
7.900000000000000000e+01,3.860000000000000000e+02,3.810000000000000000e+02,1.890000000000000000e+02,4.900000000000000000e+01,8.200000000000000000e+01,4.700000000000000000e+01,3.800000000000000000e+01,6.400000000000000133e-01,3.274799400000000000e+09
8.300000000000000000e+01,4.120000000000000000e+02,3.440000000000000000e+02,1.940000000000000000e+02,6.100000000000000000e+01,3.200000000000000000e+02,8.700000000000000000e+01,4.100000000000000000e+01,6.500000000000000222e-01,3.294069900000000000e+09
8.300000000000000000e+01,4.080000000000000000e+02,3.870000000000000000e+02,1.670000000000000000e+02,5.600000000000000000e+01,3.560000000000000000e+02,1.090000000000000000e+02,7.200000000000000000e+01,6.500000000000000222e-01,3.312040500000000000e+09
7.300000000000000000e+01,3.280000000000000000e+02,4.280000000000000000e+02,1.250000000000000000e+02,5.200000000000000000e+01,3.790000000000000000e+02,1.180000000000000000e+02,1.270000000000000000e+02,6.600000000000000311e-01,3.329628300000000000e+09
7.800000000000000000e+01,3.330000000000000000e+02,4.500000000000000000e+02,1.360000000000000000e+02,6.000000000000000000e+01,4.030000000000000000e+02,1.570000000000000000e+02,1.360000000000000000e+02,6.600000000000000311e-01,3.347406200000000000e+09
1.600000000000000000e+02,4.170000000000000000e+02,6.280000000000000000e+02,3.920000000000000000e+02,1.390000000000000000e+02,4.080000000000000000e+02,1.720000000000000000e+02,1.690000000000000000e+02,6.500000000000000222e-01,3.365993100000000000e+09
1.750000000000000000e+02,4.890000000000000000e+02,7.360000000000000000e+02,4.140000000000000000e+02,1.480000000000000000e+02,2.850000000000000000e+02,1.550000000000000000e+02,1.740000000000000000e+02,6.300000000000000044e-01,3.386679600000000000e+09
1.900000000000000000e+02,5.210000000000000000e+02,8.690000000000000000e+02,5.140000000000000000e+02,1.910000000000000000e+02,2.670000000000000000e+02,1.440000000000000000e+02,1.720000000000000000e+02,6.099999999999999867e-01,3.404939600000000000e+09
1.920000000000000000e+02,5.440000000000000000e+02,9.560000000000000000e+02,6.970000000000000000e+02,2.240000000000000000e+02,2.530000000000000000e+02,1.390000000000000000e+02,1.360000000000000000e+02,5.799999999999999600e-01,3.422933400000000000e+09
1.970000000000000000e+02,5.740000000000000000e+02,9.620000000000000000e+02,7.080000000000000000e+02,4.210000000000000000e+02,2.450000000000000000e+02,1.020000000000000000e+02,1.340000000000000000e+02,5.500000000000000444e-01,3.441922100000000000e+09
1.420000000000000000e+02,5.200000000000000000e+02,9.260000000000000000e+02,7.480000000000000000e+02,5.910000000000000000e+02,2.880000000000000000e+02,7.300000000000000000e+01,9.100000000000000000e+01,5.200000000000000178e-01,3.461120300000000000e+09
1.330000000000000000e+02,4.610000000000000000e+02,9.590000000000000000e+02,8.410000000000000000e+02,6.660000000000000000e+02,2.880000000000000000e+02,7.900000000000000000e+01,8.800000000000000000e+01,4.899999999999999911e-01,3.479514600000000000e+09
1.170000000000000000e+02,4.380000000000000000e+02,9.210000000000000000e+02,8.170000000000000000e+02,6.620000000000000000e+02,2.810000000000000000e+02,7.900000000000000000e+01,7.300000000000000000e+01,4.500000000000000111e-01,3.497973900000000000e+09
1.110000000000000000e+02,4.160000000000000000e+02,8.120000000000000000e+02,7.030000000000000000e+02,6.530000000000000000e+02,2.690000000000000000e+02,7.600000000000000000e+01,6.900000000000000000e+01,4.099999999999999756e-01,3.516393200000000000e+09
9.400000000000000000e+01,3.560000000000000000e+02,8.650000000000000000e+02,7.170000000000000000e+02,5.720000000000000000e+02,2.970000000000000000e+02,7.500000000000000000e+01,5.800000000000000000e+01,3.699999999999999956e-01,3.533860700000000000e+09
9.600000000000000000e+01,3.240000000000000000e+02,8.000000000000000000e+02,5.760000000000000000e+02,4.090000000000000000e+02,3.350000000000000000e+02,9.000000000000000000e+01,1.740000000000000000e+02,3.300000000000000155e-01,3.551326000000000000e+09
1.120000000000000000e+02,2.600000000000000000e+02,6.690000000000000000e+02,4.180000000000000000e+02,2.720000000000000000e+02,3.640000000000000000e+02,1.510000000000000000e+02,2.990000000000000000e+02,2.899999999999999800e-01,3.568290200000000000e+09
1.330000000000000000e+02,2.070000000000000000e+02,5.370000000000000000e+02,3.620000000000000000e+02,2.640000000000000000e+02,4.090000000000000000e+02,1.820000000000000000e+02,5.470000000000000000e+02,2.600000000000000089e-01,3.586193200000000000e+09
1.520000000000000000e+02,1.860000000000000000e+02,5.310000000000000000e+02,2.940000000000000000e+02,2.650000000000000000e+02,4.760000000000000000e+02,2.220000000000000000e+02,7.180000000000000000e+02,2.399999999999999911e-01,3.604313600000000000e+09
1.650000000000000000e+02,1.740000000000000000e+02,4.210000000000000000e+02,2.210000000000000000e+02,2.060000000000000000e+02,4.620000000000000000e+02,2.800000000000000000e+02,8.270000000000000000e+02,2.200000000000000011e-01,3.622841800000000000e+09
1.780000000000000000e+02,2.480000000000000000e+02,6.620000000000000000e+02,2.180000000000000000e+02,1.310000000000000000e+02,4.290000000000000000e+02,2.870000000000000000e+02,9.140000000000000000e+02,2.099999999999999922e-01,3.640456000000000000e+09
1.690000000000000000e+02,3.330000000000000000e+02,6.580000000000000000e+02,1.990000000000000000e+02,1.160000000000000000e+02,4.100000000000000000e+02,2.990000000000000000e+02,9.590000000000000000e+02,2.099999999999999922e-01,3.657896300000000000e+09
1.600000000000000000e+02,3.310000000000000000e+02,6.600000000000000000e+02,1.670000000000000000e+02,9.300000000000000000e+01,3.840000000000000000e+02,2.930000000000000000e+02,9.680000000000000000e+02,2.000000000000000111e-01,3.675622400000000000e+09
1.590000000000000000e+02,3.290000000000000000e+02,6.330000000000000000e+02,1.440000000000000000e+02,7.900000000000000000e+01,3.060000000000000000e+02,2.700000000000000000e+02,9.710000000000000000e+02,2.000000000000000111e-01,3.696961100000000000e+09
1.530000000000000000e+02,3.370000000000000000e+02,6.250000000000000000e+02,1.460000000000000000e+02,7.300000000000000000e+01,2.800000000000000000e+02,2.560000000000000000e+02,9.240000000000000000e+02,2.099999999999999922e-01,3.715015800000000000e+09
1.470000000000000000e+02,3.390000000000000000e+02,3.740000000000000000e+02,1.280000000000000000e+02,5.900000000000000000e+01,2.630000000000000000e+02,2.670000000000000000e+02,9.340000000000000000e+02,2.099999999999999922e-01,3.734475000000000000e+09
1.460000000000000000e+02,3.480000000000000000e+02,3.630000000000000000e+02,1.620000000000000000e+02,7.000000000000000000e+01,2.750000000000000000e+02,2.780000000000000000e+02,8.890000000000000000e+02,2.200000000000000011e-01,3.752725000000000000e+09
1.380000000000000000e+02,3.600000000000000000e+02,3.440000000000000000e+02,1.730000000000000000e+02,7.300000000000000000e+01,2.800000000000000000e+02,2.820000000000000000e+02,8.070000000000000000e+02,2.300000000000000100e-01,3.770678400000000000e+09
1.210000000000000000e+02,3.620000000000000000e+02,3.400000000000000000e+02,1.720000000000000000e+02,6.600000000000000000e+01,2.650000000000000000e+02,2.820000000000000000e+02,6.850000000000000000e+02,2.300000000000000100e-01,3.788263200000000000e+09
1.130000000000000000e+02,3.620000000000000000e+02,3.080000000000000000e+02,1.600000000000000000e+02,6.400000000000000000e+01,2.630000000000000000e+02,2.520000000000000000e+02,6.950000000000000000e+02,2.399999999999999911e-01,3.805250500000000000e+09
9.900000000000000000e+01,3.520000000000000000e+02,2.620000000000000000e+02,1.390000000000000000e+02,5.600000000000000000e+01,2.390000000000000000e+02,2.260000000000000000e+02,5.730000000000000000e+02,2.500000000000000000e-01,3.822348900000000000e+09
8.900000000000000000e+01,2.940000000000000000e+02,4.160000000000000000e+02,1.160000000000000000e+02,4.000000000000000000e+01,1.850000000000000000e+02,1.530000000000000000e+02,5.290000000000000000e+02,2.600000000000000089e-01,3.842558200000000000e+09
8.700000000000000000e+01,2.990000000000000000e+02,5.030000000000000000e+02,2.380000000000000000e+02,3.300000000000000000e+01,8.800000000000000000e+01,1.160000000000000000e+02,4.440000000000000000e+02,2.800000000000000266e-01,3.860186400000000000e+09
9.500000000000000000e+01,3.410000000000000000e+02,6.470000000000000000e+02,4.330000000000000000e+02,1.730000000000000000e+02,8.600000000000000000e+01,1.040000000000000000e+02,4.030000000000000000e+02,2.800000000000000266e-01,3.880111400000000000e+09
1.170000000000000000e+02,3.930000000000000000e+02,8.150000000000000000e+02,4.720000000000000000e+02,2.230000000000000000e+02,1.040000000000000000e+02,7.300000000000000000e+01,2.670000000000000000e+02,2.800000000000000266e-01,3.897943300000000000e+09
1.370000000000000000e+02,4.000000000000000000e+02,9.880000000000000000e+02,5.110000000000000000e+02,2.380000000000000000e+02,1.020000000000000000e+02,6.900000000000000000e+01,1.830000000000000000e+02,2.700000000000000178e-01,3.917021800000000000e+09
1.540000000000000000e+02,4.170000000000000000e+02,1.063000000000000000e+03,5.920000000000000000e+02,2.480000000000000000e+02,1.050000000000000000e+02,6.900000000000000000e+01,1.500000000000000000e+02,2.600000000000000089e-01,3.934640800000000000e+09
1.700000000000000000e+02,4.450000000000000000e+02,1.180000000000000000e+03,6.780000000000000000e+02,2.840000000000000000e+02,1.230000000000000000e+02,7.500000000000000000e+01,1.350000000000000000e+02,2.500000000000000000e-01,3.952397900000000000e+09
1.810000000000000000e+02,4.660000000000000000e+02,1.303000000000000000e+03,6.670000000000000000e+02,2.710000000000000000e+02,1.370000000000000000e+02,7.500000000000000000e+01,1.140000000000000000e+02,2.500000000000000000e-01,3.969945400000000000e+09
1.950000000000000000e+02,4.850000000000000000e+02,1.329000000000000000e+03,7.190000000000000000e+02,2.580000000000000000e+02,1.250000000000000000e+02,6.800000000000000000e+01,1.260000000000000000e+02,2.399999999999999911e-01,3.987897000000000000e+09
1.920000000000000000e+02,5.160000000000000000e+02,1.285000000000000000e+03,7.350000000000000000e+02,2.510000000000000000e+02,1.290000000000000000e+02,6.800000000000000000e+01,1.150000000000000000e+02,2.399999999999999911e-01,4.005056000000000000e+09
1.920000000000000000e+02,5.250000000000000000e+02,1.274000000000000000e+03,7.150000000000000000e+02,2.560000000000000000e+02,1.300000000000000000e+02,6.600000000000000000e+01,1.140000000000000000e+02,2.300000000000000100e-01,4.023231000000000000e+09
1.850000000000000000e+02,5.050000000000000000e+02,1.189000000000000000e+03,6.030000000000000000e+02,2.280000000000000000e+02,1.140000000000000000e+02,6.200000000000000000e+01,1.110000000000000000e+02,2.099999999999999922e-01,4.040966800000000000e+09
1.750000000000000000e+02,5.060000000000000000e+02,1.112000000000000000e+03,5.820000000000000000e+02,1.810000000000000000e+02,9.000000000000000000e+01,5.600000000000000000e+01,1.050000000000000000e+02,2.000000000000000111e-01,4.060502000000000000e+09
1.470000000000000000e+02,4.660000000000000000e+02,1.099000000000000000e+03,5.080000000000000000e+02,1.500000000000000000e+02,8.400000000000000000e+01,5.000000000000000000e+01,8.300000000000000000e+01,1.799999999999999933e-01,4.078534100000000000e+09
1.610000000000000000e+02,4.410000000000000000e+02,1.122000000000000000e+03,5.430000000000000000e+02,1.850000000000000000e+02,1.110000000000000000e+02,5.500000000000000000e+01,8.800000000000000000e+01,1.700000000000000122e-01,4.097246600000000000e+09
1.490000000000000000e+02,4.000000000000000000e+02,1.128000000000000000e+03,4.920000000000000000e+02,1.760000000000000000e+02,1.180000000000000000e+02,5.400000000000000000e+01,8.000000000000000000e+01,1.700000000000000122e-01,4.114830400000000000e+09
1.430000000000000000e+02,4.080000000000000000e+02,1.160000000000000000e+03,5.340000000000000000e+02,1.740000000000000000e+02,1.260000000000000000e+02,5.400000000000000000e+01,7.200000000000000000e+01,1.700000000000000122e-01,4.132805700000000000e+09
1.430000000000000000e+02,3.580000000000000000e+02,1.086000000000000000e+03,4.550000000000000000e+02,1.780000000000000000e+02,1.300000000000000000e+02,5.500000000000000000e+01,7.300000000000000000e+01,1.700000000000000122e-01,4.150238500000000000e+09
1.480000000000000000e+02,3.480000000000000000e+02,1.025000000000000000e+03,4.700000000000000000e+02,1.810000000000000000e+02,1.300000000000000000e+02,5.900000000000000000e+01,7.800000000000000000e+01,1.600000000000000033e-01,4.167753100000000000e+09
1.240000000000000000e+02,3.220000000000000000e+02,9.660000000000000000e+02,3.820000000000000000e+02,1.440000000000000000e+02,1.090000000000000000e+02,5.500000000000000000e+01,6.600000000000000000e+01,1.600000000000000033e-01,4.185318200000000000e+09
1.320000000000000000e+02,3.450000000000000000e+02,9.240000000000000000e+02,4.190000000000000000e+02,1.490000000000000000e+02,9.600000000000000000e+01,5.500000000000000000e+01,7.000000000000000000e+01,1.600000000000000033e-01,4.203533500000000000e+09
1.270000000000000000e+02,3.110000000000000000e+02,9.140000000000000000e+02,3.940000000000000000e+02,1.470000000000000000e+02,8.400000000000000000e+01,5.200000000000000000e+01,6.800000000000000000e+01,1.600000000000000033e-01,4.222849000000000000e+09
1.370000000000000000e+02,3.690000000000000000e+02,9.650000000000000000e+02,4.100000000000000000e+02,1.670000000000000000e+02,1.050000000000000000e+02,5.600000000000000000e+01,7.300000000000000000e+01,1.600000000000000033e-01,4.241512200000000000e+09
1.400000000000000000e+02,3.820000000000000000e+02,9.590000000000000000e+02,3.870000000000000000e+02,1.600000000000000000e+02,1.080000000000000000e+02,5.500000000000000000e+01,7.100000000000000000e+01,1.600000000000000033e-01,4.260848900000000000e+09
1.480000000000000000e+02,4.520000000000000000e+02,1.068000000000000000e+03,4.130000000000000000e+02,1.550000000000000000e+02,1.020000000000000000e+02,5.300000000000000000e+01,7.400000000000000000e+01,1.600000000000000033e-01,4.278703900000000000e+09
1.590000000000000000e+02,5.140000000000000000e+02,1.162000000000000000e+03,4.330000000000000000e+02,1.670000000000000000e+02,1.080000000000000000e+02,6.400000000000000000e+01,8.600000000000000000e+01,1.499999999999999944e-01,4.296400100000000000e+09
1.800000000000000000e+02,5.570000000000000000e+02,1.158000000000000000e+03,4.930000000000000000e+02,1.860000000000000000e+02,1.230000000000000000e+02,7.200000000000000000e+01,1.010000000000000000e+02,1.499999999999999944e-01,4.314444800000000000e+09
1.740000000000000000e+02,5.360000000000000000e+02,1.167000000000000000e+03,5.190000000000000000e+02,1.680000000000000000e+02,1.030000000000000000e+02,7.100000000000000000e+01,9.800000000000000000e+01,1.499999999999999944e-01,4.331729200000000000e+09
1.690000000000000000e+02,5.420000000000000000e+02,1.191000000000000000e+03,5.440000000000000000e+02,1.670000000000000000e+02,1.000000000000000000e+02,6.700000000000000000e+01,9.600000000000000000e+01,1.499999999999999944e-01,4.349084700000000000e+09
1.630000000000000000e+02,4.940000000000000000e+02,1.112000000000000000e+03,5.570000000000000000e+02,1.860000000000000000e+02,1.040000000000000000e+02,6.700000000000000000e+01,9.600000000000000000e+01,1.400000000000000133e-01,4.368395400000000000e+09
1.590000000000000000e+02,4.130000000000000000e+02,1.033000000000000000e+03,5.350000000000000000e+02,1.740000000000000000e+02,1.000000000000000000e+02,6.000000000000000000e+01,8.800000000000000000e+01,1.400000000000000133e-01,4.387349500000000000e+09
1.370000000000000000e+02,3.670000000000000000e+02,1.054000000000000000e+03,4.650000000000000000e+02,1.470000000000000000e+02,8.100000000000000000e+01,4.900000000000000000e+01,7.200000000000000000e+01,1.400000000000000133e-01,4.406053700000000000e+09
1.400000000000000000e+02,3.770000000000000000e+02,1.053000000000000000e+03,4.520000000000000000e+02,1.580000000000000000e+02,8.300000000000000000e+01,5.000000000000000000e+01,7.500000000000000000e+01,1.400000000000000133e-01,4.423957800000000000e+09
1.400000000000000000e+02,3.470000000000000000e+02,1.069000000000000000e+03,4.260000000000000000e+02,1.620000000000000000e+02,7.900000000000000000e+01,5.300000000000000000e+01,7.400000000000000000e+01,1.400000000000000133e-01,4.441562500000000000e+09
1.400000000000000000e+02,3.570000000000000000e+02,1.030000000000000000e+03,4.040000000000000000e+02,1.560000000000000000e+02,8.600000000000000000e+01,5.700000000000000000e+01,7.500000000000000000e+01,1.400000000000000133e-01,4.459531400000000000e+09
1.320000000000000000e+02,3.640000000000000000e+02,9.830000000000000000e+02,4.170000000000000000e+02,1.550000000000000000e+02,8.100000000000000000e+01,5.300000000000000000e+01,7.200000000000000000e+01,1.400000000000000133e-01,4.476377200000000000e+09
1.340000000000000000e+02,3.950000000000000000e+02,9.230000000000000000e+02,4.480000000000000000e+02,1.650000000000000000e+02,8.600000000000000000e+01,5.700000000000000000e+01,7.500000000000000000e+01,1.400000000000000133e-01,4.495425000000000000e+09
1.310000000000000000e+02,3.630000000000000000e+02,9.160000000000000000e+02,4.200000000000000000e+02,1.770000000000000000e+02,1.120000000000000000e+02,5.500000000000000000e+01,7.700000000000000000e+01,1.400000000000000133e-01,4.516086400000000000e+09
1.360000000000000000e+02,3.860000000000000000e+02,9.650000000000000000e+02,4.570000000000000000e+02,1.900000000000000000e+02,1.220000000000000000e+02,5.700000000000000000e+01,8.200000000000000000e+01,1.400000000000000133e-01,4.534894000000000000e+09
1.360000000000000000e+02,3.580000000000000000e+02,1.013000000000000000e+03,4.610000000000000000e+02,1.890000000000000000e+02,1.180000000000000000e+02,5.100000000000000000e+01,8.000000000000000000e+01,1.400000000000000133e-01,4.553922300000000000e+09
1.290000000000000000e+02,3.470000000000000000e+02,1.063000000000000000e+03,4.400000000000000000e+02,1.840000000000000000e+02,1.180000000000000000e+02,5.100000000000000000e+01,7.600000000000000000e+01,1.300000000000000044e-01,4.571058400000000000e+09
1.460000000000000000e+02,4.010000000000000000e+02,1.085000000000000000e+03,4.290000000000000000e+02,1.770000000000000000e+02,1.140000000000000000e+02,4.900000000000000000e+01,7.800000000000000000e+01,1.300000000000000044e-01,4.588462500000000000e+09
1.420000000000000000e+02,4.350000000000000000e+02,1.044000000000000000e+03,4.530000000000000000e+02,1.560000000000000000e+02,8.400000000000000000e+01,4.800000000000000000e+01,7.300000000000000000e+01,1.300000000000000044e-01,4.607748400000000000e+09
1.440000000000000000e+02,4.520000000000000000e+02,9.780000000000000000e+02,4.210000000000000000e+02,1.460000000000000000e+02,6.700000000000000000e+01,4.900000000000000000e+01,7.400000000000000000e+01,1.300000000000000044e-01,4.626221700000000000e+09
1.370000000000000000e+02,4.380000000000000000e+02,9.170000000000000000e+02,3.910000000000000000e+02,1.350000000000000000e+02,6.100000000000000000e+01,4.800000000000000000e+01,7.000000000000000000e+01,1.300000000000000044e-01,4.644367100000000000e+09
1.500000000000000000e+02,4.570000000000000000e+02,8.480000000000000000e+02,4.030000000000000000e+02,1.510000000000000000e+02,7.300000000000000000e+01,4.900000000000000000e+01,8.000000000000000000e+01,1.300000000000000044e-01,4.661999200000000000e+09
1.360000000000000000e+02,4.130000000000000000e+02,8.820000000000000000e+02,3.930000000000000000e+02,1.590000000000000000e+02,7.600000000000000000e+01,5.000000000000000000e+01,7.900000000000000000e+01,1.300000000000000044e-01,4.679252000000000000e+09
1.360000000000000000e+02,4.170000000000000000e+02,9.210000000000000000e+02,4.010000000000000000e+02,1.600000000000000000e+02,8.300000000000000000e+01,5.000000000000000000e+01,7.700000000000000000e+01,1.300000000000000044e-01,4.697003400000000000e+09
1.220000000000000000e+02,3.700000000000000000e+02,9.990000000000000000e+02,3.850000000000000000e+02,1.500000000000000000e+02,8.000000000000000000e+01,4.500000000000000000e+01,6.900000000000000000e+01,1.300000000000000044e-01,4.716156800000000000e+09
1.200000000000000000e+02,3.640000000000000000e+02,1.074000000000000000e+03,3.700000000000000000e+02,1.450000000000000000e+02,7.900000000000000000e+01,4.500000000000000000e+01,6.900000000000000000e+01,1.300000000000000044e-01,4.734452700000000000e+09
1.050000000000000000e+02,3.750000000000000000e+02,1.094000000000000000e+03,3.700000000000000000e+02,1.360000000000000000e+02,6.500000000000000000e+01,4.300000000000000000e+01,6.000000000000000000e+01,1.300000000000000044e-01,4.752627300000000000e+09
1.050000000000000000e+02,4.050000000000000000e+02,1.099000000000000000e+03,3.820000000000000000e+02,1.350000000000000000e+02,6.600000000000000000e+01,4.400000000000000000e+01,6.000000000000000000e+01,1.300000000000000044e-01,4.770769900000000000e+09
1.060000000000000000e+02,4.280000000000000000e+02,1.091000000000000000e+03,3.680000000000000000e+02,1.420000000000000000e+02,6.100000000000000000e+01,4.600000000000000000e+01,6.300000000000000000e+01,1.300000000000000044e-01,4.787957500000000000e+09
1.280000000000000000e+02,4.690000000000000000e+02,9.980000000000000000e+02,3.950000000000000000e+02,1.710000000000000000e+02,7.600000000000000000e+01,5.300000000000000000e+01,7.400000000000000000e+01,1.300000000000000044e-01,4.809113200000000000e+09
1.290000000000000000e+02,4.770000000000000000e+02,9.200000000000000000e+02,4.150000000000000000e+02,1.720000000000000000e+02,8.100000000000000000e+01,5.400000000000000000e+01,7.500000000000000000e+01,1.300000000000000044e-01,4.827833900000000000e+09
1.220000000000000000e+02,4.560000000000000000e+02,9.910000000000000000e+02,3.840000000000000000e+02,1.610000000000000000e+02,8.400000000000000000e+01,5.200000000000000000e+01,7.000000000000000000e+01,1.300000000000000044e-01,4.845809800000000000e+09
1.170000000000000000e+02,3.940000000000000000e+02,1.026000000000000000e+03,3.660000000000000000e+02,1.530000000000000000e+02,8.100000000000000000e+01,5.000000000000000000e+01,6.800000000000000000e+01,1.300000000000000044e-01,4.863638900000000000e+09
1.150000000000000000e+02,3.320000000000000000e+02,1.046000000000000000e+03,3.680000000000000000e+02,1.370000000000000000e+02,7.800000000000000000e+01,4.600000000000000000e+01,6.600000000000000000e+01,1.300000000000000044e-01,4.880936700000000000e+09
8.900000000000000000e+01,3.050000000000000000e+02,1.020000000000000000e+03,3.260000000000000000e+02,1.010000000000000000e+02,6.700000000000000000e+01,3.700000000000000000e+01,5.500000000000000000e+01,1.400000000000000133e-01,4.899523200000000000e+09
8.700000000000000000e+01,2.970000000000000000e+02,1.102000000000000000e+03,3.090000000000000000e+02,1.040000000000000000e+02,7.600000000000000000e+01,3.600000000000000000e+01,5.500000000000000000e+01,1.400000000000000133e-01,4.919012800000000000e+09
1.010000000000000000e+02,3.200000000000000000e+02,1.052000000000000000e+03,3.280000000000000000e+02,1.200000000000000000e+02,8.000000000000000000e+01,3.900000000000000000e+01,6.300000000000000000e+01,1.499999999999999944e-01,4.937104400000000000e+09
9.900000000000000000e+01,3.090000000000000000e+02,9.490000000000000000e+02,3.100000000000000000e+02,1.220000000000000000e+02,8.000000000000000000e+01,4.100000000000000000e+01,6.300000000000000000e+01,1.499999999999999944e-01,4.954691600000000000e+09
8.800000000000000000e+01,2.980000000000000000e+02,8.930000000000000000e+02,2.560000000000000000e+02,1.170000000000000000e+02,7.800000000000000000e+01,4.000000000000000000e+01,5.700000000000000000e+01,1.600000000000000033e-01,4.974279500000000000e+09
8.900000000000000000e+01,2.800000000000000000e+02,8.760000000000000000e+02,2.590000000000000000e+02,1.150000000000000000e+02,7.600000000000000000e+01,3.900000000000000000e+01,5.500000000000000000e+01,1.600000000000000033e-01,4.992261300000000000e+09
1.070000000000000000e+02,2.890000000000000000e+02,7.990000000000000000e+02,3.270000000000000000e+02,1.230000000000000000e+02,7.300000000000000000e+01,4.200000000000000000e+01,6.600000000000000000e+01,1.700000000000000122e-01,5.010334800000000000e+09
9.500000000000000000e+01,2.800000000000000000e+02,8.770000000000000000e+02,3.090000000000000000e+02,1.020000000000000000e+02,6.300000000000000000e+01,4.000000000000000000e+01,5.800000000000000000e+01,1.900000000000000022e-01,5.027329500000000000e+09
9.500000000000000000e+01,2.820000000000000000e+02,8.700000000000000000e+02,3.080000000000000000e+02,1.010000000000000000e+02,7.200000000000000000e+01,3.900000000000000000e+01,5.800000000000000000e+01,2.000000000000000111e-01,5.046189300000000000e+09
1.070000000000000000e+02,2.800000000000000000e+02,8.850000000000000000e+02,3.310000000000000000e+02,1.180000000000000000e+02,8.900000000000000000e+01,4.300000000000000000e+01,6.200000000000000000e+01,2.200000000000000011e-01,5.064268100000000000e+09
1.160000000000000000e+02,2.710000000000000000e+02,9.460000000000000000e+02,3.350000000000000000e+02,1.210000000000000000e+02,9.100000000000000000e+01,4.400000000000000000e+01,6.500000000000000000e+01,2.300000000000000100e-01,5.082065000000000000e+09
1.060000000000000000e+02,2.630000000000000000e+02,9.820000000000000000e+02,2.790000000000000000e+02,1.110000000000000000e+02,8.300000000000000000e+01,4.400000000000000000e+01,5.700000000000000000e+01,2.399999999999999911e-01,5.100072000000000000e+09
1.070000000000000000e+02,2.200000000000000000e+02,8.900000000000000000e+02,3.070000000000000000e+02,1.110000000000000000e+02,8.300000000000000000e+01,4.300000000000000000e+01,5.600000000000000000e+01,2.500000000000000000e-01,5.119681800000000000e+09
1.040000000000000000e+02,2.240000000000000000e+02,8.610000000000000000e+02,3.100000000000000000e+02,1.110000000000000000e+02,7.400000000000000000e+01,3.900000000000000000e+01,5.300000000000000000e+01,2.600000000000000089e-01,5.137484200000000000e+09
1.230000000000000000e+02,2.920000000000000000e+02,8.320000000000000000e+02,3.240000000000000000e+02,1.170000000000000000e+02,6.600000000000000000e+01,4.000000000000000000e+01,6.300000000000000000e+01,2.700000000000000178e-01,5.155291600000000000e+09
1.180000000000000000e+02,2.970000000000000000e+02,8.250000000000000000e+02,3.170000000000000000e+02,1.190000000000000000e+02,6.600000000000000000e+01,3.900000000000000000e+01,6.200000000000000000e+01,2.700000000000000178e-01,5.174294300000000000e+09
1.200000000000000000e+02,3.410000000000000000e+02,8.630000000000000000e+02,3.270000000000000000e+02,1.220000000000000000e+02,7.000000000000000000e+01,3.800000000000000000e+01,6.300000000000000000e+01,2.800000000000000266e-01,5.192318900000000000e+09
1.400000000000000000e+02,4.050000000000000000e+02,8.270000000000000000e+02,3.470000000000000000e+02,1.360000000000000000e+02,8.000000000000000000e+01,4.500000000000000000e+01,7.300000000000000000e+01,2.800000000000000266e-01,5.210174400000000000e+09
1.470000000000000000e+02,4.180000000000000000e+02,9.360000000000000000e+02,3.560000000000000000e+02,1.400000000000000000e+02,9.000000000000000000e+01,4.700000000000000000e+01,7.800000000000000000e+01,2.800000000000000266e-01,5.230064000000000000e+09
1.300000000000000000e+02,3.850000000000000000e+02,9.820000000000000000e+02,3.520000000000000000e+02,1.270000000000000000e+02,8.400000000000000000e+01,4.500000000000000000e+01,6.900000000000000000e+01,2.700000000000000178e-01,5.248708900000000000e+09
1.280000000000000000e+02,3.900000000000000000e+02,9.950000000000000000e+02,3.630000000000000000e+02,1.230000000000000000e+02,8.400000000000000000e+01,4.700000000000000000e+01,6.900000000000000000e+01,2.700000000000000178e-01,5.268746300000000000e+09
1.270000000000000000e+02,3.740000000000000000e+02,9.360000000000000000e+02,3.660000000000000000e+02,1.310000000000000000e+02,8.300000000000000000e+01,4.700000000000000000e+01,6.800000000000000000e+01,2.700000000000000178e-01,5.288387000000000000e+09
1.050000000000000000e+02,3.250000000000000000e+02,9.870000000000000000e+02,3.770000000000000000e+02,1.210000000000000000e+02,7.600000000000000000e+01,3.900000000000000000e+01,5.900000000000000000e+01,2.600000000000000089e-01,5.306999100000000000e+09
1.040000000000000000e+02,3.250000000000000000e+02,9.650000000000000000e+02,3.930000000000000000e+02,1.150000000000000000e+02,6.500000000000000000e+01,4.200000000000000000e+01,5.700000000000000000e+01,2.600000000000000089e-01,5.324820800000000000e+09
1.000000000000000000e+02,3.260000000000000000e+02,9.760000000000000000e+02,3.790000000000000000e+02,1.160000000000000000e+02,6.600000000000000000e+01,4.100000000000000000e+01,5.600000000000000000e+01,2.500000000000000000e-01,5.344191100000000000e+09
1.080000000000000000e+02,3.510000000000000000e+02,9.840000000000000000e+02,4.120000000000000000e+02,1.260000000000000000e+02,7.100000000000000000e+01,4.500000000000000000e+01,6.100000000000000000e+01,2.399999999999999911e-01,5.363538900000000000e+09
1.100000000000000000e+02,3.410000000000000000e+02,1.091000000000000000e+03,4.410000000000000000e+02,1.320000000000000000e+02,7.800000000000000000e+01,4.900000000000000000e+01,6.600000000000000000e+01,2.399999999999999911e-01,5.382464100000000000e+09
1.170000000000000000e+02,3.320000000000000000e+02,1.084000000000000000e+03,3.820000000000000000e+02,1.320000000000000000e+02,8.000000000000000000e+01,5.200000000000000000e+01,7.000000000000000000e+01,2.300000000000000100e-01,5.402114300000000000e+09
1.070000000000000000e+02,3.250000000000000000e+02,1.032000000000000000e+03,3.640000000000000000e+02,1.270000000000000000e+02,7.800000000000000000e+01,4.900000000000000000e+01,6.500000000000000000e+01,2.300000000000000100e-01,5.421263900000000000e+09
1.070000000000000000e+02,3.070000000000000000e+02,1.013000000000000000e+03,3.880000000000000000e+02,1.290000000000000000e+02,8.100000000000000000e+01,5.000000000000000000e+01,6.500000000000000000e+01,2.300000000000000100e-01,5.439895000000000000e+09
1.110000000000000000e+02,2.980000000000000000e+02,1.008000000000000000e+03,3.610000000000000000e+02,1.340000000000000000e+02,7.700000000000000000e+01,4.800000000000000000e+01,6.600000000000000000e+01,2.300000000000000100e-01,5.458315200000000000e+09
1.100000000000000000e+02,2.800000000000000000e+02,8.570000000000000000e+02,3.070000000000000000e+02,1.160000000000000000e+02,6.400000000000000000e+01,4.300000000000000000e+01,6.100000000000000000e+01,2.300000000000000100e-01,5.477642800000000000e+09
1.090000000000000000e+02,2.860000000000000000e+02,9.060000000000000000e+02,3.250000000000000000e+02,1.190000000000000000e+02,6.400000000000000000e+01,4.000000000000000000e+01,5.800000000000000000e+01,2.300000000000000100e-01,5.497180800000000000e+09
1.140000000000000000e+02,2.800000000000000000e+02,9.840000000000000000e+02,3.250000000000000000e+02,1.270000000000000000e+02,7.000000000000000000e+01,4.200000000000000000e+01,6.200000000000000000e+01,2.399999999999999911e-01,5.515542200000000000e+09
1.210000000000000000e+02,2.760000000000000000e+02,1.026000000000000000e+03,3.160000000000000000e+02,1.340000000000000000e+02,7.200000000000000000e+01,4.500000000000000000e+01,6.700000000000000000e+01,2.399999999999999911e-01,5.535358100000000000e+09
1.100000000000000000e+02,2.190000000000000000e+02,1.005000000000000000e+03,2.960000000000000000e+02,1.210000000000000000e+02,6.900000000000000000e+01,4.100000000000000000e+01,6.000000000000000000e+01,2.399999999999999911e-01,5.552764800000000000e+09
1.090000000000000000e+02,2.460000000000000000e+02,1.125000000000000000e+03,2.910000000000000000e+02,1.180000000000000000e+02,6.900000000000000000e+01,4.200000000000000000e+01,5.900000000000000000e+01,2.399999999999999911e-01,5.571584000000000000e+09
1.030000000000000000e+02,2.330000000000000000e+02,1.045000000000000000e+03,2.690000000000000000e+02,1.200000000000000000e+02,6.600000000000000000e+01,4.100000000000000000e+01,5.700000000000000000e+01,2.500000000000000000e-01,5.590840200000000000e+09
1.140000000000000000e+02,2.670000000000000000e+02,1.099000000000000000e+03,3.000000000000000000e+02,1.290000000000000000e+02,6.700000000000000000e+01,4.400000000000000000e+01,6.400000000000000000e+01,2.500000000000000000e-01,5.610669400000000000e+09
1.040000000000000000e+02,2.690000000000000000e+02,1.026000000000000000e+03,2.810000000000000000e+02,1.100000000000000000e+02,5.500000000000000000e+01,3.800000000000000000e+01,5.700000000000000000e+01,2.600000000000000089e-01,5.629710400000000000e+09
1.010000000000000000e+02,2.690000000000000000e+02,9.740000000000000000e+02,2.710000000000000000e+02,1.010000000000000000e+02,5.000000000000000000e+01,3.800000000000000000e+01,5.600000000000000000e+01,2.700000000000000178e-01,5.650737500000000000e+09
9.600000000000000000e+01,2.560000000000000000e+02,8.770000000000000000e+02,2.710000000000000000e+02,1.010000000000000000e+02,5.200000000000000000e+01,3.600000000000000000e+01,5.500000000000000000e+01,2.800000000000000266e-01,5.668457100000000000e+09
9.100000000000000000e+01,2.380000000000000000e+02,8.480000000000000000e+02,2.680000000000000000e+02,9.100000000000000000e+01,5.400000000000000000e+01,3.600000000000000000e+01,5.500000000000000000e+01,2.899999999999999800e-01,5.687376000000000000e+09
6.600000000000000000e+01,1.760000000000000000e+02,6.420000000000000000e+02,2.050000000000000000e+02,6.300000000000000000e+01,4.400000000000000000e+01,3.000000000000000000e+01,4.300000000000000000e+01,2.999999999999999889e-01,5.706104300000000000e+09
6.900000000000000000e+01,1.740000000000000000e+02,6.050000000000000000e+02,1.840000000000000000e+02,6.700000000000000000e+01,4.500000000000000000e+01,3.300000000000000000e+01,5.700000000000000000e+01,3.200000000000000067e-01,5.724999400000000000e+09
7.300000000000000000e+01,1.740000000000000000e+02,6.200000000000000000e+02,1.990000000000000000e+02,7.700000000000000000e+01,5.000000000000000000e+01,3.600000000000000000e+01,6.100000000000000000e+01,3.300000000000000155e-01,5.743669100000000000e+09
6.700000000000000000e+01,1.410000000000000000e+02,5.200000000000000000e+02,1.650000000000000000e+02,7.300000000000000000e+01,6.700000000000000000e+01,4.600000000000000000e+01,1.130000000000000000e+02,3.499999999999999778e-01,5.763388700000000000e+09
6.900000000000000000e+01,1.380000000000000000e+02,5.170000000000000000e+02,1.610000000000000000e+02,6.700000000000000000e+01,1.270000000000000000e+02,6.800000000000000000e+01,1.490000000000000000e+02,3.599999999999999867e-01,5.783675100000000000e+09
1.140000000000000000e+02,1.320000000000000000e+02,5.010000000000000000e+02,1.560000000000000000e+02,7.100000000000000000e+01,2.410000000000000000e+02,1.580000000000000000e+02,4.940000000000000000e+02,3.699999999999999956e-01,5.802722000000000000e+09
1.260000000000000000e+02,1.140000000000000000e+02,4.350000000000000000e+02,1.260000000000000000e+02,6.800000000000000000e+01,3.110000000000000000e+02,1.730000000000000000e+02,6.840000000000000000e+02,3.699999999999999956e-01,5.822236000000000000e+09
1.400000000000000000e+02,1.780000000000000000e+02,3.620000000000000000e+02,1.040000000000000000e+02,6.400000000000000000e+01,3.390000000000000000e+02,1.890000000000000000e+02,7.620000000000000000e+02,3.800000000000000044e-01,5.840782000000000000e+09
1.610000000000000000e+02,1.960000000000000000e+02,3.490000000000000000e+02,1.190000000000000000e+02,7.300000000000000000e+01,3.440000000000000000e+02,2.020000000000000000e+02,8.100000000000000000e+02,3.900000000000000133e-01,5.859637800000000000e+09
1.620000000000000000e+02,2.020000000000000000e+02,4.070000000000000000e+02,1.210000000000000000e+02,7.200000000000000000e+01,3.530000000000000000e+02,2.320000000000000000e+02,8.580000000000000000e+02,3.900000000000000133e-01,5.888504200000000000e+09
1.350000000000000000e+02,2.260000000000000000e+02,4.160000000000000000e+02,1.210000000000000000e+02,1.020000000000000000e+02,2.910000000000000000e+02,2.270000000000000000e+02,7.490000000000000000e+02,3.900000000000000133e-01,5.918398500000000000e+09
1.240000000000000000e+02,2.410000000000000000e+02,4.140000000000000000e+02,1.230000000000000000e+02,1.100000000000000000e+02,2.350000000000000000e+02,2.220000000000000000e+02,6.040000000000000000e+02,3.900000000000000133e-01,5.937256300000000000e+09
1.040000000000000000e+02,1.880000000000000000e+02,4.010000000000000000e+02,9.100000000000000000e+01,1.070000000000000000e+02,1.980000000000000000e+02,2.140000000000000000e+02,5.630000000000000000e+02,3.800000000000000044e-01,5.957965000000000000e+09
7.400000000000000000e+01,1.730000000000000000e+02,3.610000000000000000e+02,6.700000000000000000e+01,1.030000000000000000e+02,2.040000000000000000e+02,2.160000000000000000e+02,5.600000000000000000e+02,3.699999999999999956e-01,5.977121200000000000e+09
7.400000000000000000e+01,2.220000000000000000e+02,3.310000000000000000e+02,8.100000000000000000e+01,1.050000000000000000e+02,1.580000000000000000e+02,1.790000000000000000e+02,4.960000000000000000e+02,3.599999999999999867e-01,5.999661500000000000e+09
7.400000000000000000e+01,2.130000000000000000e+02,3.410000000000000000e+02,1.020000000000000000e+02,7.200000000000000000e+01,1.520000000000000000e+02,1.180000000000000000e+02,4.590000000000000000e+02,3.499999999999999778e-01,6.019186400000000000e+09
6.500000000000000000e+01,1.960000000000000000e+02,3.590000000000000000e+02,1.050000000000000000e+02,5.400000000000000000e+01,1.190000000000000000e+02,1.060000000000000000e+02,4.310000000000000000e+02,3.400000000000000244e-01,6.037035000000000000e+09
6.400000000000000000e+01,1.880000000000000000e+02,3.580000000000000000e+02,1.060000000000000000e+02,5.100000000000000000e+01,1.070000000000000000e+02,9.500000000000000000e+01,3.530000000000000000e+02,3.499999999999999778e-01,6.056173600000000000e+09
6.100000000000000000e+01,1.840000000000000000e+02,3.630000000000000000e+02,1.120000000000000000e+02,4.900000000000000000e+01,8.000000000000000000e+01,5.600000000000000000e+01,2.260000000000000000e+02,3.499999999999999778e-01,6.074160500000000000e+09
6.100000000000000000e+01,1.460000000000000000e+02,4.440000000000000000e+02,1.230000000000000000e+02,4.500000000000000000e+01,7.400000000000000000e+01,4.700000000000000000e+01,1.850000000000000000e+02,3.599999999999999867e-01,6.092240000000000000e+09
5.800000000000000000e+01,1.540000000000000000e+02,5.220000000000000000e+02,1.230000000000000000e+02,3.900000000000000000e+01,7.100000000000000000e+01,4.600000000000000000e+01,1.500000000000000000e+02,3.699999999999999956e-01,6.110306500000000000e+09
7.600000000000000000e+01,1.910000000000000000e+02,6.350000000000000000e+02,1.610000000000000000e+02,6.300000000000000000e+01,7.400000000000000000e+01,4.900000000000000000e+01,1.420000000000000000e+02,3.800000000000000044e-01,6.128970100000000000e+09
7.400000000000000000e+01,1.930000000000000000e+02,6.460000000000000000e+02,1.730000000000000000e+02,6.700000000000000000e+01,7.400000000000000000e+01,4.800000000000000000e+01,1.270000000000000000e+02,3.900000000000000133e-01,6.148510700000000000e+09
7.000000000000000000e+01,1.930000000000000000e+02,6.880000000000000000e+02,1.860000000000000000e+02,6.800000000000000000e+01,4.900000000000000000e+01,3.800000000000000000e+01,9.300000000000000000e+01,4.000000000000000222e-01,6.167918500000000000e+09
6.600000000000000000e+01,1.880000000000000000e+02,6.290000000000000000e+02,1.790000000000000000e+02,7.000000000000000000e+01,5.100000000000000000e+01,3.700000000000000000e+01,6.300000000000000000e+01,4.099999999999999756e-01,6.186378500000000000e+09
7.000000000000000000e+01,2.000000000000000000e+02,5.760000000000000000e+02,1.820000000000000000e+02,7.300000000000000000e+01,5.100000000000000000e+01,3.500000000000000000e+01,6.300000000000000000e+01,4.299999999999999933e-01,6.205101400000000000e+09
5.000000000000000000e+01,1.730000000000000000e+02,4.750000000000000000e+02,1.610000000000000000e+02,6.100000000000000000e+01,4.000000000000000000e+01,2.500000000000000000e+01,4.000000000000000000e+01,4.400000000000000022e-01,6.223794400000000000e+09
5.100000000000000000e+01,1.730000000000000000e+02,5.180000000000000000e+02,1.570000000000000000e+02,5.600000000000000000e+01,3.700000000000000000e+01,2.500000000000000000e+01,4.000000000000000000e+01,4.600000000000000200e-01,6.242195600000000000e+09
5.700000000000000000e+01,1.980000000000000000e+02,4.890000000000000000e+02,1.510000000000000000e+02,5.600000000000000000e+01,3.600000000000000000e+01,2.700000000000000000e+01,4.100000000000000000e+01,4.799999999999999822e-01,6.261361700000000000e+09
6.000000000000000000e+01,2.060000000000000000e+02,6.070000000000000000e+02,1.500000000000000000e+02,5.600000000000000000e+01,3.500000000000000000e+01,2.700000000000000000e+01,4.000000000000000000e+01,4.899999999999999911e-01,6.282568700000000000e+09
5.700000000000000000e+01,1.960000000000000000e+02,6.110000000000000000e+02,1.370000000000000000e+02,5.300000000000000000e+01,3.600000000000000000e+01,2.700000000000000000e+01,3.500000000000000000e+01,5.000000000000000000e-01,6.301369300000000000e+09
5.500000000000000000e+01,1.870000000000000000e+02,5.870000000000000000e+02,1.180000000000000000e+02,4.400000000000000000e+01,3.600000000000000000e+01,2.600000000000000000e+01,3.500000000000000000e+01,5.100000000000000089e-01,6.319882000000000000e+09
5.400000000000000000e+01,1.890000000000000000e+02,5.560000000000000000e+02,1.110000000000000000e+02,4.500000000000000000e+01,3.600000000000000000e+01,2.700000000000000000e+01,3.400000000000000000e+01,5.200000000000000178e-01,6.339328700000000000e+09
4.500000000000000000e+01,1.610000000000000000e+02,5.290000000000000000e+02,1.110000000000000000e+02,4.000000000000000000e+01,3.500000000000000000e+01,2.600000000000000000e+01,3.000000000000000000e+01,5.300000000000000266e-01,6.359289600000000000e+09
4.300000000000000000e+01,1.490000000000000000e+02,3.870000000000000000e+02,1.040000000000000000e+02,3.200000000000000000e+01,3.400000000000000000e+01,2.700000000000000000e+01,3.100000000000000000e+01,5.400000000000000355e-01,6.378134400000000000e+09
3.600000000000000000e+01,1.310000000000000000e+02,4.070000000000000000e+02,1.110000000000000000e+02,3.000000000000000000e+01,3.100000000000000000e+01,2.500000000000000000e+01,2.800000000000000000e+01,5.500000000000000444e-01,6.397387500000000000e+09
4.400000000000000000e+01,1.320000000000000000e+02,4.180000000000000000e+02,1.240000000000000000e+02,3.100000000000000000e+01,3.100000000000000000e+01,2.700000000000000000e+01,3.300000000000000000e+01,5.600000000000000533e-01,6.417131700000000000e+09
4.500000000000000000e+01,1.380000000000000000e+02,4.170000000000000000e+02,1.340000000000000000e+02,3.100000000000000000e+01,2.900000000000000000e+01,2.500000000000000000e+01,3.200000000000000000e+01,5.699999999999999512e-01,6.436586300000000000e+09
4.400000000000000000e+01,1.400000000000000000e+02,4.290000000000000000e+02,1.200000000000000000e+02,3.100000000000000000e+01,3.100000000000000000e+01,2.600000000000000000e+01,3.000000000000000000e+01,5.799999999999999600e-01,6.455514900000000000e+09
4.200000000000000000e+01,1.220000000000000000e+02,4.200000000000000000e+02,1.130000000000000000e+02,3.000000000000000000e+01,3.000000000000000000e+01,2.500000000000000000e+01,2.700000000000000000e+01,5.899999999999999689e-01,6.473999500000000000e+09
4.300000000000000000e+01,1.220000000000000000e+02,3.610000000000000000e+02,1.130000000000000000e+02,3.200000000000000000e+01,3.100000000000000000e+01,2.400000000000000000e+01,2.800000000000000000e+01,5.899999999999999689e-01,6.493308500000000000e+09
3.700000000000000000e+01,1.200000000000000000e+02,3.550000000000000000e+02,1.040000000000000000e+02,3.300000000000000000e+01,3.100000000000000000e+01,2.300000000000000000e+01,2.400000000000000000e+01,5.999999999999999778e-01,6.513441900000000000e+09
4.400000000000000000e+01,1.370000000000000000e+02,4.640000000000000000e+02,1.060000000000000000e+02,3.900000000000000000e+01,3.200000000000000000e+01,2.500000000000000000e+01,2.600000000000000000e+01,5.999999999999999778e-01,6.531732300000000000e+09
4.400000000000000000e+01,1.330000000000000000e+02,5.040000000000000000e+02,1.040000000000000000e+02,4.100000000000000000e+01,3.000000000000000000e+01,2.400000000000000000e+01,2.800000000000000000e+01,6.099999999999999867e-01,6.551364000000000000e+09
4.100000000000000000e+01,1.280000000000000000e+02,4.810000000000000000e+02,1.060000000000000000e+02,3.900000000000000000e+01,2.800000000000000000e+01,2.500000000000000000e+01,2.700000000000000000e+01,6.099999999999999867e-01,6.570531200000000000e+09
3.900000000000000000e+01,1.130000000000000000e+02,5.230000000000000000e+02,1.110000000000000000e+02,3.700000000000000000e+01,2.900000000000000000e+01,2.600000000000000000e+01,2.700000000000000000e+01,6.099999999999999867e-01,6.590672300000000000e+09
4.300000000000000000e+01,1.460000000000000000e+02,5.690000000000000000e+02,1.260000000000000000e+02,4.100000000000000000e+01,2.800000000000000000e+01,3.100000000000000000e+01,2.900000000000000000e+01,6.199999999999999956e-01,6.610468300000000000e+09
3.400000000000000000e+01,1.170000000000000000e+02,4.790000000000000000e+02,1.100000000000000000e+02,3.400000000000000000e+01,2.700000000000000000e+01,3.000000000000000000e+01,2.600000000000000000e+01,6.199999999999999956e-01,6.629254000000000000e+09
3.500000000000000000e+01,1.150000000000000000e+02,4.260000000000000000e+02,1.140000000000000000e+02,3.100000000000000000e+01,2.700000000000000000e+01,3.000000000000000000e+01,2.500000000000000000e+01,6.199999999999999956e-01,6.647782500000000000e+09
3.600000000000000000e+01,1.190000000000000000e+02,4.320000000000000000e+02,1.240000000000000000e+02,3.500000000000000000e+01,2.700000000000000000e+01,2.800000000000000000e+01,2.700000000000000000e+01,6.199999999999999956e-01,6.667708600000000000e+09
3.600000000000000000e+01,1.210000000000000000e+02,4.380000000000000000e+02,1.200000000000000000e+02,3.700000000000000000e+01,2.700000000000000000e+01,2.800000000000000000e+01,2.800000000000000000e+01,6.199999999999999956e-01,6.704419800000000000e+09
3.000000000000000000e+01,8.400000000000000000e+01,3.960000000000000000e+02,1.080000000000000000e+02,3.200000000000000000e+01,2.700000000000000000e+01,2.000000000000000000e+01,2.400000000000000000e+01,6.199999999999999956e-01,6.723713200000000000e+09
4.100000000000000000e+01,1.010000000000000000e+02,4.100000000000000000e+02,1.250000000000000000e+02,3.900000000000000000e+01,3.300000000000000000e+01,2.500000000000000000e+01,3.000000000000000000e+01,6.199999999999999956e-01,6.742467100000000000e+09
4.100000000000000000e+01,1.050000000000000000e+02,4.070000000000000000e+02,1.290000000000000000e+02,4.000000000000000000e+01,3.200000000000000000e+01,2.400000000000000000e+01,3.000000000000000000e+01,6.300000000000000044e-01,6.761065500000000000e+09
4.100000000000000000e+01,1.130000000000000000e+02,4.750000000000000000e+02,1.410000000000000000e+02,3.800000000000000000e+01,3.200000000000000000e+01,2.500000000000000000e+01,2.800000000000000000e+01,6.300000000000000044e-01,6.779914100000000000e+09
4.100000000000000000e+01,1.070000000000000000e+02,4.170000000000000000e+02,1.310000000000000000e+02,3.600000000000000000e+01,3.100000000000000000e+01,2.500000000000000000e+01,2.900000000000000000e+01,6.300000000000000044e-01,6.797805800000000000e+09
4.600000000000000000e+01,1.690000000000000000e+02,4.640000000000000000e+02,1.420000000000000000e+02,3.700000000000000000e+01,3.100000000000000000e+01,2.600000000000000000e+01,3.100000000000000000e+01,6.300000000000000044e-01,6.818243200000000000e+09
4.400000000000000000e+01,1.860000000000000000e+02,5.190000000000000000e+02,1.580000000000000000e+02,3.600000000000000000e+01,2.800000000000000000e+01,2.500000000000000000e+01,3.000000000000000000e+01,6.300000000000000044e-01,6.838961200000000000e+09
4.300000000000000000e+01,1.900000000000000000e+02,5.280000000000000000e+02,1.560000000000000000e+02,3.700000000000000000e+01,2.700000000000000000e+01,2.600000000000000000e+01,3.000000000000000000e+01,6.400000000000000133e-01,6.858693600000000000e+09
4.800000000000000000e+01,1.940000000000000000e+02,4.800000000000000000e+02,1.420000000000000000e+02,4.000000000000000000e+01,2.900000000000000000e+01,2.800000000000000000e+01,3.300000000000000000e+01,6.400000000000000133e-01,6.877803900000000000e+09
4.900000000000000000e+01,2.010000000000000000e+02,4.910000000000000000e+02,1.470000000000000000e+02,4.100000000000000000e+01,2.800000000000000000e+01,2.800000000000000000e+01,3.100000000000000000e+01,6.400000000000000133e-01,6.896825600000000000e+09
4.400000000000000000e+01,1.540000000000000000e+02,4.480000000000000000e+02,1.310000000000000000e+02,3.900000000000000000e+01,2.800000000000000000e+01,2.800000000000000000e+01,3.000000000000000000e+01,6.400000000000000133e-01,6.917379000000000000e+09
3.900000000000000000e+01,1.250000000000000000e+02,3.720000000000000000e+02,1.110000000000000000e+02,3.700000000000000000e+01,2.600000000000000000e+01,2.500000000000000000e+01,2.600000000000000000e+01,6.400000000000000133e-01,6.937690400000000000e+09
4.400000000000000000e+01,1.290000000000000000e+02,4.250000000000000000e+02,1.190000000000000000e+02,3.500000000000000000e+01,2.900000000000000000e+01,2.500000000000000000e+01,2.800000000000000000e+01,6.400000000000000133e-01,6.957262800000000000e+09
3.700000000000000000e+01,1.180000000000000000e+02,4.300000000000000000e+02,1.200000000000000000e+02,3.100000000000000000e+01,2.600000000000000000e+01,2.200000000000000000e+01,2.300000000000000000e+01,6.400000000000000133e-01,6.976191800000000000e+09
3.400000000000000000e+01,1.160000000000000000e+02,4.190000000000000000e+02,1.130000000000000000e+02,2.700000000000000000e+01,2.700000000000000000e+01,2.100000000000000000e+01,2.300000000000000000e+01,6.400000000000000133e-01,6.997345000000000000e+09
3.300000000000000000e+01,1.100000000000000000e+02,4.210000000000000000e+02,1.100000000000000000e+02,2.700000000000000000e+01,2.600000000000000000e+01,2.100000000000000000e+01,2.300000000000000000e+01,6.400000000000000133e-01,7.017456200000000000e+09
3.700000000000000000e+01,1.110000000000000000e+02,4.360000000000000000e+02,1.150000000000000000e+02,3.400000000000000000e+01,2.800000000000000000e+01,2.200000000000000000e+01,2.800000000000000000e+01,6.400000000000000133e-01,7.038143400000000000e+09
3.100000000000000000e+01,9.900000000000000000e+01,4.280000000000000000e+02,1.040000000000000000e+02,3.200000000000000000e+01,2.800000000000000000e+01,2.300000000000000000e+01,2.700000000000000000e+01,6.400000000000000133e-01,7.057461100000000000e+09
3.100000000000000000e+01,9.100000000000000000e+01,3.900000000000000000e+02,9.500000000000000000e+01,3.400000000000000000e+01,3.000000000000000000e+01,2.300000000000000000e+01,2.700000000000000000e+01,6.400000000000000133e-01,7.076352800000000000e+09
3.700000000000000000e+01,1.260000000000000000e+02,3.900000000000000000e+02,1.050000000000000000e+02,4.000000000000000000e+01,3.400000000000000000e+01,2.600000000000000000e+01,3.200000000000000000e+01,6.400000000000000133e-01,7.095614200000000000e+09
3.700000000000000000e+01,1.300000000000000000e+02,3.610000000000000000e+02,1.080000000000000000e+02,3.900000000000000000e+01,3.300000000000000000e+01,2.600000000000000000e+01,3.100000000000000000e+01,6.400000000000000133e-01,7.115816200000000000e+09
3.000000000000000000e+01,1.260000000000000000e+02,3.220000000000000000e+02,8.200000000000000000e+01,3.300000000000000000e+01,3.100000000000000000e+01,2.500000000000000000e+01,2.700000000000000000e+01,6.400000000000000133e-01,7.136914600000000000e+09
3.100000000000000000e+01,1.270000000000000000e+02,3.060000000000000000e+02,9.500000000000000000e+01,3.300000000000000000e+01,2.800000000000000000e+01,2.400000000000000000e+01,2.600000000000000000e+01,6.400000000000000133e-01,7.155750800000000000e+09
3.600000000000000000e+01,1.340000000000000000e+02,4.050000000000000000e+02,1.040000000000000000e+02,3.600000000000000000e+01,2.600000000000000000e+01,2.500000000000000000e+01,2.900000000000000000e+01,6.400000000000000133e-01,7.175019900000000000e+09
3.000000000000000000e+01,9.400000000000000000e+01,4.110000000000000000e+02,9.800000000000000000e+01,3.100000000000000000e+01,2.000000000000000000e+01,2.100000000000000000e+01,2.500000000000000000e+01,6.300000000000000044e-01,7.193350100000000000e+09
3.000000000000000000e+01,9.100000000000000000e+01,4.060000000000000000e+02,1.110000000000000000e+02,3.300000000000000000e+01,2.000000000000000000e+01,2.200000000000000000e+01,2.700000000000000000e+01,6.300000000000000044e-01,7.214154200000000000e+09
3.300000000000000000e+01,9.500000000000000000e+01,4.090000000000000000e+02,1.120000000000000000e+02,3.100000000000000000e+01,2.100000000000000000e+01,2.300000000000000000e+01,2.700000000000000000e+01,6.300000000000000044e-01,7.234554200000000000e+09
3.100000000000000000e+01,1.020000000000000000e+02,3.900000000000000000e+02,1.000000000000000000e+02,3.100000000000000000e+01,2.400000000000000000e+01,2.200000000000000000e+01,2.600000000000000000e+01,6.300000000000000044e-01,7.253051300000000000e+09
3.200000000000000000e+01,9.800000000000000000e+01,4.020000000000000000e+02,9.500000000000000000e+01,2.800000000000000000e+01,2.500000000000000000e+01,2.200000000000000000e+01,2.300000000000000000e+01,6.300000000000000044e-01,7.272721500000000000e+09
3.400000000000000000e+01,9.800000000000000000e+01,4.070000000000000000e+02,9.700000000000000000e+01,2.800000000000000000e+01,2.700000000000000000e+01,2.200000000000000000e+01,2.400000000000000000e+01,6.300000000000000044e-01,7.292061400000000000e+09
3.500000000000000000e+01,1.200000000000000000e+02,4.130000000000000000e+02,8.100000000000000000e+01,3.100000000000000000e+01,2.900000000000000000e+01,2.200000000000000000e+01,2.300000000000000000e+01,6.300000000000000044e-01,7.311924900000000000e+09
3.400000000000000000e+01,1.220000000000000000e+02,4.430000000000000000e+02,7.900000000000000000e+01,3.300000000000000000e+01,2.900000000000000000e+01,2.400000000000000000e+01,2.300000000000000000e+01,6.300000000000000044e-01,7.332070800000000000e+09
3.800000000000000000e+01,1.160000000000000000e+02,5.110000000000000000e+02,8.800000000000000000e+01,3.500000000000000000e+01,2.900000000000000000e+01,2.400000000000000000e+01,2.500000000000000000e+01,6.300000000000000044e-01,7.351547000000000000e+09
3.600000000000000000e+01,1.130000000000000000e+02,4.540000000000000000e+02,8.900000000000000000e+01,3.600000000000000000e+01,2.800000000000000000e+01,2.400000000000000000e+01,2.500000000000000000e+01,6.300000000000000044e-01,7.370017400000000000e+09
3.500000000000000000e+01,1.120000000000000000e+02,4.370000000000000000e+02,8.100000000000000000e+01,3.500000000000000000e+01,2.900000000000000000e+01,2.700000000000000000e+01,2.500000000000000000e+01,6.300000000000000044e-01,7.389831900000000000e+09
3.500000000000000000e+01,9.700000000000000000e+01,4.310000000000000000e+02,8.100000000000000000e+01,3.200000000000000000e+01,2.900000000000000000e+01,2.600000000000000000e+01,2.500000000000000000e+01,6.199999999999999956e-01,7.409842800000000000e+09
3.200000000000000000e+01,9.500000000000000000e+01,4.050000000000000000e+02,9.500000000000000000e+01,3.200000000000000000e+01,2.800000000000000000e+01,2.400000000000000000e+01,2.200000000000000000e+01,6.199999999999999956e-01,7.428982100000000000e+09
2.900000000000000000e+01,9.100000000000000000e+01,3.230000000000000000e+02,8.600000000000000000e+01,2.900000000000000000e+01,2.700000000000000000e+01,2.600000000000000000e+01,2.200000000000000000e+01,6.199999999999999956e-01,7.450186500000000000e+09
3.100000000000000000e+01,9.400000000000000000e+01,3.350000000000000000e+02,8.500000000000000000e+01,3.000000000000000000e+01,2.600000000000000000e+01,2.500000000000000000e+01,2.100000000000000000e+01,6.199999999999999956e-01,7.469634500000000000e+09
3.000000000000000000e+01,9.900000000000000000e+01,3.450000000000000000e+02,8.700000000000000000e+01,3.000000000000000000e+01,2.400000000000000000e+01,2.300000000000000000e+01,2.000000000000000000e+01,6.199999999999999956e-01,7.488306200000000000e+09
2.800000000000000000e+01,8.600000000000000000e+01,3.420000000000000000e+02,8.500000000000000000e+01,2.900000000000000000e+01,2.500000000000000000e+01,2.300000000000000000e+01,2.000000000000000000e+01,6.199999999999999956e-01,7.507855200000000000e+09
2.900000000000000000e+01,8.400000000000000000e+01,3.770000000000000000e+02,7.100000000000000000e+01,2.500000000000000000e+01,2.500000000000000000e+01,2.300000000000000000e+01,2.200000000000000000e+01,6.099999999999999867e-01,7.526864600000000000e+09
3.000000000000000000e+01,1.080000000000000000e+02,4.110000000000000000e+02,8.500000000000000000e+01,2.700000000000000000e+01,2.500000000000000000e+01,2.300000000000000000e+01,2.300000000000000000e+01,6.099999999999999867e-01,7.546450600000000000e+09
2.600000000000000000e+01,1.130000000000000000e+02,3.940000000000000000e+02,8.200000000000000000e+01,2.700000000000000000e+01,2.500000000000000000e+01,2.400000000000000000e+01,2.400000000000000000e+01,6.099999999999999867e-01,7.565555300000000000e+09
2.500000000000000000e+01,1.120000000000000000e+02,4.140000000000000000e+02,7.700000000000000000e+01,2.600000000000000000e+01,2.600000000000000000e+01,2.300000000000000000e+01,2.400000000000000000e+01,6.099999999999999867e-01,7.585329100000000000e+09
2.600000000000000000e+01,1.210000000000000000e+02,4.300000000000000000e+02,8.000000000000000000e+01,2.700000000000000000e+01,2.700000000000000000e+01,2.200000000000000000e+01,2.400000000000000000e+01,6.099999999999999867e-01,7.606619800000000000e+09
2.800000000000000000e+01,1.190000000000000000e+02,3.970000000000000000e+02,9.200000000000000000e+01,3.000000000000000000e+01,2.900000000000000000e+01,2.100000000000000000e+01,2.500000000000000000e+01,6.099999999999999867e-01,7.626798200000000000e+09
2.900000000000000000e+01,9.400000000000000000e+01,3.800000000000000000e+02,8.300000000000000000e+01,2.900000000000000000e+01,3.000000000000000000e+01,2.000000000000000000e+01,2.600000000000000000e+01,6.099999999999999867e-01,7.646633000000000000e+09
2.800000000000000000e+01,8.600000000000000000e+01,3.690000000000000000e+02,9.900000000000000000e+01,2.900000000000000000e+01,3.100000000000000000e+01,2.000000000000000000e+01,2.400000000000000000e+01,6.099999999999999867e-01,7.665987300000000000e+09
2.900000000000000000e+01,8.200000000000000000e+01,3.600000000000000000e+02,1.000000000000000000e+02,3.000000000000000000e+01,3.100000000000000000e+01,2.000000000000000000e+01,2.400000000000000000e+01,6.099999999999999867e-01,7.684353800000000000e+09
2.900000000000000000e+01,6.800000000000000000e+01,4.050000000000000000e+02,1.020000000000000000e+02,3.100000000000000000e+01,2.800000000000000000e+01,2.200000000000000000e+01,2.500000000000000000e+01,6.099999999999999867e-01,7.706516800000000000e+09
2.900000000000000000e+01,6.500000000000000000e+01,4.820000000000000000e+02,9.300000000000000000e+01,3.000000000000000000e+01,2.600000000000000000e+01,2.300000000000000000e+01,2.400000000000000000e+01,6.099999999999999867e-01,7.727006200000000000e+09
3.200000000000000000e+01,9.200000000000000000e+01,4.630000000000000000e+02,1.090000000000000000e+02,3.400000000000000000e+01,2.900000000000000000e+01,2.300000000000000000e+01,2.100000000000000000e+01,6.099999999999999867e-01,7.746448500000000000e+09
3.400000000000000000e+01,8.300000000000000000e+01,5.240000000000000000e+02,1.060000000000000000e+02,3.200000000000000000e+01,3.100000000000000000e+01,2.300000000000000000e+01,2.500000000000000000e+01,6.199999999999999956e-01,7.764806900000000000e+09
3.300000000000000000e+01,8.100000000000000000e+01,5.480000000000000000e+02,1.180000000000000000e+02,3.300000000000000000e+01,2.900000000000000000e+01,2.400000000000000000e+01,2.500000000000000000e+01,6.199999999999999956e-01,7.784608200000000000e+09
3.200000000000000000e+01,8.600000000000000000e+01,5.190000000000000000e+02,1.150000000000000000e+02,3.200000000000000000e+01,3.000000000000000000e+01,2.400000000000000000e+01,2.500000000000000000e+01,6.199999999999999956e-01,7.804315300000000000e+09
3.500000000000000000e+01,1.050000000000000000e+02,6.040000000000000000e+02,1.350000000000000000e+02,3.200000000000000000e+01,3.000000000000000000e+01,2.400000000000000000e+01,2.600000000000000000e+01,6.199999999999999956e-01,7.826102200000000000e+09
3.400000000000000000e+01,8.400000000000000000e+01,5.910000000000000000e+02,1.200000000000000000e+02,2.700000000000000000e+01,2.600000000000000000e+01,2.200000000000000000e+01,2.600000000000000000e+01,6.199999999999999956e-01,7.846145300000000000e+09
3.300000000000000000e+01,8.600000000000000000e+01,5.440000000000000000e+02,1.060000000000000000e+02,2.600000000000000000e+01,2.500000000000000000e+01,2.300000000000000000e+01,2.300000000000000000e+01,6.199999999999999956e-01,7.866144100000000000e+09
3.700000000000000000e+01,8.700000000000000000e+01,5.010000000000000000e+02,1.060000000000000000e+02,3.000000000000000000e+01,2.800000000000000000e+01,2.200000000000000000e+01,2.400000000000000000e+01,6.199999999999999956e-01,7.884762500000000000e+09
4.100000000000000000e+01,9.200000000000000000e+01,5.080000000000000000e+02,1.100000000000000000e+02,3.000000000000000000e+01,2.700000000000000000e+01,2.200000000000000000e+01,2.400000000000000000e+01,6.300000000000000044e-01,7.904512100000000000e+09
4.200000000000000000e+01,7.900000000000000000e+01,3.830000000000000000e+02,8.300000000000000000e+01,2.900000000000000000e+01,2.800000000000000000e+01,2.300000000000000000e+01,2.500000000000000000e+01,6.300000000000000044e-01,7.923209300000000000e+09
3.900000000000000000e+01,8.600000000000000000e+01,4.500000000000000000e+02,9.000000000000000000e+01,3.100000000000000000e+01,2.600000000000000000e+01,2.200000000000000000e+01,2.500000000000000000e+01,6.300000000000000044e-01,7.943710200000000000e+09
4.400000000000000000e+01,9.200000000000000000e+01,4.520000000000000000e+02,1.010000000000000000e+02,3.200000000000000000e+01,2.700000000000000000e+01,2.400000000000000000e+01,2.700000000000000000e+01,6.300000000000000044e-01,7.963720400000000000e+09
3.900000000000000000e+01,9.000000000000000000e+01,4.740000000000000000e+02,8.600000000000000000e+01,2.700000000000000000e+01,2.400000000000000000e+01,2.400000000000000000e+01,2.500000000000000000e+01,6.300000000000000044e-01,7.985147100000000000e+09
3.600000000000000000e+01,8.000000000000000000e+01,4.580000000000000000e+02,8.400000000000000000e+01,2.800000000000000000e+01,2.300000000000000000e+01,2.400000000000000000e+01,2.700000000000000000e+01,6.300000000000000044e-01,8.003894200000000000e+09
3.300000000000000000e+01,7.500000000000000000e+01,4.360000000000000000e+02,9.000000000000000000e+01,2.900000000000000000e+01,2.500000000000000000e+01,2.400000000000000000e+01,2.400000000000000000e+01,6.300000000000000044e-01,8.022863700000000000e+09
4.100000000000000000e+01,9.700000000000000000e+01,4.610000000000000000e+02,1.090000000000000000e+02,3.300000000000000000e+01,2.900000000000000000e+01,2.500000000000000000e+01,2.900000000000000000e+01,6.300000000000000044e-01,8.042083800000000000e+09
3.700000000000000000e+01,9.000000000000000000e+01,4.660000000000000000e+02,1.030000000000000000e+02,3.100000000000000000e+01,2.800000000000000000e+01,2.100000000000000000e+01,2.700000000000000000e+01,6.300000000000000044e-01,8.061171400000000000e+09
4.000000000000000000e+01,9.500000000000000000e+01,4.920000000000000000e+02,1.140000000000000000e+02,3.400000000000000000e+01,3.100000000000000000e+01,2.000000000000000000e+01,2.900000000000000000e+01,6.300000000000000044e-01,8.082206500000000000e+09
4.200000000000000000e+01,1.020000000000000000e+02,5.110000000000000000e+02,1.170000000000000000e+02,3.400000000000000000e+01,3.200000000000000000e+01,2.200000000000000000e+01,2.900000000000000000e+01,6.300000000000000044e-01,8.102481300000000000e+09
4.200000000000000000e+01,1.040000000000000000e+02,4.980000000000000000e+02,1.100000000000000000e+02,3.200000000000000000e+01,2.900000000000000000e+01,2.200000000000000000e+01,2.900000000000000000e+01,6.300000000000000044e-01,8.122120300000000000e+09
3.500000000000000000e+01,7.900000000000000000e+01,4.400000000000000000e+02,8.300000000000000000e+01,2.900000000000000000e+01,2.600000000000000000e+01,2.200000000000000000e+01,2.600000000000000000e+01,6.300000000000000044e-01,8.143954700000000000e+09
4.300000000000000000e+01,1.120000000000000000e+02,4.800000000000000000e+02,1.060000000000000000e+02,3.700000000000000000e+01,2.500000000000000000e+01,2.300000000000000000e+01,2.800000000000000000e+01,6.300000000000000044e-01,8.163461500000000000e+09
4.100000000000000000e+01,1.130000000000000000e+02,4.550000000000000000e+02,1.070000000000000000e+02,3.700000000000000000e+01,2.200000000000000000e+01,2.200000000000000000e+01,2.700000000000000000e+01,6.300000000000000044e-01,8.185724800000000000e+09
4.300000000000000000e+01,1.170000000000000000e+02,4.360000000000000000e+02,1.080000000000000000e+02,4.000000000000000000e+01,2.500000000000000000e+01,2.200000000000000000e+01,2.800000000000000000e+01,6.300000000000000044e-01,8.205293700000000000e+09
4.000000000000000000e+01,1.140000000000000000e+02,4.370000000000000000e+02,1.100000000000000000e+02,3.900000000000000000e+01,2.500000000000000000e+01,2.100000000000000000e+01,2.700000000000000000e+01,6.300000000000000044e-01,8.225549900000000000e+09
4.200000000000000000e+01,1.180000000000000000e+02,5.130000000000000000e+02,1.270000000000000000e+02,4.100000000000000000e+01,2.500000000000000000e+01,2.300000000000000000e+01,2.800000000000000000e+01,6.300000000000000044e-01,8.243876000000000000e+09
3.500000000000000000e+01,8.700000000000000000e+01,4.760000000000000000e+02,1.220000000000000000e+02,3.600000000000000000e+01,2.400000000000000000e+01,2.300000000000000000e+01,2.800000000000000000e+01,6.300000000000000044e-01,8.263163600000000000e+09
3.900000000000000000e+01,9.300000000000000000e+01,4.530000000000000000e+02,1.310000000000000000e+02,3.800000000000000000e+01,2.600000000000000000e+01,2.500000000000000000e+01,3.100000000000000000e+01,6.300000000000000044e-01,8.284568800000000000e+09
3.400000000000000000e+01,8.500000000000000000e+01,5.500000000000000000e+02,1.280000000000000000e+02,3.300000000000000000e+01,2.200000000000000000e+01,2.400000000000000000e+01,2.900000000000000000e+01,6.300000000000000044e-01,8.305363000000000000e+09
3.600000000000000000e+01,8.700000000000000000e+01,5.400000000000000000e+02,1.230000000000000000e+02,3.700000000000000000e+01,2.600000000000000000e+01,2.500000000000000000e+01,3.200000000000000000e+01,6.300000000000000044e-01,8.326534600000000000e+09
3.700000000000000000e+01,8.400000000000000000e+01,4.430000000000000000e+02,1.070000000000000000e+02,3.400000000000000000e+01,2.900000000000000000e+01,2.500000000000000000e+01,3.000000000000000000e+01,6.300000000000000044e-01,8.345675400000000000e+09
3.600000000000000000e+01,8.100000000000000000e+01,4.560000000000000000e+02,9.300000000000000000e+01,3.500000000000000000e+01,3.000000000000000000e+01,2.500000000000000000e+01,2.900000000000000000e+01,6.300000000000000044e-01,8.364972600000000000e+09
3.100000000000000000e+01,8.000000000000000000e+01,5.520000000000000000e+02,7.800000000000000000e+01,3.300000000000000000e+01,2.900000000000000000e+01,2.400000000000000000e+01,2.400000000000000000e+01,6.300000000000000044e-01,8.384434500000000000e+09
3.400000000000000000e+01,7.500000000000000000e+01,4.710000000000000000e+02,8.100000000000000000e+01,3.400000000000000000e+01,2.900000000000000000e+01,2.400000000000000000e+01,2.400000000000000000e+01,6.300000000000000044e-01,8.403308700000000000e+09
3.300000000000000000e+01,6.900000000000000000e+01,4.860000000000000000e+02,8.200000000000000000e+01,3.100000000000000000e+01,2.700000000000000000e+01,2.200000000000000000e+01,2.300000000000000000e+01,6.300000000000000044e-01,8.422857700000000000e+09
3.000000000000000000e+01,6.800000000000000000e+01,5.120000000000000000e+02,7.800000000000000000e+01,3.000000000000000000e+01,2.300000000000000000e+01,2.200000000000000000e+01,2.200000000000000000e+01,6.300000000000000044e-01,8.443723900000000000e+09
3.000000000000000000e+01,7.000000000000000000e+01,5.300000000000000000e+02,8.000000000000000000e+01,2.900000000000000000e+01,2.400000000000000000e+01,2.200000000000000000e+01,2.200000000000000000e+01,6.199999999999999956e-01,8.463158400000000000e+09
3.100000000000000000e+01,6.200000000000000000e+01,4.360000000000000000e+02,7.400000000000000000e+01,2.800000000000000000e+01,2.400000000000000000e+01,2.100000000000000000e+01,2.300000000000000000e+01,6.199999999999999956e-01,8.482752500000000000e+09
2.700000000000000000e+01,6.000000000000000000e+01,4.270000000000000000e+02,6.700000000000000000e+01,2.600000000000000000e+01,2.400000000000000000e+01,2.200000000000000000e+01,2.200000000000000000e+01,6.199999999999999956e-01,8.507925000000000000e+09
3.200000000000000000e+01,6.700000000000000000e+01,4.270000000000000000e+02,8.100000000000000000e+01,2.900000000000000000e+01,2.900000000000000000e+01,2.200000000000000000e+01,2.300000000000000000e+01,6.199999999999999956e-01,8.527374600000000000e+09
3.000000000000000000e+01,6.800000000000000000e+01,4.590000000000000000e+02,9.100000000000000000e+01,3.000000000000000000e+01,2.900000000000000000e+01,2.100000000000000000e+01,2.400000000000000000e+01,6.099999999999999867e-01,8.547432600000000000e+09
3.300000000000000000e+01,7.500000000000000000e+01,4.420000000000000000e+02,9.100000000000000000e+01,3.000000000000000000e+01,2.900000000000000000e+01,2.000000000000000000e+01,2.500000000000000000e+01,6.099999999999999867e-01,8.566089200000000000e+09
3.800000000000000000e+01,8.300000000000000000e+01,4.950000000000000000e+02,9.600000000000000000e+01,3.100000000000000000e+01,3.000000000000000000e+01,2.400000000000000000e+01,2.500000000000000000e+01,6.099999999999999867e-01,8.585339600000000000e+09
3.700000000000000000e+01,8.700000000000000000e+01,5.440000000000000000e+02,1.050000000000000000e+02,3.200000000000000000e+01,2.900000000000000000e+01,2.300000000000000000e+01,2.500000000000000000e+01,6.099999999999999867e-01,8.605227500000000000e+09
3.700000000000000000e+01,9.000000000000000000e+01,5.960000000000000000e+02,1.100000000000000000e+02,3.000000000000000000e+01,2.400000000000000000e+01,2.400000000000000000e+01,2.300000000000000000e+01,6.099999999999999867e-01,8.625376900000000000e+09
3.900000000000000000e+01,8.700000000000000000e+01,5.520000000000000000e+02,1.110000000000000000e+02,2.900000000000000000e+01,2.500000000000000000e+01,2.400000000000000000e+01,2.200000000000000000e+01,6.099999999999999867e-01,8.645363200000000000e+09
3.800000000000000000e+01,8.200000000000000000e+01,6.020000000000000000e+02,1.160000000000000000e+02,3.100000000000000000e+01,2.500000000000000000e+01,2.400000000000000000e+01,2.300000000000000000e+01,6.099999999999999867e-01,8.666283200000000000e+09
3.500000000000000000e+01,8.900000000000000000e+01,6.390000000000000000e+02,1.130000000000000000e+02,2.800000000000000000e+01,2.200000000000000000e+01,2.100000000000000000e+01,2.200000000000000000e+01,6.199999999999999956e-01,8.686039600000000000e+09
3.800000000000000000e+01,9.000000000000000000e+01,6.210000000000000000e+02,1.240000000000000000e+02,3.400000000000000000e+01,2.600000000000000000e+01,2.300000000000000000e+01,2.600000000000000000e+01,6.199999999999999956e-01,8.706025900000000000e+09
3.600000000000000000e+01,8.400000000000000000e+01,6.080000000000000000e+02,1.170000000000000000e+02,3.400000000000000000e+01,2.500000000000000000e+01,2.100000000000000000e+01,2.600000000000000000e+01,6.199999999999999956e-01,8.726037300000000000e+09
4.000000000000000000e+01,8.700000000000000000e+01,6.290000000000000000e+02,1.230000000000000000e+02,4.000000000000000000e+01,2.600000000000000000e+01,2.200000000000000000e+01,2.900000000000000000e+01,6.199999999999999956e-01,8.745524100000000000e+09
3.900000000000000000e+01,8.600000000000000000e+01,5.730000000000000000e+02,1.150000000000000000e+02,3.700000000000000000e+01,2.600000000000000000e+01,2.400000000000000000e+01,3.000000000000000000e+01,6.199999999999999956e-01,8.765665600000000000e+09
3.800000000000000000e+01,7.200000000000000000e+01,4.940000000000000000e+02,1.120000000000000000e+02,3.900000000000000000e+01,2.700000000000000000e+01,2.400000000000000000e+01,3.100000000000000000e+01,6.199999999999999956e-01,8.785532700000000000e+09
3.700000000000000000e+01,6.800000000000000000e+01,4.800000000000000000e+02,1.030000000000000000e+02,3.700000000000000000e+01,2.800000000000000000e+01,2.500000000000000000e+01,3.000000000000000000e+01,6.199999999999999956e-01,8.806170100000000000e+09
3.800000000000000000e+01,7.000000000000000000e+01,4.260000000000000000e+02,1.020000000000000000e+02,3.700000000000000000e+01,2.900000000000000000e+01,2.500000000000000000e+01,3.100000000000000000e+01,6.199999999999999956e-01,8.825451000000000000e+09
2.900000000000000000e+01,6.500000000000000000e+01,4.020000000000000000e+02,9.000000000000000000e+01,2.900000000000000000e+01,2.600000000000000000e+01,2.400000000000000000e+01,2.700000000000000000e+01,6.199999999999999956e-01,8.846027700000000000e+09
3.200000000000000000e+01,7.600000000000000000e+01,4.160000000000000000e+02,1.010000000000000000e+02,3.000000000000000000e+01,2.700000000000000000e+01,2.300000000000000000e+01,2.600000000000000000e+01,6.199999999999999956e-01,8.865133900000000000e+09
3.300000000000000000e+01,7.600000000000000000e+01,4.320000000000000000e+02,1.050000000000000000e+02,2.900000000000000000e+01,2.800000000000000000e+01,2.200000000000000000e+01,2.400000000000000000e+01,6.199999999999999956e-01,8.885577000000000000e+09
3.100000000000000000e+01,7.500000000000000000e+01,4.220000000000000000e+02,9.700000000000000000e+01,2.600000000000000000e+01,2.500000000000000000e+01,1.900000000000000000e+01,2.100000000000000000e+01,6.199999999999999956e-01,8.904291300000000000e+09
3.400000000000000000e+01,7.400000000000000000e+01,4.040000000000000000e+02,1.110000000000000000e+02,2.900000000000000000e+01,2.500000000000000000e+01,1.900000000000000000e+01,2.300000000000000000e+01,6.199999999999999956e-01,8.926772600000000000e+09
3.300000000000000000e+01,7.400000000000000000e+01,4.490000000000000000e+02,1.110000000000000000e+02,3.000000000000000000e+01,2.500000000000000000e+01,1.900000000000000000e+01,2.200000000000000000e+01,6.199999999999999956e-01,8.947795700000000000e+09
3.000000000000000000e+01,6.900000000000000000e+01,4.510000000000000000e+02,1.010000000000000000e+02,3.100000000000000000e+01,2.200000000000000000e+01,1.900000000000000000e+01,2.300000000000000000e+01,6.199999999999999956e-01,8.966641200000000000e+09
2.800000000000000000e+01,7.600000000000000000e+01,4.140000000000000000e+02,9.600000000000000000e+01,3.200000000000000000e+01,2.100000000000000000e+01,2.100000000000000000e+01,2.400000000000000000e+01,6.199999999999999956e-01,8.985820000000000000e+09
2.800000000000000000e+01,7.900000000000000000e+01,4.320000000000000000e+02,9.200000000000000000e+01,3.200000000000000000e+01,2.300000000000000000e+01,2.000000000000000000e+01,2.300000000000000000e+01,6.199999999999999956e-01,9.005549100000000000e+09
2.500000000000000000e+01,8.100000000000000000e+01,4.840000000000000000e+02,7.100000000000000000e+01,3.000000000000000000e+01,2.200000000000000000e+01,2.100000000000000000e+01,2.100000000000000000e+01,6.199999999999999956e-01,9.026383700000000000e+09
2.900000000000000000e+01,9.300000000000000000e+01,4.520000000000000000e+02,8.500000000000000000e+01,3.100000000000000000e+01,2.400000000000000000e+01,2.200000000000000000e+01,2.400000000000000000e+01,6.199999999999999956e-01,9.045920200000000000e+09
2.800000000000000000e+01,9.000000000000000000e+01,4.720000000000000000e+02,8.400000000000000000e+01,2.800000000000000000e+01,2.500000000000000000e+01,2.200000000000000000e+01,2.300000000000000000e+01,6.199999999999999956e-01,9.064564800000000000e+09
2.700000000000000000e+01,8.100000000000000000e+01,5.070000000000000000e+02,8.100000000000000000e+01,2.600000000000000000e+01,2.400000000000000000e+01,2.000000000000000000e+01,2.200000000000000000e+01,6.199999999999999956e-01,9.084459900000000000e+09
2.600000000000000000e+01,7.900000000000000000e+01,5.330000000000000000e+02,8.900000000000000000e+01,2.500000000000000000e+01,2.400000000000000000e+01,2.200000000000000000e+01,2.500000000000000000e+01,6.199999999999999956e-01,9.104082900000000000e+09
2.800000000000000000e+01,7.800000000000000000e+01,4.750000000000000000e+02,8.600000000000000000e+01,2.400000000000000000e+01,2.300000000000000000e+01,2.300000000000000000e+01,2.500000000000000000e+01,6.199999999999999956e-01,9.124144300000000000e+09
2.500000000000000000e+01,6.100000000000000000e+01,4.520000000000000000e+02,6.700000000000000000e+01,2.100000000000000000e+01,2.000000000000000000e+01,2.300000000000000000e+01,2.200000000000000000e+01,6.199999999999999956e-01,9.143079000000000000e+09
3.000000000000000000e+01,6.600000000000000000e+01,3.920000000000000000e+02,7.200000000000000000e+01,2.300000000000000000e+01,2.300000000000000000e+01,2.200000000000000000e+01,2.300000000000000000e+01,6.099999999999999867e-01,9.163415600000000000e+09
3.200000000000000000e+01,7.600000000000000000e+01,4.050000000000000000e+02,7.600000000000000000e+01,2.300000000000000000e+01,2.500000000000000000e+01,2.200000000000000000e+01,2.300000000000000000e+01,6.099999999999999867e-01,9.182280200000000000e+09
3.100000000000000000e+01,7.500000000000000000e+01,3.300000000000000000e+02,6.700000000000000000e+01,2.300000000000000000e+01,2.500000000000000000e+01,1.900000000000000000e+01,2.200000000000000000e+01,6.099999999999999867e-01,9.203625200000000000e+09
2.900000000000000000e+01,7.200000000000000000e+01,3.460000000000000000e+02,7.100000000000000000e+01,2.400000000000000000e+01,2.600000000000000000e+01,1.600000000000000000e+01,2.000000000000000000e+01,5.999999999999999778e-01,9.223153200000000000e+09
3.500000000000000000e+01,8.300000000000000000e+01,3.530000000000000000e+02,7.500000000000000000e+01,2.600000000000000000e+01,2.800000000000000000e+01,1.800000000000000000e+01,2.500000000000000000e+01,5.999999999999999778e-01,9.244679900000000000e+09
3.300000000000000000e+01,8.000000000000000000e+01,3.510000000000000000e+02,6.700000000000000000e+01,2.300000000000000000e+01,2.500000000000000000e+01,1.800000000000000000e+01,2.300000000000000000e+01,5.999999999999999778e-01,9.264121100000000000e+09
3.400000000000000000e+01,8.000000000000000000e+01,3.260000000000000000e+02,8.900000000000000000e+01,2.300000000000000000e+01,2.500000000000000000e+01,1.900000000000000000e+01,2.400000000000000000e+01,5.999999999999999778e-01,9.285173500000000000e+09
3.400000000000000000e+01,8.100000000000000000e+01,3.440000000000000000e+02,9.100000000000000000e+01,2.200000000000000000e+01,2.500000000000000000e+01,2.100000000000000000e+01,2.700000000000000000e+01,5.999999999999999778e-01,9.304991600000000000e+09
3.600000000000000000e+01,8.200000000000000000e+01,3.790000000000000000e+02,9.100000000000000000e+01,2.300000000000000000e+01,2.800000000000000000e+01,2.500000000000000000e+01,2.800000000000000000e+01,5.999999999999999778e-01,9.324216100000000000e+09
3.000000000000000000e+01,7.300000000000000000e+01,3.870000000000000000e+02,8.500000000000000000e+01,2.200000000000000000e+01,2.700000000000000000e+01,2.300000000000000000e+01,2.500000000000000000e+01,5.999999999999999778e-01,9.342985800000000000e+09
3.500000000000000000e+01,8.500000000000000000e+01,4.980000000000000000e+02,1.110000000000000000e+02,2.700000000000000000e+01,3.000000000000000000e+01,2.500000000000000000e+01,2.700000000000000000e+01,5.999999999999999778e-01,9.362872200000000000e+09
3.400000000000000000e+01,8.100000000000000000e+01,4.890000000000000000e+02,1.150000000000000000e+02,3.000000000000000000e+01,2.800000000000000000e+01,2.500000000000000000e+01,2.700000000000000000e+01,5.999999999999999778e-01,9.384082700000000000e+09
3.400000000000000000e+01,8.000000000000000000e+01,4.800000000000000000e+02,1.230000000000000000e+02,3.200000000000000000e+01,2.700000000000000000e+01,2.500000000000000000e+01,2.600000000000000000e+01,5.999999999999999778e-01,9.404386900000000000e+09
3.300000000000000000e+01,7.800000000000000000e+01,4.990000000000000000e+02,1.270000000000000000e+02,3.100000000000000000e+01,2.400000000000000000e+01,2.100000000000000000e+01,2.600000000000000000e+01,5.999999999999999778e-01,9.424067700000000000e+09
3.400000000000000000e+01,7.900000000000000000e+01,5.550000000000000000e+02,1.300000000000000000e+02,3.100000000000000000e+01,2.400000000000000000e+01,2.300000000000000000e+01,2.600000000000000000e+01,6.099999999999999867e-01,9.443382100000000000e+09
3.000000000000000000e+01,6.400000000000000000e+01,5.280000000000000000e+02,1.140000000000000000e+02,2.900000000000000000e+01,2.200000000000000000e+01,2.000000000000000000e+01,2.400000000000000000e+01,6.099999999999999867e-01,9.464030500000000000e+09
3.500000000000000000e+01,7.100000000000000000e+01,5.100000000000000000e+02,1.000000000000000000e+02,2.800000000000000000e+01,2.300000000000000000e+01,2.100000000000000000e+01,2.700000000000000000e+01,6.099999999999999867e-01,9.484655600000000000e+09
3.500000000000000000e+01,7.000000000000000000e+01,5.130000000000000000e+02,9.400000000000000000e+01,2.700000000000000000e+01,2.300000000000000000e+01,2.200000000000000000e+01,2.800000000000000000e+01,6.099999999999999867e-01,9.506221500000000000e+09
3.400000000000000000e+01,7.900000000000000000e+01,4.790000000000000000e+02,1.050000000000000000e+02,2.800000000000000000e+01,2.800000000000000000e+01,2.300000000000000000e+01,2.700000000000000000e+01,6.199999999999999956e-01,9.526085800000000000e+09
3.500000000000000000e+01,7.800000000000000000e+01,5.410000000000000000e+02,1.120000000000000000e+02,3.000000000000000000e+01,3.100000000000000000e+01,2.300000000000000000e+01,2.800000000000000000e+01,6.199999999999999956e-01,9.545854600000000000e+09
3.300000000000000000e+01,8.100000000000000000e+01,5.470000000000000000e+02,1.070000000000000000e+02,2.900000000000000000e+01,3.100000000000000000e+01,2.300000000000000000e+01,2.700000000000000000e+01,6.199999999999999956e-01,9.566224600000000000e+09
2.600000000000000000e+01,7.000000000000000000e+01,5.590000000000000000e+02,1.010000000000000000e+02,2.600000000000000000e+01,3.000000000000000000e+01,2.300000000000000000e+01,2.400000000000000000e+01,6.199999999999999956e-01,9.586664800000000000e+09
2.700000000000000000e+01,6.800000000000000000e+01,5.910000000000000000e+02,9.700000000000000000e+01,2.800000000000000000e+01,3.100000000000000000e+01,2.300000000000000000e+01,2.200000000000000000e+01,6.199999999999999956e-01,9.606119600000000000e+09
2.700000000000000000e+01,6.400000000000000000e+01,6.180000000000000000e+02,7.800000000000000000e+01,2.600000000000000000e+01,2.600000000000000000e+01,2.400000000000000000e+01,2.300000000000000000e+01,6.199999999999999956e-01,9.625927700000000000e+09
2.700000000000000000e+01,6.200000000000000000e+01,5.200000000000000000e+02,6.200000000000000000e+01,2.500000000000000000e+01,2.400000000000000000e+01,2.400000000000000000e+01,2.100000000000000000e+01,6.199999999999999956e-01,9.646470400000000000e+09
2.800000000000000000e+01,5.700000000000000000e+01,4.530000000000000000e+02,6.900000000000000000e+01,2.500000000000000000e+01,2.300000000000000000e+01,2.600000000000000000e+01,2.200000000000000000e+01,6.199999999999999956e-01,9.665056000000000000e+09
2.800000000000000000e+01,5.700000000000000000e+01,4.600000000000000000e+02,6.300000000000000000e+01,2.600000000000000000e+01,2.500000000000000000e+01,2.700000000000000000e+01,2.300000000000000000e+01,6.099999999999999867e-01,9.683637800000000000e+09
2.800000000000000000e+01,6.000000000000000000e+01,4.000000000000000000e+02,7.100000000000000000e+01,2.400000000000000000e+01,2.300000000000000000e+01,2.700000000000000000e+01,2.200000000000000000e+01,6.099999999999999867e-01,9.702237400000000000e+09
2.700000000000000000e+01,5.900000000000000000e+01,3.580000000000000000e+02,8.100000000000000000e+01,2.700000000000000000e+01,2.800000000000000000e+01,2.600000000000000000e+01,2.300000000000000000e+01,6.099999999999999867e-01,9.721846600000000000e+09
3.000000000000000000e+01,6.100000000000000000e+01,3.590000000000000000e+02,1.090000000000000000e+02,3.000000000000000000e+01,2.800000000000000000e+01,2.400000000000000000e+01,2.500000000000000000e+01,6.099999999999999867e-01,9.741453500000000000e+09
3.200000000000000000e+01,6.300000000000000000e+01,3.730000000000000000e+02,1.180000000000000000e+02,3.100000000000000000e+01,2.800000000000000000e+01,2.200000000000000000e+01,2.500000000000000000e+01,6.099999999999999867e-01,9.760619700000000000e+09
3.300000000000000000e+01,7.100000000000000000e+01,3.460000000000000000e+02,1.240000000000000000e+02,3.100000000000000000e+01,2.900000000000000000e+01,2.000000000000000000e+01,2.500000000000000000e+01,6.099999999999999867e-01,9.784492400000000000e+09
3.400000000000000000e+01,7.300000000000000000e+01,4.020000000000000000e+02,1.240000000000000000e+02,3.100000000000000000e+01,3.100000000000000000e+01,1.900000000000000000e+01,2.700000000000000000e+01,6.099999999999999867e-01,9.804734900000000000e+09
3.300000000000000000e+01,7.000000000000000000e+01,4.060000000000000000e+02,1.180000000000000000e+02,3.100000000000000000e+01,2.600000000000000000e+01,2.000000000000000000e+01,2.600000000000000000e+01,6.099999999999999867e-01,9.823271200000000000e+09
3.000000000000000000e+01,6.600000000000000000e+01,3.880000000000000000e+02,9.900000000000000000e+01,2.800000000000000000e+01,2.500000000000000000e+01,2.000000000000000000e+01,2.400000000000000000e+01,6.099999999999999867e-01,9.841829300000000000e+09
3.400000000000000000e+01,7.200000000000000000e+01,3.590000000000000000e+02,8.800000000000000000e+01,3.300000000000000000e+01,2.900000000000000000e+01,2.100000000000000000e+01,2.800000000000000000e+01,6.099999999999999867e-01,9.861016000000000000e+09
3.200000000000000000e+01,6.400000000000000000e+01,3.680000000000000000e+02,7.700000000000000000e+01,3.100000000000000000e+01,2.800000000000000000e+01,2.000000000000000000e+01,2.700000000000000000e+01,6.099999999999999867e-01,9.880593000000000000e+09
3.200000000000000000e+01,5.900000000000000000e+01,3.390000000000000000e+02,8.200000000000000000e+01,3.200000000000000000e+01,2.900000000000000000e+01,2.000000000000000000e+01,2.500000000000000000e+01,6.099999999999999867e-01,9.901102000000000000e+09
3.800000000000000000e+01,7.100000000000000000e+01,3.260000000000000000e+02,1.060000000000000000e+02,3.600000000000000000e+01,3.100000000000000000e+01,2.100000000000000000e+01,2.800000000000000000e+01,6.099999999999999867e-01,9.921079900000000000e+09
4.100000000000000000e+01,7.700000000000000000e+01,3.150000000000000000e+02,1.150000000000000000e+02,4.000000000000000000e+01,3.200000000000000000e+01,2.200000000000000000e+01,2.900000000000000000e+01,6.099999999999999867e-01,9.942020500000000000e+09
4.300000000000000000e+01,7.500000000000000000e+01,3.460000000000000000e+02,1.210000000000000000e+02,4.000000000000000000e+01,2.900000000000000000e+01,2.200000000000000000e+01,2.900000000000000000e+01,6.099999999999999867e-01,9.964696400000000000e+09
4.400000000000000000e+01,7.500000000000000000e+01,3.800000000000000000e+02,1.210000000000000000e+02,4.000000000000000000e+01,2.900000000000000000e+01,2.300000000000000000e+01,2.900000000000000000e+01,6.099999999999999867e-01,9.985498700000000000e+09
4.300000000000000000e+01,7.900000000000000000e+01,3.670000000000000000e+02,1.160000000000000000e+02,3.900000000000000000e+01,2.500000000000000000e+01,2.300000000000000000e+01,3.000000000000000000e+01,6.099999999999999867e-01,1.000484950000000000e+10
3.900000000000000000e+01,7.100000000000000000e+01,3.620000000000000000e+02,1.030000000000000000e+02,3.400000000000000000e+01,2.500000000000000000e+01,2.300000000000000000e+01,2.800000000000000000e+01,6.099999999999999867e-01,1.002638140000000000e+10
3.800000000000000000e+01,6.200000000000000000e+01,4.720000000000000000e+02,8.900000000000000000e+01,3.200000000000000000e+01,2.300000000000000000e+01,2.300000000000000000e+01,2.700000000000000000e+01,6.099999999999999867e-01,1.004737360000000000e+10
2.800000000000000000e+01,5.500000000000000000e+01,5.010000000000000000e+02,7.800000000000000000e+01,2.500000000000000000e+01,2.300000000000000000e+01,2.300000000000000000e+01,2.400000000000000000e+01,6.099999999999999867e-01,1.006596720000000000e+10
2.600000000000000000e+01,6.000000000000000000e+01,4.680000000000000000e+02,7.700000000000000000e+01,2.400000000000000000e+01,2.200000000000000000e+01,2.300000000000000000e+01,2.400000000000000000e+01,6.099999999999999867e-01,1.008387720000000000e+10
2.500000000000000000e+01,5.600000000000000000e+01,4.820000000000000000e+02,7.400000000000000000e+01,2.400000000000000000e+01,2.100000000000000000e+01,2.300000000000000000e+01,2.100000000000000000e+01,6.099999999999999867e-01,1.010431730000000000e+10
2.600000000000000000e+01,5.700000000000000000e+01,4.760000000000000000e+02,8.000000000000000000e+01,2.600000000000000000e+01,2.100000000000000000e+01,2.200000000000000000e+01,2.200000000000000000e+01,6.099999999999999867e-01,1.012336130000000000e+10
3.500000000000000000e+01,6.700000000000000000e+01,4.180000000000000000e+02,9.900000000000000000e+01,2.600000000000000000e+01,2.200000000000000000e+01,2.200000000000000000e+01,2.500000000000000000e+01,6.099999999999999867e-01,1.014219420000000000e+10
3.500000000000000000e+01,7.300000000000000000e+01,3.670000000000000000e+02,1.010000000000000000e+02,2.700000000000000000e+01,2.400000000000000000e+01,2.300000000000000000e+01,2.500000000000000000e+01,6.099999999999999867e-01,1.016187120000000000e+10
3.600000000000000000e+01,6.700000000000000000e+01,3.980000000000000000e+02,1.010000000000000000e+02,2.800000000000000000e+01,2.500000000000000000e+01,2.300000000000000000e+01,2.600000000000000000e+01,6.099999999999999867e-01,1.018161480000000000e+10
3.600000000000000000e+01,6.600000000000000000e+01,3.720000000000000000e+02,1.020000000000000000e+02,2.700000000000000000e+01,2.600000000000000000e+01,2.200000000000000000e+01,2.600000000000000000e+01,6.099999999999999867e-01,1.020092220000000000e+10
3.500000000000000000e+01,6.800000000000000000e+01,4.050000000000000000e+02,1.090000000000000000e+02,2.900000000000000000e+01,2.600000000000000000e+01,2.400000000000000000e+01,2.600000000000000000e+01,6.099999999999999867e-01,1.022010570000000000e+10
2.400000000000000000e+01,6.200000000000000000e+01,4.520000000000000000e+02,8.800000000000000000e+01,2.500000000000000000e+01,2.600000000000000000e+01,2.200000000000000000e+01,2.300000000000000000e+01,6.099999999999999867e-01,1.023976120000000000e+10
2.600000000000000000e+01,5.800000000000000000e+01,4.460000000000000000e+02,8.300000000000000000e+01,2.400000000000000000e+01,2.500000000000000000e+01,2.300000000000000000e+01,2.600000000000000000e+01,6.099999999999999867e-01,1.026274240000000000e+10
2.600000000000000000e+01,6.400000000000000000e+01,4.250000000000000000e+02,8.300000000000000000e+01,2.500000000000000000e+01,2.800000000000000000e+01,2.300000000000000000e+01,2.500000000000000000e+01,6.099999999999999867e-01,1.028324440000000000e+10
3.100000000000000000e+01,7.300000000000000000e+01,4.240000000000000000e+02,8.400000000000000000e+01,2.700000000000000000e+01,3.000000000000000000e+01,2.500000000000000000e+01,2.700000000000000000e+01,6.099999999999999867e-01,1.030356230000000000e+10
3.000000000000000000e+01,7.300000000000000000e+01,4.220000000000000000e+02,5.600000000000000000e+01,2.300000000000000000e+01,3.000000000000000000e+01,2.400000000000000000e+01,2.800000000000000000e+01,6.099999999999999867e-01,1.032278330000000000e+10
3.100000000000000000e+01,7.100000000000000000e+01,3.230000000000000000e+02,7.800000000000000000e+01,2.800000000000000000e+01,2.900000000000000000e+01,2.500000000000000000e+01,2.800000000000000000e+01,6.099999999999999867e-01,1.034194440000000000e+10
3.200000000000000000e+01,8.500000000000000000e+01,3.790000000000000000e+02,7.900000000000000000e+01,2.800000000000000000e+01,2.700000000000000000e+01,2.400000000000000000e+01,2.500000000000000000e+01,6.099999999999999867e-01,1.036148480000000000e+10
3.100000000000000000e+01,8.300000000000000000e+01,3.920000000000000000e+02,8.900000000000000000e+01,2.800000000000000000e+01,2.300000000000000000e+01,2.400000000000000000e+01,2.500000000000000000e+01,6.099999999999999867e-01,1.038162940000000000e+10
2.700000000000000000e+01,7.700000000000000000e+01,4.320000000000000000e+02,8.800000000000000000e+01,2.700000000000000000e+01,2.400000000000000000e+01,2.300000000000000000e+01,2.200000000000000000e+01,6.099999999999999867e-01,1.040219070000000000e+10
3.100000000000000000e+01,8.300000000000000000e+01,4.440000000000000000e+02,9.300000000000000000e+01,2.900000000000000000e+01,2.400000000000000000e+01,2.300000000000000000e+01,2.200000000000000000e+01,6.099999999999999867e-01,1.042103630000000000e+10
3.000000000000000000e+01,8.900000000000000000e+01,5.060000000000000000e+02,8.600000000000000000e+01,2.900000000000000000e+01,2.500000000000000000e+01,2.100000000000000000e+01,2.000000000000000000e+01,6.099999999999999867e-01,1.044121060000000000e+10
3.700000000000000000e+01,8.300000000000000000e+01,5.050000000000000000e+02,9.800000000000000000e+01,3.300000000000000000e+01,2.600000000000000000e+01,2.200000000000000000e+01,2.300000000000000000e+01,6.099999999999999867e-01,1.046130650000000000e+10
