4.600000000000000000e+01,7.700000000000000000e+01,4.320000000000000000e+02,1.120000000000000000e+02,3.900000000000000000e+01,1.650000000000000000e+02,1.190000000000000000e+02,3.100000000000000000e+01,6.300000000000000044e-01,4.347112000000000000e+08
5.000000000000000000e+01,7.500000000000000000e+01,3.880000000000000000e+02,1.220000000000000000e+02,3.900000000000000000e+01,1.760000000000000000e+02,1.220000000000000000e+02,3.100000000000000000e+01,6.300000000000000044e-01,4.667753000000000000e+08
4.900000000000000000e+01,9.500000000000000000e+01,4.040000000000000000e+02,1.260000000000000000e+02,3.900000000000000000e+01,1.810000000000000000e+02,1.250000000000000000e+02,3.200000000000000000e+01,6.400000000000000133e-01,7.670974000000000000e+08
5.400000000000000000e+01,1.080000000000000000e+02,3.720000000000000000e+02,1.220000000000000000e+02,3.700000000000000000e+01,1.830000000000000000e+02,1.170000000000000000e+02,3.500000000000000000e+01,6.400000000000000133e-01,7.840339000000000000e+08
5.700000000000000000e+01,1.220000000000000000e+02,4.230000000000000000e+02,1.150000000000000000e+02,3.800000000000000000e+01,1.460000000000000000e+02,9.000000000000000000e+01,3.600000000000000000e+01,6.400000000000000133e-01,8.011206000000000000e+08
6.400000000000000000e+01,1.300000000000000000e+02,4.930000000000000000e+02,1.950000000000000000e+02,3.500000000000000000e+01,1.040000000000000000e+02,5.200000000000000000e+01,3.500000000000000000e+01,6.500000000000000222e-01,8.191309000000000000e+08
6.600000000000000000e+01,1.460000000000000000e+02,4.790000000000000000e+02,2.250000000000000000e+02,4.700000000000000000e+01,9.100000000000000000e+01,4.600000000000000000e+01,3.800000000000000000e+01,6.600000000000000311e-01,8.357620000000000000e+08
7.000000000000000000e+01,1.390000000000000000e+02,5.460000000000000000e+02,2.440000000000000000e+02,6.200000000000000000e+01,8.600000000000000000e+01,3.900000000000000000e+01,3.900000000000000000e+01,6.600000000000000311e-01,8.521917000000000000e+08
7.400000000000000000e+01,1.580000000000000000e+02,6.950000000000000000e+02,2.870000000000000000e+02,9.100000000000000000e+01,8.500000000000000000e+01,3.600000000000000000e+01,4.000000000000000000e+01,6.500000000000000222e-01,8.683839000000000000e+08
7.800000000000000000e+01,1.850000000000000000e+02,7.080000000000000000e+02,3.030000000000000000e+02,9.800000000000000000e+01,8.600000000000000000e+01,3.400000000000000000e+01,4.400000000000000000e+01,6.500000000000000222e-01,8.849746000000000000e+08
7.500000000000000000e+01,2.050000000000000000e+02,7.160000000000000000e+02,2.850000000000000000e+02,1.080000000000000000e+02,8.900000000000000000e+01,3.600000000000000000e+01,4.300000000000000000e+01,6.400000000000000133e-01,9.009159000000000000e+08
7.700000000000000000e+01,2.140000000000000000e+02,7.300000000000000000e+02,2.650000000000000000e+02,1.140000000000000000e+02,9.100000000000000000e+01,4.200000000000000000e+01,4.700000000000000000e+01,6.300000000000000044e-01,9.168759000000000000e+08
7.300000000000000000e+01,2.180000000000000000e+02,7.070000000000000000e+02,2.490000000000000000e+02,1.290000000000000000e+02,9.300000000000000000e+01,4.200000000000000000e+01,4.400000000000000000e+01,6.099999999999999867e-01,9.329662000000000000e+08
6.500000000000000000e+01,2.140000000000000000e+02,5.920000000000000000e+02,2.220000000000000000e+02,1.530000000000000000e+02,1.140000000000000000e+02,4.300000000000000000e+01,4.300000000000000000e+01,5.999999999999999778e-01,9.491083000000000000e+08
6.500000000000000000e+01,2.120000000000000000e+02,5.370000000000000000e+02,2.140000000000000000e+02,1.700000000000000000e+02,2.410000000000000000e+02,4.300000000000000000e+01,4.200000000000000000e+01,5.799999999999999600e-01,9.649429000000000000e+08
6.600000000000000000e+01,2.010000000000000000e+02,5.480000000000000000e+02,1.990000000000000000e+02,1.690000000000000000e+02,2.450000000000000000e+02,4.200000000000000000e+01,5.200000000000000000e+01,5.600000000000000533e-01,9.811206000000000000e+08
6.000000000000000000e+01,1.830000000000000000e+02,5.470000000000000000e+02,1.920000000000000000e+02,1.680000000000000000e+02,2.700000000000000000e+02,3.800000000000000000e+01,9.200000000000000000e+01,5.400000000000000355e-01,9.969552000000000000e+08
8.300000000000000000e+01,1.920000000000000000e+02,5.010000000000000000e+02,1.930000000000000000e+02,1.550000000000000000e+02,2.920000000000000000e+02,8.300000000000000000e+01,2.720000000000000000e+02,5.200000000000000178e-01,1.034909600000000000e+09
9.500000000000000000e+01,1.950000000000000000e+02,4.990000000000000000e+02,1.790000000000000000e+02,1.370000000000000000e+02,2.980000000000000000e+02,9.100000000000000000e+01,2.860000000000000000e+02,4.899999999999999911e-01,1.053085800000000000e+09
9.800000000000000000e+01,1.930000000000000000e+02,6.100000000000000000e+02,1.770000000000000000e+02,1.290000000000000000e+02,2.110000000000000000e+02,9.700000000000000000e+01,2.920000000000000000e+02,4.799999999999999822e-01,1.070453900000000000e+09
1.000000000000000000e+02,1.860000000000000000e+02,5.600000000000000000e+02,1.570000000000000000e+02,1.750000000000000000e+02,3.230000000000000000e+02,1.050000000000000000e+02,3.260000000000000000e+02,4.500000000000000111e-01,1.087077900000000000e+09
1.070000000000000000e+02,1.850000000000000000e+02,6.060000000000000000e+02,1.870000000000000000e+02,2.090000000000000000e+02,3.300000000000000000e+02,1.260000000000000000e+02,3.840000000000000000e+02,4.299999999999999933e-01,1.103053400000000000e+09
9.800000000000000000e+01,1.990000000000000000e+02,6.930000000000000000e+02,2.620000000000000000e+02,2.480000000000000000e+02,3.370000000000000000e+02,1.130000000000000000e+02,3.020000000000000000e+02,4.000000000000000222e-01,1.119321700000000000e+09
9.200000000000000000e+01,2.140000000000000000e+02,7.490000000000000000e+02,2.860000000000000000e+02,2.800000000000000000e+02,3.450000000000000000e+02,1.150000000000000000e+02,2.890000000000000000e+02,3.800000000000000044e-01,1.135534800000000000e+09
8.700000000000000000e+01,1.970000000000000000e+02,8.140000000000000000e+02,2.800000000000000000e+02,3.500000000000000000e+02,3.850000000000000000e+02,1.230000000000000000e+02,2.860000000000000000e+02,3.499999999999999778e-01,1.151538800000000000e+09
8.100000000000000000e+01,2.150000000000000000e+02,8.910000000000000000e+02,2.850000000000000000e+02,3.500000000000000000e+02,3.070000000000000000e+02,1.180000000000000000e+02,2.450000000000000000e+02,3.099999999999999978e-01,1.167479000000000000e+09
7.700000000000000000e+01,2.140000000000000000e+02,9.170000000000000000e+02,2.660000000000000000e+02,3.300000000000000000e+02,2.820000000000000000e+02,9.800000000000000000e+01,1.350000000000000000e+02,2.800000000000000266e-01,1.183426700000000000e+09
7.400000000000000000e+01,2.070000000000000000e+02,9.770000000000000000e+02,2.100000000000000000e+02,3.040000000000000000e+02,2.750000000000000000e+02,9.400000000000000000e+01,1.020000000000000000e+02,2.500000000000000000e-01,1.199424100000000000e+09
9.400000000000000000e+01,1.950000000000000000e+02,1.022000000000000000e+03,1.970000000000000000e+02,2.720000000000000000e+02,2.670000000000000000e+02,9.600000000000000000e+01,1.100000000000000000e+02,2.200000000000000011e-01,1.215758300000000000e+09
1.040000000000000000e+02,2.140000000000000000e+02,1.018000000000000000e+03,2.350000000000000000e+02,1.730000000000000000e+02,2.170000000000000000e+02,9.000000000000000000e+01,1.070000000000000000e+02,2.000000000000000111e-01,1.232325500000000000e+09
1.080000000000000000e+02,2.050000000000000000e+02,1.007000000000000000e+03,2.510000000000000000e+02,1.310000000000000000e+02,2.090000000000000000e+02,9.400000000000000000e+01,1.100000000000000000e+02,1.900000000000000022e-01,1.251946600000000000e+09
1.150000000000000000e+02,2.100000000000000000e+02,1.062000000000000000e+03,2.660000000000000000e+02,1.270000000000000000e+02,2.040000000000000000e+02,9.400000000000000000e+01,8.500000000000000000e+01,1.799999999999999933e-01,1.272473300000000000e+09
1.110000000000000000e+02,1.970000000000000000e+02,1.003000000000000000e+03,2.680000000000000000e+02,1.190000000000000000e+02,1.680000000000000000e+02,8.600000000000000000e+01,7.700000000000000000e+01,1.700000000000000122e-01,1.289252300000000000e+09
1.020000000000000000e+02,2.170000000000000000e+02,1.000000000000000000e+03,2.790000000000000000e+02,1.130000000000000000e+02,1.490000000000000000e+02,7.600000000000000000e+01,6.500000000000000000e+01,1.799999999999999933e-01,1.305608700000000000e+09
9.900000000000000000e+01,2.150000000000000000e+02,9.650000000000000000e+02,2.790000000000000000e+02,9.600000000000000000e+01,1.610000000000000000e+02,8.200000000000000000e+01,6.500000000000000000e+01,1.799999999999999933e-01,1.323464300000000000e+09
1.050000000000000000e+02,2.430000000000000000e+02,9.010000000000000000e+02,3.050000000000000000e+02,1.020000000000000000e+02,1.630000000000000000e+02,7.900000000000000000e+01,6.500000000000000000e+01,2.000000000000000111e-01,1.339595600000000000e+09
9.600000000000000000e+01,2.430000000000000000e+02,8.130000000000000000e+02,2.990000000000000000e+02,1.060000000000000000e+02,2.630000000000000000e+02,1.250000000000000000e+02,9.000000000000000000e+01,2.200000000000000011e-01,1.355337300000000000e+09
9.900000000000000000e+01,2.380000000000000000e+02,7.830000000000000000e+02,2.880000000000000000e+02,1.100000000000000000e+02,3.520000000000000000e+02,1.560000000000000000e+02,2.190000000000000000e+02,2.399999999999999911e-01,1.372149900000000000e+09
1.090000000000000000e+02,2.100000000000000000e+02,6.860000000000000000e+02,2.570000000000000000e+02,1.120000000000000000e+02,4.430000000000000000e+02,2.120000000000000000e+02,3.770000000000000000e+02,2.700000000000000178e-01,1.388691100000000000e+09
1.120000000000000000e+02,1.990000000000000000e+02,6.400000000000000000e+02,2.400000000000000000e+02,1.100000000000000000e+02,4.630000000000000000e+02,2.420000000000000000e+02,4.190000000000000000e+02,2.899999999999999800e-01,1.405119800000000000e+09
1.080000000000000000e+02,1.430000000000000000e+02,6.600000000000000000e+02,1.810000000000000000e+02,9.700000000000000000e+01,5.130000000000000000e+02,4.500000000000000000e+02,4.890000000000000000e+02,2.999999999999999889e-01,1.421593900000000000e+09
1.170000000000000000e+02,1.410000000000000000e+02,6.120000000000000000e+02,1.830000000000000000e+02,1.060000000000000000e+02,5.930000000000000000e+02,5.730000000000000000e+02,5.350000000000000000e+02,3.099999999999999978e-01,1.438539100000000000e+09
1.200000000000000000e+02,1.420000000000000000e+02,6.160000000000000000e+02,1.740000000000000000e+02,1.100000000000000000e+02,6.310000000000000000e+02,6.460000000000000000e+02,6.050000000000000000e+02,3.200000000000000067e-01,1.454803500000000000e+09
1.210000000000000000e+02,1.290000000000000000e+02,5.770000000000000000e+02,1.660000000000000000e+02,1.020000000000000000e+02,6.730000000000000000e+02,7.850000000000000000e+02,6.560000000000000000e+02,3.200000000000000067e-01,1.471240500000000000e+09
1.470000000000000000e+02,1.590000000000000000e+02,5.560000000000000000e+02,1.380000000000000000e+02,1.100000000000000000e+02,7.090000000000000000e+02,8.340000000000000000e+02,7.320000000000000000e+02,3.300000000000000155e-01,1.487403700000000000e+09
1.600000000000000000e+02,2.210000000000000000e+02,5.170000000000000000e+02,1.490000000000000000e+02,1.100000000000000000e+02,7.040000000000000000e+02,7.780000000000000000e+02,8.220000000000000000e+02,3.400000000000000244e-01,1.503329200000000000e+09
1.620000000000000000e+02,2.310000000000000000e+02,4.830000000000000000e+02,1.260000000000000000e+02,1.030000000000000000e+02,6.420000000000000000e+02,7.060000000000000000e+02,8.310000000000000000e+02,3.400000000000000244e-01,1.519440600000000000e+09
1.850000000000000000e+02,2.630000000000000000e+02,3.930000000000000000e+02,1.250000000000000000e+02,1.020000000000000000e+02,6.130000000000000000e+02,7.150000000000000000e+02,8.140000000000000000e+02,3.400000000000000244e-01,1.535558000000000000e+09
2.200000000000000000e+02,3.180000000000000000e+02,3.640000000000000000e+02,1.250000000000000000e+02,9.600000000000000000e+01,5.060000000000000000e+02,6.610000000000000000e+02,8.240000000000000000e+02,3.400000000000000244e-01,1.551526200000000000e+09
2.090000000000000000e+02,3.550000000000000000e+02,2.720000000000000000e+02,1.260000000000000000e+02,8.400000000000000000e+01,4.610000000000000000e+02,6.370000000000000000e+02,7.600000000000000000e+02,3.400000000000000244e-01,1.567627300000000000e+09
2.040000000000000000e+02,3.210000000000000000e+02,2.850000000000000000e+02,1.210000000000000000e+02,8.100000000000000000e+01,4.500000000000000000e+02,6.530000000000000000e+02,6.650000000000000000e+02,3.400000000000000244e-01,1.584159700000000000e+09
2.080000000000000000e+02,3.150000000000000000e+02,3.130000000000000000e+02,1.110000000000000000e+02,7.000000000000000000e+01,4.040000000000000000e+02,6.480000000000000000e+02,6.540000000000000000e+02,3.499999999999999778e-01,1.600575900000000000e+09
1.880000000000000000e+02,2.910000000000000000e+02,3.260000000000000000e+02,1.050000000000000000e+02,5.300000000000000000e+01,3.270000000000000000e+02,6.040000000000000000e+02,6.160000000000000000e+02,3.599999999999999867e-01,1.617397100000000000e+09
1.330000000000000000e+02,2.320000000000000000e+02,3.290000000000000000e+02,1.020000000000000000e+02,5.500000000000000000e+01,3.360000000000000000e+02,5.510000000000000000e+02,5.290000000000000000e+02,3.699999999999999956e-01,1.633427800000000000e+09
1.300000000000000000e+02,1.730000000000000000e+02,4.240000000000000000e+02,9.300000000000000000e+01,5.200000000000000000e+01,3.090000000000000000e+02,5.010000000000000000e+02,5.370000000000000000e+02,3.699999999999999956e-01,1.651680600000000000e+09
1.330000000000000000e+02,1.730000000000000000e+02,4.040000000000000000e+02,7.200000000000000000e+01,4.500000000000000000e+01,2.670000000000000000e+02,4.890000000000000000e+02,5.280000000000000000e+02,3.699999999999999956e-01,1.668205600000000000e+09
1.240000000000000000e+02,2.210000000000000000e+02,4.130000000000000000e+02,1.440000000000000000e+02,5.800000000000000000e+01,2.560000000000000000e+02,4.810000000000000000e+02,4.850000000000000000e+02,3.800000000000000044e-01,1.684434700000000000e+09
1.400000000000000000e+02,2.620000000000000000e+02,5.600000000000000000e+02,2.670000000000000000e+02,8.700000000000000000e+01,2.500000000000000000e+02,4.230000000000000000e+02,4.430000000000000000e+02,3.800000000000000044e-01,1.701222200000000000e+09
1.410000000000000000e+02,2.690000000000000000e+02,5.650000000000000000e+02,2.960000000000000000e+02,8.900000000000000000e+01,2.120000000000000000e+02,3.400000000000000000e+02,3.560000000000000000e+02,3.900000000000000133e-01,1.717516800000000000e+09
1.290000000000000000e+02,2.410000000000000000e+02,4.870000000000000000e+02,2.940000000000000000e+02,8.900000000000000000e+01,1.780000000000000000e+02,3.800000000000000000e+02,3.000000000000000000e+02,4.000000000000000222e-01,1.734172200000000000e+09
1.150000000000000000e+02,2.430000000000000000e+02,4.850000000000000000e+02,2.950000000000000000e+02,9.000000000000000000e+01,1.450000000000000000e+02,3.070000000000000000e+02,1.910000000000000000e+02,4.099999999999999756e-01,1.750318600000000000e+09
1.070000000000000000e+02,1.950000000000000000e+02,4.500000000000000000e+02,2.670000000000000000e+02,8.300000000000000000e+01,1.270000000000000000e+02,2.890000000000000000e+02,1.910000000000000000e+02,4.199999999999999845e-01,1.766569500000000000e+09
7.200000000000000000e+01,1.230000000000000000e+02,3.130000000000000000e+02,1.440000000000000000e+02,5.000000000000000000e+01,1.040000000000000000e+02,2.940000000000000000e+02,1.840000000000000000e+02,4.299999999999999933e-01,1.783813200000000000e+09
7.000000000000000000e+01,1.030000000000000000e+02,4.030000000000000000e+02,9.700000000000000000e+01,4.900000000000000000e+01,1.070000000000000000e+02,2.970000000000000000e+02,1.730000000000000000e+02,4.400000000000000022e-01,1.800634100000000000e+09
6.800000000000000000e+01,1.000000000000000000e+02,4.320000000000000000e+02,9.600000000000000000e+01,4.600000000000000000e+01,7.700000000000000000e+01,2.370000000000000000e+02,1.460000000000000000e+02,4.500000000000000111e-01,1.817138400000000000e+09
6.600000000000000000e+01,1.070000000000000000e+02,4.600000000000000000e+02,9.700000000000000000e+01,4.200000000000000000e+01,9.600000000000000000e+01,2.310000000000000000e+02,1.440000000000000000e+02,4.699999999999999734e-01,1.833145800000000000e+09
6.500000000000000000e+01,1.060000000000000000e+02,4.750000000000000000e+02,9.600000000000000000e+01,4.400000000000000000e+01,9.800000000000000000e+01,2.670000000000000000e+02,1.240000000000000000e+02,4.799999999999999822e-01,1.849189100000000000e+09
6.500000000000000000e+01,1.120000000000000000e+02,4.230000000000000000e+02,1.110000000000000000e+02,4.600000000000000000e+01,1.000000000000000000e+02,2.860000000000000000e+02,1.300000000000000000e+02,4.899999999999999911e-01,1.866418000000000000e+09
6.000000000000000000e+01,1.110000000000000000e+02,3.510000000000000000e+02,1.020000000000000000e+02,4.000000000000000000e+01,9.600000000000000000e+01,2.520000000000000000e+02,1.380000000000000000e+02,5.100000000000000089e-01,1.883154200000000000e+09
5.900000000000000000e+01,1.210000000000000000e+02,4.110000000000000000e+02,1.100000000000000000e+02,4.300000000000000000e+01,1.010000000000000000e+02,2.520000000000000000e+02,1.420000000000000000e+02,5.200000000000000178e-01,1.899534300000000000e+09
5.600000000000000000e+01,1.170000000000000000e+02,4.110000000000000000e+02,1.190000000000000000e+02,4.000000000000000000e+01,6.900000000000000000e+01,2.590000000000000000e+02,1.320000000000000000e+02,5.200000000000000178e-01,1.915422300000000000e+09
6.800000000000000000e+01,1.180000000000000000e+02,4.300000000000000000e+02,1.370000000000000000e+02,4.600000000000000000e+01,7.700000000000000000e+01,2.940000000000000000e+02,1.380000000000000000e+02,5.300000000000000266e-01,1.931600900000000000e+09
6.800000000000000000e+01,1.150000000000000000e+02,4.350000000000000000e+02,1.250000000000000000e+02,4.200000000000000000e+01,7.500000000000000000e+01,3.090000000000000000e+02,1.340000000000000000e+02,5.300000000000000266e-01,1.948249400000000000e+09
6.500000000000000000e+01,1.100000000000000000e+02,4.460000000000000000e+02,1.160000000000000000e+02,4.200000000000000000e+01,7.000000000000000000e+01,3.070000000000000000e+02,1.170000000000000000e+02,5.300000000000000266e-01,1.964641700000000000e+09
6.400000000000000000e+01,9.200000000000000000e+01,3.590000000000000000e+02,1.220000000000000000e+02,4.100000000000000000e+01,5.900000000000000000e+01,2.950000000000000000e+02,1.100000000000000000e+02,5.400000000000000355e-01,1.980997900000000000e+09
6.200000000000000000e+01,7.800000000000000000e+01,3.220000000000000000e+02,1.310000000000000000e+02,4.300000000000000000e+01,5.900000000000000000e+01,2.700000000000000000e+02,1.030000000000000000e+02,5.400000000000000355e-01,1.997544700000000000e+09
5.400000000000000000e+01,8.300000000000000000e+01,3.410000000000000000e+02,1.380000000000000000e+02,4.400000000000000000e+01,4.900000000000000000e+01,1.810000000000000000e+02,8.500000000000000000e+01,5.500000000000000444e-01,2.014088300000000000e+09
5.200000000000000000e+01,1.020000000000000000e+02,3.400000000000000000e+02,1.390000000000000000e+02,4.500000000000000000e+01,4.800000000000000000e+01,1.180000000000000000e+02,8.700000000000000000e+01,5.600000000000000533e-01,2.030446000000000000e+09
5.500000000000000000e+01,1.050000000000000000e+02,3.140000000000000000e+02,1.340000000000000000e+02,4.700000000000000000e+01,5.100000000000000000e+01,1.290000000000000000e+02,9.000000000000000000e+01,5.600000000000000533e-01,2.047530600000000000e+09
5.200000000000000000e+01,1.130000000000000000e+02,3.950000000000000000e+02,1.270000000000000000e+02,4.600000000000000000e+01,4.800000000000000000e+01,1.280000000000000000e+02,8.900000000000000000e+01,5.600000000000000533e-01,2.065091600000000000e+09
4.900000000000000000e+01,1.190000000000000000e+02,4.700000000000000000e+02,1.090000000000000000e+02,4.500000000000000000e+01,4.600000000000000000e+01,1.320000000000000000e+02,8.700000000000000000e+01,5.699999999999999512e-01,2.081955000000000000e+09
4.600000000000000000e+01,1.240000000000000000e+02,4.660000000000000000e+02,8.800000000000000000e+01,4.000000000000000000e+01,4.600000000000000000e+01,1.450000000000000000e+02,7.800000000000000000e+01,5.699999999999999512e-01,2.098681800000000000e+09
4.300000000000000000e+01,1.090000000000000000e+02,4.670000000000000000e+02,8.500000000000000000e+01,3.700000000000000000e+01,4.100000000000000000e+01,1.470000000000000000e+02,6.200000000000000000e+01,5.699999999999999512e-01,2.116267100000000000e+09
4.300000000000000000e+01,1.180000000000000000e+02,4.620000000000000000e+02,8.800000000000000000e+01,3.600000000000000000e+01,4.300000000000000000e+01,1.510000000000000000e+02,6.400000000000000000e+01,5.699999999999999512e-01,2.134650100000000000e+09
4.500000000000000000e+01,1.140000000000000000e+02,3.980000000000000000e+02,8.000000000000000000e+01,3.700000000000000000e+01,4.700000000000000000e+01,1.510000000000000000e+02,7.700000000000000000e+01,5.799999999999999600e-01,2.151780700000000000e+09
4.600000000000000000e+01,1.110000000000000000e+02,3.520000000000000000e+02,9.100000000000000000e+01,3.500000000000000000e+01,4.600000000000000000e+01,1.480000000000000000e+02,7.800000000000000000e+01,5.799999999999999600e-01,2.168895200000000000e+09
4.000000000000000000e+01,9.300000000000000000e+01,3.700000000000000000e+02,9.200000000000000000e+01,3.700000000000000000e+01,4.600000000000000000e+01,1.330000000000000000e+02,8.000000000000000000e+01,5.799999999999999600e-01,2.186684100000000000e+09
5.000000000000000000e+01,1.020000000000000000e+02,4.010000000000000000e+02,1.130000000000000000e+02,4.600000000000000000e+01,5.400000000000000000e+01,1.300000000000000000e+02,8.400000000000000000e+01,5.799999999999999600e-01,2.203552100000000000e+09
4.600000000000000000e+01,8.300000000000000000e+01,4.210000000000000000e+02,1.110000000000000000e+02,5.200000000000000000e+01,5.400000000000000000e+01,1.280000000000000000e+02,9.000000000000000000e+01,5.799999999999999600e-01,2.221433300000000000e+09
4.300000000000000000e+01,8.200000000000000000e+01,4.460000000000000000e+02,1.130000000000000000e+02,5.000000000000000000e+01,4.900000000000000000e+01,1.670000000000000000e+02,7.200000000000000000e+01,5.799999999999999600e-01,2.240621700000000000e+09
4.500000000000000000e+01,7.900000000000000000e+01,4.210000000000000000e+02,1.050000000000000000e+02,5.400000000000000000e+01,5.800000000000000000e+01,1.920000000000000000e+02,7.100000000000000000e+01,5.799999999999999600e-01,2.258371200000000000e+09
4.900000000000000000e+01,9.800000000000000000e+01,3.570000000000000000e+02,1.280000000000000000e+02,5.500000000000000000e+01,5.700000000000000000e+01,2.090000000000000000e+02,6.800000000000000000e+01,5.799999999999999600e-01,2.277638300000000000e+09
4.200000000000000000e+01,9.700000000000000000e+01,3.730000000000000000e+02,1.170000000000000000e+02,4.900000000000000000e+01,5.100000000000000000e+01,1.960000000000000000e+02,6.200000000000000000e+01,5.899999999999999689e-01,2.296984900000000000e+09
4.600000000000000000e+01,9.700000000000000000e+01,3.690000000000000000e+02,1.270000000000000000e+02,4.600000000000000000e+01,5.400000000000000000e+01,1.860000000000000000e+02,4.300000000000000000e+01,5.899999999999999689e-01,2.315953000000000000e+09
5.000000000000000000e+01,1.050000000000000000e+02,3.720000000000000000e+02,1.290000000000000000e+02,4.700000000000000000e+01,5.500000000000000000e+01,1.470000000000000000e+02,4.400000000000000000e+01,5.899999999999999689e-01,2.333967900000000000e+09
4.900000000000000000e+01,1.020000000000000000e+02,3.900000000000000000e+02,1.260000000000000000e+02,4.400000000000000000e+01,4.500000000000000000e+01,1.210000000000000000e+02,4.900000000000000000e+01,5.899999999999999689e-01,2.352520500000000000e+09
5.000000000000000000e+01,9.300000000000000000e+01,4.470000000000000000e+02,1.060000000000000000e+02,3.900000000000000000e+01,4.500000000000000000e+01,1.020000000000000000e+02,5.700000000000000000e+01,5.999999999999999778e-01,2.372010500000000000e+09
4.800000000000000000e+01,8.200000000000000000e+01,4.000000000000000000e+02,1.040000000000000000e+02,4.000000000000000000e+01,4.400000000000000000e+01,1.080000000000000000e+02,5.800000000000000000e+01,5.999999999999999778e-01,2.394338100000000000e+09
4.700000000000000000e+01,8.300000000000000000e+01,4.020000000000000000e+02,1.030000000000000000e+02,4.300000000000000000e+01,4.000000000000000000e+01,1.080000000000000000e+02,5.700000000000000000e+01,5.999999999999999778e-01,2.414874400000000000e+09
4.300000000000000000e+01,7.300000000000000000e+01,3.760000000000000000e+02,1.000000000000000000e+02,4.200000000000000000e+01,3.800000000000000000e+01,1.070000000000000000e+02,5.300000000000000000e+01,5.999999999999999778e-01,2.438804600000000000e+09
4.200000000000000000e+01,8.200000000000000000e+01,3.800000000000000000e+02,1.360000000000000000e+02,4.400000000000000000e+01,4.300000000000000000e+01,1.000000000000000000e+02,5.000000000000000000e+01,5.999999999999999778e-01,2.460507900000000000e+09
3.900000000000000000e+01,8.000000000000000000e+01,3.240000000000000000e+02,1.410000000000000000e+02,5.200000000000000000e+01,4.900000000000000000e+01,8.800000000000000000e+01,4.100000000000000000e+01,6.099999999999999867e-01,2.480968000000000000e+09
4.000000000000000000e+01,8.400000000000000000e+01,3.280000000000000000e+02,1.380000000000000000e+02,5.300000000000000000e+01,5.000000000000000000e+01,1.200000000000000000e+02,4.200000000000000000e+01,6.099999999999999867e-01,2.500791000000000000e+09
4.300000000000000000e+01,9.800000000000000000e+01,3.070000000000000000e+02,1.470000000000000000e+02,5.700000000000000000e+01,5.600000000000000000e+01,1.170000000000000000e+02,4.300000000000000000e+01,6.099999999999999867e-01,2.522993800000000000e+09
4.400000000000000000e+01,9.700000000000000000e+01,3.030000000000000000e+02,1.480000000000000000e+02,6.000000000000000000e+01,6.200000000000000000e+01,1.170000000000000000e+02,4.000000000000000000e+01,6.099999999999999867e-01,2.544021000000000000e+09
4.900000000000000000e+01,1.000000000000000000e+02,3.100000000000000000e+02,1.200000000000000000e+02,6.600000000000000000e+01,6.600000000000000000e+01,1.120000000000000000e+02,3.600000000000000000e+01,6.099999999999999867e-01,2.562396300000000000e+09
4.300000000000000000e+01,9.300000000000000000e+01,2.990000000000000000e+02,1.000000000000000000e+02,5.900000000000000000e+01,6.100000000000000000e+01,1.240000000000000000e+02,3.300000000000000000e+01,6.099999999999999867e-01,2.582418900000000000e+09
4.700000000000000000e+01,1.120000000000000000e+02,3.290000000000000000e+02,1.030000000000000000e+02,5.800000000000000000e+01,6.000000000000000000e+01,8.400000000000000000e+01,3.100000000000000000e+01,6.099999999999999867e-01,2.600856800000000000e+09
4.500000000000000000e+01,1.080000000000000000e+02,3.480000000000000000e+02,9.700000000000000000e+01,5.300000000000000000e+01,5.300000000000000000e+01,8.300000000000000000e+01,3.800000000000000000e+01,6.099999999999999867e-01,2.622449600000000000e+09
4.500000000000000000e+01,1.110000000000000000e+02,3.310000000000000000e+02,1.130000000000000000e+02,6.000000000000000000e+01,5.700000000000000000e+01,8.000000000000000000e+01,3.800000000000000000e+01,6.099999999999999867e-01,2.640988100000000000e+09
4.400000000000000000e+01,1.070000000000000000e+02,3.140000000000000000e+02,1.130000000000000000e+02,5.500000000000000000e+01,5.200000000000000000e+01,7.800000000000000000e+01,3.900000000000000000e+01,5.999999999999999778e-01,2.661489000000000000e+09
4.800000000000000000e+01,1.070000000000000000e+02,3.330000000000000000e+02,1.140000000000000000e+02,5.900000000000000000e+01,5.200000000000000000e+01,5.100000000000000000e+01,3.900000000000000000e+01,5.999999999999999778e-01,2.680481700000000000e+09
4.300000000000000000e+01,8.300000000000000000e+01,3.020000000000000000e+02,1.270000000000000000e+02,5.800000000000000000e+01,5.500000000000000000e+01,4.300000000000000000e+01,3.900000000000000000e+01,5.999999999999999778e-01,2.699629400000000000e+09
4.100000000000000000e+01,7.600000000000000000e+01,3.140000000000000000e+02,1.280000000000000000e+02,5.600000000000000000e+01,5.500000000000000000e+01,3.900000000000000000e+01,3.200000000000000000e+01,5.999999999999999778e-01,2.718529700000000000e+09
3.900000000000000000e+01,7.400000000000000000e+01,3.940000000000000000e+02,1.210000000000000000e+02,4.600000000000000000e+01,4.300000000000000000e+01,4.600000000000000000e+01,3.200000000000000000e+01,5.999999999999999778e-01,2.738765300000000000e+09
3.500000000000000000e+01,8.200000000000000000e+01,4.210000000000000000e+02,1.270000000000000000e+02,4.300000000000000000e+01,3.900000000000000000e+01,5.200000000000000000e+01,3.000000000000000000e+01,5.999999999999999778e-01,2.759696200000000000e+09
3.000000000000000000e+01,8.700000000000000000e+01,4.310000000000000000e+02,1.460000000000000000e+02,3.800000000000000000e+01,3.500000000000000000e+01,6.200000000000000000e+01,3.000000000000000000e+01,6.099999999999999867e-01,2.780272300000000000e+09
3.300000000000000000e+01,8.900000000000000000e+01,4.560000000000000000e+02,1.480000000000000000e+02,5.100000000000000000e+01,4.000000000000000000e+01,6.600000000000000000e+01,3.000000000000000000e+01,6.099999999999999867e-01,2.800753100000000000e+09
3.200000000000000000e+01,8.700000000000000000e+01,4.520000000000000000e+02,1.360000000000000000e+02,5.500000000000000000e+01,3.800000000000000000e+01,6.700000000000000000e+01,2.600000000000000000e+01,6.099999999999999867e-01,2.820549200000000000e+09
4.100000000000000000e+01,9.300000000000000000e+01,3.970000000000000000e+02,1.330000000000000000e+02,5.800000000000000000e+01,4.300000000000000000e+01,6.200000000000000000e+01,4.300000000000000000e+01,6.199999999999999956e-01,2.839845500000000000e+09
4.200000000000000000e+01,8.500000000000000000e+01,3.660000000000000000e+02,1.360000000000000000e+02,6.100000000000000000e+01,4.700000000000000000e+01,5.700000000000000000e+01,4.300000000000000000e+01,6.199999999999999956e-01,2.860608900000000000e+09
4.400000000000000000e+01,8.100000000000000000e+01,4.030000000000000000e+02,1.250000000000000000e+02,7.100000000000000000e+01,6.900000000000000000e+01,4.300000000000000000e+01,4.300000000000000000e+01,6.199999999999999956e-01,2.879611200000000000e+09
4.400000000000000000e+01,8.300000000000000000e+01,3.820000000000000000e+02,1.120000000000000000e+02,6.500000000000000000e+01,7.100000000000000000e+01,3.400000000000000000e+01,4.500000000000000000e+01,6.199999999999999956e-01,2.900285100000000000e+09
5.000000000000000000e+01,1.050000000000000000e+02,3.580000000000000000e+02,1.370000000000000000e+02,6.600000000000000000e+01,7.500000000000000000e+01,3.000000000000000000e+01,4.500000000000000000e+01,6.199999999999999956e-01,2.919955400000000000e+09
4.300000000000000000e+01,1.010000000000000000e+02,3.470000000000000000e+02,1.360000000000000000e+02,6.400000000000000000e+01,7.500000000000000000e+01,2.800000000000000000e+01,2.900000000000000000e+01,6.199999999999999956e-01,2.940342700000000000e+09
4.400000000000000000e+01,1.000000000000000000e+02,3.410000000000000000e+02,1.350000000000000000e+02,5.900000000000000000e+01,7.300000000000000000e+01,2.800000000000000000e+01,2.800000000000000000e+01,6.199999999999999956e-01,2.959592300000000000e+09
4.600000000000000000e+01,9.900000000000000000e+01,2.840000000000000000e+02,1.330000000000000000e+02,5.200000000000000000e+01,5.300000000000000000e+01,2.800000000000000000e+01,2.800000000000000000e+01,6.199999999999999956e-01,2.977992100000000000e+09
4.200000000000000000e+01,9.100000000000000000e+01,2.830000000000000000e+02,1.350000000000000000e+02,5.000000000000000000e+01,4.600000000000000000e+01,2.900000000000000000e+01,2.500000000000000000e+01,6.199999999999999956e-01,2.998901100000000000e+09
3.500000000000000000e+01,6.700000000000000000e+01,3.080000000000000000e+02,1.220000000000000000e+02,4.800000000000000000e+01,4.500000000000000000e+01,3.100000000000000000e+01,2.800000000000000000e+01,6.199999999999999956e-01,3.018311700000000000e+09
3.700000000000000000e+01,7.500000000000000000e+01,3.730000000000000000e+02,1.200000000000000000e+02,4.400000000000000000e+01,4.200000000000000000e+01,2.800000000000000000e+01,2.900000000000000000e+01,6.199999999999999956e-01,3.038107500000000000e+09
3.900000000000000000e+01,7.200000000000000000e+01,3.580000000000000000e+02,1.100000000000000000e+02,4.900000000000000000e+01,4.100000000000000000e+01,2.800000000000000000e+01,3.100000000000000000e+01,6.199999999999999956e-01,3.057960400000000000e+09
3.700000000000000000e+01,7.300000000000000000e+01,3.430000000000000000e+02,1.030000000000000000e+02,4.800000000000000000e+01,4.200000000000000000e+01,3.300000000000000000e+01,3.000000000000000000e+01,6.199999999999999956e-01,3.078057700000000000e+09
4.000000000000000000e+01,7.500000000000000000e+01,3.530000000000000000e+02,1.000000000000000000e+02,4.900000000000000000e+01,4.100000000000000000e+01,3.300000000000000000e+01,2.900000000000000000e+01,6.199999999999999956e-01,3.098582400000000000e+09
3.900000000000000000e+01,7.700000000000000000e+01,3.740000000000000000e+02,8.300000000000000000e+01,4.600000000000000000e+01,4.100000000000000000e+01,3.200000000000000000e+01,2.500000000000000000e+01,6.199999999999999956e-01,3.119017800000000000e+09
3.600000000000000000e+01,6.500000000000000000e+01,3.140000000000000000e+02,8.600000000000000000e+01,4.900000000000000000e+01,4.200000000000000000e+01,3.300000000000000000e+01,2.300000000000000000e+01,6.199999999999999956e-01,3.137233100000000000e+09
3.000000000000000000e+01,6.700000000000000000e+01,3.090000000000000000e+02,8.400000000000000000e+01,4.400000000000000000e+01,4.000000000000000000e+01,3.200000000000000000e+01,2.000000000000000000e+01,6.199999999999999956e-01,3.156792600000000000e+09
2.800000000000000000e+01,7.100000000000000000e+01,3.370000000000000000e+02,8.600000000000000000e+01,3.800000000000000000e+01,3.600000000000000000e+01,2.900000000000000000e+01,2.200000000000000000e+01,6.199999999999999956e-01,3.177987400000000000e+09
2.800000000000000000e+01,8.800000000000000000e+01,3.230000000000000000e+02,9.200000000000000000e+01,3.900000000000000000e+01,3.800000000000000000e+01,3.200000000000000000e+01,2.300000000000000000e+01,6.099999999999999867e-01,3.197024600000000000e+09
2.800000000000000000e+01,8.100000000000000000e+01,3.100000000000000000e+02,9.400000000000000000e+01,3.800000000000000000e+01,3.200000000000000000e+01,3.300000000000000000e+01,2.300000000000000000e+01,6.099999999999999867e-01,3.216277000000000000e+09
2.900000000000000000e+01,8.000000000000000000e+01,2.980000000000000000e+02,8.900000000000000000e+01,4.000000000000000000e+01,4.300000000000000000e+01,3.400000000000000000e+01,2.500000000000000000e+01,6.099999999999999867e-01,3.236698900000000000e+09
3.100000000000000000e+01,8.200000000000000000e+01,2.900000000000000000e+02,8.200000000000000000e+01,4.000000000000000000e+01,4.600000000000000000e+01,3.600000000000000000e+01,2.500000000000000000e+01,5.999999999999999778e-01,3.257013000000000000e+09
3.300000000000000000e+01,7.800000000000000000e+01,3.260000000000000000e+02,1.000000000000000000e+02,4.300000000000000000e+01,5.200000000000000000e+01,3.500000000000000000e+01,2.500000000000000000e+01,5.999999999999999778e-01,3.276233200000000000e+09
3.000000000000000000e+01,7.000000000000000000e+01,3.790000000000000000e+02,1.020000000000000000e+02,4.400000000000000000e+01,5.000000000000000000e+01,3.200000000000000000e+01,2.400000000000000000e+01,5.999999999999999778e-01,3.294441000000000000e+09
3.000000000000000000e+01,6.900000000000000000e+01,4.020000000000000000e+02,1.010000000000000000e+02,5.200000000000000000e+01,5.600000000000000000e+01,3.200000000000000000e+01,2.600000000000000000e+01,5.999999999999999778e-01,3.313158800000000000e+09
2.800000000000000000e+01,6.900000000000000000e+01,4.040000000000000000e+02,1.020000000000000000e+02,5.100000000000000000e+01,4.700000000000000000e+01,2.900000000000000000e+01,2.400000000000000000e+01,5.999999999999999778e-01,3.332182300000000000e+09
3.200000000000000000e+01,6.300000000000000000e+01,4.190000000000000000e+02,1.170000000000000000e+02,5.200000000000000000e+01,4.800000000000000000e+01,2.600000000000000000e+01,2.400000000000000000e+01,6.099999999999999867e-01,3.352704300000000000e+09
3.900000000000000000e+01,7.400000000000000000e+01,4.050000000000000000e+02,1.070000000000000000e+02,5.600000000000000000e+01,4.400000000000000000e+01,2.600000000000000000e+01,2.400000000000000000e+01,6.099999999999999867e-01,3.374480700000000000e+09
3.900000000000000000e+01,6.600000000000000000e+01,3.600000000000000000e+02,1.080000000000000000e+02,6.200000000000000000e+01,4.800000000000000000e+01,2.700000000000000000e+01,2.500000000000000000e+01,6.099999999999999867e-01,3.395239800000000000e+09
3.800000000000000000e+01,6.700000000000000000e+01,3.040000000000000000e+02,1.210000000000000000e+02,5.700000000000000000e+01,4.300000000000000000e+01,2.400000000000000000e+01,2.300000000000000000e+01,6.099999999999999867e-01,3.414109100000000000e+09
4.500000000000000000e+01,9.000000000000000000e+01,3.520000000000000000e+02,1.400000000000000000e+02,5.600000000000000000e+01,4.300000000000000000e+01,2.500000000000000000e+01,2.500000000000000000e+01,6.099999999999999867e-01,3.433499600000000000e+09
4.400000000000000000e+01,9.300000000000000000e+01,3.730000000000000000e+02,1.340000000000000000e+02,5.600000000000000000e+01,4.000000000000000000e+01,2.600000000000000000e+01,2.600000000000000000e+01,6.199999999999999956e-01,3.452381800000000000e+09
3.900000000000000000e+01,8.900000000000000000e+01,4.640000000000000000e+02,1.380000000000000000e+02,5.600000000000000000e+01,4.700000000000000000e+01,2.800000000000000000e+01,2.500000000000000000e+01,6.199999999999999956e-01,3.472250000000000000e+09
4.000000000000000000e+01,8.800000000000000000e+01,4.990000000000000000e+02,1.570000000000000000e+02,5.100000000000000000e+01,4.400000000000000000e+01,2.600000000000000000e+01,2.300000000000000000e+01,6.199999999999999956e-01,3.496571200000000000e+09
3.900000000000000000e+01,8.900000000000000000e+01,5.250000000000000000e+02,1.460000000000000000e+02,4.800000000000000000e+01,4.200000000000000000e+01,2.400000000000000000e+01,2.200000000000000000e+01,6.300000000000000044e-01,3.515059700000000000e+09
4.700000000000000000e+01,8.900000000000000000e+01,5.220000000000000000e+02,1.510000000000000000e+02,5.700000000000000000e+01,5.100000000000000000e+01,2.800000000000000000e+01,2.500000000000000000e+01,6.300000000000000044e-01,3.534509500000000000e+09
4.700000000000000000e+01,9.200000000000000000e+01,5.110000000000000000e+02,1.570000000000000000e+02,5.900000000000000000e+01,5.400000000000000000e+01,2.700000000000000000e+01,2.400000000000000000e+01,6.300000000000000044e-01,3.553975400000000000e+09
4.600000000000000000e+01,9.100000000000000000e+01,4.640000000000000000e+02,2.010000000000000000e+02,5.900000000000000000e+01,5.200000000000000000e+01,2.500000000000000000e+01,2.300000000000000000e+01,6.300000000000000044e-01,3.573331400000000000e+09
4.900000000000000000e+01,9.200000000000000000e+01,4.370000000000000000e+02,1.930000000000000000e+02,5.500000000000000000e+01,5.200000000000000000e+01,2.500000000000000000e+01,2.700000000000000000e+01,6.400000000000000133e-01,3.591828600000000000e+09
5.300000000000000000e+01,9.300000000000000000e+01,4.100000000000000000e+02,1.940000000000000000e+02,5.800000000000000000e+01,5.400000000000000000e+01,2.700000000000000000e+01,2.900000000000000000e+01,6.400000000000000133e-01,3.610126000000000000e+09
4.800000000000000000e+01,9.700000000000000000e+01,4.400000000000000000e+02,2.050000000000000000e+02,5.200000000000000000e+01,5.500000000000000000e+01,2.300000000000000000e+01,2.700000000000000000e+01,6.500000000000000222e-01,3.630972500000000000e+09
6.000000000000000000e+01,1.220000000000000000e+02,5.460000000000000000e+02,2.480000000000000000e+02,6.000000000000000000e+01,6.600000000000000000e+01,2.600000000000000000e+01,3.500000000000000000e+01,6.500000000000000222e-01,3.650830700000000000e+09
6.800000000000000000e+01,1.510000000000000000e+02,5.910000000000000000e+02,2.230000000000000000e+02,6.300000000000000000e+01,7.200000000000000000e+01,2.600000000000000000e+01,4.100000000000000000e+01,6.500000000000000222e-01,3.669474000000000000e+09
6.800000000000000000e+01,1.630000000000000000e+02,6.060000000000000000e+02,2.130000000000000000e+02,6.500000000000000000e+01,7.400000000000000000e+01,2.600000000000000000e+01,3.900000000000000000e+01,6.500000000000000222e-01,3.690379500000000000e+09
6.700000000000000000e+01,1.670000000000000000e+02,6.340000000000000000e+02,2.140000000000000000e+02,6.600000000000000000e+01,7.500000000000000000e+01,2.500000000000000000e+01,3.900000000000000000e+01,6.500000000000000222e-01,3.709441800000000000e+09
6.200000000000000000e+01,1.610000000000000000e+02,6.470000000000000000e+02,2.020000000000000000e+02,6.600000000000000000e+01,7.200000000000000000e+01,2.600000000000000000e+01,3.700000000000000000e+01,6.500000000000000222e-01,3.731894100000000000e+09
6.200000000000000000e+01,1.520000000000000000e+02,5.820000000000000000e+02,1.700000000000000000e+02,6.300000000000000000e+01,7.200000000000000000e+01,2.400000000000000000e+01,3.400000000000000000e+01,6.500000000000000222e-01,3.753205900000000000e+09
5.300000000000000000e+01,1.280000000000000000e+02,5.540000000000000000e+02,1.660000000000000000e+02,5.900000000000000000e+01,6.400000000000000000e+01,2.300000000000000000e+01,2.800000000000000000e+01,6.500000000000000222e-01,3.772307600000000000e+09
5.300000000000000000e+01,1.230000000000000000e+02,5.980000000000000000e+02,1.780000000000000000e+02,5.900000000000000000e+01,6.200000000000000000e+01,2.400000000000000000e+01,3.000000000000000000e+01,6.500000000000000222e-01,3.792734500000000000e+09
5.600000000000000000e+01,1.220000000000000000e+02,5.820000000000000000e+02,1.920000000000000000e+02,5.900000000000000000e+01,6.800000000000000000e+01,2.600000000000000000e+01,3.100000000000000000e+01,6.500000000000000222e-01,3.811482500000000000e+09
6.900000000000000000e+01,1.340000000000000000e+02,6.070000000000000000e+02,1.880000000000000000e+02,6.100000000000000000e+01,7.100000000000000000e+01,2.800000000000000000e+01,3.700000000000000000e+01,6.400000000000000133e-01,3.830083200000000000e+09
6.800000000000000000e+01,1.420000000000000000e+02,6.970000000000000000e+02,1.820000000000000000e+02,5.800000000000000000e+01,6.000000000000000000e+01,2.900000000000000000e+01,3.600000000000000000e+01,6.400000000000000133e-01,3.850475700000000000e+09
7.200000000000000000e+01,1.400000000000000000e+02,6.810000000000000000e+02,1.820000000000000000e+02,5.900000000000000000e+01,6.400000000000000000e+01,3.000000000000000000e+01,3.600000000000000000e+01,6.400000000000000133e-01,3.871392700000000000e+09
7.300000000000000000e+01,1.420000000000000000e+02,6.800000000000000000e+02,1.930000000000000000e+02,6.200000000000000000e+01,6.500000000000000000e+01,3.300000000000000000e+01,3.600000000000000000e+01,6.300000000000000044e-01,3.892734500000000000e+09
7.400000000000000000e+01,1.480000000000000000e+02,7.490000000000000000e+02,1.820000000000000000e+02,6.300000000000000000e+01,6.800000000000000000e+01,4.600000000000000000e+01,3.500000000000000000e+01,6.300000000000000044e-01,3.912401100000000000e+09
6.500000000000000000e+01,1.320000000000000000e+02,7.060000000000000000e+02,2.050000000000000000e+02,6.300000000000000000e+01,7.500000000000000000e+01,4.500000000000000000e+01,3.000000000000000000e+01,6.300000000000000044e-01,3.932012900000000000e+09
6.000000000000000000e+01,1.110000000000000000e+02,6.400000000000000000e+02,2.040000000000000000e+02,7.200000000000000000e+01,8.200000000000000000e+01,4.600000000000000000e+01,3.000000000000000000e+01,6.199999999999999956e-01,3.951264000000000000e+09
5.700000000000000000e+01,1.170000000000000000e+02,6.980000000000000000e+02,2.030000000000000000e+02,7.500000000000000000e+01,8.600000000000000000e+01,5.300000000000000000e+01,3.400000000000000000e+01,6.199999999999999956e-01,3.971120400000000000e+09
5.900000000000000000e+01,1.120000000000000000e+02,7.450000000000000000e+02,2.050000000000000000e+02,7.500000000000000000e+01,9.000000000000000000e+01,5.300000000000000000e+01,3.400000000000000000e+01,6.099999999999999867e-01,3.992972700000000000e+09
6.400000000000000000e+01,1.240000000000000000e+02,8.600000000000000000e+02,2.450000000000000000e+02,7.200000000000000000e+01,8.700000000000000000e+01,4.400000000000000000e+01,3.500000000000000000e+01,5.999999999999999778e-01,4.012113900000000000e+09
8.600000000000000000e+01,1.530000000000000000e+02,8.950000000000000000e+02,2.370000000000000000e+02,8.600000000000000000e+01,9.200000000000000000e+01,4.500000000000000000e+01,4.300000000000000000e+01,5.899999999999999689e-01,4.032972200000000000e+09
9.300000000000000000e+01,1.660000000000000000e+02,8.750000000000000000e+02,2.390000000000000000e+02,8.000000000000000000e+01,8.700000000000000000e+01,4.400000000000000000e+01,4.400000000000000000e+01,5.699999999999999512e-01,4.054253100000000000e+09
9.500000000000000000e+01,1.710000000000000000e+02,8.170000000000000000e+02,2.580000000000000000e+02,7.600000000000000000e+01,8.200000000000000000e+01,3.400000000000000000e+01,4.200000000000000000e+01,5.699999999999999512e-01,4.072868700000000000e+09
9.500000000000000000e+01,1.790000000000000000e+02,8.270000000000000000e+02,2.540000000000000000e+02,7.500000000000000000e+01,7.900000000000000000e+01,3.300000000000000000e+01,4.200000000000000000e+01,5.600000000000000533e-01,4.092314300000000000e+09
8.900000000000000000e+01,1.720000000000000000e+02,6.900000000000000000e+02,2.330000000000000000e+02,7.700000000000000000e+01,7.400000000000000000e+01,3.100000000000000000e+01,4.200000000000000000e+01,5.500000000000000444e-01,4.112440500000000000e+09
7.700000000000000000e+01,1.530000000000000000e+02,7.910000000000000000e+02,2.830000000000000000e+02,5.800000000000000000e+01,5.500000000000000000e+01,3.000000000000000000e+01,3.400000000000000000e+01,5.600000000000000533e-01,4.133686400000000000e+09
7.600000000000000000e+01,1.510000000000000000e+02,8.950000000000000000e+02,3.070000000000000000e+02,5.200000000000000000e+01,5.700000000000000000e+01,3.400000000000000000e+01,3.900000000000000000e+01,5.500000000000000444e-01,4.152745600000000000e+09
9.300000000000000000e+01,1.680000000000000000e+02,1.014000000000000000e+03,3.370000000000000000e+02,8.300000000000000000e+01,7.100000000000000000e+01,3.800000000000000000e+01,5.000000000000000000e+01,5.400000000000000355e-01,4.171017500000000000e+09
1.060000000000000000e+02,1.920000000000000000e+02,1.051000000000000000e+03,3.570000000000000000e+02,9.400000000000000000e+01,7.200000000000000000e+01,3.600000000000000000e+01,5.200000000000000000e+01,5.400000000000000355e-01,4.196141700000000000e+09
1.100000000000000000e+02,2.000000000000000000e+02,1.085000000000000000e+03,3.470000000000000000e+02,9.800000000000000000e+01,7.100000000000000000e+01,3.800000000000000000e+01,5.600000000000000000e+01,5.300000000000000266e-01,4.214756300000000000e+09
1.110000000000000000e+02,2.000000000000000000e+02,1.011000000000000000e+03,3.260000000000000000e+02,1.110000000000000000e+02,8.000000000000000000e+01,3.800000000000000000e+01,5.900000000000000000e+01,5.200000000000000178e-01,4.234424100000000000e+09
1.030000000000000000e+02,1.950000000000000000e+02,9.780000000000000000e+02,3.200000000000000000e+02,1.100000000000000000e+02,7.500000000000000000e+01,3.400000000000000000e+01,5.400000000000000000e+01,5.200000000000000178e-01,4.256120800000000000e+09
9.400000000000000000e+01,1.820000000000000000e+02,9.300000000000000000e+02,2.740000000000000000e+02,9.100000000000000000e+01,6.200000000000000000e+01,3.000000000000000000e+01,4.500000000000000000e+01,5.100000000000000089e-01,4.275013800000000000e+09
8.600000000000000000e+01,1.740000000000000000e+02,8.950000000000000000e+02,2.830000000000000000e+02,8.100000000000000000e+01,6.300000000000000000e+01,3.100000000000000000e+01,4.600000000000000000e+01,5.100000000000000089e-01,4.293487800000000000e+09
8.800000000000000000e+01,1.980000000000000000e+02,8.410000000000000000e+02,3.220000000000000000e+02,8.100000000000000000e+01,6.800000000000000000e+01,3.200000000000000000e+01,4.200000000000000000e+01,5.100000000000000089e-01,4.313002200000000000e+09
8.700000000000000000e+01,2.220000000000000000e+02,8.570000000000000000e+02,3.540000000000000000e+02,7.100000000000000000e+01,6.400000000000000000e+01,3.300000000000000000e+01,4.000000000000000000e+01,5.000000000000000000e-01,4.333390200000000000e+09
1.100000000000000000e+02,2.380000000000000000e+02,8.270000000000000000e+02,3.910000000000000000e+02,1.050000000000000000e+02,8.300000000000000000e+01,3.800000000000000000e+01,5.300000000000000000e+01,4.899999999999999911e-01,4.352363500000000000e+09
1.040000000000000000e+02,2.330000000000000000e+02,7.800000000000000000e+02,3.940000000000000000e+02,1.060000000000000000e+02,8.300000000000000000e+01,3.700000000000000000e+01,5.300000000000000000e+01,4.899999999999999911e-01,4.374463500000000000e+09
1.060000000000000000e+02,2.290000000000000000e+02,8.160000000000000000e+02,3.630000000000000000e+02,1.040000000000000000e+02,8.200000000000000000e+01,3.700000000000000000e+01,5.000000000000000000e+01,4.899999999999999911e-01,4.394717500000000000e+09
1.050000000000000000e+02,2.150000000000000000e+02,8.550000000000000000e+02,3.830000000000000000e+02,1.080000000000000000e+02,8.000000000000000000e+01,3.400000000000000000e+01,7.100000000000000000e+01,4.899999999999999911e-01,4.414834500000000000e+09
1.000000000000000000e+02,2.120000000000000000e+02,8.440000000000000000e+02,3.540000000000000000e+02,1.030000000000000000e+02,7.400000000000000000e+01,3.400000000000000000e+01,7.200000000000000000e+01,4.899999999999999911e-01,4.434122600000000000e+09
7.800000000000000000e+01,1.920000000000000000e+02,8.670000000000000000e+02,3.230000000000000000e+02,7.900000000000000000e+01,6.300000000000000000e+01,4.800000000000000000e+01,7.000000000000000000e+01,4.899999999999999911e-01,4.452333900000000000e+09
8.600000000000000000e+01,2.020000000000000000e+02,9.030000000000000000e+02,3.160000000000000000e+02,8.400000000000000000e+01,1.140000000000000000e+02,7.100000000000000000e+01,1.270000000000000000e+02,4.899999999999999911e-01,4.479036200000000000e+09
9.300000000000000000e+01,1.930000000000000000e+02,7.990000000000000000e+02,3.170000000000000000e+02,8.300000000000000000e+01,2.320000000000000000e+02,9.000000000000000000e+01,4.450000000000000000e+02,4.899999999999999911e-01,4.497151600000000000e+09
1.140000000000000000e+02,1.870000000000000000e+02,7.220000000000000000e+02,2.470000000000000000e+02,7.800000000000000000e+01,3.470000000000000000e+02,1.690000000000000000e+02,5.160000000000000000e+02,4.899999999999999911e-01,4.516226700000000000e+09
1.180000000000000000e+02,1.650000000000000000e+02,7.010000000000000000e+02,2.000000000000000000e+02,7.900000000000000000e+01,3.970000000000000000e+02,2.170000000000000000e+02,5.750000000000000000e+02,4.699999999999999734e-01,4.535649400000000000e+09
1.410000000000000000e+02,1.620000000000000000e+02,6.140000000000000000e+02,1.190000000000000000e+02,7.100000000000000000e+01,4.370000000000000000e+02,3.140000000000000000e+02,7.300000000000000000e+02,4.600000000000000200e-01,4.554913600000000000e+09
1.470000000000000000e+02,1.580000000000000000e+02,4.680000000000000000e+02,1.070000000000000000e+02,6.300000000000000000e+01,5.070000000000000000e+02,3.700000000000000000e+02,8.000000000000000000e+02,4.500000000000000111e-01,4.574950600000000000e+09
1.550000000000000000e+02,1.620000000000000000e+02,4.070000000000000000e+02,9.200000000000000000e+01,7.000000000000000000e+01,5.540000000000000000e+02,4.540000000000000000e+02,7.740000000000000000e+02,4.400000000000000022e-01,4.594328700000000000e+09
1.420000000000000000e+02,1.530000000000000000e+02,3.790000000000000000e+02,8.400000000000000000e+01,7.200000000000000000e+01,5.860000000000000000e+02,5.380000000000000000e+02,8.160000000000000000e+02,4.299999999999999933e-01,4.613298400000000000e+09
1.830000000000000000e+02,1.820000000000000000e+02,5.060000000000000000e+02,1.290000000000000000e+02,8.700000000000000000e+01,6.610000000000000000e+02,5.690000000000000000e+02,8.250000000000000000e+02,4.199999999999999845e-01,4.633465800000000000e+09
1.810000000000000000e+02,1.870000000000000000e+02,5.200000000000000000e+02,1.350000000000000000e+02,1.000000000000000000e+02,6.450000000000000000e+02,6.530000000000000000e+02,7.210000000000000000e+02,4.099999999999999756e-01,4.653619100000000000e+09
1.780000000000000000e+02,1.760000000000000000e+02,5.480000000000000000e+02,1.350000000000000000e+02,1.040000000000000000e+02,6.530000000000000000e+02,6.560000000000000000e+02,6.720000000000000000e+02,3.900000000000000133e-01,4.672243800000000000e+09
1.810000000000000000e+02,1.620000000000000000e+02,5.510000000000000000e+02,1.280000000000000000e+02,9.800000000000000000e+01,5.970000000000000000e+02,6.440000000000000000e+02,6.020000000000000000e+02,3.800000000000000044e-01,4.692817100000000000e+09
1.820000000000000000e+02,1.810000000000000000e+02,5.620000000000000000e+02,1.480000000000000000e+02,9.600000000000000000e+01,5.180000000000000000e+02,5.870000000000000000e+02,4.980000000000000000e+02,3.699999999999999956e-01,4.713908700000000000e+09
1.360000000000000000e+02,1.550000000000000000e+02,4.540000000000000000e+02,1.270000000000000000e+02,7.900000000000000000e+01,3.760000000000000000e+02,5.470000000000000000e+02,4.210000000000000000e+02,3.599999999999999867e-01,4.733071900000000000e+09
1.150000000000000000e+02,1.630000000000000000e+02,4.530000000000000000e+02,1.220000000000000000e+02,6.100000000000000000e+01,3.620000000000000000e+02,4.100000000000000000e+02,3.720000000000000000e+02,3.599999999999999867e-01,4.752979800000000000e+09
1.160000000000000000e+02,1.630000000000000000e+02,4.190000000000000000e+02,1.190000000000000000e+02,4.900000000000000000e+01,2.200000000000000000e+02,3.870000000000000000e+02,3.310000000000000000e+02,3.599999999999999867e-01,4.773460200000000000e+09
9.500000000000000000e+01,1.700000000000000000e+02,3.940000000000000000e+02,1.220000000000000000e+02,4.900000000000000000e+01,1.770000000000000000e+02,3.200000000000000000e+02,2.600000000000000000e+02,3.699999999999999956e-01,4.793710900000000000e+09
9.700000000000000000e+01,1.370000000000000000e+02,3.720000000000000000e+02,9.500000000000000000e+01,3.800000000000000000e+01,1.320000000000000000e+02,2.800000000000000000e+02,2.670000000000000000e+02,3.699999999999999956e-01,4.812437600000000000e+09
9.700000000000000000e+01,1.230000000000000000e+02,2.850000000000000000e+02,9.500000000000000000e+01,4.500000000000000000e+01,1.190000000000000000e+02,2.770000000000000000e+02,2.610000000000000000e+02,3.599999999999999867e-01,4.831891700000000000e+09
9.500000000000000000e+01,1.000000000000000000e+02,3.940000000000000000e+02,9.500000000000000000e+01,4.500000000000000000e+01,1.130000000000000000e+02,2.300000000000000000e+02,2.640000000000000000e+02,3.699999999999999956e-01,4.852863800000000000e+09
8.000000000000000000e+01,9.700000000000000000e+01,3.920000000000000000e+02,1.040000000000000000e+02,5.100000000000000000e+01,9.800000000000000000e+01,1.700000000000000000e+02,2.210000000000000000e+02,3.800000000000000044e-01,4.872576900000000000e+09
6.800000000000000000e+01,7.800000000000000000e+01,3.970000000000000000e+02,1.050000000000000000e+02,4.800000000000000000e+01,8.100000000000000000e+01,1.760000000000000000e+02,2.040000000000000000e+02,3.800000000000000044e-01,4.891319700000000000e+09
4.800000000000000000e+01,8.400000000000000000e+01,3.930000000000000000e+02,1.140000000000000000e+02,5.000000000000000000e+01,7.000000000000000000e+01,1.510000000000000000e+02,1.210000000000000000e+02,4.000000000000000222e-01,4.910994600000000000e+09
4.800000000000000000e+01,1.140000000000000000e+02,3.760000000000000000e+02,1.010000000000000000e+02,4.500000000000000000e+01,5.800000000000000000e+01,1.410000000000000000e+02,1.060000000000000000e+02,4.099999999999999756e-01,4.931505700000000000e+09
5.400000000000000000e+01,1.220000000000000000e+02,2.340000000000000000e+02,1.170000000000000000e+02,5.300000000000000000e+01,6.000000000000000000e+01,1.390000000000000000e+02,8.600000000000000000e+01,4.299999999999999933e-01,4.951621500000000000e+09
5.300000000000000000e+01,1.200000000000000000e+02,2.440000000000000000e+02,1.190000000000000000e+02,4.800000000000000000e+01,4.900000000000000000e+01,1.350000000000000000e+02,7.500000000000000000e+01,4.400000000000000022e-01,4.971875800000000000e+09
5.200000000000000000e+01,1.240000000000000000e+02,2.760000000000000000e+02,1.200000000000000000e+02,5.400000000000000000e+01,5.500000000000000000e+01,8.500000000000000000e+01,5.800000000000000000e+01,4.500000000000000111e-01,4.990514400000000000e+09
5.300000000000000000e+01,1.200000000000000000e+02,3.400000000000000000e+02,1.210000000000000000e+02,6.100000000000000000e+01,5.900000000000000000e+01,7.600000000000000000e+01,5.000000000000000000e+01,4.600000000000000200e-01,5.015687700000000000e+09
5.200000000000000000e+01,1.020000000000000000e+02,4.170000000000000000e+02,1.300000000000000000e+02,6.300000000000000000e+01,6.100000000000000000e+01,5.500000000000000000e+01,4.800000000000000000e+01,4.699999999999999734e-01,5.035098800000000000e+09
4.600000000000000000e+01,1.130000000000000000e+02,4.550000000000000000e+02,1.340000000000000000e+02,6.000000000000000000e+01,5.300000000000000000e+01,4.700000000000000000e+01,4.100000000000000000e+01,4.899999999999999911e-01,5.056096800000000000e+09
5.200000000000000000e+01,1.200000000000000000e+02,5.190000000000000000e+02,1.680000000000000000e+02,6.400000000000000000e+01,5.900000000000000000e+01,4.000000000000000000e+01,4.400000000000000000e+01,5.000000000000000000e-01,5.079041800000000000e+09
5.100000000000000000e+01,1.230000000000000000e+02,5.330000000000000000e+02,1.840000000000000000e+02,6.200000000000000000e+01,5.500000000000000000e+01,3.200000000000000000e+01,4.200000000000000000e+01,5.200000000000000178e-01,5.098397800000000000e+09
5.000000000000000000e+01,1.190000000000000000e+02,5.900000000000000000e+02,1.890000000000000000e+02,5.500000000000000000e+01,5.000000000000000000e+01,3.000000000000000000e+01,4.100000000000000000e+01,5.300000000000000266e-01,5.118531600000000000e+09
5.100000000000000000e+01,1.150000000000000000e+02,6.420000000000000000e+02,1.860000000000000000e+02,5.900000000000000000e+01,5.000000000000000000e+01,3.100000000000000000e+01,3.800000000000000000e+01,5.400000000000000355e-01,5.136447400000000000e+09
4.600000000000000000e+01,9.600000000000000000e+01,6.220000000000000000e+02,1.780000000000000000e+02,5.300000000000000000e+01,4.700000000000000000e+01,2.900000000000000000e+01,3.600000000000000000e+01,5.500000000000000444e-01,5.154864700000000000e+09
4.100000000000000000e+01,9.100000000000000000e+01,6.060000000000000000e+02,1.440000000000000000e+02,4.800000000000000000e+01,4.000000000000000000e+01,3.100000000000000000e+01,3.200000000000000000e+01,5.600000000000000533e-01,5.173958600000000000e+09
4.000000000000000000e+01,9.000000000000000000e+01,5.840000000000000000e+02,1.210000000000000000e+02,4.900000000000000000e+01,3.900000000000000000e+01,3.100000000000000000e+01,4.400000000000000000e+01,5.699999999999999512e-01,5.193230400000000000e+09
4.500000000000000000e+01,8.700000000000000000e+01,5.020000000000000000e+02,1.220000000000000000e+02,5.000000000000000000e+01,4.000000000000000000e+01,3.900000000000000000e+01,6.500000000000000000e+01,5.699999999999999512e-01,5.213517900000000000e+09
4.600000000000000000e+01,8.600000000000000000e+01,4.030000000000000000e+02,1.280000000000000000e+02,5.200000000000000000e+01,4.400000000000000000e+01,3.700000000000000000e+01,6.700000000000000000e+01,5.799999999999999600e-01,5.237062400000000000e+09
4.900000000000000000e+01,9.300000000000000000e+01,3.750000000000000000e+02,1.350000000000000000e+02,5.600000000000000000e+01,4.600000000000000000e+01,3.800000000000000000e+01,7.400000000000000000e+01,5.899999999999999689e-01,5.256342400000000000e+09
4.900000000000000000e+01,8.700000000000000000e+01,3.120000000000000000e+02,1.370000000000000000e+02,5.800000000000000000e+01,4.700000000000000000e+01,3.600000000000000000e+01,7.500000000000000000e+01,5.899999999999999689e-01,5.275103800000000000e+09
5.100000000000000000e+01,8.900000000000000000e+01,3.290000000000000000e+02,1.360000000000000000e+02,5.700000000000000000e+01,5.000000000000000000e+01,3.400000000000000000e+01,6.800000000000000000e+01,5.899999999999999689e-01,5.295291700000000000e+09
4.800000000000000000e+01,1.050000000000000000e+02,3.550000000000000000e+02,1.470000000000000000e+02,5.600000000000000000e+01,4.800000000000000000e+01,2.600000000000000000e+01,4.800000000000000000e+01,5.999999999999999778e-01,5.315355100000000000e+09
4.300000000000000000e+01,9.800000000000000000e+01,4.270000000000000000e+02,1.500000000000000000e+02,5.100000000000000000e+01,4.100000000000000000e+01,2.600000000000000000e+01,4.400000000000000000e+01,5.999999999999999778e-01,5.335254100000000000e+09
4.400000000000000000e+01,9.500000000000000000e+01,5.590000000000000000e+02,1.880000000000000000e+02,5.600000000000000000e+01,4.300000000000000000e+01,2.500000000000000000e+01,3.100000000000000000e+01,6.099999999999999867e-01,5.353769500000000000e+09
6.000000000000000000e+01,1.090000000000000000e+02,6.640000000000000000e+02,2.430000000000000000e+02,7.800000000000000000e+01,7.700000000000000000e+01,2.900000000000000000e+01,3.700000000000000000e+01,5.999999999999999778e-01,5.385786100000000000e+09
6.100000000000000000e+01,1.170000000000000000e+02,7.160000000000000000e+02,2.680000000000000000e+02,8.200000000000000000e+01,8.300000000000000000e+01,3.100000000000000000e+01,3.800000000000000000e+01,5.999999999999999778e-01,5.403800300000000000e+09
6.700000000000000000e+01,1.430000000000000000e+02,7.800000000000000000e+02,2.830000000000000000e+02,8.900000000000000000e+01,8.900000000000000000e+01,3.700000000000000000e+01,4.200000000000000000e+01,5.899999999999999689e-01,5.421640100000000000e+09
9.000000000000000000e+01,2.080000000000000000e+02,8.240000000000000000e+02,3.120000000000000000e+02,1.010000000000000000e+02,9.700000000000000000e+01,3.600000000000000000e+01,4.800000000000000000e+01,5.899999999999999689e-01,5.439689000000000000e+09
1.110000000000000000e+02,2.260000000000000000e+02,8.950000000000000000e+02,2.980000000000000000e+02,1.180000000000000000e+02,1.150000000000000000e+02,3.800000000000000000e+01,5.400000000000000000e+01,5.799999999999999600e-01,5.458152100000000000e+09
1.060000000000000000e+02,2.400000000000000000e+02,9.250000000000000000e+02,2.960000000000000000e+02,1.100000000000000000e+02,9.800000000000000000e+01,3.700000000000000000e+01,5.100000000000000000e+01,5.600000000000000533e-01,5.476238300000000000e+09
1.140000000000000000e+02,2.740000000000000000e+02,9.370000000000000000e+02,3.250000000000000000e+02,1.180000000000000000e+02,1.040000000000000000e+02,3.700000000000000000e+01,5.100000000000000000e+01,5.500000000000000444e-01,5.496677700000000000e+09
1.220000000000000000e+02,2.670000000000000000e+02,1.007000000000000000e+03,3.460000000000000000e+02,1.230000000000000000e+02,1.080000000000000000e+02,3.200000000000000000e+01,5.500000000000000000e+01,5.300000000000000266e-01,5.515517300000000000e+09
1.100000000000000000e+02,2.370000000000000000e+02,1.008000000000000000e+03,3.610000000000000000e+02,1.210000000000000000e+02,1.040000000000000000e+02,3.400000000000000000e+01,5.200000000000000000e+01,5.100000000000000089e-01,5.534043700000000000e+09
9.900000000000000000e+01,2.540000000000000000e+02,9.670000000000000000e+02,4.000000000000000000e+02,1.190000000000000000e+02,9.000000000000000000e+01,3.500000000000000000e+01,5.200000000000000000e+01,4.899999999999999911e-01,5.554603200000000000e+09
1.080000000000000000e+02,2.760000000000000000e+02,9.740000000000000000e+02,3.980000000000000000e+02,1.350000000000000000e+02,1.040000000000000000e+02,4.000000000000000000e+01,5.500000000000000000e+01,4.699999999999999734e-01,5.580677600000000000e+09
1.120000000000000000e+02,2.630000000000000000e+02,9.810000000000000000e+02,4.140000000000000000e+02,1.460000000000000000e+02,1.020000000000000000e+02,4.500000000000000000e+01,5.900000000000000000e+01,4.500000000000000111e-01,5.599496700000000000e+09
1.170000000000000000e+02,2.710000000000000000e+02,9.800000000000000000e+02,4.520000000000000000e+02,1.580000000000000000e+02,1.040000000000000000e+02,4.800000000000000000e+01,6.100000000000000000e+01,4.199999999999999845e-01,5.617444700000000000e+09
1.200000000000000000e+02,2.710000000000000000e+02,9.550000000000000000e+02,4.340000000000000000e+02,1.590000000000000000e+02,1.070000000000000000e+02,4.800000000000000000e+01,6.200000000000000000e+01,4.000000000000000222e-01,5.634782700000000000e+09
1.260000000000000000e+02,2.460000000000000000e+02,1.031000000000000000e+03,4.160000000000000000e+02,1.500000000000000000e+02,1.040000000000000000e+02,5.000000000000000000e+01,6.400000000000000000e+01,3.800000000000000044e-01,5.656284200000000000e+09
1.240000000000000000e+02,2.380000000000000000e+02,1.086000000000000000e+03,4.160000000000000000e+02,1.440000000000000000e+02,9.200000000000000000e+01,4.900000000000000000e+01,6.200000000000000000e+01,3.699999999999999956e-01,5.675643300000000000e+09
1.220000000000000000e+02,2.330000000000000000e+02,1.071000000000000000e+03,3.930000000000000000e+02,1.300000000000000000e+02,9.100000000000000000e+01,4.600000000000000000e+01,6.100000000000000000e+01,3.599999999999999867e-01,5.695386700000000000e+09
1.070000000000000000e+02,2.210000000000000000e+02,1.020000000000000000e+03,3.710000000000000000e+02,1.190000000000000000e+02,8.100000000000000000e+01,4.300000000000000000e+01,5.600000000000000000e+01,3.499999999999999778e-01,5.714731300000000000e+09
1.080000000000000000e+02,2.100000000000000000e+02,1.028000000000000000e+03,4.240000000000000000e+02,1.350000000000000000e+02,8.400000000000000000e+01,4.400000000000000000e+01,5.400000000000000000e+01,3.400000000000000244e-01,5.738520100000000000e+09
1.180000000000000000e+02,2.390000000000000000e+02,9.590000000000000000e+02,4.370000000000000000e+02,1.490000000000000000e+02,1.020000000000000000e+02,4.400000000000000000e+01,5.900000000000000000e+01,3.300000000000000155e-01,5.776707800000000000e+09
1.350000000000000000e+02,2.470000000000000000e+02,8.490000000000000000e+02,4.620000000000000000e+02,1.560000000000000000e+02,1.140000000000000000e+02,4.400000000000000000e+01,6.300000000000000000e+01,3.300000000000000155e-01,5.793895900000000000e+09
1.420000000000000000e+02,2.320000000000000000e+02,9.160000000000000000e+02,4.980000000000000000e+02,1.680000000000000000e+02,1.180000000000000000e+02,4.500000000000000000e+01,6.700000000000000000e+01,3.200000000000000067e-01,5.811151900000000000e+09
1.500000000000000000e+02,2.600000000000000000e+02,9.450000000000000000e+02,6.020000000000000000e+02,1.760000000000000000e+02,1.210000000000000000e+02,4.600000000000000000e+01,6.900000000000000000e+01,3.200000000000000067e-01,5.828330100000000000e+09
1.570000000000000000e+02,2.630000000000000000e+02,9.750000000000000000e+02,5.990000000000000000e+02,1.600000000000000000e+02,1.170000000000000000e+02,4.800000000000000000e+01,7.300000000000000000e+01,3.200000000000000067e-01,5.845158400000000000e+09
1.550000000000000000e+02,2.690000000000000000e+02,9.880000000000000000e+02,6.150000000000000000e+02,1.630000000000000000e+02,1.110000000000000000e+02,4.900000000000000000e+01,7.200000000000000000e+01,3.099999999999999978e-01,5.862571300000000000e+09
1.430000000000000000e+02,2.520000000000000000e+02,1.004000000000000000e+03,6.970000000000000000e+02,1.600000000000000000e+02,1.000000000000000000e+02,4.800000000000000000e+01,7.300000000000000000e+01,3.099999999999999978e-01,5.879822200000000000e+09
1.710000000000000000e+02,3.670000000000000000e+02,9.420000000000000000e+02,6.860000000000000000e+02,1.610000000000000000e+02,1.060000000000000000e+02,5.000000000000000000e+01,8.100000000000000000e+01,3.099999999999999978e-01,5.898205800000000000e+09
2.070000000000000000e+02,4.030000000000000000e+02,1.002000000000000000e+03,6.190000000000000000e+02,2.130000000000000000e+02,1.420000000000000000e+02,6.400000000000000000e+01,1.020000000000000000e+02,2.999999999999999889e-01,5.916704300000000000e+09
2.000000000000000000e+02,4.010000000000000000e+02,9.620000000000000000e+02,5.960000000000000000e+02,2.150000000000000000e+02,1.430000000000000000e+02,6.300000000000000000e+01,1.000000000000000000e+02,2.899999999999999800e-01,5.936438600000000000e+09
2.030000000000000000e+02,4.300000000000000000e+02,1.002000000000000000e+03,6.610000000000000000e+02,2.190000000000000000e+02,1.420000000000000000e+02,6.300000000000000000e+01,1.000000000000000000e+02,2.700000000000000178e-01,5.954624100000000000e+09
2.100000000000000000e+02,4.380000000000000000e+02,1.005000000000000000e+03,5.860000000000000000e+02,2.310000000000000000e+02,1.520000000000000000e+02,6.500000000000000000e+01,1.030000000000000000e+02,2.600000000000000089e-01,5.974201300000000000e+09
1.840000000000000000e+02,3.900000000000000000e+02,1.081000000000000000e+03,6.160000000000000000e+02,2.340000000000000000e+02,1.450000000000000000e+02,6.300000000000000000e+01,9.500000000000000000e+01,2.500000000000000000e-01,5.995186500000000000e+09
1.510000000000000000e+02,3.860000000000000000e+02,1.045000000000000000e+03,5.760000000000000000e+02,1.900000000000000000e+02,1.120000000000000000e+02,5.000000000000000000e+01,7.900000000000000000e+01,2.399999999999999911e-01,6.013564100000000000e+09
1.530000000000000000e+02,3.920000000000000000e+02,1.093000000000000000e+03,5.700000000000000000e+02,1.880000000000000000e+02,1.090000000000000000e+02,4.800000000000000000e+01,7.800000000000000000e+01,2.200000000000000011e-01,6.034110500000000000e+09
1.380000000000000000e+02,3.580000000000000000e+02,1.041000000000000000e+03,4.850000000000000000e+02,1.690000000000000000e+02,9.900000000000000000e+01,4.400000000000000000e+01,7.200000000000000000e+01,2.099999999999999922e-01,6.053772800000000000e+09
1.270000000000000000e+02,3.440000000000000000e+02,1.104000000000000000e+03,4.750000000000000000e+02,1.440000000000000000e+02,8.300000000000000000e+01,4.000000000000000000e+01,6.600000000000000000e+01,2.000000000000000111e-01,6.074231700000000000e+09
1.270000000000000000e+02,3.300000000000000000e+02,1.035000000000000000e+03,4.360000000000000000e+02,1.350000000000000000e+02,8.400000000000000000e+01,3.900000000000000000e+01,6.300000000000000000e+01,1.900000000000000022e-01,6.092347300000000000e+09
1.450000000000000000e+02,3.080000000000000000e+02,9.410000000000000000e+02,4.320000000000000000e+02,1.350000000000000000e+02,1.020000000000000000e+02,4.100000000000000000e+01,7.000000000000000000e+01,1.799999999999999933e-01,6.115118700000000000e+09
1.600000000000000000e+02,3.400000000000000000e+02,9.480000000000000000e+02,4.750000000000000000e+02,1.400000000000000000e+02,1.070000000000000000e+02,4.300000000000000000e+01,7.400000000000000000e+01,1.799999999999999933e-01,6.133851100000000000e+09
1.700000000000000000e+02,3.490000000000000000e+02,9.310000000000000000e+02,4.870000000000000000e+02,1.660000000000000000e+02,1.250000000000000000e+02,4.700000000000000000e+01,7.900000000000000000e+01,1.799999999999999933e-01,6.152547100000000000e+09
1.770000000000000000e+02,3.910000000000000000e+02,8.950000000000000000e+02,5.440000000000000000e+02,1.870000000000000000e+02,1.280000000000000000e+02,5.000000000000000000e+01,8.000000000000000000e+01,1.700000000000000122e-01,6.174934700000000000e+09
1.930000000000000000e+02,4.070000000000000000e+02,1.008000000000000000e+03,5.660000000000000000e+02,1.920000000000000000e+02,1.290000000000000000e+02,5.200000000000000000e+01,8.700000000000000000e+01,1.700000000000000122e-01,6.193484500000000000e+09
1.660000000000000000e+02,3.840000000000000000e+02,1.052000000000000000e+03,5.610000000000000000e+02,1.790000000000000000e+02,1.100000000000000000e+02,5.000000000000000000e+01,7.300000000000000000e+01,1.700000000000000122e-01,6.213346900000000000e+09
1.590000000000000000e+02,3.660000000000000000e+02,1.030000000000000000e+03,5.150000000000000000e+02,1.840000000000000000e+02,1.150000000000000000e+02,5.300000000000000000e+01,7.600000000000000000e+01,1.700000000000000122e-01,6.242370500000000000e+09
1.580000000000000000e+02,3.560000000000000000e+02,1.072000000000000000e+03,5.100000000000000000e+02,1.710000000000000000e+02,1.070000000000000000e+02,5.100000000000000000e+01,7.400000000000000000e+01,1.600000000000000033e-01,6.260316400000000000e+09
1.530000000000000000e+02,3.100000000000000000e+02,9.750000000000000000e+02,4.890000000000000000e+02,1.600000000000000000e+02,1.090000000000000000e+02,5.000000000000000000e+01,7.600000000000000000e+01,1.700000000000000122e-01,6.277565100000000000e+09
1.550000000000000000e+02,3.000000000000000000e+02,9.020000000000000000e+02,4.660000000000000000e+02,1.770000000000000000e+02,1.250000000000000000e+02,5.000000000000000000e+01,7.800000000000000000e+01,1.700000000000000122e-01,6.296582500000000000e+09
1.790000000000000000e+02,2.950000000000000000e+02,9.960000000000000000e+02,5.200000000000000000e+02,1.930000000000000000e+02,1.390000000000000000e+02,5.200000000000000000e+01,8.800000000000000000e+01,1.600000000000000033e-01,6.323608400000000000e+09
1.760000000000000000e+02,3.050000000000000000e+02,1.046000000000000000e+03,5.960000000000000000e+02,2.030000000000000000e+02,1.340000000000000000e+02,5.000000000000000000e+01,8.500000000000000000e+01,1.600000000000000033e-01,6.341721200000000000e+09
1.750000000000000000e+02,3.270000000000000000e+02,9.790000000000000000e+02,5.770000000000000000e+02,2.030000000000000000e+02,1.330000000000000000e+02,4.900000000000000000e+01,8.500000000000000000e+01,1.600000000000000033e-01,6.360837400000000000e+09
1.660000000000000000e+02,3.550000000000000000e+02,1.065000000000000000e+03,5.500000000000000000e+02,1.940000000000000000e+02,1.250000000000000000e+02,4.700000000000000000e+01,7.900000000000000000e+01,1.600000000000000033e-01,6.380183400000000000e+09
1.440000000000000000e+02,3.230000000000000000e+02,1.070000000000000000e+03,5.410000000000000000e+02,1.620000000000000000e+02,9.900000000000000000e+01,4.300000000000000000e+01,6.900000000000000000e+01,1.600000000000000033e-01,6.400466700000000000e+09
1.230000000000000000e+02,3.350000000000000000e+02,1.009000000000000000e+03,4.970000000000000000e+02,1.550000000000000000e+02,8.900000000000000000e+01,4.100000000000000000e+01,5.900000000000000000e+01,1.600000000000000033e-01,6.420942200000000000e+09
1.370000000000000000e+02,3.300000000000000000e+02,9.310000000000000000e+02,4.540000000000000000e+02,1.420000000000000000e+02,9.900000000000000000e+01,4.100000000000000000e+01,6.400000000000000000e+01,1.600000000000000033e-01,6.439109700000000000e+09
1.450000000000000000e+02,3.330000000000000000e+02,9.570000000000000000e+02,5.010000000000000000e+02,1.450000000000000000e+02,1.020000000000000000e+02,4.100000000000000000e+01,6.900000000000000000e+01,1.700000000000000122e-01,6.457293500000000000e+09
1.540000000000000000e+02,3.150000000000000000e+02,9.420000000000000000e+02,4.710000000000000000e+02,1.430000000000000000e+02,1.030000000000000000e+02,4.000000000000000000e+01,7.100000000000000000e+01,1.799999999999999933e-01,6.487802000000000000e+09
1.520000000000000000e+02,3.030000000000000000e+02,9.010000000000000000e+02,4.410000000000000000e+02,1.450000000000000000e+02,1.030000000000000000e+02,4.000000000000000000e+01,7.200000000000000000e+01,1.799999999999999933e-01,6.506054800000000000e+09
1.640000000000000000e+02,3.040000000000000000e+02,9.110000000000000000e+02,4.290000000000000000e+02,1.480000000000000000e+02,1.120000000000000000e+02,3.700000000000000000e+01,8.100000000000000000e+01,1.799999999999999933e-01,6.523320000000000000e+09
1.810000000000000000e+02,2.940000000000000000e+02,9.560000000000000000e+02,4.360000000000000000e+02,1.660000000000000000e+02,1.270000000000000000e+02,4.000000000000000000e+01,8.800000000000000000e+01,1.799999999999999933e-01,6.542409300000000000e+09
1.740000000000000000e+02,2.730000000000000000e+02,9.290000000000000000e+02,4.010000000000000000e+02,1.560000000000000000e+02,1.220000000000000000e+02,3.900000000000000000e+01,8.200000000000000000e+01,1.900000000000000022e-01,6.560867300000000000e+09
1.650000000000000000e+02,2.410000000000000000e+02,8.410000000000000000e+02,3.660000000000000000e+02,1.510000000000000000e+02,1.210000000000000000e+02,3.900000000000000000e+01,1.120000000000000000e+02,2.000000000000000111e-01,6.580638500000000000e+09
1.640000000000000000e+02,2.530000000000000000e+02,7.740000000000000000e+02,3.660000000000000000e+02,1.460000000000000000e+02,1.450000000000000000e+02,1.120000000000000000e+02,2.760000000000000000e+02,2.099999999999999922e-01,6.602084400000000000e+09
1.490000000000000000e+02,2.200000000000000000e+02,6.880000000000000000e+02,3.480000000000000000e+02,1.250000000000000000e+02,1.820000000000000000e+02,1.670000000000000000e+02,4.160000000000000000e+02,2.200000000000000011e-01,6.619765100000000000e+09
1.610000000000000000e+02,1.960000000000000000e+02,5.080000000000000000e+02,2.520000000000000000e+02,8.000000000000000000e+01,2.510000000000000000e+02,3.690000000000000000e+02,5.600000000000000000e+02,2.300000000000000100e-01,6.645685900000000000e+09
1.730000000000000000e+02,1.390000000000000000e+02,4.040000000000000000e+02,1.440000000000000000e+02,7.900000000000000000e+01,4.320000000000000000e+02,5.350000000000000000e+02,6.880000000000000000e+02,2.399999999999999911e-01,6.663692400000000000e+09
2.320000000000000000e+02,2.000000000000000000e+02,4.240000000000000000e+02,1.930000000000000000e+02,9.400000000000000000e+01,6.120000000000000000e+02,7.450000000000000000e+02,9.540000000000000000e+02,2.500000000000000000e-01,6.681067800000000000e+09
3.160000000000000000e+02,1.950000000000000000e+02,4.170000000000000000e+02,1.890000000000000000e+02,1.070000000000000000e+02,6.980000000000000000e+02,8.660000000000000000e+02,1.106000000000000000e+03,2.600000000000000089e-01,6.698747200000000000e+09
3.360000000000000000e+02,1.970000000000000000e+02,2.790000000000000000e+02,1.860000000000000000e+02,1.160000000000000000e+02,7.520000000000000000e+02,9.250000000000000000e+02,1.127000000000000000e+03,2.800000000000000266e-01,6.717567400000000000e+09
3.210000000000000000e+02,2.000000000000000000e+02,2.630000000000000000e+02,1.830000000000000000e+02,1.120000000000000000e+02,7.750000000000000000e+02,9.710000000000000000e+02,1.082000000000000000e+03,3.099999999999999978e-01,6.743145500000000000e+09
3.160000000000000000e+02,2.020000000000000000e+02,2.440000000000000000e+02,1.850000000000000000e+02,1.080000000000000000e+02,7.380000000000000000e+02,9.510000000000000000e+02,1.030000000000000000e+03,3.300000000000000155e-01,6.760752000000000000e+09
2.870000000000000000e+02,1.610000000000000000e+02,1.430000000000000000e+02,1.180000000000000000e+02,9.500000000000000000e+01,6.450000000000000000e+02,8.190000000000000000e+02,8.360000000000000000e+02,3.499999999999999778e-01,6.779458500000000000e+09
2.060000000000000000e+02,1.870000000000000000e+02,1.550000000000000000e+02,1.040000000000000000e+02,8.000000000000000000e+01,5.830000000000000000e+02,6.980000000000000000e+02,6.200000000000000000e+02,3.800000000000000044e-01,6.797176800000000000e+09
1.700000000000000000e+02,2.100000000000000000e+02,3.870000000000000000e+02,1.330000000000000000e+02,7.800000000000000000e+01,5.200000000000000000e+02,6.730000000000000000e+02,5.220000000000000000e+02,3.800000000000000044e-01,6.817039300000000000e+09
1.650000000000000000e+02,2.110000000000000000e+02,4.210000000000000000e+02,1.430000000000000000e+02,8.300000000000000000e+01,4.860000000000000000e+02,5.580000000000000000e+02,5.310000000000000000e+02,3.900000000000000133e-01,6.835465300000000000e+09
1.610000000000000000e+02,2.160000000000000000e+02,4.480000000000000000e+02,1.510000000000000000e+02,8.300000000000000000e+01,4.300000000000000000e+02,5.420000000000000000e+02,5.290000000000000000e+02,3.900000000000000133e-01,6.857633600000000000e+09
1.620000000000000000e+02,2.540000000000000000e+02,4.560000000000000000e+02,1.550000000000000000e+02,8.600000000000000000e+01,3.620000000000000000e+02,6.380000000000000000e+02,5.910000000000000000e+02,4.000000000000000222e-01,6.876327900000000000e+09
1.420000000000000000e+02,2.230000000000000000e+02,4.500000000000000000e+02,1.490000000000000000e+02,8.900000000000000000e+01,3.050000000000000000e+02,6.360000000000000000e+02,5.620000000000000000e+02,4.000000000000000222e-01,6.895490700000000000e+09
1.510000000000000000e+02,2.110000000000000000e+02,3.230000000000000000e+02,1.170000000000000000e+02,7.700000000000000000e+01,2.910000000000000000e+02,5.770000000000000000e+02,5.900000000000000000e+02,4.000000000000000222e-01,6.916890600000000000e+09
1.480000000000000000e+02,2.200000000000000000e+02,3.600000000000000000e+02,1.240000000000000000e+02,7.200000000000000000e+01,2.440000000000000000e+02,5.490000000000000000e+02,5.840000000000000000e+02,4.000000000000000222e-01,6.938736000000000000e+09
1.460000000000000000e+02,2.110000000000000000e+02,3.520000000000000000e+02,1.140000000000000000e+02,6.700000000000000000e+01,2.670000000000000000e+02,4.850000000000000000e+02,5.880000000000000000e+02,3.900000000000000133e-01,6.957078100000000000e+09
1.210000000000000000e+02,1.800000000000000000e+02,4.000000000000000000e+02,1.200000000000000000e+02,6.200000000000000000e+01,2.690000000000000000e+02,3.190000000000000000e+02,4.630000000000000000e+02,3.800000000000000044e-01,6.976945300000000000e+09
1.210000000000000000e+02,2.040000000000000000e+02,5.150000000000000000e+02,1.260000000000000000e+02,5.700000000000000000e+01,2.710000000000000000e+02,3.550000000000000000e+02,4.730000000000000000e+02,3.599999999999999867e-01,6.996848600000000000e+09
1.100000000000000000e+02,1.950000000000000000e+02,5.110000000000000000e+02,1.340000000000000000e+02,6.000000000000000000e+01,2.410000000000000000e+02,3.400000000000000000e+02,4.250000000000000000e+02,3.499999999999999778e-01,7.016718600000000000e+09
9.500000000000000000e+01,1.750000000000000000e+02,5.150000000000000000e+02,1.260000000000000000e+02,5.500000000000000000e+01,2.190000000000000000e+02,3.120000000000000000e+02,3.800000000000000000e+02,3.499999999999999778e-01,7.036049400000000000e+09
7.900000000000000000e+01,1.720000000000000000e+02,5.350000000000000000e+02,1.350000000000000000e+02,5.500000000000000000e+01,1.460000000000000000e+02,2.700000000000000000e+02,3.120000000000000000e+02,3.599999999999999867e-01,7.065144400000000000e+09
8.100000000000000000e+01,1.430000000000000000e+02,5.050000000000000000e+02,1.270000000000000000e+02,5.500000000000000000e+01,1.280000000000000000e+02,2.490000000000000000e+02,2.900000000000000000e+02,3.599999999999999867e-01,7.082984300000000000e+09
7.900000000000000000e+01,1.210000000000000000e+02,4.650000000000000000e+02,1.310000000000000000e+02,5.900000000000000000e+01,1.020000000000000000e+02,1.530000000000000000e+02,2.320000000000000000e+02,3.699999999999999956e-01,7.102617400000000000e+09
6.800000000000000000e+01,1.360000000000000000e+02,4.490000000000000000e+02,1.270000000000000000e+02,5.600000000000000000e+01,9.400000000000000000e+01,1.520000000000000000e+02,1.820000000000000000e+02,3.800000000000000044e-01,7.124857000000000000e+09
6.200000000000000000e+01,1.490000000000000000e+02,4.000000000000000000e+02,1.190000000000000000e+02,5.400000000000000000e+01,8.200000000000000000e+01,1.440000000000000000e+02,1.580000000000000000e+02,3.900000000000000133e-01,7.141914500000000000e+09
5.900000000000000000e+01,1.540000000000000000e+02,3.960000000000000000e+02,1.080000000000000000e+02,5.000000000000000000e+01,6.600000000000000000e+01,1.580000000000000000e+02,1.560000000000000000e+02,4.000000000000000222e-01,7.160575100000000000e+09
5.300000000000000000e+01,1.500000000000000000e+02,4.360000000000000000e+02,1.020000000000000000e+02,5.200000000000000000e+01,6.300000000000000000e+01,1.560000000000000000e+02,1.360000000000000000e+02,4.099999999999999756e-01,7.179932100000000000e+09
4.600000000000000000e+01,1.330000000000000000e+02,3.780000000000000000e+02,7.800000000000000000e+01,4.400000000000000000e+01,5.000000000000000000e+01,1.480000000000000000e+02,1.190000000000000000e+02,4.199999999999999845e-01,7.198032800000000000e+09
6.300000000000000000e+01,1.420000000000000000e+02,4.550000000000000000e+02,1.040000000000000000e+02,4.900000000000000000e+01,4.800000000000000000e+01,1.440000000000000000e+02,1.320000000000000000e+02,4.299999999999999933e-01,7.216987200000000000e+09
6.200000000000000000e+01,1.340000000000000000e+02,4.400000000000000000e+02,1.000000000000000000e+02,4.900000000000000000e+01,4.600000000000000000e+01,1.510000000000000000e+02,1.300000000000000000e+02,4.500000000000000111e-01,7.238670800000000000e+09
6.800000000000000000e+01,1.380000000000000000e+02,4.530000000000000000e+02,9.900000000000000000e+01,5.300000000000000000e+01,6.700000000000000000e+01,1.300000000000000000e+02,1.440000000000000000e+02,4.600000000000000200e-01,7.256924200000000000e+09
6.600000000000000000e+01,1.350000000000000000e+02,4.270000000000000000e+02,1.030000000000000000e+02,5.300000000000000000e+01,7.000000000000000000e+01,1.270000000000000000e+02,1.480000000000000000e+02,4.799999999999999822e-01,7.283577000000000000e+09
6.700000000000000000e+01,1.320000000000000000e+02,4.090000000000000000e+02,1.100000000000000000e+02,5.400000000000000000e+01,7.100000000000000000e+01,1.230000000000000000e+02,1.360000000000000000e+02,4.899999999999999911e-01,7.301688100000000000e+09
5.000000000000000000e+01,9.300000000000000000e+01,3.080000000000000000e+02,7.700000000000000000e+01,4.900000000000000000e+01,7.200000000000000000e+01,1.150000000000000000e+02,1.210000000000000000e+02,5.000000000000000000e-01,7.320824600000000000e+09
4.800000000000000000e+01,9.500000000000000000e+01,3.420000000000000000e+02,7.100000000000000000e+01,4.600000000000000000e+01,7.200000000000000000e+01,1.510000000000000000e+02,1.260000000000000000e+02,5.000000000000000000e-01,7.338191300000000000e+09
4.800000000000000000e+01,9.600000000000000000e+01,3.080000000000000000e+02,9.500000000000000000e+01,5.000000000000000000e+01,6.200000000000000000e+01,1.500000000000000000e+02,1.110000000000000000e+02,5.000000000000000000e-01,7.357865000000000000e+09
4.700000000000000000e+01,1.040000000000000000e+02,2.790000000000000000e+02,9.100000000000000000e+01,4.400000000000000000e+01,5.900000000000000000e+01,1.440000000000000000e+02,1.080000000000000000e+02,5.000000000000000000e-01,7.377521300000000000e+09
4.900000000000000000e+01,1.250000000000000000e+02,2.950000000000000000e+02,8.600000000000000000e+01,4.400000000000000000e+01,5.700000000000000000e+01,1.450000000000000000e+02,1.010000000000000000e+02,5.100000000000000089e-01,7.403927200000000000e+09
5.200000000000000000e+01,1.290000000000000000e+02,3.000000000000000000e+02,9.300000000000000000e+01,4.500000000000000000e+01,5.300000000000000000e+01,1.450000000000000000e+02,1.120000000000000000e+02,5.100000000000000089e-01,7.421428000000000000e+09
5.600000000000000000e+01,1.280000000000000000e+02,3.020000000000000000e+02,1.020000000000000000e+02,5.100000000000000000e+01,5.300000000000000000e+01,9.700000000000000000e+01,1.060000000000000000e+02,5.100000000000000089e-01,7.439163200000000000e+09
5.400000000000000000e+01,1.240000000000000000e+02,3.030000000000000000e+02,8.100000000000000000e+01,4.800000000000000000e+01,5.200000000000000000e+01,1.070000000000000000e+02,8.700000000000000000e+01,5.100000000000000089e-01,7.457217400000000000e+09
5.800000000000000000e+01,1.260000000000000000e+02,3.220000000000000000e+02,8.500000000000000000e+01,5.300000000000000000e+01,5.500000000000000000e+01,1.070000000000000000e+02,8.800000000000000000e+01,5.100000000000000089e-01,7.492871000000000000e+09
5.400000000000000000e+01,1.260000000000000000e+02,3.590000000000000000e+02,9.000000000000000000e+01,5.500000000000000000e+01,5.600000000000000000e+01,1.010000000000000000e+02,8.500000000000000000e+01,5.200000000000000178e-01,7.510716700000000000e+09
5.600000000000000000e+01,1.390000000000000000e+02,3.800000000000000000e+02,9.600000000000000000e+01,5.600000000000000000e+01,5.900000000000000000e+01,1.240000000000000000e+02,6.500000000000000000e+01,5.200000000000000178e-01,7.528865200000000000e+09
5.600000000000000000e+01,1.370000000000000000e+02,3.640000000000000000e+02,8.900000000000000000e+01,5.200000000000000000e+01,6.200000000000000000e+01,1.150000000000000000e+02,8.000000000000000000e+01,5.200000000000000178e-01,7.546838600000000000e+09
5.200000000000000000e+01,1.260000000000000000e+02,3.630000000000000000e+02,8.700000000000000000e+01,4.700000000000000000e+01,5.600000000000000000e+01,9.800000000000000000e+01,7.900000000000000000e+01,5.300000000000000266e-01,7.564203100000000000e+09
4.700000000000000000e+01,1.240000000000000000e+02,4.110000000000000000e+02,9.200000000000000000e+01,4.500000000000000000e+01,5.100000000000000000e+01,9.200000000000000000e+01,7.700000000000000000e+01,5.400000000000000355e-01,7.581431600000000000e+09
4.500000000000000000e+01,1.040000000000000000e+02,4.050000000000000000e+02,8.900000000000000000e+01,4.000000000000000000e+01,5.000000000000000000e+01,9.000000000000000000e+01,7.600000000000000000e+01,5.400000000000000355e-01,7.598987000000000000e+09
4.200000000000000000e+01,8.600000000000000000e+01,4.010000000000000000e+02,8.400000000000000000e+01,3.800000000000000000e+01,4.600000000000000000e+01,4.600000000000000000e+01,7.600000000000000000e+01,5.400000000000000355e-01,7.616750700000000000e+09
4.200000000000000000e+01,9.600000000000000000e+01,4.090000000000000000e+02,1.040000000000000000e+02,4.700000000000000000e+01,4.600000000000000000e+01,4.200000000000000000e+01,5.300000000000000000e+01,5.500000000000000444e-01,7.642651200000000000e+09
4.200000000000000000e+01,1.040000000000000000e+02,3.990000000000000000e+02,1.070000000000000000e+02,4.500000000000000000e+01,4.300000000000000000e+01,4.000000000000000000e+01,5.000000000000000000e+01,5.600000000000000533e-01,7.659880500000000000e+09
4.300000000000000000e+01,9.300000000000000000e+01,3.260000000000000000e+02,9.900000000000000000e+01,4.300000000000000000e+01,4.100000000000000000e+01,3.700000000000000000e+01,4.400000000000000000e+01,5.600000000000000533e-01,7.678492400000000000e+09
4.300000000000000000e+01,9.400000000000000000e+01,3.160000000000000000e+02,1.150000000000000000e+02,4.600000000000000000e+01,4.400000000000000000e+01,3.600000000000000000e+01,4.200000000000000000e+01,5.699999999999999512e-01,7.703823900000000000e+09
4.100000000000000000e+01,8.800000000000000000e+01,3.150000000000000000e+02,1.100000000000000000e+02,4.500000000000000000e+01,4.200000000000000000e+01,3.500000000000000000e+01,4.000000000000000000e+01,5.699999999999999512e-01,7.733713500000000000e+09
3.800000000000000000e+01,8.700000000000000000e+01,3.150000000000000000e+02,1.030000000000000000e+02,3.800000000000000000e+01,4.100000000000000000e+01,4.500000000000000000e+01,3.500000000000000000e+01,5.699999999999999512e-01,7.751352500000000000e+09
3.800000000000000000e+01,8.100000000000000000e+01,2.980000000000000000e+02,1.030000000000000000e+02,3.900000000000000000e+01,4.200000000000000000e+01,4.500000000000000000e+01,4.200000000000000000e+01,5.799999999999999600e-01,7.768417600000000000e+09
3.800000000000000000e+01,7.800000000000000000e+01,3.270000000000000000e+02,1.190000000000000000e+02,4.200000000000000000e+01,4.400000000000000000e+01,4.500000000000000000e+01,4.200000000000000000e+01,5.799999999999999600e-01,7.786052000000000000e+09
3.500000000000000000e+01,7.200000000000000000e+01,2.790000000000000000e+02,1.030000000000000000e+02,3.700000000000000000e+01,4.000000000000000000e+01,4.500000000000000000e+01,4.200000000000000000e+01,5.799999999999999600e-01,7.803033900000000000e+09
3.400000000000000000e+01,7.800000000000000000e+01,2.700000000000000000e+02,1.090000000000000000e+02,3.500000000000000000e+01,4.100000000000000000e+01,4.500000000000000000e+01,4.200000000000000000e+01,5.799999999999999600e-01,7.820171800000000000e+09
3.300000000000000000e+01,8.100000000000000000e+01,2.490000000000000000e+02,9.700000000000000000e+01,3.200000000000000000e+01,3.700000000000000000e+01,3.400000000000000000e+01,3.700000000000000000e+01,5.899999999999999689e-01,7.837845700000000000e+09
3.700000000000000000e+01,8.700000000000000000e+01,2.940000000000000000e+02,1.030000000000000000e+02,4.000000000000000000e+01,4.000000000000000000e+01,3.100000000000000000e+01,2.900000000000000000e+01,5.899999999999999689e-01,7.856068900000000000e+09
3.400000000000000000e+01,9.200000000000000000e+01,2.710000000000000000e+02,8.600000000000000000e+01,3.700000000000000000e+01,4.000000000000000000e+01,2.800000000000000000e+01,2.800000000000000000e+01,5.899999999999999689e-01,7.875908700000000000e+09
3.400000000000000000e+01,9.400000000000000000e+01,2.920000000000000000e+02,8.000000000000000000e+01,4.000000000000000000e+01,4.000000000000000000e+01,2.800000000000000000e+01,2.800000000000000000e+01,5.799999999999999600e-01,7.898773500000000000e+09
3.800000000000000000e+01,9.800000000000000000e+01,2.960000000000000000e+02,8.300000000000000000e+01,4.500000000000000000e+01,4.200000000000000000e+01,2.800000000000000000e+01,2.900000000000000000e+01,5.799999999999999600e-01,7.921272700000000000e+09
4.200000000000000000e+01,8.900000000000000000e+01,3.090000000000000000e+02,8.100000000000000000e+01,4.300000000000000000e+01,4.100000000000000000e+01,2.800000000000000000e+01,4.200000000000000000e+01,5.799999999999999600e-01,7.938859400000000000e+09
3.900000000000000000e+01,8.100000000000000000e+01,3.250000000000000000e+02,8.000000000000000000e+01,3.500000000000000000e+01,3.800000000000000000e+01,2.700000000000000000e+01,4.200000000000000000e+01,5.799999999999999600e-01,7.957629200000000000e+09
4.000000000000000000e+01,7.500000000000000000e+01,3.240000000000000000e+02,7.800000000000000000e+01,3.700000000000000000e+01,4.000000000000000000e+01,2.900000000000000000e+01,4.200000000000000000e+01,5.799999999999999600e-01,7.977848600000000000e+09
4.300000000000000000e+01,9.000000000000000000e+01,3.580000000000000000e+02,8.900000000000000000e+01,3.700000000000000000e+01,4.400000000000000000e+01,2.600000000000000000e+01,4.400000000000000000e+01,5.799999999999999600e-01,7.995863700000000000e+09
4.200000000000000000e+01,8.600000000000000000e+01,3.380000000000000000e+02,9.400000000000000000e+01,4.100000000000000000e+01,4.500000000000000000e+01,2.500000000000000000e+01,4.300000000000000000e+01,5.799999999999999600e-01,8.025638600000000000e+09
3.800000000000000000e+01,9.600000000000000000e+01,3.640000000000000000e+02,1.030000000000000000e+02,4.300000000000000000e+01,4.600000000000000000e+01,2.900000000000000000e+01,3.200000000000000000e+01,5.899999999999999689e-01,8.044055000000000000e+09
4.700000000000000000e+01,1.130000000000000000e+02,3.580000000000000000e+02,1.100000000000000000e+02,4.700000000000000000e+01,5.000000000000000000e+01,2.800000000000000000e+01,4.500000000000000000e+01,5.899999999999999689e-01,8.061438200000000000e+09
4.900000000000000000e+01,1.240000000000000000e+02,3.550000000000000000e+02,1.200000000000000000e+02,4.700000000000000000e+01,4.900000000000000000e+01,2.600000000000000000e+01,4.700000000000000000e+01,5.899999999999999689e-01,8.079573800000000000e+09
4.700000000000000000e+01,1.190000000000000000e+02,3.130000000000000000e+02,1.170000000000000000e+02,5.000000000000000000e+01,4.800000000000000000e+01,2.800000000000000000e+01,4.500000000000000000e+01,5.899999999999999689e-01,8.100682300000000000e+09
5.000000000000000000e+01,1.200000000000000000e+02,3.450000000000000000e+02,1.200000000000000000e+02,4.900000000000000000e+01,5.100000000000000000e+01,2.700000000000000000e+01,4.500000000000000000e+01,5.999999999999999778e-01,8.118604600000000000e+09
4.800000000000000000e+01,1.090000000000000000e+02,3.250000000000000000e+02,1.240000000000000000e+02,4.800000000000000000e+01,4.900000000000000000e+01,2.400000000000000000e+01,4.600000000000000000e+01,5.999999999999999778e-01,8.144970900000000000e+09
4.300000000000000000e+01,1.110000000000000000e+02,3.270000000000000000e+02,1.560000000000000000e+02,5.200000000000000000e+01,4.600000000000000000e+01,2.400000000000000000e+01,3.100000000000000000e+01,5.999999999999999778e-01,8.162786800000000000e+09
3.900000000000000000e+01,1.020000000000000000e+02,4.070000000000000000e+02,1.950000000000000000e+02,5.500000000000000000e+01,4.400000000000000000e+01,2.500000000000000000e+01,2.700000000000000000e+01,6.099999999999999867e-01,8.180323300000000000e+09
4.200000000000000000e+01,1.030000000000000000e+02,4.460000000000000000e+02,1.980000000000000000e+02,5.700000000000000000e+01,4.400000000000000000e+01,2.400000000000000000e+01,2.700000000000000000e+01,6.199999999999999956e-01,8.198369700000000000e+09
3.900000000000000000e+01,1.010000000000000000e+02,4.490000000000000000e+02,1.980000000000000000e+02,5.400000000000000000e+01,3.700000000000000000e+01,2.200000000000000000e+01,2.700000000000000000e+01,6.199999999999999956e-01,8.219887900000000000e+09
4.100000000000000000e+01,1.090000000000000000e+02,4.480000000000000000e+02,1.950000000000000000e+02,5.800000000000000000e+01,4.200000000000000000e+01,2.200000000000000000e+01,2.300000000000000000e+01,6.300000000000000044e-01,8.238533100000000000e+09
4.000000000000000000e+01,9.200000000000000000e+01,4.710000000000000000e+02,1.790000000000000000e+02,5.300000000000000000e+01,3.800000000000000000e+01,2.200000000000000000e+01,2.300000000000000000e+01,6.300000000000000044e-01,8.267306900000000000e+09
5.100000000000000000e+01,1.220000000000000000e+02,4.500000000000000000e+02,1.390000000000000000e+02,5.300000000000000000e+01,4.400000000000000000e+01,2.300000000000000000e+01,2.800000000000000000e+01,6.400000000000000133e-01,8.287331300000000000e+09
5.000000000000000000e+01,1.240000000000000000e+02,4.610000000000000000e+02,1.340000000000000000e+02,4.600000000000000000e+01,4.200000000000000000e+01,2.400000000000000000e+01,2.800000000000000000e+01,6.400000000000000133e-01,8.304479800000000000e+09
5.200000000000000000e+01,1.260000000000000000e+02,4.620000000000000000e+02,1.260000000000000000e+02,5.000000000000000000e+01,5.100000000000000000e+01,2.500000000000000000e+01,3.000000000000000000e+01,6.500000000000000222e-01,8.321658100000000000e+09
5.200000000000000000e+01,1.230000000000000000e+02,5.550000000000000000e+02,1.200000000000000000e+02,4.900000000000000000e+01,4.800000000000000000e+01,2.600000000000000000e+01,3.000000000000000000e+01,6.500000000000000222e-01,8.340129700000000000e+09
5.300000000000000000e+01,1.350000000000000000e+02,5.610000000000000000e+02,1.300000000000000000e+02,5.500000000000000000e+01,5.100000000000000000e+01,2.700000000000000000e+01,3.000000000000000000e+01,6.500000000000000222e-01,8.358187600000000000e+09
5.100000000000000000e+01,1.480000000000000000e+02,6.280000000000000000e+02,1.370000000000000000e+02,6.000000000000000000e+01,5.000000000000000000e+01,2.900000000000000000e+01,2.800000000000000000e+01,6.500000000000000222e-01,8.378103800000000000e+09
5.200000000000000000e+01,1.530000000000000000e+02,6.150000000000000000e+02,1.550000000000000000e+02,7.200000000000000000e+01,5.300000000000000000e+01,3.000000000000000000e+01,2.900000000000000000e+01,6.500000000000000222e-01,8.408601300000000000e+09
4.900000000000000000e+01,1.560000000000000000e+02,6.270000000000000000e+02,1.620000000000000000e+02,6.800000000000000000e+01,4.300000000000000000e+01,3.000000000000000000e+01,2.600000000000000000e+01,6.500000000000000222e-01,8.425522100000000000e+09
6.200000000000000000e+01,1.570000000000000000e+02,5.450000000000000000e+02,1.880000000000000000e+02,7.000000000000000000e+01,5.600000000000000000e+01,3.100000000000000000e+01,3.500000000000000000e+01,6.400000000000000133e-01,8.442688300000000000e+09
6.000000000000000000e+01,1.560000000000000000e+02,5.830000000000000000e+02,1.790000000000000000e+02,6.300000000000000000e+01,5.500000000000000000e+01,3.200000000000000000e+01,3.400000000000000000e+01,6.400000000000000133e-01,8.467835700000000000e+09
6.100000000000000000e+01,1.260000000000000000e+02,5.600000000000000000e+02,1.920000000000000000e+02,6.100000000000000000e+01,6.000000000000000000e+01,3.400000000000000000e+01,3.600000000000000000e+01,6.400000000000000133e-01,8.484862600000000000e+09
6.700000000000000000e+01,1.300000000000000000e+02,6.190000000000000000e+02,1.920000000000000000e+02,4.800000000000000000e+01,6.900000000000000000e+01,4.100000000000000000e+01,3.800000000000000000e+01,6.400000000000000133e-01,8.502028500000000000e+09
7.300000000000000000e+01,1.310000000000000000e+02,6.460000000000000000e+02,1.870000000000000000e+02,5.500000000000000000e+01,7.300000000000000000e+01,4.500000000000000000e+01,4.100000000000000000e+01,6.400000000000000133e-01,8.519693900000000000e+09
7.200000000000000000e+01,1.640000000000000000e+02,6.580000000000000000e+02,1.860000000000000000e+02,5.300000000000000000e+01,6.500000000000000000e+01,4.400000000000000000e+01,3.900000000000000000e+01,6.300000000000000044e-01,8.542282300000000000e+09
7.600000000000000000e+01,1.610000000000000000e+02,6.580000000000000000e+02,1.980000000000000000e+02,6.000000000000000000e+01,6.800000000000000000e+01,5.100000000000000000e+01,4.200000000000000000e+01,6.300000000000000044e-01,8.565168600000000000e+09
7.600000000000000000e+01,1.700000000000000000e+02,6.490000000000000000e+02,1.780000000000000000e+02,5.300000000000000000e+01,8.100000000000000000e+01,5.000000000000000000e+01,4.000000000000000000e+01,6.300000000000000044e-01,8.583193200000000000e+09
7.900000000000000000e+01,1.840000000000000000e+02,6.430000000000000000e+02,2.200000000000000000e+02,6.100000000000000000e+01,7.500000000000000000e+01,5.200000000000000000e+01,4.100000000000000000e+01,6.300000000000000044e-01,8.601222500000000000e+09
7.700000000000000000e+01,2.080000000000000000e+02,6.680000000000000000e+02,2.470000000000000000e+02,5.900000000000000000e+01,7.500000000000000000e+01,5.000000000000000000e+01,3.800000000000000000e+01,6.300000000000000044e-01,8.619149000000000000e+09
7.200000000000000000e+01,1.850000000000000000e+02,7.910000000000000000e+02,2.930000000000000000e+02,6.600000000000000000e+01,8.300000000000000000e+01,6.100000000000000000e+01,3.500000000000000000e+01,6.199999999999999956e-01,8.639531800000000000e+09
7.100000000000000000e+01,1.800000000000000000e+02,8.810000000000000000e+02,2.800000000000000000e+02,6.600000000000000000e+01,8.200000000000000000e+01,5.500000000000000000e+01,3.200000000000000000e+01,6.199999999999999956e-01,8.658427900000000000e+09
7.100000000000000000e+01,1.830000000000000000e+02,8.750000000000000000e+02,3.060000000000000000e+02,7.600000000000000000e+01,6.700000000000000000e+01,5.600000000000000000e+01,3.400000000000000000e+01,6.099999999999999867e-01,8.678401700000000000e+09
6.700000000000000000e+01,1.640000000000000000e+02,9.260000000000000000e+02,3.000000000000000000e+02,7.200000000000000000e+01,6.400000000000000000e+01,5.000000000000000000e+01,3.200000000000000000e+01,5.999999999999999778e-01,8.700688800000000000e+09
7.000000000000000000e+01,1.570000000000000000e+02,9.490000000000000000e+02,3.180000000000000000e+02,8.100000000000000000e+01,7.500000000000000000e+01,5.000000000000000000e+01,3.300000000000000000e+01,5.899999999999999689e-01,8.719027100000000000e+09
6.800000000000000000e+01,1.820000000000000000e+02,9.140000000000000000e+02,2.800000000000000000e+02,7.800000000000000000e+01,6.900000000000000000e+01,3.800000000000000000e+01,3.300000000000000000e+01,5.799999999999999600e-01,8.737051600000000000e+09
6.600000000000000000e+01,1.900000000000000000e+02,8.200000000000000000e+02,3.170000000000000000e+02,7.400000000000000000e+01,6.400000000000000000e+01,3.700000000000000000e+01,3.400000000000000000e+01,5.799999999999999600e-01,8.759973500000000000e+09
7.200000000000000000e+01,1.980000000000000000e+02,9.480000000000000000e+02,3.510000000000000000e+02,6.900000000000000000e+01,6.400000000000000000e+01,3.400000000000000000e+01,3.500000000000000000e+01,5.699999999999999512e-01,8.777624800000000000e+09
8.500000000000000000e+01,2.100000000000000000e+02,9.110000000000000000e+02,3.680000000000000000e+02,7.300000000000000000e+01,6.800000000000000000e+01,3.000000000000000000e+01,3.900000000000000000e+01,5.600000000000000533e-01,8.804687600000000000e+09
9.200000000000000000e+01,2.060000000000000000e+02,8.710000000000000000e+02,3.630000000000000000e+02,7.300000000000000000e+01,6.200000000000000000e+01,2.900000000000000000e+01,4.300000000000000000e+01,5.500000000000000444e-01,8.821815000000000000e+09
9.800000000000000000e+01,1.840000000000000000e+02,9.100000000000000000e+02,4.100000000000000000e+02,7.700000000000000000e+01,6.400000000000000000e+01,2.900000000000000000e+01,4.600000000000000000e+01,5.400000000000000355e-01,8.839513300000000000e+09
1.080000000000000000e+02,2.030000000000000000e+02,9.460000000000000000e+02,3.960000000000000000e+02,8.000000000000000000e+01,6.800000000000000000e+01,2.900000000000000000e+01,5.100000000000000000e+01,5.400000000000000355e-01,8.857588400000000000e+09
1.100000000000000000e+02,2.070000000000000000e+02,8.250000000000000000e+02,3.550000000000000000e+02,9.300000000000000000e+01,7.100000000000000000e+01,3.300000000000000000e+01,5.400000000000000000e+01,5.300000000000000266e-01,8.879849100000000000e+09
1.020000000000000000e+02,2.020000000000000000e+02,8.970000000000000000e+02,3.490000000000000000e+02,9.500000000000000000e+01,6.900000000000000000e+01,3.600000000000000000e+01,5.300000000000000000e+01,5.300000000000000266e-01,8.898193500000000000e+09
9.900000000000000000e+01,1.970000000000000000e+02,9.160000000000000000e+02,3.410000000000000000e+02,9.500000000000000000e+01,6.400000000000000000e+01,3.800000000000000000e+01,5.000000000000000000e+01,5.200000000000000178e-01,8.917469400000000000e+09
9.600000000000000000e+01,2.020000000000000000e+02,8.910000000000000000e+02,3.010000000000000000e+02,9.800000000000000000e+01,6.100000000000000000e+01,3.500000000000000000e+01,4.900000000000000000e+01,5.200000000000000178e-01,8.942214100000000000e+09
8.300000000000000000e+01,1.930000000000000000e+02,9.230000000000000000e+02,2.980000000000000000e+02,9.900000000000000000e+01,6.200000000000000000e+01,3.600000000000000000e+01,4.300000000000000000e+01,5.100000000000000089e-01,8.960548000000000000e+09
7.300000000000000000e+01,1.670000000000000000e+02,9.050000000000000000e+02,3.030000000000000000e+02,8.800000000000000000e+01,5.600000000000000000e+01,3.300000000000000000e+01,3.800000000000000000e+01,5.000000000000000000e-01,8.985715400000000000e+09
8.400000000000000000e+01,1.880000000000000000e+02,9.660000000000000000e+02,2.880000000000000000e+02,9.500000000000000000e+01,6.500000000000000000e+01,3.100000000000000000e+01,4.000000000000000000e+01,5.000000000000000000e-01,9.002981900000000000e+09
8.200000000000000000e+01,1.820000000000000000e+02,9.530000000000000000e+02,2.700000000000000000e+02,9.900000000000000000e+01,7.100000000000000000e+01,3.300000000000000000e+01,3.800000000000000000e+01,4.899999999999999911e-01,9.020511900000000000e+09
8.800000000000000000e+01,2.040000000000000000e+02,1.039000000000000000e+03,2.660000000000000000e+02,9.700000000000000000e+01,7.400000000000000000e+01,3.400000000000000000e+01,3.900000000000000000e+01,4.799999999999999822e-01,9.046434000000000000e+09
9.400000000000000000e+01,1.980000000000000000e+02,9.610000000000000000e+02,2.610000000000000000e+02,9.800000000000000000e+01,7.700000000000000000e+01,3.300000000000000000e+01,4.200000000000000000e+01,4.699999999999999734e-01,9.063634500000000000e+09
9.500000000000000000e+01,2.070000000000000000e+02,9.750000000000000000e+02,2.750000000000000000e+02,1.000000000000000000e+02,7.700000000000000000e+01,3.100000000000000000e+01,4.100000000000000000e+01,4.600000000000000200e-01,9.080703500000000000e+09
8.100000000000000000e+01,1.850000000000000000e+02,8.910000000000000000e+02,2.900000000000000000e+02,9.100000000000000000e+01,7.000000000000000000e+01,2.900000000000000000e+01,3.900000000000000000e+01,4.500000000000000111e-01,9.106244700000000000e+09
7.600000000000000000e+01,2.110000000000000000e+02,1.044000000000000000e+03,3.320000000000000000e+02,8.200000000000000000e+01,6.200000000000000000e+01,3.000000000000000000e+01,3.800000000000000000e+01,4.500000000000000111e-01,9.123430800000000000e+09
6.600000000000000000e+01,1.870000000000000000e+02,9.970000000000000000e+02,3.750000000000000000e+02,8.200000000000000000e+01,5.500000000000000000e+01,2.700000000000000000e+01,3.600000000000000000e+01,4.400000000000000022e-01,9.142629200000000000e+09
6.900000000000000000e+01,1.880000000000000000e+02,1.014000000000000000e+03,3.850000000000000000e+02,9.000000000000000000e+01,6.300000000000000000e+01,3.200000000000000000e+01,3.900000000000000000e+01,4.400000000000000022e-01,9.159817800000000000e+09
7.800000000000000000e+01,1.930000000000000000e+02,1.010000000000000000e+03,3.640000000000000000e+02,1.010000000000000000e+02,7.000000000000000000e+01,3.800000000000000000e+01,4.600000000000000000e+01,4.400000000000000022e-01,9.179670300000000000e+09
9.100000000000000000e+01,1.870000000000000000e+02,1.000000000000000000e+03,3.410000000000000000e+02,1.040000000000000000e+02,7.400000000000000000e+01,3.900000000000000000e+01,4.900000000000000000e+01,4.299999999999999933e-01,9.202465700000000000e+09
1.080000000000000000e+02,2.140000000000000000e+02,9.090000000000000000e+02,3.360000000000000000e+02,1.280000000000000000e+02,8.900000000000000000e+01,4.300000000000000000e+01,5.700000000000000000e+01,4.299999999999999933e-01,9.220493500000000000e+09
1.140000000000000000e+02,2.110000000000000000e+02,8.620000000000000000e+02,2.820000000000000000e+02,1.340000000000000000e+02,1.000000000000000000e+02,4.400000000000000000e+01,6.000000000000000000e+01,4.199999999999999845e-01,9.240096300000000000e+09
1.160000000000000000e+02,2.100000000000000000e+02,8.580000000000000000e+02,2.780000000000000000e+02,1.320000000000000000e+02,9.700000000000000000e+01,4.300000000000000000e+01,6.000000000000000000e+01,4.099999999999999756e-01,9.262694400000000000e+09
1.200000000000000000e+02,2.090000000000000000e+02,8.540000000000000000e+02,2.900000000000000000e+02,1.260000000000000000e+02,9.400000000000000000e+01,3.900000000000000000e+01,6.100000000000000000e+01,4.099999999999999756e-01,9.280376800000000000e+09
1.160000000000000000e+02,2.220000000000000000e+02,8.480000000000000000e+02,3.030000000000000000e+02,1.320000000000000000e+02,9.400000000000000000e+01,4.000000000000000000e+01,6.100000000000000000e+01,4.000000000000000222e-01,9.301355600000000000e+09
1.100000000000000000e+02,2.110000000000000000e+02,8.040000000000000000e+02,2.860000000000000000e+02,1.130000000000000000e+02,8.400000000000000000e+01,3.600000000000000000e+01,5.700000000000000000e+01,4.000000000000000222e-01,9.322025700000000000e+09
1.500000000000000000e+02,2.810000000000000000e+02,8.280000000000000000e+02,3.280000000000000000e+02,1.390000000000000000e+02,9.900000000000000000e+01,4.200000000000000000e+01,7.300000000000000000e+01,3.900000000000000133e-01,9.345308200000000000e+09
1.510000000000000000e+02,2.910000000000000000e+02,8.910000000000000000e+02,3.370000000000000000e+02,1.390000000000000000e+02,1.030000000000000000e+02,3.900000000000000000e+01,7.400000000000000000e+01,3.800000000000000044e-01,9.367343000000000000e+09
1.550000000000000000e+02,3.140000000000000000e+02,9.680000000000000000e+02,4.390000000000000000e+02,1.590000000000000000e+02,1.150000000000000000e+02,4.400000000000000000e+01,7.400000000000000000e+01,3.699999999999999956e-01,9.385300000000000000e+09
1.540000000000000000e+02,3.140000000000000000e+02,9.820000000000000000e+02,4.450000000000000000e+02,1.540000000000000000e+02,1.140000000000000000e+02,4.300000000000000000e+01,7.200000000000000000e+01,3.599999999999999867e-01,9.403595500000000000e+09
1.570000000000000000e+02,3.150000000000000000e+02,1.002000000000000000e+03,4.290000000000000000e+02,1.560000000000000000e+02,1.150000000000000000e+02,4.200000000000000000e+01,7.600000000000000000e+01,3.400000000000000244e-01,9.421082300000000000e+09
1.160000000000000000e+02,2.740000000000000000e+02,9.630000000000000000e+02,4.260000000000000000e+02,1.270000000000000000e+02,9.400000000000000000e+01,3.800000000000000000e+01,5.800000000000000000e+01,3.400000000000000244e-01,9.442324300000000000e+09
1.360000000000000000e+02,2.910000000000000000e+02,8.920000000000000000e+02,4.340000000000000000e+02,1.420000000000000000e+02,1.050000000000000000e+02,4.400000000000000000e+01,6.400000000000000000e+01,3.300000000000000155e-01,9.459503700000000000e+09
1.400000000000000000e+02,2.850000000000000000e+02,8.230000000000000000e+02,3.540000000000000000e+02,1.340000000000000000e+02,1.050000000000000000e+02,4.300000000000000000e+01,6.700000000000000000e+01,3.200000000000000067e-01,9.480065500000000000e+09
1.440000000000000000e+02,2.870000000000000000e+02,7.920000000000000000e+02,4.000000000000000000e+02,1.380000000000000000e+02,1.060000000000000000e+02,4.100000000000000000e+01,6.800000000000000000e+01,3.200000000000000067e-01,9.502584700000000000e+09
1.430000000000000000e+02,2.700000000000000000e+02,7.700000000000000000e+02,4.220000000000000000e+02,1.410000000000000000e+02,1.050000000000000000e+02,9.800000000000000000e+01,6.700000000000000000e+01,3.099999999999999978e-01,9.520696900000000000e+09
1.550000000000000000e+02,2.650000000000000000e+02,8.070000000000000000e+02,3.820000000000000000e+02,1.460000000000000000e+02,1.090000000000000000e+02,1.030000000000000000e+02,7.100000000000000000e+01,2.999999999999999889e-01,9.539971200000000000e+09
1.490000000000000000e+02,2.490000000000000000e+02,8.880000000000000000e+02,4.090000000000000000e+02,1.460000000000000000e+02,1.000000000000000000e+02,1.090000000000000000e+02,7.000000000000000000e+01,2.899999999999999800e-01,9.563345500000000000e+09
1.540000000000000000e+02,2.320000000000000000e+02,9.180000000000000000e+02,4.000000000000000000e+02,1.480000000000000000e+02,9.800000000000000000e+01,1.210000000000000000e+02,7.300000000000000000e+01,2.899999999999999800e-01,9.581517800000000000e+09
1.590000000000000000e+02,2.510000000000000000e+02,9.070000000000000000e+02,4.030000000000000000e+02,1.580000000000000000e+02,1.010000000000000000e+02,1.240000000000000000e+02,7.700000000000000000e+01,2.899999999999999800e-01,9.600123700000000000e+09
1.610000000000000000e+02,2.710000000000000000e+02,8.870000000000000000e+02,4.480000000000000000e+02,1.650000000000000000e+02,1.050000000000000000e+02,8.900000000000000000e+01,7.600000000000000000e+01,2.899999999999999800e-01,9.622479700000000000e+09
1.660000000000000000e+02,2.830000000000000000e+02,8.640000000000000000e+02,5.000000000000000000e+02,1.660000000000000000e+02,1.090000000000000000e+02,8.400000000000000000e+01,7.800000000000000000e+01,2.899999999999999800e-01,9.644955800000000000e+09
1.530000000000000000e+02,2.770000000000000000e+02,8.000000000000000000e+02,4.770000000000000000e+02,1.500000000000000000e+02,1.050000000000000000e+02,8.000000000000000000e+01,7.200000000000000000e+01,2.899999999999999800e-01,9.662369000000000000e+09
1.400000000000000000e+02,2.660000000000000000e+02,9.290000000000000000e+02,4.900000000000000000e+02,1.380000000000000000e+02,1.010000000000000000e+02,9.200000000000000000e+01,7.000000000000000000e+01,2.999999999999999889e-01,9.682498300000000000e+09
1.360000000000000000e+02,2.560000000000000000e+02,9.970000000000000000e+02,4.860000000000000000e+02,1.320000000000000000e+02,1.000000000000000000e+02,9.500000000000000000e+01,6.800000000000000000e+01,2.999999999999999889e-01,9.700695000000000000e+09
1.280000000000000000e+02,2.200000000000000000e+02,1.025000000000000000e+03,4.510000000000000000e+02,1.170000000000000000e+02,9.500000000000000000e+01,9.900000000000000000e+01,6.800000000000000000e+01,2.999999999999999889e-01,9.719728600000000000e+09
1.160000000000000000e+02,2.050000000000000000e+02,1.029000000000000000e+03,4.070000000000000000e+02,1.240000000000000000e+02,9.100000000000000000e+01,1.010000000000000000e+02,6.500000000000000000e+01,2.999999999999999889e-01,9.750172400000000000e+09
1.180000000000000000e+02,2.030000000000000000e+02,1.053000000000000000e+03,4.220000000000000000e+02,1.230000000000000000e+02,9.000000000000000000e+01,9.800000000000000000e+01,6.500000000000000000e+01,2.999999999999999889e-01,9.767525100000000000e+09
1.300000000000000000e+02,2.420000000000000000e+02,9.970000000000000000e+02,4.380000000000000000e+02,1.350000000000000000e+02,9.100000000000000000e+01,7.300000000000000000e+01,6.600000000000000000e+01,2.999999999999999889e-01,9.787396400000000000e+09
1.300000000000000000e+02,2.420000000000000000e+02,1.001000000000000000e+03,4.500000000000000000e+02,1.400000000000000000e+02,9.200000000000000000e+01,6.500000000000000000e+01,6.500000000000000000e+01,2.999999999999999889e-01,9.804622800000000000e+09
1.400000000000000000e+02,2.500000000000000000e+02,1.042000000000000000e+03,4.380000000000000000e+02,1.430000000000000000e+02,9.300000000000000000e+01,5.700000000000000000e+01,6.400000000000000000e+01,2.999999999999999889e-01,9.821609700000000000e+09
1.370000000000000000e+02,2.540000000000000000e+02,1.027000000000000000e+03,4.400000000000000000e+02,1.310000000000000000e+02,9.200000000000000000e+01,5.300000000000000000e+01,6.100000000000000000e+01,2.999999999999999889e-01,9.839696500000000000e+09
1.430000000000000000e+02,2.840000000000000000e+02,9.860000000000000000e+02,4.910000000000000000e+02,1.610000000000000000e+02,1.040000000000000000e+02,5.500000000000000000e+01,6.800000000000000000e+01,2.999999999999999889e-01,9.863386200000000000e+09
1.270000000000000000e+02,2.550000000000000000e+02,9.040000000000000000e+02,4.510000000000000000e+02,1.460000000000000000e+02,9.700000000000000000e+01,4.900000000000000000e+01,5.700000000000000000e+01,2.999999999999999889e-01,9.880727200000000000e+09
1.220000000000000000e+02,2.400000000000000000e+02,8.340000000000000000e+02,3.990000000000000000e+02,1.330000000000000000e+02,9.200000000000000000e+01,4.800000000000000000e+01,5.600000000000000000e+01,2.999999999999999889e-01,9.900647400000000000e+09
1.140000000000000000e+02,2.330000000000000000e+02,7.060000000000000000e+02,4.090000000000000000e+02,1.350000000000000000e+02,9.100000000000000000e+01,4.500000000000000000e+01,5.600000000000000000e+01,2.999999999999999889e-01,9.922247500000000000e+09
1.340000000000000000e+02,2.280000000000000000e+02,8.370000000000000000e+02,4.310000000000000000e+02,1.590000000000000000e+02,9.900000000000000000e+01,4.500000000000000000e+01,6.400000000000000000e+01,2.999999999999999889e-01,9.940454900000000000e+09
1.270000000000000000e+02,1.800000000000000000e+02,8.900000000000000000e+02,3.430000000000000000e+02,1.350000000000000000e+02,8.800000000000000000e+01,3.700000000000000000e+01,5.900000000000000000e+01,2.999999999999999889e-01,9.959505600000000000e+09
1.310000000000000000e+02,1.760000000000000000e+02,9.310000000000000000e+02,3.580000000000000000e+02,1.440000000000000000e+02,9.400000000000000000e+01,4.000000000000000000e+01,6.400000000000000000e+01,2.999999999999999889e-01,9.982672800000000000e+09
1.400000000000000000e+02,2.290000000000000000e+02,9.000000000000000000e+02,3.330000000000000000e+02,1.470000000000000000e+02,9.500000000000000000e+01,4.200000000000000000e+01,6.800000000000000000e+01,2.999999999999999889e-01,1.000046070000000000e+10
