3.200000000000000000e+01,8.000000000000000000e+01,2.820000000000000000e+02,2.320000000000000000e+02,4.400000000000000000e+01,2.700000000000000000e+01,2.400000000000000000e+01,2.100000000000000000e+01,6.800000000000000488e-01,4.625686000000000000e+08
3.100000000000000000e+01,8.000000000000000000e+01,2.750000000000000000e+02,1.980000000000000000e+02,3.900000000000000000e+01,2.600000000000000000e+01,2.200000000000000000e+01,2.300000000000000000e+01,6.800000000000000488e-01,4.913790000000000000e+08
3.300000000000000000e+01,8.300000000000000000e+01,3.230000000000000000e+02,1.620000000000000000e+02,4.100000000000000000e+01,3.000000000000000000e+01,2.200000000000000000e+01,2.700000000000000000e+01,6.800000000000000488e-01,7.603737000000000000e+08
3.200000000000000000e+01,7.300000000000000000e+01,3.580000000000000000e+02,1.610000000000000000e+02,4.000000000000000000e+01,2.800000000000000000e+01,2.000000000000000000e+01,2.700000000000000000e+01,6.800000000000000488e-01,7.776571000000000000e+08
3.600000000000000000e+01,8.900000000000000000e+01,3.810000000000000000e+02,1.420000000000000000e+02,4.000000000000000000e+01,3.000000000000000000e+01,2.200000000000000000e+01,2.900000000000000000e+01,6.800000000000000488e-01,7.950267000000000000e+08
3.500000000000000000e+01,1.010000000000000000e+02,4.200000000000000000e+02,1.650000000000000000e+02,4.000000000000000000e+01,3.200000000000000000e+01,2.000000000000000000e+01,2.900000000000000000e+01,6.800000000000000488e-01,8.127874000000000000e+08
3.800000000000000000e+01,1.100000000000000000e+02,4.580000000000000000e+02,1.750000000000000000e+02,4.000000000000000000e+01,3.300000000000000000e+01,2.400000000000000000e+01,3.000000000000000000e+01,6.800000000000000488e-01,8.301960000000000000e+08
3.900000000000000000e+01,1.170000000000000000e+02,4.890000000000000000e+02,2.300000000000000000e+02,4.000000000000000000e+01,3.000000000000000000e+01,2.600000000000000000e+01,2.800000000000000000e+01,6.800000000000000488e-01,8.480511000000000000e+08
4.000000000000000000e+01,1.220000000000000000e+02,5.000000000000000000e+02,2.310000000000000000e+02,3.900000000000000000e+01,3.100000000000000000e+01,2.600000000000000000e+01,2.900000000000000000e+01,6.800000000000000488e-01,8.651222000000000000e+08
3.600000000000000000e+01,1.120000000000000000e+02,5.130000000000000000e+02,2.320000000000000000e+02,3.800000000000000000e+01,3.000000000000000000e+01,2.600000000000000000e+01,2.700000000000000000e+01,6.800000000000000488e-01,8.825928000000000000e+08
3.600000000000000000e+01,9.700000000000000000e+01,4.580000000000000000e+02,2.480000000000000000e+02,3.900000000000000000e+01,2.900000000000000000e+01,2.800000000000000000e+01,2.600000000000000000e+01,6.800000000000000488e-01,8.992851000000000000e+08
3.200000000000000000e+01,9.800000000000000000e+01,4.250000000000000000e+02,2.490000000000000000e+02,3.800000000000000000e+01,3.300000000000000000e+01,2.700000000000000000e+01,2.600000000000000000e+01,6.800000000000000488e-01,9.165374000000000000e+08
2.900000000000000000e+01,8.600000000000000000e+01,3.510000000000000000e+02,1.910000000000000000e+02,3.300000000000000000e+01,3.000000000000000000e+01,2.300000000000000000e+01,2.400000000000000000e+01,6.800000000000000488e-01,9.331911000000000000e+08
3.000000000000000000e+01,8.200000000000000000e+01,3.060000000000000000e+02,1.970000000000000000e+02,3.900000000000000000e+01,3.000000000000000000e+01,2.300000000000000000e+01,2.300000000000000000e+01,6.800000000000000488e-01,9.513382000000000000e+08
2.900000000000000000e+01,1.000000000000000000e+02,2.770000000000000000e+02,3.010000000000000000e+02,4.000000000000000000e+01,3.000000000000000000e+01,2.200000000000000000e+01,2.500000000000000000e+01,6.800000000000000488e-01,9.679787000000000000e+08
3.000000000000000000e+01,1.050000000000000000e+02,2.910000000000000000e+02,2.900000000000000000e+02,3.700000000000000000e+01,3.200000000000000000e+01,2.100000000000000000e+01,2.600000000000000000e+01,6.899999999999999467e-01,9.862325000000000000e+08
3.200000000000000000e+01,9.200000000000000000e+01,3.000000000000000000e+02,2.880000000000000000e+02,3.700000000000000000e+01,2.800000000000000000e+01,2.000000000000000000e+01,2.500000000000000000e+01,6.899999999999999467e-01,1.004349500000000000e+09
3.600000000000000000e+01,9.800000000000000000e+01,3.690000000000000000e+02,3.250000000000000000e+02,4.200000000000000000e+01,3.300000000000000000e+01,2.700000000000000000e+01,2.500000000000000000e+01,6.999999999999999556e-01,1.021975400000000000e+09
3.500000000000000000e+01,1.010000000000000000e+02,4.220000000000000000e+02,3.360000000000000000e+02,3.800000000000000000e+01,3.200000000000000000e+01,2.800000000000000000e+01,2.600000000000000000e+01,6.999999999999999556e-01,1.038980400000000000e+09
3.500000000000000000e+01,8.100000000000000000e+01,4.210000000000000000e+02,2.600000000000000000e+02,3.400000000000000000e+01,3.200000000000000000e+01,2.900000000000000000e+01,2.500000000000000000e+01,6.999999999999999556e-01,1.056076700000000000e+09
3.600000000000000000e+01,8.100000000000000000e+01,4.960000000000000000e+02,2.480000000000000000e+02,3.500000000000000000e+01,3.000000000000000000e+01,2.800000000000000000e+01,2.400000000000000000e+01,7.099999999999999645e-01,1.072896200000000000e+09
3.600000000000000000e+01,8.000000000000000000e+01,4.890000000000000000e+02,2.550000000000000000e+02,3.900000000000000000e+01,3.000000000000000000e+01,3.000000000000000000e+01,2.300000000000000000e+01,7.099999999999999645e-01,1.089953900000000000e+09
3.700000000000000000e+01,9.100000000000000000e+01,4.540000000000000000e+02,2.120000000000000000e+02,3.400000000000000000e+01,2.700000000000000000e+01,2.500000000000000000e+01,2.600000000000000000e+01,7.099999999999999645e-01,1.106219600000000000e+09
3.400000000000000000e+01,8.100000000000000000e+01,4.090000000000000000e+02,1.870000000000000000e+02,3.200000000000000000e+01,2.600000000000000000e+01,2.300000000000000000e+01,2.400000000000000000e+01,7.099999999999999645e-01,1.125119800000000000e+09
4.000000000000000000e+01,9.400000000000000000e+01,5.350000000000000000e+02,1.930000000000000000e+02,3.500000000000000000e+01,2.700000000000000000e+01,2.300000000000000000e+01,2.600000000000000000e+01,7.099999999999999645e-01,1.142079500000000000e+09
3.800000000000000000e+01,9.500000000000000000e+01,4.530000000000000000e+02,2.210000000000000000e+02,3.700000000000000000e+01,2.800000000000000000e+01,2.200000000000000000e+01,2.400000000000000000e+01,7.099999999999999645e-01,1.159759100000000000e+09
4.100000000000000000e+01,1.090000000000000000e+02,4.800000000000000000e+02,2.090000000000000000e+02,3.400000000000000000e+01,3.300000000000000000e+01,2.100000000000000000e+01,2.600000000000000000e+01,7.099999999999999645e-01,1.179247600000000000e+09
4.300000000000000000e+01,9.800000000000000000e+01,4.790000000000000000e+02,2.130000000000000000e+02,3.600000000000000000e+01,3.200000000000000000e+01,2.000000000000000000e+01,2.800000000000000000e+01,7.099999999999999645e-01,1.197369600000000000e+09
4.500000000000000000e+01,1.050000000000000000e+02,5.430000000000000000e+02,2.280000000000000000e+02,3.700000000000000000e+01,3.200000000000000000e+01,2.300000000000000000e+01,3.000000000000000000e+01,7.099999999999999645e-01,1.215549500000000000e+09
4.100000000000000000e+01,1.100000000000000000e+02,4.640000000000000000e+02,2.310000000000000000e+02,3.400000000000000000e+01,3.000000000000000000e+01,2.200000000000000000e+01,3.100000000000000000e+01,6.999999999999999556e-01,1.232436500000000000e+09
4.200000000000000000e+01,1.110000000000000000e+02,4.730000000000000000e+02,2.060000000000000000e+02,3.500000000000000000e+01,2.900000000000000000e+01,2.300000000000000000e+01,3.100000000000000000e+01,6.999999999999999556e-01,1.250144700000000000e+09
3.800000000000000000e+01,9.500000000000000000e+01,4.450000000000000000e+02,2.050000000000000000e+02,3.200000000000000000e+01,2.600000000000000000e+01,2.200000000000000000e+01,3.100000000000000000e+01,6.999999999999999556e-01,1.268549500000000000e+09
3.700000000000000000e+01,1.030000000000000000e+02,4.760000000000000000e+02,2.210000000000000000e+02,3.300000000000000000e+01,2.900000000000000000e+01,2.100000000000000000e+01,3.000000000000000000e+01,6.999999999999999556e-01,1.286050000000000000e+09
3.500000000000000000e+01,1.000000000000000000e+02,4.190000000000000000e+02,2.160000000000000000e+02,3.300000000000000000e+01,2.700000000000000000e+01,1.900000000000000000e+01,2.900000000000000000e+01,6.999999999999999556e-01,1.303295500000000000e+09
4.000000000000000000e+01,9.800000000000000000e+01,4.440000000000000000e+02,2.050000000000000000e+02,4.100000000000000000e+01,3.000000000000000000e+01,2.200000000000000000e+01,2.900000000000000000e+01,6.999999999999999556e-01,1.321790600000000000e+09
3.900000000000000000e+01,1.040000000000000000e+02,5.130000000000000000e+02,2.180000000000000000e+02,3.900000000000000000e+01,2.800000000000000000e+01,2.200000000000000000e+01,3.100000000000000000e+01,6.999999999999999556e-01,1.339011900000000000e+09
4.300000000000000000e+01,1.120000000000000000e+02,5.180000000000000000e+02,2.290000000000000000e+02,4.100000000000000000e+01,2.700000000000000000e+01,2.200000000000000000e+01,3.300000000000000000e+01,6.899999999999999467e-01,1.357381100000000000e+09
4.700000000000000000e+01,1.000000000000000000e+02,5.140000000000000000e+02,2.090000000000000000e+02,3.900000000000000000e+01,2.500000000000000000e+01,2.400000000000000000e+01,4.300000000000000000e+01,6.899999999999999467e-01,1.375005100000000000e+09
5.100000000000000000e+01,9.900000000000000000e+01,5.280000000000000000e+02,1.960000000000000000e+02,4.100000000000000000e+01,3.100000000000000000e+01,2.400000000000000000e+01,1.390000000000000000e+02,6.899999999999999467e-01,1.391666600000000000e+09
5.300000000000000000e+01,9.200000000000000000e+01,4.620000000000000000e+02,1.700000000000000000e+02,3.200000000000000000e+01,2.800000000000000000e+01,2.600000000000000000e+01,1.530000000000000000e+02,6.899999999999999467e-01,1.408533100000000000e+09
5.500000000000000000e+01,8.100000000000000000e+01,4.010000000000000000e+02,1.640000000000000000e+02,3.400000000000000000e+01,3.300000000000000000e+01,2.900000000000000000e+01,1.800000000000000000e+02,6.800000000000000488e-01,1.425162400000000000e+09
5.700000000000000000e+01,7.600000000000000000e+01,4.320000000000000000e+02,1.550000000000000000e+02,3.200000000000000000e+01,3.200000000000000000e+01,3.100000000000000000e+01,1.960000000000000000e+02,6.800000000000000488e-01,1.441796400000000000e+09
5.800000000000000000e+01,9.300000000000000000e+01,4.470000000000000000e+02,1.510000000000000000e+02,3.300000000000000000e+01,3.400000000000000000e+01,3.300000000000000000e+01,2.590000000000000000e+02,6.700000000000000400e-01,1.458193400000000000e+09
5.900000000000000000e+01,1.110000000000000000e+02,4.760000000000000000e+02,1.760000000000000000e+02,3.500000000000000000e+01,3.200000000000000000e+01,3.400000000000000000e+01,2.270000000000000000e+02,6.600000000000000311e-01,1.476736200000000000e+09
5.500000000000000000e+01,1.020000000000000000e+02,5.110000000000000000e+02,1.780000000000000000e+02,3.800000000000000000e+01,3.200000000000000000e+01,3.000000000000000000e+01,2.220000000000000000e+02,6.500000000000000222e-01,1.496233400000000000e+09
5.300000000000000000e+01,1.020000000000000000e+02,5.250000000000000000e+02,2.160000000000000000e+02,3.700000000000000000e+01,2.800000000000000000e+01,2.800000000000000000e+01,2.040000000000000000e+02,6.500000000000000222e-01,1.513503200000000000e+09
4.800000000000000000e+01,1.090000000000000000e+02,5.020000000000000000e+02,2.110000000000000000e+02,3.700000000000000000e+01,2.700000000000000000e+01,2.700000000000000000e+01,1.890000000000000000e+02,6.400000000000000133e-01,1.530662500000000000e+09
4.300000000000000000e+01,1.000000000000000000e+02,6.300000000000000000e+02,2.070000000000000000e+02,3.600000000000000000e+01,2.600000000000000000e+01,2.300000000000000000e+01,8.400000000000000000e+01,6.400000000000000133e-01,1.547255100000000000e+09
3.700000000000000000e+01,8.100000000000000000e+01,6.270000000000000000e+02,2.280000000000000000e+02,3.700000000000000000e+01,2.600000000000000000e+01,2.300000000000000000e+01,7.300000000000000000e+01,6.300000000000000044e-01,1.563705500000000000e+09
3.800000000000000000e+01,9.800000000000000000e+01,6.510000000000000000e+02,2.450000000000000000e+02,4.100000000000000000e+01,3.300000000000000000e+01,2.500000000000000000e+01,6.000000000000000000e+01,6.300000000000000044e-01,1.580194600000000000e+09
3.800000000000000000e+01,9.900000000000000000e+01,6.340000000000000000e+02,2.230000000000000000e+02,4.100000000000000000e+01,3.400000000000000000e+01,2.300000000000000000e+01,4.700000000000000000e+01,6.300000000000000044e-01,1.604675500000000000e+09
3.900000000000000000e+01,9.300000000000000000e+01,6.500000000000000000e+02,2.360000000000000000e+02,4.200000000000000000e+01,3.500000000000000000e+01,2.400000000000000000e+01,4.000000000000000000e+01,6.199999999999999956e-01,1.623780800000000000e+09
3.700000000000000000e+01,8.800000000000000000e+01,5.250000000000000000e+02,2.780000000000000000e+02,4.400000000000000000e+01,3.400000000000000000e+01,2.500000000000000000e+01,3.500000000000000000e+01,6.300000000000000044e-01,1.641328800000000000e+09
4.200000000000000000e+01,9.500000000000000000e+01,4.790000000000000000e+02,2.630000000000000000e+02,4.100000000000000000e+01,3.100000000000000000e+01,2.800000000000000000e+01,3.600000000000000000e+01,6.300000000000000044e-01,1.658980500000000000e+09
3.900000000000000000e+01,8.200000000000000000e+01,4.220000000000000000e+02,2.490000000000000000e+02,3.300000000000000000e+01,2.400000000000000000e+01,2.900000000000000000e+01,1.270000000000000000e+02,6.400000000000000133e-01,1.675763800000000000e+09
4.100000000000000000e+01,8.300000000000000000e+01,5.230000000000000000e+02,2.450000000000000000e+02,3.100000000000000000e+01,2.300000000000000000e+01,3.000000000000000000e+01,1.530000000000000000e+02,6.400000000000000133e-01,1.692781500000000000e+09
5.100000000000000000e+01,9.900000000000000000e+01,5.130000000000000000e+02,2.350000000000000000e+02,3.100000000000000000e+01,2.300000000000000000e+01,3.100000000000000000e+01,1.770000000000000000e+02,6.400000000000000133e-01,1.709975600000000000e+09
5.100000000000000000e+01,1.130000000000000000e+02,5.360000000000000000e+02,2.190000000000000000e+02,3.200000000000000000e+01,2.400000000000000000e+01,3.100000000000000000e+01,1.800000000000000000e+02,6.400000000000000133e-01,1.727186100000000000e+09
4.800000000000000000e+01,1.200000000000000000e+02,6.290000000000000000e+02,2.330000000000000000e+02,3.200000000000000000e+01,2.400000000000000000e+01,2.700000000000000000e+01,2.270000000000000000e+02,6.400000000000000133e-01,1.744337300000000000e+09
5.100000000000000000e+01,1.330000000000000000e+02,6.260000000000000000e+02,2.450000000000000000e+02,3.400000000000000000e+01,2.700000000000000000e+01,2.500000000000000000e+01,2.070000000000000000e+02,6.400000000000000133e-01,1.761323100000000000e+09
5.300000000000000000e+01,1.290000000000000000e+02,5.530000000000000000e+02,2.480000000000000000e+02,3.700000000000000000e+01,2.700000000000000000e+01,2.500000000000000000e+01,1.960000000000000000e+02,6.400000000000000133e-01,1.778242500000000000e+09
4.300000000000000000e+01,1.190000000000000000e+02,6.500000000000000000e+02,2.720000000000000000e+02,4.300000000000000000e+01,2.800000000000000000e+01,2.200000000000000000e+01,1.820000000000000000e+02,6.400000000000000133e-01,1.794886900000000000e+09
5.400000000000000000e+01,1.140000000000000000e+02,6.090000000000000000e+02,2.570000000000000000e+02,4.500000000000000000e+01,2.800000000000000000e+01,2.200000000000000000e+01,1.850000000000000000e+02,6.300000000000000044e-01,1.812402700000000000e+09
5.500000000000000000e+01,1.040000000000000000e+02,5.240000000000000000e+02,2.330000000000000000e+02,4.700000000000000000e+01,2.900000000000000000e+01,2.100000000000000000e+01,1.650000000000000000e+02,6.300000000000000044e-01,1.829928200000000000e+09
5.900000000000000000e+01,8.700000000000000000e+01,5.570000000000000000e+02,2.260000000000000000e+02,4.800000000000000000e+01,3.000000000000000000e+01,2.100000000000000000e+01,1.570000000000000000e+02,6.300000000000000044e-01,1.847409200000000000e+09
6.100000000000000000e+01,9.900000000000000000e+01,6.180000000000000000e+02,2.100000000000000000e+02,4.700000000000000000e+01,3.200000000000000000e+01,2.000000000000000000e+01,1.890000000000000000e+02,6.300000000000000044e-01,1.863732100000000000e+09
6.100000000000000000e+01,9.700000000000000000e+01,5.430000000000000000e+02,1.850000000000000000e+02,4.600000000000000000e+01,3.300000000000000000e+01,2.300000000000000000e+01,2.070000000000000000e+02,6.199999999999999956e-01,1.881149300000000000e+09
5.300000000000000000e+01,1.030000000000000000e+02,5.400000000000000000e+02,1.720000000000000000e+02,4.300000000000000000e+01,3.400000000000000000e+01,2.400000000000000000e+01,2.100000000000000000e+02,6.199999999999999956e-01,1.898603900000000000e+09
5.700000000000000000e+01,1.040000000000000000e+02,6.060000000000000000e+02,2.020000000000000000e+02,4.000000000000000000e+01,3.500000000000000000e+01,2.800000000000000000e+01,2.400000000000000000e+02,6.099999999999999867e-01,1.916385100000000000e+09
5.500000000000000000e+01,1.030000000000000000e+02,6.290000000000000000e+02,2.030000000000000000e+02,3.700000000000000000e+01,3.300000000000000000e+01,3.300000000000000000e+01,2.430000000000000000e+02,6.099999999999999867e-01,1.933044900000000000e+09
5.300000000000000000e+01,1.010000000000000000e+02,6.090000000000000000e+02,2.300000000000000000e+02,3.800000000000000000e+01,3.400000000000000000e+01,3.400000000000000000e+01,2.510000000000000000e+02,5.999999999999999778e-01,1.950764400000000000e+09
8.300000000000000000e+01,9.700000000000000000e+01,6.160000000000000000e+02,2.240000000000000000e+02,3.100000000000000000e+01,3.300000000000000000e+01,3.900000000000000000e+01,3.200000000000000000e+02,5.999999999999999778e-01,1.968308800000000000e+09
8.600000000000000000e+01,1.120000000000000000e+02,6.250000000000000000e+02,2.360000000000000000e+02,3.100000000000000000e+01,3.200000000000000000e+01,3.900000000000000000e+01,3.190000000000000000e+02,5.999999999999999778e-01,1.986319900000000000e+09
9.000000000000000000e+01,1.040000000000000000e+02,5.690000000000000000e+02,2.180000000000000000e+02,3.100000000000000000e+01,3.100000000000000000e+01,4.000000000000000000e+01,3.770000000000000000e+02,5.899999999999999689e-01,2.003474800000000000e+09
9.100000000000000000e+01,1.210000000000000000e+02,5.420000000000000000e+02,2.330000000000000000e+02,3.400000000000000000e+01,2.900000000000000000e+01,3.700000000000000000e+01,4.020000000000000000e+02,5.899999999999999689e-01,2.020447600000000000e+09
1.020000000000000000e+02,1.240000000000000000e+02,4.900000000000000000e+02,2.380000000000000000e+02,4.000000000000000000e+01,3.300000000000000000e+01,3.900000000000000000e+01,4.230000000000000000e+02,5.799999999999999600e-01,2.037221000000000000e+09
9.200000000000000000e+01,1.280000000000000000e+02,4.650000000000000000e+02,2.370000000000000000e+02,4.100000000000000000e+01,3.400000000000000000e+01,9.900000000000000000e+01,4.670000000000000000e+02,5.799999999999999600e-01,2.055024900000000000e+09
1.070000000000000000e+02,1.170000000000000000e+02,4.480000000000000000e+02,2.320000000000000000e+02,4.800000000000000000e+01,5.000000000000000000e+01,2.080000000000000000e+02,5.410000000000000000e+02,5.699999999999999512e-01,2.071799200000000000e+09
1.230000000000000000e+02,1.310000000000000000e+02,4.620000000000000000e+02,2.320000000000000000e+02,4.900000000000000000e+01,7.300000000000000000e+01,3.570000000000000000e+02,5.540000000000000000e+02,5.600000000000000533e-01,2.089631100000000000e+09
1.220000000000000000e+02,1.180000000000000000e+02,4.040000000000000000e+02,2.200000000000000000e+02,4.800000000000000000e+01,7.500000000000000000e+01,3.760000000000000000e+02,5.500000000000000000e+02,5.500000000000000444e-01,2.106990600000000000e+09
1.200000000000000000e+02,1.140000000000000000e+02,4.020000000000000000e+02,1.960000000000000000e+02,4.300000000000000000e+01,7.400000000000000000e+01,4.250000000000000000e+02,5.310000000000000000e+02,5.400000000000000355e-01,2.123577500000000000e+09
1.140000000000000000e+02,1.110000000000000000e+02,4.180000000000000000e+02,2.080000000000000000e+02,4.400000000000000000e+01,7.500000000000000000e+01,4.220000000000000000e+02,4.460000000000000000e+02,5.300000000000000266e-01,2.140609700000000000e+09
1.020000000000000000e+02,1.030000000000000000e+02,5.200000000000000000e+02,2.800000000000000000e+02,4.800000000000000000e+01,6.800000000000000000e+01,3.860000000000000000e+02,3.800000000000000000e+02,5.300000000000000266e-01,2.158009400000000000e+09
8.600000000000000000e+01,1.040000000000000000e+02,4.960000000000000000e+02,3.020000000000000000e+02,5.200000000000000000e+01,4.300000000000000000e+01,2.640000000000000000e+02,2.670000000000000000e+02,5.400000000000000355e-01,2.175403300000000000e+09
8.800000000000000000e+01,9.900000000000000000e+01,5.430000000000000000e+02,3.130000000000000000e+02,5.100000000000000000e+01,4.200000000000000000e+01,2.390000000000000000e+02,2.840000000000000000e+02,5.400000000000000355e-01,2.193972300000000000e+09
8.500000000000000000e+01,1.030000000000000000e+02,5.810000000000000000e+02,3.080000000000000000e+02,5.300000000000000000e+01,4.000000000000000000e+01,1.400000000000000000e+02,2.740000000000000000e+02,5.400000000000000355e-01,2.215094700000000000e+09
8.400000000000000000e+01,1.260000000000000000e+02,5.650000000000000000e+02,3.060000000000000000e+02,5.500000000000000000e+01,4.100000000000000000e+01,1.290000000000000000e+02,2.800000000000000000e+02,5.400000000000000355e-01,2.237629500000000000e+09
8.100000000000000000e+01,1.240000000000000000e+02,5.050000000000000000e+02,2.370000000000000000e+02,4.600000000000000000e+01,3.600000000000000000e+01,1.280000000000000000e+02,3.240000000000000000e+02,5.400000000000000355e-01,2.259026300000000000e+09
8.300000000000000000e+01,1.130000000000000000e+02,4.890000000000000000e+02,2.020000000000000000e+02,4.100000000000000000e+01,3.800000000000000000e+01,2.180000000000000000e+02,3.230000000000000000e+02,5.300000000000000266e-01,2.280353400000000000e+09
7.900000000000000000e+01,1.210000000000000000e+02,4.280000000000000000e+02,1.760000000000000000e+02,4.000000000000000000e+01,3.800000000000000000e+01,2.290000000000000000e+02,2.910000000000000000e+02,5.300000000000000266e-01,2.302730600000000000e+09
8.000000000000000000e+01,1.210000000000000000e+02,3.750000000000000000e+02,1.720000000000000000e+02,4.000000000000000000e+01,3.900000000000000000e+01,2.330000000000000000e+02,3.050000000000000000e+02,5.300000000000000266e-01,2.323038800000000000e+09
9.200000000000000000e+01,1.160000000000000000e+02,4.410000000000000000e+02,1.650000000000000000e+02,3.700000000000000000e+01,3.900000000000000000e+01,2.750000000000000000e+02,4.380000000000000000e+02,5.300000000000000266e-01,2.346694700000000000e+09
1.060000000000000000e+02,1.140000000000000000e+02,3.990000000000000000e+02,1.670000000000000000e+02,3.500000000000000000e+01,3.900000000000000000e+01,2.710000000000000000e+02,4.090000000000000000e+02,5.400000000000000355e-01,2.364523000000000000e+09
1.040000000000000000e+02,1.140000000000000000e+02,3.930000000000000000e+02,1.650000000000000000e+02,3.700000000000000000e+01,3.700000000000000000e+01,1.990000000000000000e+02,4.350000000000000000e+02,5.400000000000000355e-01,2.382758700000000000e+09
1.070000000000000000e+02,1.100000000000000000e+02,3.930000000000000000e+02,1.690000000000000000e+02,4.000000000000000000e+01,4.500000000000000000e+01,2.980000000000000000e+02,4.580000000000000000e+02,5.300000000000000266e-01,2.401530100000000000e+09
1.040000000000000000e+02,1.020000000000000000e+02,3.840000000000000000e+02,1.900000000000000000e+02,4.000000000000000000e+01,4.400000000000000000e+01,3.120000000000000000e+02,5.110000000000000000e+02,5.200000000000000178e-01,2.420032100000000000e+09
1.180000000000000000e+02,1.340000000000000000e+02,3.200000000000000000e+02,2.010000000000000000e+02,4.100000000000000000e+01,4.500000000000000000e+01,2.790000000000000000e+02,4.220000000000000000e+02,5.100000000000000089e-01,2.439179300000000000e+09
1.060000000000000000e+02,1.370000000000000000e+02,3.510000000000000000e+02,1.960000000000000000e+02,4.400000000000000000e+01,4.700000000000000000e+01,3.640000000000000000e+02,4.410000000000000000e+02,5.000000000000000000e-01,2.458553300000000000e+09
9.900000000000000000e+01,1.360000000000000000e+02,4.340000000000000000e+02,2.030000000000000000e+02,4.500000000000000000e+01,4.800000000000000000e+01,4.030000000000000000e+02,4.240000000000000000e+02,5.000000000000000000e-01,2.476187700000000000e+09
1.030000000000000000e+02,1.470000000000000000e+02,4.820000000000000000e+02,1.960000000000000000e+02,4.900000000000000000e+01,5.400000000000000000e+01,4.270000000000000000e+02,4.340000000000000000e+02,4.899999999999999911e-01,2.495670200000000000e+09
1.010000000000000000e+02,1.530000000000000000e+02,5.020000000000000000e+02,1.770000000000000000e+02,4.800000000000000000e+01,6.000000000000000000e+01,4.450000000000000000e+02,3.620000000000000000e+02,4.899999999999999911e-01,2.514532800000000000e+09
7.600000000000000000e+01,1.190000000000000000e+02,5.350000000000000000e+02,1.820000000000000000e+02,5.000000000000000000e+01,6.600000000000000000e+01,4.680000000000000000e+02,3.610000000000000000e+02,4.799999999999999822e-01,2.533353600000000000e+09
7.400000000000000000e+01,1.170000000000000000e+02,5.540000000000000000e+02,2.030000000000000000e+02,4.900000000000000000e+01,6.600000000000000000e+01,4.290000000000000000e+02,3.250000000000000000e+02,4.799999999999999822e-01,2.551280800000000000e+09
7.200000000000000000e+01,1.230000000000000000e+02,5.520000000000000000e+02,1.960000000000000000e+02,4.900000000000000000e+01,6.900000000000000000e+01,4.120000000000000000e+02,3.230000000000000000e+02,4.799999999999999822e-01,2.570358400000000000e+09
8.300000000000000000e+01,1.120000000000000000e+02,6.040000000000000000e+02,2.250000000000000000e+02,4.500000000000000000e+01,6.300000000000000000e+01,3.510000000000000000e+02,2.660000000000000000e+02,4.799999999999999822e-01,2.588480500000000000e+09
8.500000000000000000e+01,1.090000000000000000e+02,6.580000000000000000e+02,2.310000000000000000e+02,4.400000000000000000e+01,5.800000000000000000e+01,3.260000000000000000e+02,2.860000000000000000e+02,4.799999999999999822e-01,2.608420100000000000e+09
8.100000000000000000e+01,1.020000000000000000e+02,6.020000000000000000e+02,2.200000000000000000e+02,3.900000000000000000e+01,5.300000000000000000e+01,3.830000000000000000e+02,2.670000000000000000e+02,4.799999999999999822e-01,2.626927500000000000e+09
8.700000000000000000e+01,1.140000000000000000e+02,6.650000000000000000e+02,2.170000000000000000e+02,4.200000000000000000e+01,5.400000000000000000e+01,3.820000000000000000e+02,2.420000000000000000e+02,4.799999999999999822e-01,2.646080800000000000e+09
8.500000000000000000e+01,1.180000000000000000e+02,6.530000000000000000e+02,2.280000000000000000e+02,3.900000000000000000e+01,4.800000000000000000e+01,3.600000000000000000e+02,2.240000000000000000e+02,4.799999999999999822e-01,2.666385400000000000e+09
9.500000000000000000e+01,1.220000000000000000e+02,6.490000000000000000e+02,2.270000000000000000e+02,3.700000000000000000e+01,5.100000000000000000e+01,3.830000000000000000e+02,2.810000000000000000e+02,4.899999999999999911e-01,2.684951800000000000e+09
9.600000000000000000e+01,1.180000000000000000e+02,6.250000000000000000e+02,2.100000000000000000e+02,3.600000000000000000e+01,5.000000000000000000e+01,3.910000000000000000e+02,2.510000000000000000e+02,4.899999999999999911e-01,2.703881700000000000e+09
1.180000000000000000e+02,1.280000000000000000e+02,6.940000000000000000e+02,2.130000000000000000e+02,4.200000000000000000e+01,4.800000000000000000e+01,3.100000000000000000e+02,2.500000000000000000e+02,4.899999999999999911e-01,2.722104300000000000e+09
1.190000000000000000e+02,1.120000000000000000e+02,6.030000000000000000e+02,2.010000000000000000e+02,3.800000000000000000e+01,4.500000000000000000e+01,2.930000000000000000e+02,2.450000000000000000e+02,5.000000000000000000e-01,2.742056800000000000e+09
1.220000000000000000e+02,1.020000000000000000e+02,6.170000000000000000e+02,1.850000000000000000e+02,3.900000000000000000e+01,5.300000000000000000e+01,3.260000000000000000e+02,2.540000000000000000e+02,5.000000000000000000e-01,2.761061500000000000e+09
1.150000000000000000e+02,1.050000000000000000e+02,6.060000000000000000e+02,1.960000000000000000e+02,4.300000000000000000e+01,4.800000000000000000e+01,2.700000000000000000e+02,2.700000000000000000e+02,5.100000000000000089e-01,2.780576800000000000e+09
1.140000000000000000e+02,1.050000000000000000e+02,6.030000000000000000e+02,2.020000000000000000e+02,4.900000000000000000e+01,5.200000000000000000e+01,2.500000000000000000e+02,2.660000000000000000e+02,5.100000000000000089e-01,2.799193400000000000e+09
9.800000000000000000e+01,9.900000000000000000e+01,5.910000000000000000e+02,2.000000000000000000e+02,4.700000000000000000e+01,5.400000000000000000e+01,2.590000000000000000e+02,2.890000000000000000e+02,5.200000000000000178e-01,2.818156600000000000e+09
9.500000000000000000e+01,1.000000000000000000e+02,6.150000000000000000e+02,2.080000000000000000e+02,4.500000000000000000e+01,5.400000000000000000e+01,2.530000000000000000e+02,2.890000000000000000e+02,5.200000000000000178e-01,2.837097000000000000e+09
9.300000000000000000e+01,1.100000000000000000e+02,5.870000000000000000e+02,2.070000000000000000e+02,4.300000000000000000e+01,4.900000000000000000e+01,2.390000000000000000e+02,3.050000000000000000e+02,5.200000000000000178e-01,2.856608900000000000e+09
8.500000000000000000e+01,1.060000000000000000e+02,5.460000000000000000e+02,1.890000000000000000e+02,4.300000000000000000e+01,5.000000000000000000e+01,2.710000000000000000e+02,2.760000000000000000e+02,5.200000000000000178e-01,2.874554500000000000e+09
9.900000000000000000e+01,1.230000000000000000e+02,5.900000000000000000e+02,2.530000000000000000e+02,4.600000000000000000e+01,5.000000000000000000e+01,2.810000000000000000e+02,2.760000000000000000e+02,5.300000000000000266e-01,2.893229900000000000e+09
9.100000000000000000e+01,1.210000000000000000e+02,5.300000000000000000e+02,2.570000000000000000e+02,4.700000000000000000e+01,4.700000000000000000e+01,3.060000000000000000e+02,2.460000000000000000e+02,5.300000000000000266e-01,2.912513700000000000e+09
1.200000000000000000e+02,1.240000000000000000e+02,5.250000000000000000e+02,2.560000000000000000e+02,5.000000000000000000e+01,7.300000000000000000e+01,4.270000000000000000e+02,3.220000000000000000e+02,5.400000000000000355e-01,2.931109600000000000e+09
1.250000000000000000e+02,1.350000000000000000e+02,5.980000000000000000e+02,2.910000000000000000e+02,5.600000000000000000e+01,7.200000000000000000e+01,4.530000000000000000e+02,3.080000000000000000e+02,5.400000000000000355e-01,2.950781100000000000e+09
1.200000000000000000e+02,1.390000000000000000e+02,6.260000000000000000e+02,3.100000000000000000e+02,6.500000000000000000e+01,7.500000000000000000e+01,4.710000000000000000e+02,3.040000000000000000e+02,5.400000000000000355e-01,2.969012400000000000e+09
1.160000000000000000e+02,1.340000000000000000e+02,6.080000000000000000e+02,2.650000000000000000e+02,6.300000000000000000e+01,8.100000000000000000e+01,5.140000000000000000e+02,3.190000000000000000e+02,5.400000000000000355e-01,2.987494700000000000e+09
1.280000000000000000e+02,1.310000000000000000e+02,6.280000000000000000e+02,2.550000000000000000e+02,6.100000000000000000e+01,8.500000000000000000e+01,6.130000000000000000e+02,3.670000000000000000e+02,5.400000000000000355e-01,3.006048400000000000e+09
1.060000000000000000e+02,1.450000000000000000e+02,6.330000000000000000e+02,2.750000000000000000e+02,6.900000000000000000e+01,7.400000000000000000e+01,5.650000000000000000e+02,3.350000000000000000e+02,5.500000000000000444e-01,3.025495500000000000e+09
1.030000000000000000e+02,1.370000000000000000e+02,5.920000000000000000e+02,2.430000000000000000e+02,6.900000000000000000e+01,7.600000000000000000e+01,5.410000000000000000e+02,3.310000000000000000e+02,5.500000000000000444e-01,3.044712100000000000e+09
1.030000000000000000e+02,1.240000000000000000e+02,5.420000000000000000e+02,1.910000000000000000e+02,5.500000000000000000e+01,7.400000000000000000e+01,5.150000000000000000e+02,3.510000000000000000e+02,5.400000000000000355e-01,3.065536300000000000e+09
9.600000000000000000e+01,1.300000000000000000e+02,5.470000000000000000e+02,2.030000000000000000e+02,5.400000000000000000e+01,7.300000000000000000e+01,5.400000000000000000e+02,4.100000000000000000e+02,5.400000000000000355e-01,3.085582100000000000e+09
8.900000000000000000e+01,1.310000000000000000e+02,5.640000000000000000e+02,2.630000000000000000e+02,5.800000000000000000e+01,6.700000000000000000e+01,4.080000000000000000e+02,3.630000000000000000e+02,5.400000000000000355e-01,3.105843900000000000e+09
8.700000000000000000e+01,1.240000000000000000e+02,5.690000000000000000e+02,2.520000000000000000e+02,4.700000000000000000e+01,6.000000000000000000e+01,3.830000000000000000e+02,3.550000000000000000e+02,5.400000000000000355e-01,3.125483600000000000e+09
8.700000000000000000e+01,1.240000000000000000e+02,6.250000000000000000e+02,2.620000000000000000e+02,4.600000000000000000e+01,6.100000000000000000e+01,3.920000000000000000e+02,3.880000000000000000e+02,5.400000000000000355e-01,3.146022700000000000e+09
8.800000000000000000e+01,1.380000000000000000e+02,6.120000000000000000e+02,2.630000000000000000e+02,4.700000000000000000e+01,5.700000000000000000e+01,3.730000000000000000e+02,3.370000000000000000e+02,5.400000000000000355e-01,3.165574300000000000e+09
8.500000000000000000e+01,1.220000000000000000e+02,5.550000000000000000e+02,2.440000000000000000e+02,4.200000000000000000e+01,4.500000000000000000e+01,2.670000000000000000e+02,2.490000000000000000e+02,5.400000000000000355e-01,3.184667000000000000e+09
7.900000000000000000e+01,1.210000000000000000e+02,5.920000000000000000e+02,1.890000000000000000e+02,4.000000000000000000e+01,4.800000000000000000e+01,2.600000000000000000e+02,2.750000000000000000e+02,5.400000000000000355e-01,3.206528900000000000e+09
7.300000000000000000e+01,1.080000000000000000e+02,6.010000000000000000e+02,1.730000000000000000e+02,3.700000000000000000e+01,4.300000000000000000e+01,2.280000000000000000e+02,2.530000000000000000e+02,5.300000000000000266e-01,3.225835900000000000e+09
7.400000000000000000e+01,1.030000000000000000e+02,5.050000000000000000e+02,1.470000000000000000e+02,3.200000000000000000e+01,3.800000000000000000e+01,2.130000000000000000e+02,2.150000000000000000e+02,5.300000000000000266e-01,3.245697500000000000e+09
7.500000000000000000e+01,1.080000000000000000e+02,5.350000000000000000e+02,1.550000000000000000e+02,3.800000000000000000e+01,3.900000000000000000e+01,2.330000000000000000e+02,2.500000000000000000e+02,5.300000000000000266e-01,3.265856900000000000e+09
8.300000000000000000e+01,1.060000000000000000e+02,5.090000000000000000e+02,1.560000000000000000e+02,3.700000000000000000e+01,3.700000000000000000e+01,2.040000000000000000e+02,2.470000000000000000e+02,5.300000000000000266e-01,3.285211900000000000e+09
7.700000000000000000e+01,1.170000000000000000e+02,4.670000000000000000e+02,1.550000000000000000e+02,3.600000000000000000e+01,3.400000000000000000e+01,1.820000000000000000e+02,2.580000000000000000e+02,5.300000000000000266e-01,3.304435700000000000e+09
7.600000000000000000e+01,1.200000000000000000e+02,4.270000000000000000e+02,1.570000000000000000e+02,4.000000000000000000e+01,3.600000000000000000e+01,1.730000000000000000e+02,2.980000000000000000e+02,5.300000000000000266e-01,3.327028200000000000e+09
8.400000000000000000e+01,1.510000000000000000e+02,4.600000000000000000e+02,1.670000000000000000e+02,4.700000000000000000e+01,4.900000000000000000e+01,2.200000000000000000e+02,2.960000000000000000e+02,5.200000000000000178e-01,3.347766600000000000e+09
8.900000000000000000e+01,1.360000000000000000e+02,4.530000000000000000e+02,1.740000000000000000e+02,4.200000000000000000e+01,4.800000000000000000e+01,2.000000000000000000e+02,2.810000000000000000e+02,5.200000000000000178e-01,3.367157900000000000e+09
8.000000000000000000e+01,1.450000000000000000e+02,5.450000000000000000e+02,2.040000000000000000e+02,4.400000000000000000e+01,5.300000000000000000e+01,2.250000000000000000e+02,3.040000000000000000e+02,5.200000000000000178e-01,3.386207400000000000e+09
8.200000000000000000e+01,1.380000000000000000e+02,5.340000000000000000e+02,2.050000000000000000e+02,4.600000000000000000e+01,6.100000000000000000e+01,2.710000000000000000e+02,3.150000000000000000e+02,5.100000000000000089e-01,3.405117600000000000e+09
9.100000000000000000e+01,1.410000000000000000e+02,5.710000000000000000e+02,2.060000000000000000e+02,4.700000000000000000e+01,6.500000000000000000e+01,3.040000000000000000e+02,3.160000000000000000e+02,5.100000000000000089e-01,3.423570200000000000e+09
1.090000000000000000e+02,1.590000000000000000e+02,6.080000000000000000e+02,2.000000000000000000e+02,4.400000000000000000e+01,5.700000000000000000e+01,2.790000000000000000e+02,3.070000000000000000e+02,5.100000000000000089e-01,3.442681000000000000e+09
1.070000000000000000e+02,1.710000000000000000e+02,6.360000000000000000e+02,1.980000000000000000e+02,4.500000000000000000e+01,5.800000000000000000e+01,2.980000000000000000e+02,3.000000000000000000e+02,5.100000000000000089e-01,3.461967900000000000e+09
1.110000000000000000e+02,1.790000000000000000e+02,7.420000000000000000e+02,1.890000000000000000e+02,4.500000000000000000e+01,5.600000000000000000e+01,2.900000000000000000e+02,2.740000000000000000e+02,5.000000000000000000e-01,3.481246200000000000e+09
1.120000000000000000e+02,1.780000000000000000e+02,7.280000000000000000e+02,2.160000000000000000e+02,4.900000000000000000e+01,4.700000000000000000e+01,2.570000000000000000e+02,2.530000000000000000e+02,5.100000000000000089e-01,3.501423100000000000e+09
1.140000000000000000e+02,1.850000000000000000e+02,7.500000000000000000e+02,2.320000000000000000e+02,4.900000000000000000e+01,4.400000000000000000e+01,2.390000000000000000e+02,2.340000000000000000e+02,5.100000000000000089e-01,3.522431600000000000e+09
9.700000000000000000e+01,1.440000000000000000e+02,7.040000000000000000e+02,2.480000000000000000e+02,4.500000000000000000e+01,4.600000000000000000e+01,2.610000000000000000e+02,2.590000000000000000e+02,5.100000000000000089e-01,3.542233600000000000e+09
9.500000000000000000e+01,1.480000000000000000e+02,7.590000000000000000e+02,2.450000000000000000e+02,4.500000000000000000e+01,4.400000000000000000e+01,2.500000000000000000e+02,2.550000000000000000e+02,5.100000000000000089e-01,3.562377500000000000e+09
9.300000000000000000e+01,1.450000000000000000e+02,6.400000000000000000e+02,2.430000000000000000e+02,4.600000000000000000e+01,4.500000000000000000e+01,2.510000000000000000e+02,2.590000000000000000e+02,5.200000000000000178e-01,3.581848400000000000e+09
1.000000000000000000e+02,1.410000000000000000e+02,6.920000000000000000e+02,2.130000000000000000e+02,3.900000000000000000e+01,4.700000000000000000e+01,2.670000000000000000e+02,2.660000000000000000e+02,5.200000000000000178e-01,3.600893600000000000e+09
9.200000000000000000e+01,1.360000000000000000e+02,6.730000000000000000e+02,1.880000000000000000e+02,3.700000000000000000e+01,5.100000000000000000e+01,3.310000000000000000e+02,2.350000000000000000e+02,5.200000000000000178e-01,3.619012200000000000e+09
7.900000000000000000e+01,1.300000000000000000e+02,6.820000000000000000e+02,1.780000000000000000e+02,3.800000000000000000e+01,4.900000000000000000e+01,3.090000000000000000e+02,2.570000000000000000e+02,5.200000000000000178e-01,3.638302900000000000e+09
7.200000000000000000e+01,1.050000000000000000e+02,5.810000000000000000e+02,1.790000000000000000e+02,3.800000000000000000e+01,4.900000000000000000e+01,3.010000000000000000e+02,2.540000000000000000e+02,5.200000000000000178e-01,3.657706900000000000e+09
8.100000000000000000e+01,8.800000000000000000e+01,6.130000000000000000e+02,1.680000000000000000e+02,3.800000000000000000e+01,4.800000000000000000e+01,3.080000000000000000e+02,2.520000000000000000e+02,5.200000000000000178e-01,3.677753500000000000e+09
7.000000000000000000e+01,1.140000000000000000e+02,5.450000000000000000e+02,1.640000000000000000e+02,3.700000000000000000e+01,4.600000000000000000e+01,2.900000000000000000e+02,2.440000000000000000e+02,5.100000000000000089e-01,3.699941000000000000e+09
7.100000000000000000e+01,1.040000000000000000e+02,5.610000000000000000e+02,1.650000000000000000e+02,3.600000000000000000e+01,4.000000000000000000e+01,2.020000000000000000e+02,2.500000000000000000e+02,5.100000000000000089e-01,3.722143300000000000e+09
7.100000000000000000e+01,1.090000000000000000e+02,5.470000000000000000e+02,1.650000000000000000e+02,3.500000000000000000e+01,3.600000000000000000e+01,1.710000000000000000e+02,2.020000000000000000e+02,5.200000000000000178e-01,3.739780700000000000e+09
7.700000000000000000e+01,1.170000000000000000e+02,5.450000000000000000e+02,1.610000000000000000e+02,3.400000000000000000e+01,3.500000000000000000e+01,1.650000000000000000e+02,2.030000000000000000e+02,5.200000000000000178e-01,3.758335800000000000e+09
7.600000000000000000e+01,1.190000000000000000e+02,5.350000000000000000e+02,1.670000000000000000e+02,3.100000000000000000e+01,3.400000000000000000e+01,1.510000000000000000e+02,2.640000000000000000e+02,5.100000000000000089e-01,3.779046400000000000e+09
8.400000000000000000e+01,1.090000000000000000e+02,5.670000000000000000e+02,1.730000000000000000e+02,3.000000000000000000e+01,3.200000000000000000e+01,1.480000000000000000e+02,2.520000000000000000e+02,5.100000000000000089e-01,3.801436100000000000e+09
9.900000000000000000e+01,1.140000000000000000e+02,5.210000000000000000e+02,1.690000000000000000e+02,2.900000000000000000e+01,2.800000000000000000e+01,1.300000000000000000e+02,2.450000000000000000e+02,5.100000000000000089e-01,3.819222300000000000e+09
1.020000000000000000e+02,1.260000000000000000e+02,5.070000000000000000e+02,1.590000000000000000e+02,2.700000000000000000e+01,2.900000000000000000e+01,1.270000000000000000e+02,2.370000000000000000e+02,5.100000000000000089e-01,3.837299300000000000e+09
1.110000000000000000e+02,1.550000000000000000e+02,5.610000000000000000e+02,1.820000000000000000e+02,2.900000000000000000e+01,3.100000000000000000e+01,1.310000000000000000e+02,2.360000000000000000e+02,5.100000000000000089e-01,3.858428500000000000e+09
1.090000000000000000e+02,1.660000000000000000e+02,4.780000000000000000e+02,1.630000000000000000e+02,2.900000000000000000e+01,2.800000000000000000e+01,1.040000000000000000e+02,2.230000000000000000e+02,5.200000000000000178e-01,3.881208900000000000e+09
1.030000000000000000e+02,1.610000000000000000e+02,4.220000000000000000e+02,1.520000000000000000e+02,2.900000000000000000e+01,3.100000000000000000e+01,1.080000000000000000e+02,1.970000000000000000e+02,5.200000000000000178e-01,3.906325800000000000e+09
8.500000000000000000e+01,1.600000000000000000e+02,3.980000000000000000e+02,1.440000000000000000e+02,2.800000000000000000e+01,3.000000000000000000e+01,1.040000000000000000e+02,1.930000000000000000e+02,5.300000000000000266e-01,3.924356500000000000e+09
8.100000000000000000e+01,1.790000000000000000e+02,3.920000000000000000e+02,1.410000000000000000e+02,2.900000000000000000e+01,2.800000000000000000e+01,1.020000000000000000e+02,1.940000000000000000e+02,5.300000000000000266e-01,3.942604800000000000e+09
6.000000000000000000e+01,1.590000000000000000e+02,2.930000000000000000e+02,9.900000000000000000e+01,2.700000000000000000e+01,2.900000000000000000e+01,8.900000000000000000e+01,1.900000000000000000e+02,5.300000000000000266e-01,3.961105500000000000e+09
4.500000000000000000e+01,1.460000000000000000e+02,2.980000000000000000e+02,1.070000000000000000e+02,2.800000000000000000e+01,2.800000000000000000e+01,8.000000000000000000e+01,9.900000000000000000e+01,5.400000000000000355e-01,3.980260500000000000e+09
3.800000000000000000e+01,1.470000000000000000e+02,4.730000000000000000e+02,1.560000000000000000e+02,2.800000000000000000e+01,2.700000000000000000e+01,3.900000000000000000e+01,8.400000000000000000e+01,5.400000000000000355e-01,4.001129600000000000e+09
4.400000000000000000e+01,1.670000000000000000e+02,5.430000000000000000e+02,2.120000000000000000e+02,4.000000000000000000e+01,3.900000000000000000e+01,3.300000000000000000e+01,7.200000000000000000e+01,5.500000000000000444e-01,4.020347200000000000e+09
5.100000000000000000e+01,1.420000000000000000e+02,7.020000000000000000e+02,2.880000000000000000e+02,6.400000000000000000e+01,6.300000000000000000e+01,3.000000000000000000e+01,5.800000000000000000e+01,5.600000000000000533e-01,4.039212800000000000e+09
6.800000000000000000e+01,1.740000000000000000e+02,7.710000000000000000e+02,3.810000000000000000e+02,9.800000000000000000e+01,8.500000000000000000e+01,3.500000000000000000e+01,5.800000000000000000e+01,5.600000000000000533e-01,4.057254300000000000e+09
8.800000000000000000e+01,2.180000000000000000e+02,8.620000000000000000e+02,5.340000000000000000e+02,1.180000000000000000e+02,1.010000000000000000e+02,4.900000000000000000e+01,6.100000000000000000e+01,5.600000000000000533e-01,4.078810800000000000e+09
1.340000000000000000e+02,3.170000000000000000e+02,9.220000000000000000e+02,6.860000000000000000e+02,1.790000000000000000e+02,1.290000000000000000e+02,6.800000000000000000e+01,8.200000000000000000e+01,5.400000000000000355e-01,4.101143900000000000e+09
1.590000000000000000e+02,3.890000000000000000e+02,1.021000000000000000e+03,8.440000000000000000e+02,2.020000000000000000e+02,1.440000000000000000e+02,7.500000000000000000e+01,9.300000000000000000e+01,5.300000000000000266e-01,4.120416700000000000e+09
1.830000000000000000e+02,4.450000000000000000e+02,1.088000000000000000e+03,9.180000000000000000e+02,2.140000000000000000e+02,1.590000000000000000e+02,8.100000000000000000e+01,1.040000000000000000e+02,5.100000000000000089e-01,4.138923300000000000e+09
1.930000000000000000e+02,4.770000000000000000e+02,1.142000000000000000e+03,9.570000000000000000e+02,2.230000000000000000e+02,1.630000000000000000e+02,8.900000000000000000e+01,1.230000000000000000e+02,4.899999999999999911e-01,4.156829200000000000e+09
1.990000000000000000e+02,4.840000000000000000e+02,1.128000000000000000e+03,9.740000000000000000e+02,2.520000000000000000e+02,1.800000000000000000e+02,9.000000000000000000e+01,1.820000000000000000e+02,4.799999999999999822e-01,4.178806900000000000e+09
1.940000000000000000e+02,4.670000000000000000e+02,1.115000000000000000e+03,1.014000000000000000e+03,2.190000000000000000e+02,1.660000000000000000e+02,9.400000000000000000e+01,1.740000000000000000e+02,4.600000000000000200e-01,4.201016000000000000e+09
2.110000000000000000e+02,4.950000000000000000e+02,1.146000000000000000e+03,1.106000000000000000e+03,2.630000000000000000e+02,1.810000000000000000e+02,1.080000000000000000e+02,1.870000000000000000e+02,4.400000000000000022e-01,4.220553300000000000e+09
2.100000000000000000e+02,5.160000000000000000e+02,1.162000000000000000e+03,1.096000000000000000e+03,2.680000000000000000e+02,1.710000000000000000e+02,1.120000000000000000e+02,1.870000000000000000e+02,4.199999999999999845e-01,4.243842200000000000e+09
2.040000000000000000e+02,5.010000000000000000e+02,1.096000000000000000e+03,1.094000000000000000e+03,2.650000000000000000e+02,1.660000000000000000e+02,1.100000000000000000e+02,1.760000000000000000e+02,3.900000000000000133e-01,4.262061500000000000e+09
2.000000000000000000e+02,5.020000000000000000e+02,1.115000000000000000e+03,1.068000000000000000e+03,2.490000000000000000e+02,1.580000000000000000e+02,1.110000000000000000e+02,1.110000000000000000e+02,3.699999999999999956e-01,4.280828900000000000e+09
1.910000000000000000e+02,5.090000000000000000e+02,1.112000000000000000e+03,1.003000000000000000e+03,2.500000000000000000e+02,1.570000000000000000e+02,1.020000000000000000e+02,1.170000000000000000e+02,3.499999999999999778e-01,4.301833000000000000e+09
1.820000000000000000e+02,4.690000000000000000e+02,1.083000000000000000e+03,9.330000000000000000e+02,2.270000000000000000e+02,1.470000000000000000e+02,9.700000000000000000e+01,1.090000000000000000e+02,3.300000000000000155e-01,4.321247300000000000e+09
1.840000000000000000e+02,4.330000000000000000e+02,9.910000000000000000e+02,9.220000000000000000e+02,2.360000000000000000e+02,1.490000000000000000e+02,9.500000000000000000e+01,1.090000000000000000e+02,3.200000000000000067e-01,4.339957200000000000e+09
1.920000000000000000e+02,4.450000000000000000e+02,1.109000000000000000e+03,8.850000000000000000e+02,2.550000000000000000e+02,1.550000000000000000e+02,9.500000000000000000e+01,1.150000000000000000e+02,3.099999999999999978e-01,4.358790700000000000e+09
1.940000000000000000e+02,4.300000000000000000e+02,1.098000000000000000e+03,8.600000000000000000e+02,2.630000000000000000e+02,1.500000000000000000e+02,9.300000000000000000e+01,1.200000000000000000e+02,2.999999999999999889e-01,4.380981700000000000e+09
1.970000000000000000e+02,4.200000000000000000e+02,1.173000000000000000e+03,8.170000000000000000e+02,2.790000000000000000e+02,1.600000000000000000e+02,9.500000000000000000e+01,1.230000000000000000e+02,2.899999999999999800e-01,4.399021800000000000e+09
1.840000000000000000e+02,4.190000000000000000e+02,1.124000000000000000e+03,8.420000000000000000e+02,2.610000000000000000e+02,1.470000000000000000e+02,8.400000000000000000e+01,1.080000000000000000e+02,2.800000000000000266e-01,4.416890700000000000e+09
1.860000000000000000e+02,4.310000000000000000e+02,1.116000000000000000e+03,9.170000000000000000e+02,2.540000000000000000e+02,1.570000000000000000e+02,8.600000000000000000e+01,1.120000000000000000e+02,2.700000000000000178e-01,4.437262600000000000e+09
1.890000000000000000e+02,4.270000000000000000e+02,1.099000000000000000e+03,1.007000000000000000e+03,2.310000000000000000e+02,1.550000000000000000e+02,8.800000000000000000e+01,1.130000000000000000e+02,2.600000000000000089e-01,4.459950100000000000e+09
1.850000000000000000e+02,4.500000000000000000e+02,1.148000000000000000e+03,1.107000000000000000e+03,2.330000000000000000e+02,1.630000000000000000e+02,9.000000000000000000e+01,1.130000000000000000e+02,2.600000000000000089e-01,4.479116100000000000e+09
1.820000000000000000e+02,4.590000000000000000e+02,1.066000000000000000e+03,1.214000000000000000e+03,2.230000000000000000e+02,1.630000000000000000e+02,8.700000000000000000e+01,1.080000000000000000e+02,2.500000000000000000e-01,4.497457400000000000e+09
1.810000000000000000e+02,4.330000000000000000e+02,1.133000000000000000e+03,1.145000000000000000e+03,2.230000000000000000e+02,1.620000000000000000e+02,9.400000000000000000e+01,1.090000000000000000e+02,2.500000000000000000e-01,4.515857400000000000e+09
1.600000000000000000e+02,3.900000000000000000e+02,1.124000000000000000e+03,1.063000000000000000e+03,2.210000000000000000e+02,1.460000000000000000e+02,9.500000000000000000e+01,1.000000000000000000e+02,2.500000000000000000e-01,4.538058200000000000e+09
1.420000000000000000e+02,3.620000000000000000e+02,1.116000000000000000e+03,9.540000000000000000e+02,2.210000000000000000e+02,1.360000000000000000e+02,1.010000000000000000e+02,8.700000000000000000e+01,2.500000000000000000e-01,4.560170100000000000e+09
1.350000000000000000e+02,3.360000000000000000e+02,1.101000000000000000e+03,8.430000000000000000e+02,1.980000000000000000e+02,1.150000000000000000e+02,9.500000000000000000e+01,8.300000000000000000e+01,2.399999999999999911e-01,4.582482400000000000e+09
1.200000000000000000e+02,2.920000000000000000e+02,1.109000000000000000e+03,6.540000000000000000e+02,1.780000000000000000e+02,9.500000000000000000e+01,9.200000000000000000e+01,7.600000000000000000e+01,2.399999999999999911e-01,4.600508000000000000e+09
1.010000000000000000e+02,2.950000000000000000e+02,1.050000000000000000e+03,5.190000000000000000e+02,1.590000000000000000e+02,9.000000000000000000e+01,8.300000000000000000e+01,6.900000000000000000e+01,2.399999999999999911e-01,4.619240100000000000e+09
8.900000000000000000e+01,2.970000000000000000e+02,1.021000000000000000e+03,5.330000000000000000e+02,1.410000000000000000e+02,8.600000000000000000e+01,7.000000000000000000e+01,5.900000000000000000e+01,2.399999999999999911e-01,4.637925500000000000e+09
1.020000000000000000e+02,3.480000000000000000e+02,9.630000000000000000e+02,6.060000000000000000e+02,1.560000000000000000e+02,9.400000000000000000e+01,5.800000000000000000e+01,6.600000000000000000e+01,2.399999999999999911e-01,4.660075800000000000e+09
1.020000000000000000e+02,3.460000000000000000e+02,9.990000000000000000e+02,5.480000000000000000e+02,1.580000000000000000e+02,9.500000000000000000e+01,5.700000000000000000e+01,6.500000000000000000e+01,2.399999999999999911e-01,4.682426700000000000e+09
1.100000000000000000e+02,3.330000000000000000e+02,9.590000000000000000e+02,5.650000000000000000e+02,1.710000000000000000e+02,1.070000000000000000e+02,6.200000000000000000e+01,7.000000000000000000e+01,2.399999999999999911e-01,4.700714700000000000e+09
1.040000000000000000e+02,3.060000000000000000e+02,9.290000000000000000e+02,5.550000000000000000e+02,1.700000000000000000e+02,1.030000000000000000e+02,5.600000000000000000e+01,6.300000000000000000e+01,2.300000000000000100e-01,4.719735200000000000e+09
1.080000000000000000e+02,2.880000000000000000e+02,1.022000000000000000e+03,5.360000000000000000e+02,1.710000000000000000e+02,1.070000000000000000e+02,5.700000000000000000e+01,6.700000000000000000e+01,2.300000000000000100e-01,4.737891300000000000e+09
9.600000000000000000e+01,2.230000000000000000e+02,9.840000000000000000e+02,4.930000000000000000e+02,1.450000000000000000e+02,9.600000000000000000e+01,5.000000000000000000e+01,5.900000000000000000e+01,2.300000000000000100e-01,4.759989900000000000e+09
9.200000000000000000e+01,2.030000000000000000e+02,8.450000000000000000e+02,4.920000000000000000e+02,1.380000000000000000e+02,9.500000000000000000e+01,4.700000000000000000e+01,5.600000000000000000e+01,2.399999999999999911e-01,4.782404400000000000e+09
8.500000000000000000e+01,1.810000000000000000e+02,8.100000000000000000e+02,4.440000000000000000e+02,1.250000000000000000e+02,8.500000000000000000e+01,4.400000000000000000e+01,5.100000000000000000e+01,2.500000000000000000e-01,4.801826600000000000e+09
8.300000000000000000e+01,1.830000000000000000e+02,8.300000000000000000e+02,4.300000000000000000e+02,1.210000000000000000e+02,8.200000000000000000e+01,4.500000000000000000e+01,5.100000000000000000e+01,2.600000000000000089e-01,4.819548800000000000e+09
7.500000000000000000e+01,1.890000000000000000e+02,7.650000000000000000e+02,3.600000000000000000e+02,1.030000000000000000e+02,7.000000000000000000e+01,4.000000000000000000e+01,4.400000000000000000e+01,2.700000000000000178e-01,4.838733900000000000e+09
6.900000000000000000e+01,1.550000000000000000e+02,7.730000000000000000e+02,2.860000000000000000e+02,9.600000000000000000e+01,6.700000000000000000e+01,3.800000000000000000e+01,4.500000000000000000e+01,2.899999999999999800e-01,4.858802700000000000e+09
6.900000000000000000e+01,1.640000000000000000e+02,8.020000000000000000e+02,2.890000000000000000e+02,8.900000000000000000e+01,6.800000000000000000e+01,4.700000000000000000e+01,4.800000000000000000e+01,2.999999999999999889e-01,4.880868100000000000e+09
6.100000000000000000e+01,1.610000000000000000e+02,7.630000000000000000e+02,2.770000000000000000e+02,8.000000000000000000e+01,6.200000000000000000e+01,4.400000000000000000e+01,4.700000000000000000e+01,3.099999999999999978e-01,4.898526900000000000e+09
6.500000000000000000e+01,1.370000000000000000e+02,6.450000000000000000e+02,2.410000000000000000e+02,7.100000000000000000e+01,6.900000000000000000e+01,1.060000000000000000e+02,5.000000000000000000e+01,3.300000000000000155e-01,4.916659200000000000e+09
6.300000000000000000e+01,1.200000000000000000e+02,5.380000000000000000e+02,2.340000000000000000e+02,6.700000000000000000e+01,8.000000000000000000e+01,1.330000000000000000e+02,1.250000000000000000e+02,3.599999999999999867e-01,4.936456000000000000e+09
9.600000000000000000e+01,1.590000000000000000e+02,5.360000000000000000e+02,2.800000000000000000e+02,8.500000000000000000e+01,9.800000000000000000e+01,1.410000000000000000e+02,2.990000000000000000e+02,3.699999999999999956e-01,4.958656100000000000e+09
9.400000000000000000e+01,1.340000000000000000e+02,4.530000000000000000e+02,2.590000000000000000e+02,7.100000000000000000e+01,1.090000000000000000e+02,1.530000000000000000e+02,3.180000000000000000e+02,4.000000000000000222e-01,4.980874600000000000e+09
1.010000000000000000e+02,1.330000000000000000e+02,4.270000000000000000e+02,2.600000000000000000e+02,7.200000000000000000e+01,1.180000000000000000e+02,1.610000000000000000e+02,3.300000000000000000e+02,4.099999999999999756e-01,4.998911500000000000e+09
9.800000000000000000e+01,1.330000000000000000e+02,4.260000000000000000e+02,2.570000000000000000e+02,7.200000000000000000e+01,1.150000000000000000e+02,1.480000000000000000e+02,3.760000000000000000e+02,4.199999999999999845e-01,5.016875400000000000e+09
1.040000000000000000e+02,1.300000000000000000e+02,4.070000000000000000e+02,2.350000000000000000e+02,7.000000000000000000e+01,1.340000000000000000e+02,1.730000000000000000e+02,4.680000000000000000e+02,4.299999999999999933e-01,5.038236000000000000e+09
7.200000000000000000e+01,8.700000000000000000e+01,3.650000000000000000e+02,1.540000000000000000e+02,3.700000000000000000e+01,1.360000000000000000e+02,2.190000000000000000e+02,3.880000000000000000e+02,4.400000000000000022e-01,5.058626500000000000e+09
6.600000000000000000e+01,9.000000000000000000e+01,3.640000000000000000e+02,1.200000000000000000e+02,3.500000000000000000e+01,1.220000000000000000e+02,2.120000000000000000e+02,3.760000000000000000e+02,4.400000000000000022e-01,5.080802600000000000e+09
5.700000000000000000e+01,8.900000000000000000e+01,3.550000000000000000e+02,1.100000000000000000e+02,3.100000000000000000e+01,1.150000000000000000e+02,2.100000000000000000e+02,3.680000000000000000e+02,4.500000000000000111e-01,5.098746300000000000e+09
6.100000000000000000e+01,1.050000000000000000e+02,4.270000000000000000e+02,1.600000000000000000e+02,4.800000000000000000e+01,1.140000000000000000e+02,1.980000000000000000e+02,3.270000000000000000e+02,4.500000000000000111e-01,5.117416700000000000e+09
5.700000000000000000e+01,1.050000000000000000e+02,4.310000000000000000e+02,1.700000000000000000e+02,5.400000000000000000e+01,8.300000000000000000e+01,1.760000000000000000e+02,1.390000000000000000e+02,4.600000000000000200e-01,5.136357500000000000e+09
5.900000000000000000e+01,1.030000000000000000e+02,5.300000000000000000e+02,1.730000000000000000e+02,6.000000000000000000e+01,5.200000000000000000e+01,1.070000000000000000e+02,1.200000000000000000e+02,4.699999999999999734e-01,5.158495000000000000e+09
6.400000000000000000e+01,1.320000000000000000e+02,5.520000000000000000e+02,1.920000000000000000e+02,6.300000000000000000e+01,4.900000000000000000e+01,1.050000000000000000e+02,1.050000000000000000e+02,4.699999999999999734e-01,5.180879800000000000e+09
6.700000000000000000e+01,1.500000000000000000e+02,6.010000000000000000e+02,2.020000000000000000e+02,6.600000000000000000e+01,4.500000000000000000e+01,9.900000000000000000e+01,9.100000000000000000e+01,4.799999999999999822e-01,5.198812200000000000e+09
5.900000000000000000e+01,1.410000000000000000e+02,5.760000000000000000e+02,1.670000000000000000e+02,5.400000000000000000e+01,4.400000000000000000e+01,1.000000000000000000e+02,7.200000000000000000e+01,4.899999999999999911e-01,5.219032500000000000e+09
5.700000000000000000e+01,1.410000000000000000e+02,5.740000000000000000e+02,1.500000000000000000e+02,4.800000000000000000e+01,5.100000000000000000e+01,8.200000000000000000e+01,6.400000000000000000e+01,4.899999999999999911e-01,5.237889700000000000e+09
6.100000000000000000e+01,1.310000000000000000e+02,5.010000000000000000e+02,1.700000000000000000e+02,4.700000000000000000e+01,1.190000000000000000e+02,1.190000000000000000e+02,2.220000000000000000e+02,5.000000000000000000e-01,5.259445800000000000e+09
5.700000000000000000e+01,1.060000000000000000e+02,5.130000000000000000e+02,1.640000000000000000e+02,4.200000000000000000e+01,1.310000000000000000e+02,1.210000000000000000e+02,2.290000000000000000e+02,5.100000000000000089e-01,5.281892400000000000e+09
5.400000000000000000e+01,8.000000000000000000e+01,4.690000000000000000e+02,1.570000000000000000e+02,4.200000000000000000e+01,1.340000000000000000e+02,1.220000000000000000e+02,2.370000000000000000e+02,5.100000000000000089e-01,5.300436100000000000e+09
5.500000000000000000e+01,7.800000000000000000e+01,4.620000000000000000e+02,1.650000000000000000e+02,4.600000000000000000e+01,1.380000000000000000e+02,1.220000000000000000e+02,2.400000000000000000e+02,5.200000000000000178e-01,5.320159400000000000e+09
4.900000000000000000e+01,7.900000000000000000e+01,4.820000000000000000e+02,1.710000000000000000e+02,4.600000000000000000e+01,1.370000000000000000e+02,1.080000000000000000e+02,2.370000000000000000e+02,5.200000000000000178e-01,5.338933200000000000e+09
4.400000000000000000e+01,8.200000000000000000e+01,4.820000000000000000e+02,1.640000000000000000e+02,4.100000000000000000e+01,9.200000000000000000e+01,7.500000000000000000e+01,1.130000000000000000e+02,5.400000000000000355e-01,5.359795500000000000e+09
4.400000000000000000e+01,8.000000000000000000e+01,4.670000000000000000e+02,1.670000000000000000e+02,4.600000000000000000e+01,7.700000000000000000e+01,6.900000000000000000e+01,9.600000000000000000e+01,5.400000000000000355e-01,5.382105000000000000e+09
4.200000000000000000e+01,8.000000000000000000e+01,4.630000000000000000e+02,1.650000000000000000e+02,4.200000000000000000e+01,7.200000000000000000e+01,1.180000000000000000e+02,7.300000000000000000e+01,5.500000000000000444e-01,5.400374200000000000e+09
4.200000000000000000e+01,8.100000000000000000e+01,4.500000000000000000e+02,1.690000000000000000e+02,4.000000000000000000e+01,6.500000000000000000e+01,1.190000000000000000e+02,6.400000000000000000e+01,5.500000000000000444e-01,5.418279900000000000e+09
4.000000000000000000e+01,7.500000000000000000e+01,4.280000000000000000e+02,1.800000000000000000e+02,4.000000000000000000e+01,5.700000000000000000e+01,1.220000000000000000e+02,5.900000000000000000e+01,5.600000000000000533e-01,5.437559000000000000e+09
3.800000000000000000e+01,8.600000000000000000e+01,4.060000000000000000e+02,1.810000000000000000e+02,4.200000000000000000e+01,5.200000000000000000e+01,1.150000000000000000e+02,3.900000000000000000e+01,5.600000000000000533e-01,5.459764100000000000e+09
3.700000000000000000e+01,9.200000000000000000e+01,3.680000000000000000e+02,1.810000000000000000e+02,3.600000000000000000e+01,4.100000000000000000e+01,1.130000000000000000e+02,3.800000000000000000e+01,5.699999999999999512e-01,5.482127500000000000e+09
3.600000000000000000e+01,8.900000000000000000e+01,4.610000000000000000e+02,1.810000000000000000e+02,3.600000000000000000e+01,4.000000000000000000e+01,5.600000000000000000e+01,3.700000000000000000e+01,5.799999999999999600e-01,5.501336200000000000e+09
3.500000000000000000e+01,8.700000000000000000e+01,4.680000000000000000e+02,1.870000000000000000e+02,3.600000000000000000e+01,3.700000000000000000e+01,4.800000000000000000e+01,3.500000000000000000e+01,5.899999999999999689e-01,5.519770500000000000e+09
3.400000000000000000e+01,8.600000000000000000e+01,4.360000000000000000e+02,1.760000000000000000e+02,3.600000000000000000e+01,3.600000000000000000e+01,4.100000000000000000e+01,3.000000000000000000e+01,5.999999999999999778e-01,5.537655200000000000e+09
3.400000000000000000e+01,7.000000000000000000e+01,4.000000000000000000e+02,1.840000000000000000e+02,3.800000000000000000e+01,3.100000000000000000e+01,3.200000000000000000e+01,2.500000000000000000e+01,6.099999999999999867e-01,5.559805100000000000e+09
3.400000000000000000e+01,5.400000000000000000e+01,3.990000000000000000e+02,1.880000000000000000e+02,4.200000000000000000e+01,3.700000000000000000e+01,3.100000000000000000e+01,2.300000000000000000e+01,6.199999999999999956e-01,5.582103100000000000e+09
3.800000000000000000e+01,6.500000000000000000e+01,3.310000000000000000e+02,1.940000000000000000e+02,4.600000000000000000e+01,3.900000000000000000e+01,2.900000000000000000e+01,2.700000000000000000e+01,6.300000000000000044e-01,5.600441500000000000e+09
4.300000000000000000e+01,9.900000000000000000e+01,3.620000000000000000e+02,2.040000000000000000e+02,4.900000000000000000e+01,4.000000000000000000e+01,2.900000000000000000e+01,2.800000000000000000e+01,6.400000000000000133e-01,5.619142500000000000e+09
4.900000000000000000e+01,1.130000000000000000e+02,3.780000000000000000e+02,2.380000000000000000e+02,5.500000000000000000e+01,4.500000000000000000e+01,3.100000000000000000e+01,3.100000000000000000e+01,6.400000000000000133e-01,5.637606400000000000e+09
4.600000000000000000e+01,1.160000000000000000e+02,3.660000000000000000e+02,2.160000000000000000e+02,4.900000000000000000e+01,4.000000000000000000e+01,3.100000000000000000e+01,2.900000000000000000e+01,6.400000000000000133e-01,5.659653600000000000e+09
4.800000000000000000e+01,1.180000000000000000e+02,3.740000000000000000e+02,1.980000000000000000e+02,4.800000000000000000e+01,3.700000000000000000e+01,3.100000000000000000e+01,3.000000000000000000e+01,6.500000000000000222e-01,5.681883300000000000e+09
4.700000000000000000e+01,1.200000000000000000e+02,3.530000000000000000e+02,2.220000000000000000e+02,4.800000000000000000e+01,3.800000000000000000e+01,2.900000000000000000e+01,2.800000000000000000e+01,6.500000000000000222e-01,5.699490000000000000e+09
4.700000000000000000e+01,1.090000000000000000e+02,4.070000000000000000e+02,2.150000000000000000e+02,4.500000000000000000e+01,3.900000000000000000e+01,3.100000000000000000e+01,3.000000000000000000e+01,6.600000000000000311e-01,5.718638000000000000e+09
4.100000000000000000e+01,1.020000000000000000e+02,4.090000000000000000e+02,1.790000000000000000e+02,3.800000000000000000e+01,3.400000000000000000e+01,2.900000000000000000e+01,2.700000000000000000e+01,6.600000000000000311e-01,5.737539800000000000e+09
4.000000000000000000e+01,9.800000000000000000e+01,4.070000000000000000e+02,1.880000000000000000e+02,3.800000000000000000e+01,3.300000000000000000e+01,2.800000000000000000e+01,2.600000000000000000e+01,6.600000000000000311e-01,5.759659700000000000e+09
4.400000000000000000e+01,1.080000000000000000e+02,4.870000000000000000e+02,1.970000000000000000e+02,3.800000000000000000e+01,3.300000000000000000e+01,2.800000000000000000e+01,3.100000000000000000e+01,6.600000000000000311e-01,5.782426100000000000e+09
5.500000000000000000e+01,1.100000000000000000e+02,4.820000000000000000e+02,1.680000000000000000e+02,3.600000000000000000e+01,2.800000000000000000e+01,2.700000000000000000e+01,6.600000000000000000e+01,6.700000000000000400e-01,5.801440400000000000e+09
5.500000000000000000e+01,1.050000000000000000e+02,3.970000000000000000e+02,1.430000000000000000e+02,3.500000000000000000e+01,2.800000000000000000e+01,2.500000000000000000e+01,1.800000000000000000e+02,6.600000000000000311e-01,5.820454600000000000e+09
5.600000000000000000e+01,9.900000000000000000e+01,4.260000000000000000e+02,1.340000000000000000e+02,3.400000000000000000e+01,3.100000000000000000e+01,2.500000000000000000e+01,1.890000000000000000e+02,6.600000000000000311e-01,5.839189700000000000e+09
6.100000000000000000e+01,1.030000000000000000e+02,4.530000000000000000e+02,1.220000000000000000e+02,3.600000000000000000e+01,3.500000000000000000e+01,2.500000000000000000e+01,1.940000000000000000e+02,6.600000000000000311e-01,5.859688200000000000e+09
6.200000000000000000e+01,9.500000000000000000e+01,3.730000000000000000e+02,1.240000000000000000e+02,3.800000000000000000e+01,3.500000000000000000e+01,2.600000000000000000e+01,1.970000000000000000e+02,6.500000000000000222e-01,5.882105200000000000e+09
5.500000000000000000e+01,9.500000000000000000e+01,3.500000000000000000e+02,1.130000000000000000e+02,3.300000000000000000e+01,3.500000000000000000e+01,2.700000000000000000e+01,2.050000000000000000e+02,6.400000000000000133e-01,5.900151500000000000e+09
6.200000000000000000e+01,9.100000000000000000e+01,3.630000000000000000e+02,1.140000000000000000e+02,3.300000000000000000e+01,3.600000000000000000e+01,3.200000000000000000e+01,2.500000000000000000e+02,6.300000000000000044e-01,5.918401400000000000e+09
6.600000000000000000e+01,9.500000000000000000e+01,4.080000000000000000e+02,1.140000000000000000e+02,3.300000000000000000e+01,4.500000000000000000e+01,3.500000000000000000e+01,2.620000000000000000e+02,6.199999999999999956e-01,5.937914400000000000e+09
6.700000000000000000e+01,1.080000000000000000e+02,3.750000000000000000e+02,1.110000000000000000e+02,3.200000000000000000e+01,4.500000000000000000e+01,3.600000000000000000e+01,2.600000000000000000e+02,6.099999999999999867e-01,5.961562500000000000e+09
6.500000000000000000e+01,1.070000000000000000e+02,4.060000000000000000e+02,1.010000000000000000e+02,2.800000000000000000e+01,4.400000000000000000e+01,3.600000000000000000e+01,2.660000000000000000e+02,5.999999999999999778e-01,5.983738700000000000e+09
6.300000000000000000e+01,1.800000000000000000e+02,4.480000000000000000e+02,1.010000000000000000e+02,2.800000000000000000e+01,4.500000000000000000e+01,3.600000000000000000e+01,2.590000000000000000e+02,5.899999999999999689e-01,6.002521200000000000e+09
5.700000000000000000e+01,1.830000000000000000e+02,4.700000000000000000e+02,1.140000000000000000e+02,3.000000000000000000e+01,4.500000000000000000e+01,3.400000000000000000e+01,2.150000000000000000e+02,5.799999999999999600e-01,6.020666700000000000e+09
5.600000000000000000e+01,1.950000000000000000e+02,4.100000000000000000e+02,1.310000000000000000e+02,3.000000000000000000e+01,3.200000000000000000e+01,3.200000000000000000e+01,2.240000000000000000e+02,5.699999999999999512e-01,6.040425900000000000e+09
6.000000000000000000e+01,2.160000000000000000e+02,4.970000000000000000e+02,1.550000000000000000e+02,3.300000000000000000e+01,3.300000000000000000e+01,3.500000000000000000e+01,2.390000000000000000e+02,5.699999999999999512e-01,6.059642600000000000e+09
6.500000000000000000e+01,2.200000000000000000e+02,4.690000000000000000e+02,1.460000000000000000e+02,3.300000000000000000e+01,3.500000000000000000e+01,3.600000000000000000e+01,2.350000000000000000e+02,5.600000000000000533e-01,6.081845500000000000e+09
6.400000000000000000e+01,1.680000000000000000e+02,4.690000000000000000e+02,1.410000000000000000e+02,3.400000000000000000e+01,4.300000000000000000e+01,3.800000000000000000e+01,2.700000000000000000e+02,5.600000000000000533e-01,6.099712400000000000e+09
6.400000000000000000e+01,1.750000000000000000e+02,4.450000000000000000e+02,1.630000000000000000e+02,3.300000000000000000e+01,4.500000000000000000e+01,1.010000000000000000e+02,2.440000000000000000e+02,5.500000000000000444e-01,6.118690000000000000e+09
6.900000000000000000e+01,1.680000000000000000e+02,4.830000000000000000e+02,2.330000000000000000e+02,4.100000000000000000e+01,4.900000000000000000e+01,1.110000000000000000e+02,2.360000000000000000e+02,5.500000000000000444e-01,6.141477700000000000e+09
6.900000000000000000e+01,1.350000000000000000e+02,4.480000000000000000e+02,2.480000000000000000e+02,4.300000000000000000e+01,5.200000000000000000e+01,1.120000000000000000e+02,2.240000000000000000e+02,5.600000000000000533e-01,6.159749400000000000e+09
6.800000000000000000e+01,1.370000000000000000e+02,5.560000000000000000e+02,2.980000000000000000e+02,4.700000000000000000e+01,6.600000000000000000e+01,1.180000000000000000e+02,2.250000000000000000e+02,5.600000000000000533e-01,6.181894300000000000e+09
7.400000000000000000e+01,1.320000000000000000e+02,5.540000000000000000e+02,3.070000000000000000e+02,5.000000000000000000e+01,1.130000000000000000e+02,1.480000000000000000e+02,2.300000000000000000e+02,5.699999999999999512e-01,6.201296000000000000e+09
7.400000000000000000e+01,1.180000000000000000e+02,5.950000000000000000e+02,3.030000000000000000e+02,5.100000000000000000e+01,1.180000000000000000e+02,1.210000000000000000e+02,2.090000000000000000e+02,5.699999999999999512e-01,6.219161900000000000e+09
6.700000000000000000e+01,1.240000000000000000e+02,5.840000000000000000e+02,2.490000000000000000e+02,4.400000000000000000e+01,1.190000000000000000e+02,1.160000000000000000e+02,1.990000000000000000e+02,5.799999999999999600e-01,6.237840100000000000e+09
6.500000000000000000e+01,1.200000000000000000e+02,5.580000000000000000e+02,2.170000000000000000e+02,3.900000000000000000e+01,1.190000000000000000e+02,1.210000000000000000e+02,1.950000000000000000e+02,5.799999999999999600e-01,6.261342200000000000e+09
6.200000000000000000e+01,1.160000000000000000e+02,4.530000000000000000e+02,1.410000000000000000e+02,3.400000000000000000e+01,1.130000000000000000e+02,1.170000000000000000e+02,1.890000000000000000e+02,5.899999999999999689e-01,6.281723900000000000e+09
5.300000000000000000e+01,1.080000000000000000e+02,4.440000000000000000e+02,1.380000000000000000e+02,3.100000000000000000e+01,6.000000000000000000e+01,7.600000000000000000e+01,1.170000000000000000e+02,5.899999999999999689e-01,6.299703000000000000e+09
5.000000000000000000e+01,1.050000000000000000e+02,3.860000000000000000e+02,1.250000000000000000e+02,2.900000000000000000e+01,4.700000000000000000e+01,6.500000000000000000e+01,9.500000000000000000e+01,5.899999999999999689e-01,6.321116600000000000e+09
4.500000000000000000e+01,7.600000000000000000e+01,3.170000000000000000e+02,1.170000000000000000e+02,2.900000000000000000e+01,4.100000000000000000e+01,5.700000000000000000e+01,6.100000000000000000e+01,5.999999999999999778e-01,6.340689000000000000e+09
3.700000000000000000e+01,6.800000000000000000e+01,2.770000000000000000e+02,1.280000000000000000e+02,3.300000000000000000e+01,3.700000000000000000e+01,4.100000000000000000e+01,5.200000000000000000e+01,6.099999999999999867e-01,6.359587400000000000e+09
3.200000000000000000e+01,5.400000000000000000e+01,3.050000000000000000e+02,1.420000000000000000e+02,3.100000000000000000e+01,3.100000000000000000e+01,3.200000000000000000e+01,4.400000000000000000e+01,6.099999999999999867e-01,6.382966900000000000e+09
3.600000000000000000e+01,6.000000000000000000e+01,2.710000000000000000e+02,1.450000000000000000e+02,3.300000000000000000e+01,3.300000000000000000e+01,2.900000000000000000e+01,3.800000000000000000e+01,6.099999999999999867e-01,6.400832600000000000e+09
3.600000000000000000e+01,7.100000000000000000e+01,3.260000000000000000e+02,1.330000000000000000e+02,3.400000000000000000e+01,3.400000000000000000e+01,2.900000000000000000e+01,3.600000000000000000e+01,6.099999999999999867e-01,6.418960700000000000e+09
3.600000000000000000e+01,7.500000000000000000e+01,3.710000000000000000e+02,1.390000000000000000e+02,3.600000000000000000e+01,3.300000000000000000e+01,3.100000000000000000e+01,3.600000000000000000e+01,6.099999999999999867e-01,6.442359300000000000e+09
3.400000000000000000e+01,7.700000000000000000e+01,3.770000000000000000e+02,1.500000000000000000e+02,3.300000000000000000e+01,3.000000000000000000e+01,3.100000000000000000e+01,3.200000000000000000e+01,6.099999999999999867e-01,6.460570100000000000e+09
3.300000000000000000e+01,8.100000000000000000e+01,4.440000000000000000e+02,1.930000000000000000e+02,3.600000000000000000e+01,2.800000000000000000e+01,3.200000000000000000e+01,3.100000000000000000e+01,6.199999999999999956e-01,6.482000200000000000e+09
2.900000000000000000e+01,9.100000000000000000e+01,5.130000000000000000e+02,2.040000000000000000e+02,3.600000000000000000e+01,2.700000000000000000e+01,2.700000000000000000e+01,2.500000000000000000e+01,6.199999999999999956e-01,6.501058400000000000e+09
5.100000000000000000e+01,1.340000000000000000e+02,6.720000000000000000e+02,3.440000000000000000e+02,5.900000000000000000e+01,3.600000000000000000e+01,3.100000000000000000e+01,3.700000000000000000e+01,6.199999999999999956e-01,6.519827300000000000e+09
5.800000000000000000e+01,1.460000000000000000e+02,7.240000000000000000e+02,3.840000000000000000e+02,6.500000000000000000e+01,4.200000000000000000e+01,3.200000000000000000e+01,3.500000000000000000e+01,6.199999999999999956e-01,6.538143100000000000e+09
6.300000000000000000e+01,1.600000000000000000e+02,8.440000000000000000e+02,3.870000000000000000e+02,6.800000000000000000e+01,4.400000000000000000e+01,3.300000000000000000e+01,3.700000000000000000e+01,6.199999999999999956e-01,6.562052200000000000e+09
6.500000000000000000e+01,1.760000000000000000e+02,8.590000000000000000e+02,3.670000000000000000e+02,6.700000000000000000e+01,4.700000000000000000e+01,3.400000000000000000e+01,3.800000000000000000e+01,6.199999999999999956e-01,6.581535000000000000e+09
8.100000000000000000e+01,1.890000000000000000e+02,8.560000000000000000e+02,4.700000000000000000e+02,8.100000000000000000e+01,5.300000000000000000e+01,3.800000000000000000e+01,4.900000000000000000e+01,6.199999999999999956e-01,6.599496500000000000e+09
7.500000000000000000e+01,1.820000000000000000e+02,8.460000000000000000e+02,4.800000000000000000e+02,7.500000000000000000e+01,5.000000000000000000e+01,3.600000000000000000e+01,4.700000000000000000e+01,6.199999999999999956e-01,6.620012400000000000e+09
8.300000000000000000e+01,1.960000000000000000e+02,9.650000000000000000e+02,4.810000000000000000e+02,7.700000000000000000e+01,5.000000000000000000e+01,4.000000000000000000e+01,5.300000000000000000e+01,6.099999999999999867e-01,6.638190900000000000e+09
1.050000000000000000e+02,2.330000000000000000e+02,9.420000000000000000e+02,5.320000000000000000e+02,1.020000000000000000e+02,6.300000000000000000e+01,5.000000000000000000e+01,1.600000000000000000e+02,5.999999999999999778e-01,6.659283700000000000e+09
1.170000000000000000e+02,2.810000000000000000e+02,9.990000000000000000e+02,6.250000000000000000e+02,1.230000000000000000e+02,7.100000000000000000e+01,5.500000000000000000e+01,1.630000000000000000e+02,5.899999999999999689e-01,6.681604100000000000e+09
1.290000000000000000e+02,3.020000000000000000e+02,1.133000000000000000e+03,6.790000000000000000e+02,1.350000000000000000e+02,8.500000000000000000e+01,6.400000000000000000e+01,1.660000000000000000e+02,5.799999999999999600e-01,6.699400000000000000e+09
1.550000000000000000e+02,3.330000000000000000e+02,1.171000000000000000e+03,7.230000000000000000e+02,1.670000000000000000e+02,1.070000000000000000e+02,7.800000000000000000e+01,1.810000000000000000e+02,5.600000000000000533e-01,6.718117300000000000e+09
1.820000000000000000e+02,3.880000000000000000e+02,1.206000000000000000e+03,8.670000000000000000e+02,2.340000000000000000e+02,1.370000000000000000e+02,9.400000000000000000e+01,1.860000000000000000e+02,5.400000000000000355e-01,6.741681200000000000e+09
1.860000000000000000e+02,4.320000000000000000e+02,1.225000000000000000e+03,9.120000000000000000e+02,2.520000000000000000e+02,1.430000000000000000e+02,9.600000000000000000e+01,1.220000000000000000e+02,5.200000000000000178e-01,6.760079700000000000e+09
2.300000000000000000e+02,5.200000000000000000e+02,1.253000000000000000e+03,1.005000000000000000e+03,3.010000000000000000e+02,1.740000000000000000e+02,1.100000000000000000e+02,1.450000000000000000e+02,4.899999999999999911e-01,6.781438000000000000e+09
2.480000000000000000e+02,5.320000000000000000e+02,1.191000000000000000e+03,1.100000000000000000e+03,3.390000000000000000e+02,1.870000000000000000e+02,1.190000000000000000e+02,1.570000000000000000e+02,4.699999999999999734e-01,6.801176200000000000e+09
2.450000000000000000e+02,5.180000000000000000e+02,1.131000000000000000e+03,1.128000000000000000e+03,3.450000000000000000e+02,1.870000000000000000e+02,1.180000000000000000e+02,1.460000000000000000e+02,4.500000000000000111e-01,6.819454900000000000e+09
2.340000000000000000e+02,4.960000000000000000e+02,1.018000000000000000e+03,1.051000000000000000e+03,3.150000000000000000e+02,1.740000000000000000e+02,1.130000000000000000e+02,1.440000000000000000e+02,4.299999999999999933e-01,6.837698600000000000e+09
2.280000000000000000e+02,4.620000000000000000e+02,1.031000000000000000e+03,1.064000000000000000e+03,3.010000000000000000e+02,1.700000000000000000e+02,1.110000000000000000e+02,1.380000000000000000e+02,4.099999999999999756e-01,6.861768400000000000e+09
1.920000000000000000e+02,3.690000000000000000e+02,1.000000000000000000e+03,9.460000000000000000e+02,2.680000000000000000e+02,1.480000000000000000e+02,9.900000000000000000e+01,1.180000000000000000e+02,3.900000000000000133e-01,6.881355200000000000e+09
1.860000000000000000e+02,3.740000000000000000e+02,9.900000000000000000e+02,8.000000000000000000e+02,2.740000000000000000e+02,1.550000000000000000e+02,9.500000000000000000e+01,1.080000000000000000e+02,3.699999999999999956e-01,6.906828500000000000e+09
1.800000000000000000e+02,3.960000000000000000e+02,9.900000000000000000e+02,7.480000000000000000e+02,2.650000000000000000e+02,1.480000000000000000e+02,8.800000000000000000e+01,1.030000000000000000e+02,3.400000000000000244e-01,6.925936100000000000e+09
1.820000000000000000e+02,3.850000000000000000e+02,1.078000000000000000e+03,7.350000000000000000e+02,2.700000000000000000e+02,1.510000000000000000e+02,8.300000000000000000e+01,1.030000000000000000e+02,3.300000000000000155e-01,6.944492700000000000e+09
1.780000000000000000e+02,3.720000000000000000e+02,1.154000000000000000e+03,6.770000000000000000e+02,2.840000000000000000e+02,1.560000000000000000e+02,8.700000000000000000e+01,1.020000000000000000e+02,3.099999999999999978e-01,6.963092600000000000e+09
1.740000000000000000e+02,3.840000000000000000e+02,1.135000000000000000e+03,7.120000000000000000e+02,2.770000000000000000e+02,1.500000000000000000e+02,8.400000000000000000e+01,9.800000000000000000e+01,2.999999999999999889e-01,6.981924700000000000e+09
1.620000000000000000e+02,3.800000000000000000e+02,1.112000000000000000e+03,6.960000000000000000e+02,2.330000000000000000e+02,1.290000000000000000e+02,7.800000000000000000e+01,9.100000000000000000e+01,2.800000000000000266e-01,7.003549200000000000e+09
1.690000000000000000e+02,4.130000000000000000e+02,1.121000000000000000e+03,6.880000000000000000e+02,2.330000000000000000e+02,1.320000000000000000e+02,8.200000000000000000e+01,9.600000000000000000e+01,2.700000000000000178e-01,7.021463400000000000e+09
1.560000000000000000e+02,4.110000000000000000e+02,1.048000000000000000e+03,7.370000000000000000e+02,2.320000000000000000e+02,1.250000000000000000e+02,8.100000000000000000e+01,9.000000000000000000e+01,2.600000000000000089e-01,7.041954500000000000e+09
1.730000000000000000e+02,4.510000000000000000e+02,9.320000000000000000e+02,7.690000000000000000e+02,2.440000000000000000e+02,1.310000000000000000e+02,8.400000000000000000e+01,1.040000000000000000e+02,2.500000000000000000e-01,7.065344800000000000e+09
1.700000000000000000e+02,4.380000000000000000e+02,9.820000000000000000e+02,7.460000000000000000e+02,2.380000000000000000e+02,1.290000000000000000e+02,8.300000000000000000e+01,1.030000000000000000e+02,2.399999999999999911e-01,7.083532700000000000e+09
1.750000000000000000e+02,4.350000000000000000e+02,1.047000000000000000e+03,7.520000000000000000e+02,2.430000000000000000e+02,1.340000000000000000e+02,8.400000000000000000e+01,1.110000000000000000e+02,2.300000000000000100e-01,7.102146800000000000e+09
1.620000000000000000e+02,3.840000000000000000e+02,1.017000000000000000e+03,8.200000000000000000e+02,2.320000000000000000e+02,1.310000000000000000e+02,7.900000000000000000e+01,1.030000000000000000e+02,2.200000000000000011e-01,7.125062000000000000e+09
1.740000000000000000e+02,4.080000000000000000e+02,1.130000000000000000e+03,7.550000000000000000e+02,2.360000000000000000e+02,1.350000000000000000e+02,8.000000000000000000e+01,1.110000000000000000e+02,2.099999999999999922e-01,7.144568900000000000e+09
1.630000000000000000e+02,3.710000000000000000e+02,1.104000000000000000e+03,6.930000000000000000e+02,2.200000000000000000e+02,1.290000000000000000e+02,7.500000000000000000e+01,1.010000000000000000e+02,2.099999999999999922e-01,7.163471900000000000e+09
1.580000000000000000e+02,3.420000000000000000e+02,1.044000000000000000e+03,6.860000000000000000e+02,2.120000000000000000e+02,1.240000000000000000e+02,7.200000000000000000e+01,9.800000000000000000e+01,2.000000000000000111e-01,7.184102400000000000e+09
1.390000000000000000e+02,3.170000000000000000e+02,9.760000000000000000e+02,6.540000000000000000e+02,1.970000000000000000e+02,1.110000000000000000e+02,6.400000000000000000e+01,8.300000000000000000e+01,2.000000000000000111e-01,7.202082000000000000e+09
1.590000000000000000e+02,3.730000000000000000e+02,9.810000000000000000e+02,5.820000000000000000e+02,2.300000000000000000e+02,1.310000000000000000e+02,7.600000000000000000e+01,9.800000000000000000e+01,1.900000000000000022e-01,7.221990800000000000e+09
1.680000000000000000e+02,3.920000000000000000e+02,7.980000000000000000e+02,5.800000000000000000e+02,2.260000000000000000e+02,1.380000000000000000e+02,8.200000000000000000e+01,1.010000000000000000e+02,1.900000000000000022e-01,7.244350800000000000e+09
1.640000000000000000e+02,3.960000000000000000e+02,8.400000000000000000e+02,5.790000000000000000e+02,2.140000000000000000e+02,1.350000000000000000e+02,7.700000000000000000e+01,9.900000000000000000e+01,1.799999999999999933e-01,7.262911500000000000e+09
1.590000000000000000e+02,3.940000000000000000e+02,8.490000000000000000e+02,5.710000000000000000e+02,2.110000000000000000e+02,1.330000000000000000e+02,7.600000000000000000e+01,9.600000000000000000e+01,1.799999999999999933e-01,7.286835700000000000e+09
1.540000000000000000e+02,3.840000000000000000e+02,8.860000000000000000e+02,5.840000000000000000e+02,2.010000000000000000e+02,1.300000000000000000e+02,7.400000000000000000e+01,9.300000000000000000e+01,1.799999999999999933e-01,7.321656900000000000e+09
1.270000000000000000e+02,3.240000000000000000e+02,9.090000000000000000e+02,5.010000000000000000e+02,1.550000000000000000e+02,1.050000000000000000e+02,5.900000000000000000e+01,7.600000000000000000e+01,1.799999999999999933e-01,7.340379200000000000e+09
1.170000000000000000e+02,3.140000000000000000e+02,8.910000000000000000e+02,4.970000000000000000e+02,1.560000000000000000e+02,9.900000000000000000e+01,5.000000000000000000e+01,7.200000000000000000e+01,1.799999999999999933e-01,7.358076500000000000e+09
1.320000000000000000e+02,3.430000000000000000e+02,8.960000000000000000e+02,4.960000000000000000e+02,1.630000000000000000e+02,1.020000000000000000e+02,5.600000000000000000e+01,7.600000000000000000e+01,1.799999999999999933e-01,7.376171400000000000e+09
1.320000000000000000e+02,3.340000000000000000e+02,8.220000000000000000e+02,4.610000000000000000e+02,1.610000000000000000e+02,1.020000000000000000e+02,5.500000000000000000e+01,7.700000000000000000e+01,1.799999999999999933e-01,7.394370100000000000e+09
1.280000000000000000e+02,3.300000000000000000e+02,7.350000000000000000e+02,4.260000000000000000e+02,1.560000000000000000e+02,9.800000000000000000e+01,5.400000000000000000e+01,7.500000000000000000e+01,1.799999999999999933e-01,7.412246500000000000e+09
1.240000000000000000e+02,3.160000000000000000e+02,6.500000000000000000e+02,3.800000000000000000e+02,1.470000000000000000e+02,9.300000000000000000e+01,5.300000000000000000e+01,7.200000000000000000e+01,1.900000000000000022e-01,7.429532800000000000e+09
9.700000000000000000e+01,2.640000000000000000e+02,6.460000000000000000e+02,3.340000000000000000e+02,1.000000000000000000e+02,6.900000000000000000e+01,4.000000000000000000e+01,5.500000000000000000e+01,2.000000000000000111e-01,7.447322500000000000e+09
5.500000000000000000e+01,1.770000000000000000e+02,5.360000000000000000e+02,2.610000000000000000e+02,5.300000000000000000e+01,4.100000000000000000e+01,2.600000000000000000e+01,3.800000000000000000e+01,2.200000000000000011e-01,7.465632100000000000e+09
6.000000000000000000e+01,1.890000000000000000e+02,5.810000000000000000e+02,2.920000000000000000e+02,6.300000000000000000e+01,3.900000000000000000e+01,3.000000000000000000e+01,4.500000000000000000e+01,2.500000000000000000e-01,7.484617700000000000e+09
6.500000000000000000e+01,1.830000000000000000e+02,5.580000000000000000e+02,2.360000000000000000e+02,6.500000000000000000e+01,4.100000000000000000e+01,2.800000000000000000e+01,5.500000000000000000e+01,2.700000000000000178e-01,7.503618300000000000e+09
6.900000000000000000e+01,1.830000000000000000e+02,5.070000000000000000e+02,2.220000000000000000e+02,6.800000000000000000e+01,4.400000000000000000e+01,3.100000000000000000e+01,1.350000000000000000e+02,2.899999999999999800e-01,7.522188100000000000e+09
7.000000000000000000e+01,1.460000000000000000e+02,4.900000000000000000e+02,2.240000000000000000e+02,6.400000000000000000e+01,4.500000000000000000e+01,3.000000000000000000e+01,1.460000000000000000e+02,3.200000000000000067e-01,7.543322600000000000e+09
6.900000000000000000e+01,1.350000000000000000e+02,5.540000000000000000e+02,2.430000000000000000e+02,6.700000000000000000e+01,5.100000000000000000e+01,8.900000000000000000e+01,2.150000000000000000e+02,3.400000000000000244e-01,7.561172300000000000e+09
7.100000000000000000e+01,9.200000000000000000e+01,4.580000000000000000e+02,1.690000000000000000e+02,5.200000000000000000e+01,7.900000000000000000e+01,9.900000000000000000e+01,2.220000000000000000e+02,3.599999999999999867e-01,7.581143400000000000e+09
6.300000000000000000e+01,8.700000000000000000e+01,4.690000000000000000e+02,1.550000000000000000e+02,4.600000000000000000e+01,9.100000000000000000e+01,1.030000000000000000e+02,2.360000000000000000e+02,3.800000000000000044e-01,7.604331800000000000e+09
6.400000000000000000e+01,8.500000000000000000e+01,4.680000000000000000e+02,1.570000000000000000e+02,4.100000000000000000e+01,9.100000000000000000e+01,1.040000000000000000e+02,2.360000000000000000e+02,4.000000000000000222e-01,7.622595300000000000e+09
6.100000000000000000e+01,1.160000000000000000e+02,6.430000000000000000e+02,1.720000000000000000e+02,4.100000000000000000e+01,1.010000000000000000e+02,1.530000000000000000e+02,2.700000000000000000e+02,4.199999999999999845e-01,7.640585500000000000e+09
6.000000000000000000e+01,1.120000000000000000e+02,5.750000000000000000e+02,1.550000000000000000e+02,3.900000000000000000e+01,1.350000000000000000e+02,1.870000000000000000e+02,2.250000000000000000e+02,4.400000000000000022e-01,7.663306900000000000e+09
4.600000000000000000e+01,1.130000000000000000e+02,6.410000000000000000e+02,1.590000000000000000e+02,3.700000000000000000e+01,1.290000000000000000e+02,1.890000000000000000e+02,2.190000000000000000e+02,4.500000000000000111e-01,7.681738800000000000e+09
4.600000000000000000e+01,1.090000000000000000e+02,6.360000000000000000e+02,1.490000000000000000e+02,3.000000000000000000e+01,1.260000000000000000e+02,1.930000000000000000e+02,2.010000000000000000e+02,4.500000000000000111e-01,7.701640600000000000e+09
4.300000000000000000e+01,1.240000000000000000e+02,6.630000000000000000e+02,2.070000000000000000e+02,4.400000000000000000e+01,1.300000000000000000e+02,2.020000000000000000e+02,1.620000000000000000e+02,4.600000000000000200e-01,7.723463900000000000e+09
4.200000000000000000e+01,1.000000000000000000e+02,5.130000000000000000e+02,2.190000000000000000e+02,4.900000000000000000e+01,1.400000000000000000e+02,1.720000000000000000e+02,8.000000000000000000e+01,4.699999999999999734e-01,7.746965100000000000e+09
4.800000000000000000e+01,9.300000000000000000e+01,4.870000000000000000e+02,2.210000000000000000e+02,5.200000000000000000e+01,1.230000000000000000e+02,1.120000000000000000e+02,5.900000000000000000e+01,4.799999999999999822e-01,7.765782900000000000e+09
5.100000000000000000e+01,9.800000000000000000e+01,4.260000000000000000e+02,2.220000000000000000e+02,5.100000000000000000e+01,1.270000000000000000e+02,1.130000000000000000e+02,4.700000000000000000e+01,5.000000000000000000e-01,7.783638800000000000e+09
5.200000000000000000e+01,1.050000000000000000e+02,4.400000000000000000e+02,2.220000000000000000e+02,5.200000000000000000e+01,1.310000000000000000e+02,1.410000000000000000e+02,5.800000000000000000e+01,5.100000000000000089e-01,7.814962300000000000e+09
5.900000000000000000e+01,8.800000000000000000e+01,4.170000000000000000e+02,1.790000000000000000e+02,4.300000000000000000e+01,1.350000000000000000e+02,1.880000000000000000e+02,5.800000000000000000e+01,5.300000000000000266e-01,7.834442400000000000e+09
5.900000000000000000e+01,9.800000000000000000e+01,3.990000000000000000e+02,1.830000000000000000e+02,3.900000000000000000e+01,1.180000000000000000e+02,1.930000000000000000e+02,5.700000000000000000e+01,5.400000000000000355e-01,7.851939200000000000e+09
5.800000000000000000e+01,9.900000000000000000e+01,4.450000000000000000e+02,1.840000000000000000e+02,3.600000000000000000e+01,1.050000000000000000e+02,1.920000000000000000e+02,6.100000000000000000e+01,5.500000000000000444e-01,7.869637600000000000e+09
5.700000000000000000e+01,9.900000000000000000e+01,4.780000000000000000e+02,2.020000000000000000e+02,3.800000000000000000e+01,9.400000000000000000e+01,1.850000000000000000e+02,6.100000000000000000e+01,5.699999999999999512e-01,7.887405200000000000e+09
6.100000000000000000e+01,9.700000000000000000e+01,4.530000000000000000e+02,2.250000000000000000e+02,4.400000000000000000e+01,7.900000000000000000e+01,1.580000000000000000e+02,5.300000000000000000e+01,5.899999999999999689e-01,7.906065200000000000e+09
4.900000000000000000e+01,1.000000000000000000e+02,4.400000000000000000e+02,2.200000000000000000e+02,4.300000000000000000e+01,6.400000000000000000e+01,7.600000000000000000e+01,4.400000000000000000e+01,5.999999999999999778e-01,7.926126600000000000e+09
4.800000000000000000e+01,8.900000000000000000e+01,4.370000000000000000e+02,1.990000000000000000e+02,4.100000000000000000e+01,5.900000000000000000e+01,5.100000000000000000e+01,4.500000000000000000e+01,6.199999999999999956e-01,7.943919800000000000e+09
4.700000000000000000e+01,8.800000000000000000e+01,3.950000000000000000e+02,1.840000000000000000e+02,3.900000000000000000e+01,5.100000000000000000e+01,4.100000000000000000e+01,3.900000000000000000e+01,6.300000000000000044e-01,7.964886000000000000e+09
4.500000000000000000e+01,8.900000000000000000e+01,3.500000000000000000e+02,1.600000000000000000e+02,3.900000000000000000e+01,4.400000000000000000e+01,3.600000000000000000e+01,4.100000000000000000e+01,6.300000000000000044e-01,7.985853900000000000e+09
3.500000000000000000e+01,8.400000000000000000e+01,3.300000000000000000e+02,1.320000000000000000e+02,3.300000000000000000e+01,4.300000000000000000e+01,3.200000000000000000e+01,3.700000000000000000e+01,6.400000000000000133e-01,8.004128400000000000e+09
3.500000000000000000e+01,7.800000000000000000e+01,3.580000000000000000e+02,1.220000000000000000e+02,3.400000000000000000e+01,4.600000000000000000e+01,3.100000000000000000e+01,3.700000000000000000e+01,6.400000000000000133e-01,8.023295800000000000e+09
3.300000000000000000e+01,7.500000000000000000e+01,3.850000000000000000e+02,1.110000000000000000e+02,3.400000000000000000e+01,4.200000000000000000e+01,3.000000000000000000e+01,3.300000000000000000e+01,6.400000000000000133e-01,8.046246200000000000e+09
2.900000000000000000e+01,8.100000000000000000e+01,4.950000000000000000e+02,1.270000000000000000e+02,3.400000000000000000e+01,3.800000000000000000e+01,2.700000000000000000e+01,2.900000000000000000e+01,6.400000000000000133e-01,8.063942400000000000e+09
4.300000000000000000e+01,8.600000000000000000e+01,5.420000000000000000e+02,1.720000000000000000e+02,4.000000000000000000e+01,3.500000000000000000e+01,2.500000000000000000e+01,3.600000000000000000e+01,6.400000000000000133e-01,8.084104800000000000e+09
4.600000000000000000e+01,8.600000000000000000e+01,6.200000000000000000e+02,1.760000000000000000e+02,4.000000000000000000e+01,3.700000000000000000e+01,2.100000000000000000e+01,3.900000000000000000e+01,6.400000000000000133e-01,8.107104300000000000e+09
4.500000000000000000e+01,8.600000000000000000e+01,6.180000000000000000e+02,1.920000000000000000e+02,3.800000000000000000e+01,3.300000000000000000e+01,2.100000000000000000e+01,3.800000000000000000e+01,6.500000000000000222e-01,8.125391700000000000e+09
4.600000000000000000e+01,8.300000000000000000e+01,5.940000000000000000e+02,1.910000000000000000e+02,3.700000000000000000e+01,3.500000000000000000e+01,2.200000000000000000e+01,3.800000000000000000e+01,6.500000000000000222e-01,8.144125600000000000e+09
4.900000000000000000e+01,8.800000000000000000e+01,5.290000000000000000e+02,1.870000000000000000e+02,3.700000000000000000e+01,3.400000000000000000e+01,2.100000000000000000e+01,4.400000000000000000e+01,6.500000000000000222e-01,8.167377200000000000e+09
4.700000000000000000e+01,1.060000000000000000e+02,5.070000000000000000e+02,2.010000000000000000e+02,4.200000000000000000e+01,3.800000000000000000e+01,2.400000000000000000e+01,4.400000000000000000e+01,6.500000000000000222e-01,8.185611700000000000e+09
4.600000000000000000e+01,1.180000000000000000e+02,4.790000000000000000e+02,1.980000000000000000e+02,4.100000000000000000e+01,3.500000000000000000e+01,2.300000000000000000e+01,4.100000000000000000e+01,6.500000000000000222e-01,8.204413700000000000e+09
4.700000000000000000e+01,1.200000000000000000e+02,5.190000000000000000e+02,1.890000000000000000e+02,4.200000000000000000e+01,3.800000000000000000e+01,2.400000000000000000e+01,4.300000000000000000e+01,6.500000000000000222e-01,8.234774100000000000e+09
5.200000000000000000e+01,1.270000000000000000e+02,4.920000000000000000e+02,1.850000000000000000e+02,4.200000000000000000e+01,3.800000000000000000e+01,2.400000000000000000e+01,5.000000000000000000e+01,6.500000000000000222e-01,8.252819400000000000e+09
5.400000000000000000e+01,1.210000000000000000e+02,4.750000000000000000e+02,1.800000000000000000e+02,4.300000000000000000e+01,3.700000000000000000e+01,2.600000000000000000e+01,6.300000000000000000e+01,6.500000000000000222e-01,8.270268600000000000e+09
5.600000000000000000e+01,1.270000000000000000e+02,4.600000000000000000e+02,1.520000000000000000e+02,3.500000000000000000e+01,3.100000000000000000e+01,2.400000000000000000e+01,8.500000000000000000e+01,6.500000000000000222e-01,8.288793500000000000e+09
5.800000000000000000e+01,1.200000000000000000e+02,4.010000000000000000e+02,1.710000000000000000e+02,4.000000000000000000e+01,3.600000000000000000e+01,9.900000000000000000e+01,8.600000000000000000e+01,6.600000000000000311e-01,8.305979000000000000e+09
5.700000000000000000e+01,1.250000000000000000e+02,4.360000000000000000e+02,1.980000000000000000e+02,4.300000000000000000e+01,3.500000000000000000e+01,1.030000000000000000e+02,8.700000000000000000e+01,6.600000000000000311e-01,8.324363200000000000e+09
5.700000000000000000e+01,1.250000000000000000e+02,5.030000000000000000e+02,2.590000000000000000e+02,5.900000000000000000e+01,3.800000000000000000e+01,1.080000000000000000e+02,8.700000000000000000e+01,6.600000000000000311e-01,8.346885400000000000e+09
5.300000000000000000e+01,1.250000000000000000e+02,5.220000000000000000e+02,2.800000000000000000e+02,6.000000000000000000e+01,4.300000000000000000e+01,1.220000000000000000e+02,7.900000000000000000e+01,6.600000000000000311e-01,8.366621500000000000e+09
4.700000000000000000e+01,1.000000000000000000e+02,5.250000000000000000e+02,2.640000000000000000e+02,5.700000000000000000e+01,5.300000000000000000e+01,1.240000000000000000e+02,6.400000000000000000e+01,6.600000000000000311e-01,8.384511500000000000e+09
5.300000000000000000e+01,1.210000000000000000e+02,6.020000000000000000e+02,2.590000000000000000e+02,5.400000000000000000e+01,5.300000000000000000e+01,1.020000000000000000e+02,6.500000000000000000e+01,6.700000000000000400e-01,8.406341400000000000e+09
5.300000000000000000e+01,1.180000000000000000e+02,5.420000000000000000e+02,2.330000000000000000e+02,5.300000000000000000e+01,5.400000000000000000e+01,1.130000000000000000e+02,6.600000000000000000e+01,6.700000000000000400e-01,8.424884500000000000e+09
4.900000000000000000e+01,1.150000000000000000e+02,4.840000000000000000e+02,1.730000000000000000e+02,3.900000000000000000e+01,6.100000000000000000e+01,1.200000000000000000e+02,6.300000000000000000e+01,6.700000000000000400e-01,8.443588200000000000e+09
4.800000000000000000e+01,1.170000000000000000e+02,4.870000000000000000e+02,1.470000000000000000e+02,3.700000000000000000e+01,6.400000000000000000e+01,1.110000000000000000e+02,7.100000000000000000e+01,6.700000000000000400e-01,8.466946900000000000e+09
4.800000000000000000e+01,1.170000000000000000e+02,5.240000000000000000e+02,1.760000000000000000e+02,4.400000000000000000e+01,5.600000000000000000e+01,1.120000000000000000e+02,6.000000000000000000e+01,6.700000000000000400e-01,8.485789100000000000e+09
3.900000000000000000e+01,8.900000000000000000e+01,4.640000000000000000e+02,1.660000000000000000e+02,4.300000000000000000e+01,5.800000000000000000e+01,9.300000000000000000e+01,6.100000000000000000e+01,6.700000000000000400e-01,8.503717400000000000e+09
4.100000000000000000e+01,7.900000000000000000e+01,4.540000000000000000e+02,2.040000000000000000e+02,4.500000000000000000e+01,5.900000000000000000e+01,7.500000000000000000e+01,6.900000000000000000e+01,6.700000000000000400e-01,8.525908500000000000e+09
4.900000000000000000e+01,1.040000000000000000e+02,4.660000000000000000e+02,1.960000000000000000e+02,4.100000000000000000e+01,5.000000000000000000e+01,9.000000000000000000e+01,8.200000000000000000e+01,6.700000000000000400e-01,8.544208600000000000e+09
5.200000000000000000e+01,1.020000000000000000e+02,4.640000000000000000e+02,1.920000000000000000e+02,4.100000000000000000e+01,5.300000000000000000e+01,1.050000000000000000e+02,1.120000000000000000e+02,6.700000000000000400e-01,8.564071700000000000e+09
5.700000000000000000e+01,1.470000000000000000e+02,4.070000000000000000e+02,1.620000000000000000e+02,3.400000000000000000e+01,8.700000000000000000e+01,1.080000000000000000e+02,1.620000000000000000e+02,6.700000000000000400e-01,8.586362300000000000e+09
5.900000000000000000e+01,1.700000000000000000e+02,3.710000000000000000e+02,1.560000000000000000e+02,3.200000000000000000e+01,8.900000000000000000e+01,1.100000000000000000e+02,1.760000000000000000e+02,6.700000000000000400e-01,8.604996700000000000e+09
5.800000000000000000e+01,1.730000000000000000e+02,3.810000000000000000e+02,1.210000000000000000e+02,2.800000000000000000e+01,8.800000000000000000e+01,1.110000000000000000e+02,1.770000000000000000e+02,6.700000000000000400e-01,8.623467900000000000e+09
6.100000000000000000e+01,1.650000000000000000e+02,5.150000000000000000e+02,1.650000000000000000e+02,3.400000000000000000e+01,8.800000000000000000e+01,8.700000000000000000e+01,1.770000000000000000e+02,6.700000000000000400e-01,8.646706300000000000e+09
6.800000000000000000e+01,1.790000000000000000e+02,4.930000000000000000e+02,1.650000000000000000e+02,3.300000000000000000e+01,8.400000000000000000e+01,6.100000000000000000e+01,1.840000000000000000e+02,6.600000000000000311e-01,8.664804000000000000e+09
6.400000000000000000e+01,1.460000000000000000e+02,4.730000000000000000e+02,1.610000000000000000e+02,3.100000000000000000e+01,4.700000000000000000e+01,5.000000000000000000e+01,2.080000000000000000e+02,6.600000000000000311e-01,8.683355800000000000e+09
6.600000000000000000e+01,1.350000000000000000e+02,5.240000000000000000e+02,1.820000000000000000e+02,4.200000000000000000e+01,4.400000000000000000e+01,4.400000000000000000e+01,2.010000000000000000e+02,6.500000000000000222e-01,8.706861200000000000e+09
7.000000000000000000e+01,1.400000000000000000e+02,6.010000000000000000e+02,2.150000000000000000e+02,4.900000000000000000e+01,4.700000000000000000e+01,4.000000000000000000e+01,2.020000000000000000e+02,6.500000000000000222e-01,8.724909500000000000e+09
6.400000000000000000e+01,1.370000000000000000e+02,5.800000000000000000e+02,2.050000000000000000e+02,4.700000000000000000e+01,4.500000000000000000e+01,3.600000000000000000e+01,1.980000000000000000e+02,6.400000000000000133e-01,8.745091100000000000e+09
6.100000000000000000e+01,1.310000000000000000e+02,6.390000000000000000e+02,2.600000000000000000e+02,6.000000000000000000e+01,4.600000000000000000e+01,3.700000000000000000e+01,1.750000000000000000e+02,6.400000000000000133e-01,8.766825200000000000e+09
6.200000000000000000e+01,1.310000000000000000e+02,6.670000000000000000e+02,3.020000000000000000e+02,7.100000000000000000e+01,4.900000000000000000e+01,3.500000000000000000e+01,8.600000000000000000e+01,6.300000000000000044e-01,8.785715400000000000e+09
6.400000000000000000e+01,1.240000000000000000e+02,7.300000000000000000e+02,4.100000000000000000e+02,9.000000000000000000e+01,5.500000000000000000e+01,3.200000000000000000e+01,7.500000000000000000e+01,6.199999999999999956e-01,8.804568200000000000e+09
6.100000000000000000e+01,1.240000000000000000e+02,8.580000000000000000e+02,4.350000000000000000e+02,9.300000000000000000e+01,5.400000000000000000e+01,3.100000000000000000e+01,6.000000000000000000e+01,6.099999999999999867e-01,8.825071900000000000e+09
6.700000000000000000e+01,1.400000000000000000e+02,8.370000000000000000e+02,5.140000000000000000e+02,1.020000000000000000e+02,6.400000000000000000e+01,3.400000000000000000e+01,5.700000000000000000e+01,6.099999999999999867e-01,8.849237300000000000e+09
6.900000000000000000e+01,1.440000000000000000e+02,8.580000000000000000e+02,5.030000000000000000e+02,1.000000000000000000e+02,6.500000000000000000e+01,3.500000000000000000e+01,4.900000000000000000e+01,5.999999999999999778e-01,8.867294900000000000e+09
7.000000000000000000e+01,1.550000000000000000e+02,9.090000000000000000e+02,5.090000000000000000e+02,1.020000000000000000e+02,6.600000000000000000e+01,3.700000000000000000e+01,4.500000000000000000e+01,5.899999999999999689e-01,8.886230300000000000e+09
7.800000000000000000e+01,1.710000000000000000e+02,8.810000000000000000e+02,4.750000000000000000e+02,1.000000000000000000e+02,6.500000000000000000e+01,4.600000000000000000e+01,4.500000000000000000e+01,5.799999999999999600e-01,8.907076700000000000e+09
8.300000000000000000e+01,1.860000000000000000e+02,8.670000000000000000e+02,5.310000000000000000e+02,1.060000000000000000e+02,6.900000000000000000e+01,5.300000000000000000e+01,4.800000000000000000e+01,5.699999999999999512e-01,8.925986100000000000e+09
8.900000000000000000e+01,1.890000000000000000e+02,9.020000000000000000e+02,5.230000000000000000e+02,1.290000000000000000e+02,7.700000000000000000e+01,5.800000000000000000e+01,5.500000000000000000e+01,5.699999999999999512e-01,8.945792000000000000e+09
9.100000000000000000e+01,2.140000000000000000e+02,9.550000000000000000e+02,5.510000000000000000e+02,1.330000000000000000e+02,8.000000000000000000e+01,6.200000000000000000e+01,5.900000000000000000e+01,5.600000000000000533e-01,8.967916400000000000e+09
9.700000000000000000e+01,2.190000000000000000e+02,9.420000000000000000e+02,5.680000000000000000e+02,1.340000000000000000e+02,8.300000000000000000e+01,6.400000000000000000e+01,6.300000000000000000e+01,5.500000000000000444e-01,8.986385400000000000e+09
9.500000000000000000e+01,2.090000000000000000e+02,1.078000000000000000e+03,5.740000000000000000e+02,1.320000000000000000e+02,8.500000000000000000e+01,7.900000000000000000e+01,6.500000000000000000e+01,5.400000000000000355e-01,9.005795600000000000e+09
1.140000000000000000e+02,2.560000000000000000e+02,1.132000000000000000e+03,6.450000000000000000e+02,1.560000000000000000e+02,1.010000000000000000e+02,8.400000000000000000e+01,7.400000000000000000e+01,5.200000000000000178e-01,9.027888200000000000e+09
1.160000000000000000e+02,2.580000000000000000e+02,1.148000000000000000e+03,6.080000000000000000e+02,1.410000000000000000e+02,9.800000000000000000e+01,8.500000000000000000e+01,7.200000000000000000e+01,5.100000000000000089e-01,9.046423900000000000e+09
1.210000000000000000e+02,2.550000000000000000e+02,1.112000000000000000e+03,7.080000000000000000e+02,1.470000000000000000e+02,1.050000000000000000e+02,8.500000000000000000e+01,7.400000000000000000e+01,5.000000000000000000e-01,9.065541800000000000e+09
1.430000000000000000e+02,3.170000000000000000e+02,1.192000000000000000e+03,7.750000000000000000e+02,1.740000000000000000e+02,1.200000000000000000e+02,9.600000000000000000e+01,8.700000000000000000e+01,4.799999999999999822e-01,9.087830800000000000e+09
1.450000000000000000e+02,3.320000000000000000e+02,1.084000000000000000e+03,7.760000000000000000e+02,1.790000000000000000e+02,1.220000000000000000e+02,8.600000000000000000e+01,8.900000000000000000e+01,4.699999999999999734e-01,9.106464000000000000e+09
1.340000000000000000e+02,3.080000000000000000e+02,9.760000000000000000e+02,7.110000000000000000e+02,1.590000000000000000e+02,1.090000000000000000e+02,7.600000000000000000e+01,8.200000000000000000e+01,4.500000000000000111e-01,9.126032800000000000e+09
1.350000000000000000e+02,3.090000000000000000e+02,1.053000000000000000e+03,8.400000000000000000e+02,1.670000000000000000e+02,1.090000000000000000e+02,7.500000000000000000e+01,8.400000000000000000e+01,4.400000000000000022e-01,9.156014600000000000e+09
1.500000000000000000e+02,3.500000000000000000e+02,1.128000000000000000e+03,8.550000000000000000e+02,1.930000000000000000e+02,1.210000000000000000e+02,8.100000000000000000e+01,9.000000000000000000e+01,4.199999999999999845e-01,9.173780200000000000e+09
1.560000000000000000e+02,3.370000000000000000e+02,1.030000000000000000e+03,8.290000000000000000e+02,2.050000000000000000e+02,1.280000000000000000e+02,7.700000000000000000e+01,9.200000000000000000e+01,4.099999999999999756e-01,9.192256800000000000e+09
1.850000000000000000e+02,3.730000000000000000e+02,1.087000000000000000e+03,9.030000000000000000e+02,2.160000000000000000e+02,1.330000000000000000e+02,8.100000000000000000e+01,1.050000000000000000e+02,3.900000000000000133e-01,9.210616800000000000e+09
1.910000000000000000e+02,4.110000000000000000e+02,1.073000000000000000e+03,9.840000000000000000e+02,2.350000000000000000e+02,1.370000000000000000e+02,8.600000000000000000e+01,1.100000000000000000e+02,3.800000000000000044e-01,9.228167900000000000e+09
2.030000000000000000e+02,4.470000000000000000e+02,1.018000000000000000e+03,9.760000000000000000e+02,2.590000000000000000e+02,1.470000000000000000e+02,8.800000000000000000e+01,1.180000000000000000e+02,3.599999999999999867e-01,9.245487200000000000e+09
2.040000000000000000e+02,4.690000000000000000e+02,9.880000000000000000e+02,9.700000000000000000e+02,2.840000000000000000e+02,1.540000000000000000e+02,9.200000000000000000e+01,1.200000000000000000e+02,3.499999999999999778e-01,9.268556900000000000e+09
2.220000000000000000e+02,5.030000000000000000e+02,1.016000000000000000e+03,9.940000000000000000e+02,3.150000000000000000e+02,1.750000000000000000e+02,1.040000000000000000e+02,1.280000000000000000e+02,3.300000000000000155e-01,9.286972500000000000e+09
2.250000000000000000e+02,5.360000000000000000e+02,9.790000000000000000e+02,1.070000000000000000e+03,3.350000000000000000e+02,1.870000000000000000e+02,1.090000000000000000e+02,1.340000000000000000e+02,3.200000000000000067e-01,9.304714500000000000e+09
2.390000000000000000e+02,5.280000000000000000e+02,9.650000000000000000e+02,1.082000000000000000e+03,3.580000000000000000e+02,1.990000000000000000e+02,1.150000000000000000e+02,1.440000000000000000e+02,3.099999999999999978e-01,9.328541800000000000e+09
2.280000000000000000e+02,5.020000000000000000e+02,9.340000000000000000e+02,1.016000000000000000e+03,3.470000000000000000e+02,1.950000000000000000e+02,1.130000000000000000e+02,1.370000000000000000e+02,2.999999999999999889e-01,9.347546600000000000e+09
2.320000000000000000e+02,4.780000000000000000e+02,9.440000000000000000e+02,1.079000000000000000e+03,3.370000000000000000e+02,1.960000000000000000e+02,1.110000000000000000e+02,1.410000000000000000e+02,2.899999999999999800e-01,9.366798600000000000e+09
2.030000000000000000e+02,4.370000000000000000e+02,1.014000000000000000e+03,1.084000000000000000e+03,2.870000000000000000e+02,1.630000000000000000e+02,1.130000000000000000e+02,1.270000000000000000e+02,2.800000000000000266e-01,9.387743000000000000e+09
1.760000000000000000e+02,4.100000000000000000e+02,1.073000000000000000e+03,1.030000000000000000e+03,2.620000000000000000e+02,1.440000000000000000e+02,1.010000000000000000e+02,1.100000000000000000e+02,2.800000000000000266e-01,9.405896400000000000e+09
1.740000000000000000e+02,4.540000000000000000e+02,1.071000000000000000e+03,9.290000000000000000e+02,2.310000000000000000e+02,1.330000000000000000e+02,1.030000000000000000e+02,1.070000000000000000e+02,2.700000000000000178e-01,9.425308700000000000e+09
1.800000000000000000e+02,4.900000000000000000e+02,1.148000000000000000e+03,9.180000000000000000e+02,2.410000000000000000e+02,1.380000000000000000e+02,1.050000000000000000e+02,1.080000000000000000e+02,2.600000000000000089e-01,9.456502200000000000e+09
1.770000000000000000e+02,4.800000000000000000e+02,1.080000000000000000e+03,7.690000000000000000e+02,2.290000000000000000e+02,1.270000000000000000e+02,1.060000000000000000e+02,1.060000000000000000e+02,2.500000000000000000e-01,9.474710900000000000e+09
1.740000000000000000e+02,4.630000000000000000e+02,9.820000000000000000e+02,7.130000000000000000e+02,2.400000000000000000e+02,1.340000000000000000e+02,8.800000000000000000e+01,1.060000000000000000e+02,2.399999999999999911e-01,9.493324500000000000e+09
1.790000000000000000e+02,4.440000000000000000e+02,9.310000000000000000e+02,6.420000000000000000e+02,2.410000000000000000e+02,1.380000000000000000e+02,8.900000000000000000e+01,1.080000000000000000e+02,2.300000000000000100e-01,9.511132700000000000e+09
1.580000000000000000e+02,3.980000000000000000e+02,9.970000000000000000e+02,7.130000000000000000e+02,2.350000000000000000e+02,1.340000000000000000e+02,7.600000000000000000e+01,9.800000000000000000e+01,2.200000000000000011e-01,9.528551000000000000e+09
1.500000000000000000e+02,3.580000000000000000e+02,9.040000000000000000e+02,7.010000000000000000e+02,2.120000000000000000e+02,1.230000000000000000e+02,7.400000000000000000e+01,9.300000000000000000e+01,2.200000000000000011e-01,9.546394200000000000e+09
1.260000000000000000e+02,3.420000000000000000e+02,9.620000000000000000e+02,7.030000000000000000e+02,1.830000000000000000e+02,1.080000000000000000e+02,7.700000000000000000e+01,8.000000000000000000e+01,2.200000000000000011e-01,9.568516000000000000e+09
1.230000000000000000e+02,3.380000000000000000e+02,1.016000000000000000e+03,6.780000000000000000e+02,1.770000000000000000e+02,1.080000000000000000e+02,7.700000000000000000e+01,7.800000000000000000e+01,2.099999999999999922e-01,9.586897700000000000e+09
1.350000000000000000e+02,3.440000000000000000e+02,1.011000000000000000e+03,7.050000000000000000e+02,1.780000000000000000e+02,1.110000000000000000e+02,8.600000000000000000e+01,8.700000000000000000e+01,2.099999999999999922e-01,9.604654900000000000e+09
1.370000000000000000e+02,3.460000000000000000e+02,1.001000000000000000e+03,6.250000000000000000e+02,1.720000000000000000e+02,1.120000000000000000e+02,8.800000000000000000e+01,8.600000000000000000e+01,2.000000000000000111e-01,9.627317300000000000e+09
1.350000000000000000e+02,3.290000000000000000e+02,1.019000000000000000e+03,6.180000000000000000e+02,1.650000000000000000e+02,1.080000000000000000e+02,8.400000000000000000e+01,8.500000000000000000e+01,2.000000000000000111e-01,9.645813600000000000e+09
1.370000000000000000e+02,3.120000000000000000e+02,9.400000000000000000e+02,5.990000000000000000e+02,1.740000000000000000e+02,1.130000000000000000e+02,7.300000000000000000e+01,8.700000000000000000e+01,2.000000000000000111e-01,9.666680900000000000e+09
1.330000000000000000e+02,3.010000000000000000e+02,9.220000000000000000e+02,6.000000000000000000e+02,1.650000000000000000e+02,1.050000000000000000e+02,6.900000000000000000e+01,8.200000000000000000e+01,2.000000000000000111e-01,9.688104900000000000e+09
1.050000000000000000e+02,2.620000000000000000e+02,8.810000000000000000e+02,4.720000000000000000e+02,1.380000000000000000e+02,9.100000000000000000e+01,5.400000000000000000e+01,6.700000000000000000e+01,2.000000000000000111e-01,9.705545300000000000e+09
9.400000000000000000e+01,2.030000000000000000e+02,8.820000000000000000e+02,4.260000000000000000e+02,1.210000000000000000e+02,7.900000000000000000e+01,4.900000000000000000e+01,6.100000000000000000e+01,2.099999999999999922e-01,9.725631600000000000e+09
9.600000000000000000e+01,2.230000000000000000e+02,8.710000000000000000e+02,4.390000000000000000e+02,1.270000000000000000e+02,8.700000000000000000e+01,5.200000000000000000e+01,6.400000000000000000e+01,2.200000000000000011e-01,9.747532200000000000e+09
9.100000000000000000e+01,2.340000000000000000e+02,8.950000000000000000e+02,3.970000000000000000e+02,1.050000000000000000e+02,7.600000000000000000e+01,4.700000000000000000e+01,5.700000000000000000e+01,2.300000000000000100e-01,9.771130800000000000e+09
8.500000000000000000e+01,2.390000000000000000e+02,9.110000000000000000e+02,3.610000000000000000e+02,1.020000000000000000e+02,7.700000000000000000e+01,4.700000000000000000e+01,5.800000000000000000e+01,2.399999999999999911e-01,9.790566300000000000e+09
8.800000000000000000e+01,2.320000000000000000e+02,8.770000000000000000e+02,3.720000000000000000e+02,1.080000000000000000e+02,7.900000000000000000e+01,4.500000000000000000e+01,5.700000000000000000e+01,2.500000000000000000e-01,9.808510200000000000e+09
9.600000000000000000e+01,2.390000000000000000e+02,7.910000000000000000e+02,3.710000000000000000e+02,1.150000000000000000e+02,8.300000000000000000e+01,4.900000000000000000e+01,5.800000000000000000e+01,2.600000000000000089e-01,9.830560100000000000e+09
9.200000000000000000e+01,2.260000000000000000e+02,6.900000000000000000e+02,3.610000000000000000e+02,1.070000000000000000e+02,7.600000000000000000e+01,4.600000000000000000e+01,5.400000000000000000e+01,2.800000000000000266e-01,9.847901500000000000e+09
1.070000000000000000e+02,2.330000000000000000e+02,6.470000000000000000e+02,4.090000000000000000e+02,1.250000000000000000e+02,8.400000000000000000e+01,5.800000000000000000e+01,7.500000000000000000e+01,2.999999999999999889e-01,9.867941100000000000e+09
1.090000000000000000e+02,2.300000000000000000e+02,5.570000000000000000e+02,4.320000000000000000e+02,1.300000000000000000e+02,8.100000000000000000e+01,5.700000000000000000e+01,7.400000000000000000e+01,3.099999999999999978e-01,9.890565800000000000e+09
1.030000000000000000e+02,2.030000000000000000e+02,5.960000000000000000e+02,4.180000000000000000e+02,1.220000000000000000e+02,7.500000000000000000e+01,5.600000000000000000e+01,7.300000000000000000e+01,3.300000000000000155e-01,9.907894400000000000e+09
8.900000000000000000e+01,1.760000000000000000e+02,5.600000000000000000e+02,4.100000000000000000e+02,1.110000000000000000e+02,6.600000000000000000e+01,5.300000000000000000e+01,7.000000000000000000e+01,3.499999999999999778e-01,9.928088800000000000e+09
9.100000000000000000e+01,1.570000000000000000e+02,5.750000000000000000e+02,3.720000000000000000e+02,1.060000000000000000e+02,7.200000000000000000e+01,1.150000000000000000e+02,2.380000000000000000e+02,3.699999999999999956e-01,9.974377300000000000e+09
7.900000000000000000e+01,9.800000000000000000e+01,5.410000000000000000e+02,2.930000000000000000e+02,7.700000000000000000e+01,6.400000000000000000e+01,1.210000000000000000e+02,2.800000000000000000e+02,3.800000000000000044e-01,9.992834800000000000e+09
7.800000000000000000e+01,8.200000000000000000e+01,5.090000000000000000e+02,2.260000000000000000e+02,5.600000000000000000e+01,5.900000000000000000e+01,1.190000000000000000e+02,2.860000000000000000e+02,3.900000000000000133e-01,1.001012210000000000e+10
8.400000000000000000e+01,9.400000000000000000e+01,4.540000000000000000e+02,1.530000000000000000e+02,5.700000000000000000e+01,6.500000000000000000e+01,1.210000000000000000e+02,2.970000000000000000e+02,4.000000000000000222e-01,1.002809350000000000e+10
8.600000000000000000e+01,9.400000000000000000e+01,4.890000000000000000e+02,1.750000000000000000e+02,6.700000000000000000e+01,9.200000000000000000e+01,1.390000000000000000e+02,2.970000000000000000e+02,4.099999999999999756e-01,1.004559630000000000e+10
8.700000000000000000e+01,9.100000000000000000e+01,4.920000000000000000e+02,1.740000000000000000e+02,6.500000000000000000e+01,8.900000000000000000e+01,1.140000000000000000e+02,2.020000000000000000e+02,4.199999999999999845e-01,1.006376240000000000e+10
9.100000000000000000e+01,1.080000000000000000e+02,5.200000000000000000e+02,1.730000000000000000e+02,7.300000000000000000e+01,2.070000000000000000e+02,1.480000000000000000e+02,3.570000000000000000e+02,4.299999999999999933e-01,1.008101990000000000e+10
