5.400000000000000000e+01,1.280000000000000000e+02,5.050000000000000000e+02,9.700000000000000000e+01,4.500000000000000000e+01,2.970000000000000000e+02,1.370000000000000000e+02,2.200000000000000000e+02,4.799999999999999822e-01,4.326110000000000000e+08
5.300000000000000000e+01,1.290000000000000000e+02,4.960000000000000000e+02,8.600000000000000000e+01,3.900000000000000000e+01,2.670000000000000000e+02,1.350000000000000000e+02,1.810000000000000000e+02,4.799999999999999822e-01,4.668323000000000000e+08
5.300000000000000000e+01,1.320000000000000000e+02,4.940000000000000000e+02,8.400000000000000000e+01,3.700000000000000000e+01,2.470000000000000000e+02,1.430000000000000000e+02,2.160000000000000000e+02,4.799999999999999822e-01,7.894869000000000000e+08
5.500000000000000000e+01,1.120000000000000000e+02,3.880000000000000000e+02,7.300000000000000000e+01,3.800000000000000000e+01,2.480000000000000000e+02,1.360000000000000000e+02,2.370000000000000000e+02,4.699999999999999734e-01,8.076538000000000000e+08
5.500000000000000000e+01,1.010000000000000000e+02,4.080000000000000000e+02,7.300000000000000000e+01,3.600000000000000000e+01,2.450000000000000000e+02,1.230000000000000000e+02,2.370000000000000000e+02,4.699999999999999734e-01,8.250223000000000000e+08
4.900000000000000000e+01,7.900000000000000000e+01,3.930000000000000000e+02,7.200000000000000000e+01,3.200000000000000000e+01,1.760000000000000000e+02,1.240000000000000000e+02,2.350000000000000000e+02,4.699999999999999734e-01,8.426694000000000000e+08
4.800000000000000000e+01,8.200000000000000000e+01,4.060000000000000000e+02,6.900000000000000000e+01,4.200000000000000000e+01,2.380000000000000000e+02,1.400000000000000000e+02,2.300000000000000000e+02,4.600000000000000200e-01,8.619496000000000000e+08
4.600000000000000000e+01,9.000000000000000000e+01,4.610000000000000000e+02,6.900000000000000000e+01,4.300000000000000000e+01,2.610000000000000000e+02,1.190000000000000000e+02,1.920000000000000000e+02,4.699999999999999734e-01,8.784976000000000000e+08
4.200000000000000000e+01,9.700000000000000000e+01,5.240000000000000000e+02,9.100000000000000000e+01,4.200000000000000000e+01,2.490000000000000000e+02,1.140000000000000000e+02,1.500000000000000000e+02,4.699999999999999734e-01,8.956261000000000000e+08
5.000000000000000000e+01,1.040000000000000000e+02,5.300000000000000000e+02,8.900000000000000000e+01,4.900000000000000000e+01,3.300000000000000000e+02,1.380000000000000000e+02,1.730000000000000000e+02,4.799999999999999822e-01,9.115339000000000000e+08
5.500000000000000000e+01,1.030000000000000000e+02,5.370000000000000000e+02,8.200000000000000000e+01,5.000000000000000000e+01,3.310000000000000000e+02,1.430000000000000000e+02,2.170000000000000000e+02,4.699999999999999734e-01,9.283599000000000000e+08
5.900000000000000000e+01,1.040000000000000000e+02,5.620000000000000000e+02,8.600000000000000000e+01,4.800000000000000000e+01,3.700000000000000000e+02,1.530000000000000000e+02,2.290000000000000000e+02,4.699999999999999734e-01,9.456851000000000000e+08
5.600000000000000000e+01,9.100000000000000000e+01,5.440000000000000000e+02,8.600000000000000000e+01,4.600000000000000000e+01,3.570000000000000000e+02,1.660000000000000000e+02,2.750000000000000000e+02,4.699999999999999734e-01,9.638184000000000000e+08
5.500000000000000000e+01,8.600000000000000000e+01,4.880000000000000000e+02,6.600000000000000000e+01,4.700000000000000000e+01,3.590000000000000000e+02,1.630000000000000000e+02,2.710000000000000000e+02,4.600000000000000200e-01,9.800613000000000000e+08
4.700000000000000000e+01,8.200000000000000000e+01,4.900000000000000000e+02,6.200000000000000000e+01,3.900000000000000000e+01,2.890000000000000000e+02,1.440000000000000000e+02,2.550000000000000000e+02,4.600000000000000200e-01,9.965266000000000000e+08
4.000000000000000000e+01,8.000000000000000000e+01,5.090000000000000000e+02,7.000000000000000000e+01,3.900000000000000000e+01,2.770000000000000000e+02,1.310000000000000000e+02,2.140000000000000000e+02,4.600000000000000200e-01,1.013818300000000000e+09
3.100000000000000000e+01,8.000000000000000000e+01,4.890000000000000000e+02,8.400000000000000000e+01,3.600000000000000000e+01,1.430000000000000000e+02,9.200000000000000000e+01,1.720000000000000000e+02,4.600000000000000200e-01,1.032854400000000000e+09
3.300000000000000000e+01,8.300000000000000000e+01,4.650000000000000000e+02,8.500000000000000000e+01,3.600000000000000000e+01,1.790000000000000000e+02,7.500000000000000000e+01,6.700000000000000000e+01,4.699999999999999734e-01,1.052114300000000000e+09
3.700000000000000000e+01,8.000000000000000000e+01,4.480000000000000000e+02,8.600000000000000000e+01,4.100000000000000000e+01,2.290000000000000000e+02,9.300000000000000000e+01,5.200000000000000000e+01,4.799999999999999822e-01,1.090166400000000000e+09
4.200000000000000000e+01,9.200000000000000000e+01,4.650000000000000000e+02,1.220000000000000000e+02,5.600000000000000000e+01,2.590000000000000000e+02,1.120000000000000000e+02,5.300000000000000000e+01,4.799999999999999822e-01,1.110194900000000000e+09
5.900000000000000000e+01,1.360000000000000000e+02,4.120000000000000000e+02,1.410000000000000000e+02,5.900000000000000000e+01,2.590000000000000000e+02,1.120000000000000000e+02,5.100000000000000000e+01,4.899999999999999911e-01,1.129292400000000000e+09
6.300000000000000000e+01,1.460000000000000000e+02,3.870000000000000000e+02,1.370000000000000000e+02,5.900000000000000000e+01,2.590000000000000000e+02,1.170000000000000000e+02,7.100000000000000000e+01,5.000000000000000000e-01,1.148833400000000000e+09
6.800000000000000000e+01,1.490000000000000000e+02,3.910000000000000000e+02,1.380000000000000000e+02,6.100000000000000000e+01,2.610000000000000000e+02,1.270000000000000000e+02,1.330000000000000000e+02,5.000000000000000000e-01,1.169220400000000000e+09
7.300000000000000000e+01,1.520000000000000000e+02,3.990000000000000000e+02,1.350000000000000000e+02,5.900000000000000000e+01,2.790000000000000000e+02,1.380000000000000000e+02,2.680000000000000000e+02,5.000000000000000000e-01,1.188027900000000000e+09
8.000000000000000000e+01,1.670000000000000000e+02,3.390000000000000000e+02,1.150000000000000000e+02,4.700000000000000000e+01,2.630000000000000000e+02,1.320000000000000000e+02,3.030000000000000000e+02,5.100000000000000089e-01,1.207717100000000000e+09
7.000000000000000000e+01,1.430000000000000000e+02,3.530000000000000000e+02,8.800000000000000000e+01,4.100000000000000000e+01,2.650000000000000000e+02,1.380000000000000000e+02,3.110000000000000000e+02,5.100000000000000089e-01,1.226168200000000000e+09
6.700000000000000000e+01,1.310000000000000000e+02,3.430000000000000000e+02,7.900000000000000000e+01,3.800000000000000000e+01,2.710000000000000000e+02,1.510000000000000000e+02,3.140000000000000000e+02,5.200000000000000178e-01,1.245064400000000000e+09
6.400000000000000000e+01,1.290000000000000000e+02,3.180000000000000000e+02,8.800000000000000000e+01,3.800000000000000000e+01,2.420000000000000000e+02,1.400000000000000000e+02,2.940000000000000000e+02,5.100000000000000089e-01,1.264175600000000000e+09
5.700000000000000000e+01,1.270000000000000000e+02,3.080000000000000000e+02,9.100000000000000000e+01,4.800000000000000000e+01,2.820000000000000000e+02,1.630000000000000000e+02,1.850000000000000000e+02,5.100000000000000089e-01,1.283161600000000000e+09
4.400000000000000000e+01,1.040000000000000000e+02,3.510000000000000000e+02,8.200000000000000000e+01,5.200000000000000000e+01,3.550000000000000000e+02,1.820000000000000000e+02,1.310000000000000000e+02,5.100000000000000089e-01,1.302841900000000000e+09
4.200000000000000000e+01,9.400000000000000000e+01,3.680000000000000000e+02,7.800000000000000000e+01,5.900000000000000000e+01,3.880000000000000000e+02,2.060000000000000000e+02,1.210000000000000000e+02,5.100000000000000089e-01,1.322018000000000000e+09
4.200000000000000000e+01,9.900000000000000000e+01,4.760000000000000000e+02,1.150000000000000000e+02,7.000000000000000000e+01,4.230000000000000000e+02,2.140000000000000000e+02,1.120000000000000000e+02,5.100000000000000089e-01,1.340112000000000000e+09
4.900000000000000000e+01,1.020000000000000000e+02,6.070000000000000000e+02,1.230000000000000000e+02,7.200000000000000000e+01,4.800000000000000000e+02,2.560000000000000000e+02,1.090000000000000000e+02,5.100000000000000089e-01,1.361692800000000000e+09
4.900000000000000000e+01,9.900000000000000000e+01,6.130000000000000000e+02,1.260000000000000000e+02,6.500000000000000000e+01,4.320000000000000000e+02,2.320000000000000000e+02,1.000000000000000000e+02,5.100000000000000089e-01,1.386691600000000000e+09
5.300000000000000000e+01,9.600000000000000000e+01,5.840000000000000000e+02,1.400000000000000000e+02,6.600000000000000000e+01,3.760000000000000000e+02,2.180000000000000000e+02,8.700000000000000000e+01,5.200000000000000178e-01,1.404386600000000000e+09
5.400000000000000000e+01,1.080000000000000000e+02,5.880000000000000000e+02,1.710000000000000000e+02,6.300000000000000000e+01,3.470000000000000000e+02,1.950000000000000000e+02,7.100000000000000000e+01,5.400000000000000355e-01,1.423298200000000000e+09
5.300000000000000000e+01,1.050000000000000000e+02,5.070000000000000000e+02,1.630000000000000000e+02,5.200000000000000000e+01,3.120000000000000000e+02,1.800000000000000000e+02,4.900000000000000000e+01,5.500000000000000444e-01,1.440730500000000000e+09
4.100000000000000000e+01,9.500000000000000000e+01,3.640000000000000000e+02,1.560000000000000000e+02,5.800000000000000000e+01,4.020000000000000000e+02,1.820000000000000000e+02,4.700000000000000000e+01,5.699999999999999512e-01,1.460545600000000000e+09
3.900000000000000000e+01,9.800000000000000000e+01,3.820000000000000000e+02,1.600000000000000000e+02,6.000000000000000000e+01,4.140000000000000000e+02,1.930000000000000000e+02,4.100000000000000000e+01,5.899999999999999689e-01,1.479313200000000000e+09
3.600000000000000000e+01,1.010000000000000000e+02,4.070000000000000000e+02,1.460000000000000000e+02,5.600000000000000000e+01,4.050000000000000000e+02,1.920000000000000000e+02,3.700000000000000000e+01,5.999999999999999778e-01,1.497483900000000000e+09
3.400000000000000000e+01,9.500000000000000000e+01,3.980000000000000000e+02,1.170000000000000000e+02,6.200000000000000000e+01,4.940000000000000000e+02,2.020000000000000000e+02,4.500000000000000000e+01,6.099999999999999867e-01,1.515351500000000000e+09
3.900000000000000000e+01,9.500000000000000000e+01,4.230000000000000000e+02,9.400000000000000000e+01,6.300000000000000000e+01,5.070000000000000000e+02,2.040000000000000000e+02,8.100000000000000000e+01,6.199999999999999956e-01,1.532446900000000000e+09
4.000000000000000000e+01,1.070000000000000000e+02,4.240000000000000000e+02,8.700000000000000000e+01,5.500000000000000000e+01,4.360000000000000000e+02,1.720000000000000000e+02,8.200000000000000000e+01,6.300000000000000044e-01,1.550120700000000000e+09
4.700000000000000000e+01,1.180000000000000000e+02,4.320000000000000000e+02,7.900000000000000000e+01,5.500000000000000000e+01,4.530000000000000000e+02,1.880000000000000000e+02,1.000000000000000000e+02,6.400000000000000133e-01,1.570255900000000000e+09
4.800000000000000000e+01,1.150000000000000000e+02,3.930000000000000000e+02,7.700000000000000000e+01,6.100000000000000000e+01,5.160000000000000000e+02,2.110000000000000000e+02,1.090000000000000000e+02,6.400000000000000133e-01,1.587943000000000000e+09
5.500000000000000000e+01,1.430000000000000000e+02,3.770000000000000000e+02,7.700000000000000000e+01,5.300000000000000000e+01,4.290000000000000000e+02,1.980000000000000000e+02,1.100000000000000000e+02,6.500000000000000222e-01,1.604729600000000000e+09
6.500000000000000000e+01,1.970000000000000000e+02,3.630000000000000000e+02,8.400000000000000000e+01,5.400000000000000000e+01,4.150000000000000000e+02,1.960000000000000000e+02,9.000000000000000000e+01,6.600000000000000311e-01,1.621636200000000000e+09
1.110000000000000000e+02,3.080000000000000000e+02,4.270000000000000000e+02,9.400000000000000000e+01,5.400000000000000000e+01,3.630000000000000000e+02,1.800000000000000000e+02,9.600000000000000000e+01,6.600000000000000311e-01,1.641044700000000000e+09
1.150000000000000000e+02,3.130000000000000000e+02,3.990000000000000000e+02,1.160000000000000000e+02,5.600000000000000000e+01,3.160000000000000000e+02,1.520000000000000000e+02,7.700000000000000000e+01,6.600000000000000311e-01,1.660530500000000000e+09
1.150000000000000000e+02,3.170000000000000000e+02,3.920000000000000000e+02,1.400000000000000000e+02,5.300000000000000000e+01,1.920000000000000000e+02,1.100000000000000000e+02,6.300000000000000000e+01,6.600000000000000311e-01,1.677648800000000000e+09
1.170000000000000000e+02,3.060000000000000000e+02,4.290000000000000000e+02,1.440000000000000000e+02,5.100000000000000000e+01,1.730000000000000000e+02,1.070000000000000000e+02,5.900000000000000000e+01,6.600000000000000311e-01,1.695026000000000000e+09
1.250000000000000000e+02,3.840000000000000000e+02,4.630000000000000000e+02,1.460000000000000000e+02,5.500000000000000000e+01,1.530000000000000000e+02,1.040000000000000000e+02,1.010000000000000000e+02,6.600000000000000311e-01,1.713367400000000000e+09
9.500000000000000000e+01,3.130000000000000000e+02,3.970000000000000000e+02,1.400000000000000000e+02,5.700000000000000000e+01,1.740000000000000000e+02,1.060000000000000000e+02,1.760000000000000000e+02,6.600000000000000311e-01,1.731241600000000000e+09
9.300000000000000000e+01,3.100000000000000000e+02,3.930000000000000000e+02,1.180000000000000000e+02,6.700000000000000000e+01,4.210000000000000000e+02,1.690000000000000000e+02,2.050000000000000000e+02,6.500000000000000222e-01,1.751327000000000000e+09
9.100000000000000000e+01,3.070000000000000000e+02,4.520000000000000000e+02,9.300000000000000000e+01,6.500000000000000000e+01,4.410000000000000000e+02,1.810000000000000000e+02,2.130000000000000000e+02,6.500000000000000222e-01,1.769853600000000000e+09
9.000000000000000000e+01,3.160000000000000000e+02,5.480000000000000000e+02,1.140000000000000000e+02,6.700000000000000000e+01,4.520000000000000000e+02,1.930000000000000000e+02,2.170000000000000000e+02,6.400000000000000133e-01,1.787893600000000000e+09
8.000000000000000000e+01,1.940000000000000000e+02,6.250000000000000000e+02,1.560000000000000000e+02,7.500000000000000000e+01,5.190000000000000000e+02,2.120000000000000000e+02,2.090000000000000000e+02,6.400000000000000133e-01,1.805115800000000000e+09
7.500000000000000000e+01,1.730000000000000000e+02,6.630000000000000000e+02,1.590000000000000000e+02,7.200000000000000000e+01,5.640000000000000000e+02,2.260000000000000000e+02,1.550000000000000000e+02,6.400000000000000133e-01,1.823732600000000000e+09
7.100000000000000000e+01,1.680000000000000000e+02,6.660000000000000000e+02,1.650000000000000000e+02,6.300000000000000000e+01,4.830000000000000000e+02,1.810000000000000000e+02,1.400000000000000000e+02,6.400000000000000133e-01,1.842768600000000000e+09
8.000000000000000000e+01,1.610000000000000000e+02,6.450000000000000000e+02,1.650000000000000000e+02,6.700000000000000000e+01,4.820000000000000000e+02,1.870000000000000000e+02,1.340000000000000000e+02,6.400000000000000133e-01,1.864999900000000000e+09
7.600000000000000000e+01,1.350000000000000000e+02,5.350000000000000000e+02,1.450000000000000000e+02,6.500000000000000000e+01,4.940000000000000000e+02,1.860000000000000000e+02,1.280000000000000000e+02,6.400000000000000133e-01,1.885049500000000000e+09
6.500000000000000000e+01,1.070000000000000000e+02,4.220000000000000000e+02,1.060000000000000000e+02,6.300000000000000000e+01,4.530000000000000000e+02,1.960000000000000000e+02,1.170000000000000000e+02,6.400000000000000133e-01,1.901416700000000000e+09
6.000000000000000000e+01,1.030000000000000000e+02,3.520000000000000000e+02,1.020000000000000000e+02,6.700000000000000000e+01,4.220000000000000000e+02,1.970000000000000000e+02,1.150000000000000000e+02,6.300000000000000044e-01,1.917928700000000000e+09
5.600000000000000000e+01,1.210000000000000000e+02,3.360000000000000000e+02,1.020000000000000000e+02,6.300000000000000000e+01,3.420000000000000000e+02,2.000000000000000000e+02,8.300000000000000000e+01,6.300000000000000044e-01,1.933865700000000000e+09
5.500000000000000000e+01,1.260000000000000000e+02,3.310000000000000000e+02,1.470000000000000000e+02,6.100000000000000000e+01,3.230000000000000000e+02,1.820000000000000000e+02,7.300000000000000000e+01,6.300000000000000044e-01,1.954667200000000000e+09
6.800000000000000000e+01,1.670000000000000000e+02,3.990000000000000000e+02,1.700000000000000000e+02,6.100000000000000000e+01,2.870000000000000000e+02,1.750000000000000000e+02,7.200000000000000000e+01,6.400000000000000133e-01,1.972151700000000000e+09
7.000000000000000000e+01,1.750000000000000000e+02,4.060000000000000000e+02,1.650000000000000000e+02,4.900000000000000000e+01,2.320000000000000000e+02,1.340000000000000000e+02,6.400000000000000000e+01,6.500000000000000222e-01,1.988585600000000000e+09
7.400000000000000000e+01,1.800000000000000000e+02,4.510000000000000000e+02,1.650000000000000000e+02,4.900000000000000000e+01,2.470000000000000000e+02,1.440000000000000000e+02,4.500000000000000000e+01,6.600000000000000311e-01,2.005354400000000000e+09
7.800000000000000000e+01,1.710000000000000000e+02,4.670000000000000000e+02,1.620000000000000000e+02,5.000000000000000000e+01,2.740000000000000000e+02,1.470000000000000000e+02,5.800000000000000000e+01,6.600000000000000311e-01,2.022097600000000000e+09
7.100000000000000000e+01,1.780000000000000000e+02,4.980000000000000000e+02,1.580000000000000000e+02,4.800000000000000000e+01,2.720000000000000000e+02,1.530000000000000000e+02,5.700000000000000000e+01,6.600000000000000311e-01,2.039056200000000000e+09
5.600000000000000000e+01,1.530000000000000000e+02,5.070000000000000000e+02,1.460000000000000000e+02,4.800000000000000000e+01,2.750000000000000000e+02,1.480000000000000000e+02,5.800000000000000000e+01,6.600000000000000311e-01,2.056611500000000000e+09
5.800000000000000000e+01,1.330000000000000000e+02,4.890000000000000000e+02,1.580000000000000000e+02,5.500000000000000000e+01,3.040000000000000000e+02,1.700000000000000000e+02,1.030000000000000000e+02,6.600000000000000311e-01,2.076343400000000000e+09
5.600000000000000000e+01,1.250000000000000000e+02,4.800000000000000000e+02,1.580000000000000000e+02,6.000000000000000000e+01,3.760000000000000000e+02,1.940000000000000000e+02,1.220000000000000000e+02,6.700000000000000400e-01,2.093798000000000000e+09
5.200000000000000000e+01,1.270000000000000000e+02,4.650000000000000000e+02,1.580000000000000000e+02,6.300000000000000000e+01,3.870000000000000000e+02,2.230000000000000000e+02,1.270000000000000000e+02,6.700000000000000400e-01,2.109960700000000000e+09
5.100000000000000000e+01,1.110000000000000000e+02,4.300000000000000000e+02,1.240000000000000000e+02,6.100000000000000000e+01,3.960000000000000000e+02,2.260000000000000000e+02,1.290000000000000000e+02,6.800000000000000488e-01,2.127349300000000000e+09
5.200000000000000000e+01,9.600000000000000000e+01,3.970000000000000000e+02,1.030000000000000000e+02,6.200000000000000000e+01,4.080000000000000000e+02,2.360000000000000000e+02,1.320000000000000000e+02,6.800000000000000488e-01,2.144001800000000000e+09
4.700000000000000000e+01,9.700000000000000000e+01,3.700000000000000000e+02,7.400000000000000000e+01,5.600000000000000000e+01,4.030000000000000000e+02,2.270000000000000000e+02,1.050000000000000000e+02,6.800000000000000488e-01,2.162887600000000000e+09
4.400000000000000000e+01,9.700000000000000000e+01,3.450000000000000000e+02,7.900000000000000000e+01,5.000000000000000000e+01,2.930000000000000000e+02,1.750000000000000000e+02,8.200000000000000000e+01,6.700000000000000400e-01,2.180022600000000000e+09
4.600000000000000000e+01,7.900000000000000000e+01,3.450000000000000000e+02,9.000000000000000000e+01,4.800000000000000000e+01,2.420000000000000000e+02,1.280000000000000000e+02,6.400000000000000000e+01,6.600000000000000311e-01,2.196614200000000000e+09
4.600000000000000000e+01,8.500000000000000000e+01,3.610000000000000000e+02,1.370000000000000000e+02,5.300000000000000000e+01,2.400000000000000000e+02,1.160000000000000000e+02,5.900000000000000000e+01,6.600000000000000311e-01,2.212797300000000000e+09
4.000000000000000000e+01,8.600000000000000000e+01,3.820000000000000000e+02,1.470000000000000000e+02,6.200000000000000000e+01,3.290000000000000000e+02,1.500000000000000000e+02,5.400000000000000000e+01,6.600000000000000311e-01,2.229120000000000000e+09
4.000000000000000000e+01,8.600000000000000000e+01,4.240000000000000000e+02,1.700000000000000000e+02,6.400000000000000000e+01,3.180000000000000000e+02,1.640000000000000000e+02,4.600000000000000000e+01,6.600000000000000311e-01,2.247098000000000000e+09
4.500000000000000000e+01,9.100000000000000000e+01,4.320000000000000000e+02,1.830000000000000000e+02,6.200000000000000000e+01,2.850000000000000000e+02,1.620000000000000000e+02,4.100000000000000000e+01,6.600000000000000311e-01,2.266692200000000000e+09
4.300000000000000000e+01,9.600000000000000000e+01,4.880000000000000000e+02,1.770000000000000000e+02,6.400000000000000000e+01,2.870000000000000000e+02,1.730000000000000000e+02,3.900000000000000000e+01,6.600000000000000311e-01,2.283900900000000000e+09
5.000000000000000000e+01,1.160000000000000000e+02,5.110000000000000000e+02,1.520000000000000000e+02,6.200000000000000000e+01,3.330000000000000000e+02,1.970000000000000000e+02,9.500000000000000000e+01,6.600000000000000311e-01,2.300744700000000000e+09
5.400000000000000000e+01,1.160000000000000000e+02,4.590000000000000000e+02,1.550000000000000000e+02,5.300000000000000000e+01,2.730000000000000000e+02,1.710000000000000000e+02,1.230000000000000000e+02,6.600000000000000311e-01,2.317458700000000000e+09
5.300000000000000000e+01,1.150000000000000000e+02,4.210000000000000000e+02,1.300000000000000000e+02,5.500000000000000000e+01,2.990000000000000000e+02,1.570000000000000000e+02,1.250000000000000000e+02,6.600000000000000311e-01,2.333805300000000000e+09
5.000000000000000000e+01,1.140000000000000000e+02,4.770000000000000000e+02,1.110000000000000000e+02,5.200000000000000000e+01,3.390000000000000000e+02,1.680000000000000000e+02,1.320000000000000000e+02,6.600000000000000311e-01,2.350903100000000000e+09
5.000000000000000000e+01,1.110000000000000000e+02,4.280000000000000000e+02,1.160000000000000000e+02,4.800000000000000000e+01,3.520000000000000000e+02,1.750000000000000000e+02,1.400000000000000000e+02,6.600000000000000311e-01,2.370539400000000000e+09
4.800000000000000000e+01,1.030000000000000000e+02,3.830000000000000000e+02,9.900000000000000000e+01,5.100000000000000000e+01,3.520000000000000000e+02,1.890000000000000000e+02,1.160000000000000000e+02,6.700000000000000400e-01,2.394998300000000000e+09
4.400000000000000000e+01,9.600000000000000000e+01,3.710000000000000000e+02,8.200000000000000000e+01,5.100000000000000000e+01,3.230000000000000000e+02,1.940000000000000000e+02,1.100000000000000000e+02,6.600000000000000311e-01,2.412457200000000000e+09
4.600000000000000000e+01,9.500000000000000000e+01,3.830000000000000000e+02,8.400000000000000000e+01,4.900000000000000000e+01,3.250000000000000000e+02,2.090000000000000000e+02,1.180000000000000000e+02,6.600000000000000311e-01,2.428622400000000000e+09
4.800000000000000000e+01,9.800000000000000000e+01,3.050000000000000000e+02,8.400000000000000000e+01,4.700000000000000000e+01,3.080000000000000000e+02,2.090000000000000000e+02,1.300000000000000000e+02,6.500000000000000222e-01,2.445903000000000000e+09
5.900000000000000000e+01,1.260000000000000000e+02,4.460000000000000000e+02,1.040000000000000000e+02,5.200000000000000000e+01,3.490000000000000000e+02,2.110000000000000000e+02,1.230000000000000000e+02,6.500000000000000222e-01,2.464406400000000000e+09
6.100000000000000000e+01,1.400000000000000000e+02,5.340000000000000000e+02,1.220000000000000000e+02,5.900000000000000000e+01,3.090000000000000000e+02,1.810000000000000000e+02,1.180000000000000000e+02,6.400000000000000133e-01,2.480884100000000000e+09
6.600000000000000000e+01,1.500000000000000000e+02,5.670000000000000000e+02,1.460000000000000000e+02,7.100000000000000000e+01,3.040000000000000000e+02,1.770000000000000000e+02,9.600000000000000000e+01,6.400000000000000133e-01,2.497788200000000000e+09
6.700000000000000000e+01,1.500000000000000000e+02,6.010000000000000000e+02,1.550000000000000000e+02,7.200000000000000000e+01,3.050000000000000000e+02,1.660000000000000000e+02,1.390000000000000000e+02,6.300000000000000044e-01,2.513931500000000000e+09
6.800000000000000000e+01,1.460000000000000000e+02,5.920000000000000000e+02,1.520000000000000000e+02,7.400000000000000000e+01,3.080000000000000000e+02,1.840000000000000000e+02,1.580000000000000000e+02,6.300000000000000044e-01,2.529939000000000000e+09
6.200000000000000000e+01,1.290000000000000000e+02,5.020000000000000000e+02,1.360000000000000000e+02,7.100000000000000000e+01,2.690000000000000000e+02,1.680000000000000000e+02,1.740000000000000000e+02,6.199999999999999956e-01,2.547771500000000000e+09
5.700000000000000000e+01,1.010000000000000000e+02,3.970000000000000000e+02,1.270000000000000000e+02,6.200000000000000000e+01,2.710000000000000000e+02,1.590000000000000000e+02,1.740000000000000000e+02,6.099999999999999867e-01,2.569372800000000000e+09
5.100000000000000000e+01,1.030000000000000000e+02,3.610000000000000000e+02,1.120000000000000000e+02,4.600000000000000000e+01,2.670000000000000000e+02,1.420000000000000000e+02,1.730000000000000000e+02,6.099999999999999867e-01,2.587111500000000000e+09
5.100000000000000000e+01,1.070000000000000000e+02,3.900000000000000000e+02,1.250000000000000000e+02,4.400000000000000000e+01,2.170000000000000000e+02,1.240000000000000000e+02,1.340000000000000000e+02,6.099999999999999867e-01,2.603689800000000000e+09
4.800000000000000000e+01,1.040000000000000000e+02,3.900000000000000000e+02,1.250000000000000000e+02,4.000000000000000000e+01,1.770000000000000000e+02,8.400000000000000000e+01,8.500000000000000000e+01,6.099999999999999867e-01,2.634896900000000000e+09
4.000000000000000000e+01,1.000000000000000000e+02,3.820000000000000000e+02,1.280000000000000000e+02,3.900000000000000000e+01,1.260000000000000000e+02,6.600000000000000000e+01,4.100000000000000000e+01,6.099999999999999867e-01,2.652511500000000000e+09
4.400000000000000000e+01,1.010000000000000000e+02,3.930000000000000000e+02,1.520000000000000000e+02,3.700000000000000000e+01,6.700000000000000000e+01,6.400000000000000000e+01,3.600000000000000000e+01,6.099999999999999867e-01,2.672889600000000000e+09
4.400000000000000000e+01,9.200000000000000000e+01,3.860000000000000000e+02,1.760000000000000000e+02,3.700000000000000000e+01,5.600000000000000000e+01,6.900000000000000000e+01,3.300000000000000000e+01,6.099999999999999867e-01,2.689809900000000000e+09
4.300000000000000000e+01,1.150000000000000000e+02,4.680000000000000000e+02,1.670000000000000000e+02,3.800000000000000000e+01,5.200000000000000000e+01,7.000000000000000000e+01,3.000000000000000000e+01,6.199999999999999956e-01,2.706742900000000000e+09
4.700000000000000000e+01,1.320000000000000000e+02,5.210000000000000000e+02,1.940000000000000000e+02,3.900000000000000000e+01,4.800000000000000000e+01,6.800000000000000000e+01,2.900000000000000000e+01,6.199999999999999956e-01,2.724265100000000000e+09
5.600000000000000000e+01,1.630000000000000000e+02,5.850000000000000000e+02,2.060000000000000000e+02,4.600000000000000000e+01,5.200000000000000000e+01,7.800000000000000000e+01,3.500000000000000000e+01,6.300000000000000044e-01,2.741473800000000000e+09
5.800000000000000000e+01,1.670000000000000000e+02,6.090000000000000000e+02,1.950000000000000000e+02,5.000000000000000000e+01,9.200000000000000000e+01,8.200000000000000000e+01,3.600000000000000000e+01,6.400000000000000133e-01,2.759928700000000000e+09
6.100000000000000000e+01,1.800000000000000000e+02,6.330000000000000000e+02,1.750000000000000000e+02,5.000000000000000000e+01,8.390000000000000000e+02,9.400000000000000000e+01,3.600000000000000000e+01,6.500000000000000222e-01,2.777116400000000000e+09
6.400000000000000000e+01,1.720000000000000000e+02,5.510000000000000000e+02,1.700000000000000000e+02,5.000000000000000000e+01,1.031000000000000000e+03,1.060000000000000000e+02,3.800000000000000000e+01,6.600000000000000311e-01,2.793959000000000000e+09
6.500000000000000000e+01,1.980000000000000000e+02,5.380000000000000000e+02,1.520000000000000000e+02,5.300000000000000000e+01,1.269000000000000000e+03,1.110000000000000000e+02,4.100000000000000000e+01,6.600000000000000311e-01,2.810476100000000000e+09
5.800000000000000000e+01,1.810000000000000000e+02,5.200000000000000000e+02,1.350000000000000000e+02,5.100000000000000000e+01,1.308000000000000000e+03,1.080000000000000000e+02,4.000000000000000000e+01,6.500000000000000222e-01,2.827262900000000000e+09
5.600000000000000000e+01,1.780000000000000000e+02,5.160000000000000000e+02,1.430000000000000000e+02,4.800000000000000000e+01,1.311000000000000000e+03,1.020000000000000000e+02,4.000000000000000000e+01,6.500000000000000222e-01,2.844791300000000000e+09
5.100000000000000000e+01,1.660000000000000000e+02,4.810000000000000000e+02,1.330000000000000000e+02,5.100000000000000000e+01,1.012000000000000000e+03,8.800000000000000000e+01,3.800000000000000000e+01,6.500000000000000222e-01,2.864249400000000000e+09
4.500000000000000000e+01,1.650000000000000000e+02,5.190000000000000000e+02,1.400000000000000000e+02,5.100000000000000000e+01,8.170000000000000000e+02,7.100000000000000000e+01,3.500000000000000000e+01,6.600000000000000311e-01,2.881699200000000000e+09
4.100000000000000000e+01,1.220000000000000000e+02,4.930000000000000000e+02,1.270000000000000000e+02,4.500000000000000000e+01,3.510000000000000000e+02,6.100000000000000000e+01,3.400000000000000000e+01,6.600000000000000311e-01,2.898918100000000000e+09
3.900000000000000000e+01,1.250000000000000000e+02,4.990000000000000000e+02,1.280000000000000000e+02,4.200000000000000000e+01,1.500000000000000000e+02,6.100000000000000000e+01,2.900000000000000000e+01,6.600000000000000311e-01,2.916721200000000000e+09
4.200000000000000000e+01,1.410000000000000000e+02,5.020000000000000000e+02,1.000000000000000000e+02,4.100000000000000000e+01,1.130000000000000000e+02,6.700000000000000000e+01,2.900000000000000000e+01,6.600000000000000311e-01,2.934250700000000000e+09
4.100000000000000000e+01,1.580000000000000000e+02,5.970000000000000000e+02,1.000000000000000000e+02,4.900000000000000000e+01,1.470000000000000000e+02,6.200000000000000000e+01,2.800000000000000000e+01,6.600000000000000311e-01,2.951695200000000000e+09
4.200000000000000000e+01,1.500000000000000000e+02,5.590000000000000000e+02,9.800000000000000000e+01,5.000000000000000000e+01,6.090000000000000000e+02,6.800000000000000000e+01,2.900000000000000000e+01,6.600000000000000311e-01,2.970339800000000000e+09
4.200000000000000000e+01,1.580000000000000000e+02,5.880000000000000000e+02,9.500000000000000000e+01,6.300000000000000000e+01,9.950000000000000000e+02,7.300000000000000000e+01,2.900000000000000000e+01,6.600000000000000311e-01,2.988084600000000000e+09
4.700000000000000000e+01,1.590000000000000000e+02,5.300000000000000000e+02,9.600000000000000000e+01,6.400000000000000000e+01,1.355000000000000000e+03,8.800000000000000000e+01,3.100000000000000000e+01,6.500000000000000222e-01,3.004564800000000000e+09
4.500000000000000000e+01,1.500000000000000000e+02,5.030000000000000000e+02,1.030000000000000000e+02,7.000000000000000000e+01,1.579000000000000000e+03,8.200000000000000000e+01,5.100000000000000000e+01,6.500000000000000222e-01,3.021027100000000000e+09
4.600000000000000000e+01,1.360000000000000000e+02,4.160000000000000000e+02,1.070000000000000000e+02,6.900000000000000000e+01,1.590000000000000000e+03,8.400000000000000000e+01,5.600000000000000000e+01,6.400000000000000133e-01,3.039434900000000000e+09
4.600000000000000000e+01,1.500000000000000000e+02,4.110000000000000000e+02,9.600000000000000000e+01,7.200000000000000000e+01,1.477000000000000000e+03,7.900000000000000000e+01,7.400000000000000000e+01,6.199999999999999956e-01,3.057744100000000000e+09
4.300000000000000000e+01,1.430000000000000000e+02,4.310000000000000000e+02,1.040000000000000000e+02,6.000000000000000000e+01,1.251000000000000000e+03,7.200000000000000000e+01,1.150000000000000000e+02,6.099999999999999867e-01,3.074898300000000000e+09
4.200000000000000000e+01,1.370000000000000000e+02,4.440000000000000000e+02,9.800000000000000000e+01,8.400000000000000000e+01,8.470000000000000000e+02,6.100000000000000000e+01,1.250000000000000000e+02,6.099999999999999867e-01,3.091543300000000000e+09
3.900000000000000000e+01,1.390000000000000000e+02,4.390000000000000000e+02,1.080000000000000000e+02,8.400000000000000000e+01,2.380000000000000000e+02,6.900000000000000000e+01,1.240000000000000000e+02,5.999999999999999778e-01,3.108202500000000000e+09
4.000000000000000000e+01,1.350000000000000000e+02,4.660000000000000000e+02,1.160000000000000000e+02,8.500000000000000000e+01,1.170000000000000000e+02,6.900000000000000000e+01,1.340000000000000000e+02,5.899999999999999689e-01,3.126746400000000000e+09
4.500000000000000000e+01,1.560000000000000000e+02,5.250000000000000000e+02,1.250000000000000000e+02,8.500000000000000000e+01,9.800000000000000000e+01,7.200000000000000000e+01,1.440000000000000000e+02,5.799999999999999600e-01,3.145727300000000000e+09
5.600000000000000000e+01,1.640000000000000000e+02,4.840000000000000000e+02,1.270000000000000000e+02,1.010000000000000000e+02,8.600000000000000000e+01,8.600000000000000000e+01,1.340000000000000000e+02,5.600000000000000533e-01,3.164874100000000000e+09
6.100000000000000000e+01,1.730000000000000000e+02,5.400000000000000000e+02,1.470000000000000000e+02,9.800000000000000000e+01,9.000000000000000000e+01,1.040000000000000000e+02,1.260000000000000000e+02,5.500000000000000444e-01,3.184107200000000000e+09
7.100000000000000000e+01,1.840000000000000000e+02,6.070000000000000000e+02,1.670000000000000000e+02,1.100000000000000000e+02,8.700000000000000000e+01,1.120000000000000000e+02,1.230000000000000000e+02,5.400000000000000355e-01,3.201896500000000000e+09
7.700000000000000000e+01,1.860000000000000000e+02,6.770000000000000000e+02,1.670000000000000000e+02,1.070000000000000000e+02,8.800000000000000000e+01,1.300000000000000000e+02,1.470000000000000000e+02,5.300000000000000266e-01,3.218918300000000000e+09
7.900000000000000000e+01,1.730000000000000000e+02,6.690000000000000000e+02,1.690000000000000000e+02,1.460000000000000000e+02,1.350000000000000000e+02,1.290000000000000000e+02,1.330000000000000000e+02,5.200000000000000178e-01,3.235603100000000000e+09
7.400000000000000000e+01,1.690000000000000000e+02,7.230000000000000000e+02,1.780000000000000000e+02,1.410000000000000000e+02,1.460000000000000000e+02,1.260000000000000000e+02,1.130000000000000000e+02,5.100000000000000089e-01,3.256606000000000000e+09
7.200000000000000000e+01,1.570000000000000000e+02,7.250000000000000000e+02,1.670000000000000000e+02,1.430000000000000000e+02,1.520000000000000000e+02,1.150000000000000000e+02,1.150000000000000000e+02,4.899999999999999911e-01,3.276101400000000000e+09
7.100000000000000000e+01,1.500000000000000000e+02,7.360000000000000000e+02,1.900000000000000000e+02,1.380000000000000000e+02,1.610000000000000000e+02,1.350000000000000000e+02,1.160000000000000000e+02,4.600000000000000200e-01,3.292763500000000000e+09
6.600000000000000000e+01,1.450000000000000000e+02,6.630000000000000000e+02,1.890000000000000000e+02,1.380000000000000000e+02,1.770000000000000000e+02,1.190000000000000000e+02,6.900000000000000000e+01,4.500000000000000111e-01,3.309756900000000000e+09
7.800000000000000000e+01,1.340000000000000000e+02,6.310000000000000000e+02,1.940000000000000000e+02,9.900000000000000000e+01,2.550000000000000000e+02,1.750000000000000000e+02,1.300000000000000000e+02,4.500000000000000111e-01,3.327096700000000000e+09
7.900000000000000000e+01,1.300000000000000000e+02,5.700000000000000000e+02,1.960000000000000000e+02,1.050000000000000000e+02,2.610000000000000000e+02,1.900000000000000000e+02,1.370000000000000000e+02,4.500000000000000111e-01,3.344400400000000000e+09
8.300000000000000000e+01,1.410000000000000000e+02,5.560000000000000000e+02,2.050000000000000000e+02,9.000000000000000000e+01,2.650000000000000000e+02,1.970000000000000000e+02,1.380000000000000000e+02,4.500000000000000111e-01,3.364291900000000000e+09
7.500000000000000000e+01,1.470000000000000000e+02,4.860000000000000000e+02,1.800000000000000000e+02,8.300000000000000000e+01,2.670000000000000000e+02,1.910000000000000000e+02,1.380000000000000000e+02,4.500000000000000111e-01,3.382399600000000000e+09
7.800000000000000000e+01,1.690000000000000000e+02,5.560000000000000000e+02,1.820000000000000000e+02,8.300000000000000000e+01,2.900000000000000000e+02,2.130000000000000000e+02,1.520000000000000000e+02,4.500000000000000111e-01,3.399764500000000000e+09
6.600000000000000000e+01,1.800000000000000000e+02,6.310000000000000000e+02,1.750000000000000000e+02,7.600000000000000000e+01,2.150000000000000000e+02,1.760000000000000000e+02,1.110000000000000000e+02,4.600000000000000200e-01,3.417276900000000000e+09
6.200000000000000000e+01,1.810000000000000000e+02,7.330000000000000000e+02,1.610000000000000000e+02,6.000000000000000000e+01,2.180000000000000000e+02,1.650000000000000000e+02,1.270000000000000000e+02,4.600000000000000200e-01,3.434806700000000000e+09
5.600000000000000000e+01,2.040000000000000000e+02,8.040000000000000000e+02,1.860000000000000000e+02,6.600000000000000000e+01,3.270000000000000000e+02,1.610000000000000000e+02,1.420000000000000000e+02,4.600000000000000200e-01,3.455788700000000000e+09
6.700000000000000000e+01,1.910000000000000000e+02,7.900000000000000000e+02,1.660000000000000000e+02,6.200000000000000000e+01,3.280000000000000000e+02,1.730000000000000000e+02,2.100000000000000000e+02,4.699999999999999734e-01,3.474427700000000000e+09
7.000000000000000000e+01,1.940000000000000000e+02,8.340000000000000000e+02,1.590000000000000000e+02,5.900000000000000000e+01,3.280000000000000000e+02,1.590000000000000000e+02,2.410000000000000000e+02,4.699999999999999734e-01,3.491616300000000000e+09
7.900000000000000000e+01,1.820000000000000000e+02,7.630000000000000000e+02,1.500000000000000000e+02,6.400000000000000000e+01,3.520000000000000000e+02,2.330000000000000000e+02,3.830000000000000000e+02,4.699999999999999734e-01,3.508611200000000000e+09
1.030000000000000000e+02,2.220000000000000000e+02,6.930000000000000000e+02,1.560000000000000000e+02,6.500000000000000000e+01,3.890000000000000000e+02,3.090000000000000000e+02,4.160000000000000000e+02,4.600000000000000200e-01,3.526346400000000000e+09
1.080000000000000000e+02,1.920000000000000000e+02,5.610000000000000000e+02,1.050000000000000000e+02,6.300000000000000000e+01,3.330000000000000000e+02,3.210000000000000000e+02,4.330000000000000000e+02,4.500000000000000111e-01,3.543879600000000000e+09
1.140000000000000000e+02,1.900000000000000000e+02,5.860000000000000000e+02,9.700000000000000000e+01,6.400000000000000000e+01,3.730000000000000000e+02,3.790000000000000000e+02,4.710000000000000000e+02,4.400000000000000022e-01,3.565052500000000000e+09
1.240000000000000000e+02,1.820000000000000000e+02,4.570000000000000000e+02,9.200000000000000000e+01,6.200000000000000000e+01,3.880000000000000000e+02,4.010000000000000000e+02,5.030000000000000000e+02,4.199999999999999845e-01,3.582615200000000000e+09
1.210000000000000000e+02,1.970000000000000000e+02,5.060000000000000000e+02,1.040000000000000000e+02,5.800000000000000000e+01,3.880000000000000000e+02,3.980000000000000000e+02,5.380000000000000000e+02,4.099999999999999756e-01,3.599489900000000000e+09
1.170000000000000000e+02,1.560000000000000000e+02,4.630000000000000000e+02,9.500000000000000000e+01,5.300000000000000000e+01,3.730000000000000000e+02,4.650000000000000000e+02,5.690000000000000000e+02,3.900000000000000133e-01,3.616653400000000000e+09
1.220000000000000000e+02,2.230000000000000000e+02,6.010000000000000000e+02,1.370000000000000000e+02,5.400000000000000000e+01,3.750000000000000000e+02,5.000000000000000000e+02,5.980000000000000000e+02,3.800000000000000044e-01,3.634313200000000000e+09
1.220000000000000000e+02,2.250000000000000000e+02,6.030000000000000000e+02,1.430000000000000000e+02,5.200000000000000000e+01,3.390000000000000000e+02,4.670000000000000000e+02,5.660000000000000000e+02,3.699999999999999956e-01,3.652937200000000000e+09
1.140000000000000000e+02,2.250000000000000000e+02,5.880000000000000000e+02,1.470000000000000000e+02,5.800000000000000000e+01,3.230000000000000000e+02,5.870000000000000000e+02,5.540000000000000000e+02,3.699999999999999956e-01,3.673016300000000000e+09
1.130000000000000000e+02,2.160000000000000000e+02,5.480000000000000000e+02,1.380000000000000000e+02,6.300000000000000000e+01,3.090000000000000000e+02,6.150000000000000000e+02,4.750000000000000000e+02,3.599999999999999867e-01,3.690652000000000000e+09
1.020000000000000000e+02,2.130000000000000000e+02,5.800000000000000000e+02,1.450000000000000000e+02,6.600000000000000000e+01,2.860000000000000000e+02,5.660000000000000000e+02,4.300000000000000000e+02,3.599999999999999867e-01,3.708132100000000000e+09
9.900000000000000000e+01,1.740000000000000000e+02,5.140000000000000000e+02,1.230000000000000000e+02,6.500000000000000000e+01,2.740000000000000000e+02,5.680000000000000000e+02,3.710000000000000000e+02,3.499999999999999778e-01,3.725811400000000000e+09
8.400000000000000000e+01,1.720000000000000000e+02,5.310000000000000000e+02,1.290000000000000000e+02,6.600000000000000000e+01,2.750000000000000000e+02,5.610000000000000000e+02,3.670000000000000000e+02,3.499999999999999778e-01,3.744333500000000000e+09
7.500000000000000000e+01,1.730000000000000000e+02,5.210000000000000000e+02,1.250000000000000000e+02,6.400000000000000000e+01,2.840000000000000000e+02,4.310000000000000000e+02,3.400000000000000000e+02,3.400000000000000244e-01,3.763979400000000000e+09
7.600000000000000000e+01,1.700000000000000000e+02,5.370000000000000000e+02,1.220000000000000000e+02,5.700000000000000000e+01,2.640000000000000000e+02,3.590000000000000000e+02,2.740000000000000000e+02,3.400000000000000244e-01,3.782589200000000000e+09
6.900000000000000000e+01,1.600000000000000000e+02,4.840000000000000000e+02,1.150000000000000000e+02,5.100000000000000000e+01,2.430000000000000000e+02,3.030000000000000000e+02,2.250000000000000000e+02,3.499999999999999778e-01,3.801113500000000000e+09
5.700000000000000000e+01,1.310000000000000000e+02,4.520000000000000000e+02,1.070000000000000000e+02,5.100000000000000000e+01,2.130000000000000000e+02,2.210000000000000000e+02,2.120000000000000000e+02,3.499999999999999778e-01,3.819592100000000000e+09
6.200000000000000000e+01,1.360000000000000000e+02,4.460000000000000000e+02,1.190000000000000000e+02,5.900000000000000000e+01,1.980000000000000000e+02,2.070000000000000000e+02,1.700000000000000000e+02,3.599999999999999867e-01,3.839506000000000000e+09
6.100000000000000000e+01,1.140000000000000000e+02,4.440000000000000000e+02,1.160000000000000000e+02,6.200000000000000000e+01,1.260000000000000000e+02,1.730000000000000000e+02,1.380000000000000000e+02,3.699999999999999956e-01,3.859743700000000000e+09
5.000000000000000000e+01,1.060000000000000000e+02,4.840000000000000000e+02,1.200000000000000000e+02,6.400000000000000000e+01,1.170000000000000000e+02,1.660000000000000000e+02,1.190000000000000000e+02,3.800000000000000044e-01,3.880848200000000000e+09
5.400000000000000000e+01,1.110000000000000000e+02,5.060000000000000000e+02,1.180000000000000000e+02,7.600000000000000000e+01,1.450000000000000000e+02,1.610000000000000000e+02,1.380000000000000000e+02,3.900000000000000133e-01,3.900086700000000000e+09
6.100000000000000000e+01,1.350000000000000000e+02,4.840000000000000000e+02,1.190000000000000000e+02,8.200000000000000000e+01,1.870000000000000000e+02,1.640000000000000000e+02,1.640000000000000000e+02,4.000000000000000222e-01,3.919297100000000000e+09
5.600000000000000000e+01,1.350000000000000000e+02,4.330000000000000000e+02,1.030000000000000000e+02,9.300000000000000000e+01,1.980000000000000000e+02,1.540000000000000000e+02,1.590000000000000000e+02,4.099999999999999756e-01,3.939036500000000000e+09
5.800000000000000000e+01,1.310000000000000000e+02,4.570000000000000000e+02,1.220000000000000000e+02,1.130000000000000000e+02,2.000000000000000000e+02,1.550000000000000000e+02,1.390000000000000000e+02,4.099999999999999756e-01,3.960270500000000000e+09
5.800000000000000000e+01,1.350000000000000000e+02,3.930000000000000000e+02,1.350000000000000000e+02,1.380000000000000000e+02,3.540000000000000000e+02,1.820000000000000000e+02,1.510000000000000000e+02,4.299999999999999933e-01,3.979310300000000000e+09
5.800000000000000000e+01,1.410000000000000000e+02,3.900000000000000000e+02,1.570000000000000000e+02,1.460000000000000000e+02,3.740000000000000000e+02,1.980000000000000000e+02,1.530000000000000000e+02,4.400000000000000022e-01,3.998389700000000000e+09
4.700000000000000000e+01,1.190000000000000000e+02,4.230000000000000000e+02,1.600000000000000000e+02,1.450000000000000000e+02,3.560000000000000000e+02,1.940000000000000000e+02,1.280000000000000000e+02,4.500000000000000111e-01,4.017230900000000000e+09
4.400000000000000000e+01,1.150000000000000000e+02,4.320000000000000000e+02,1.590000000000000000e+02,1.400000000000000000e+02,3.660000000000000000e+02,1.990000000000000000e+02,1.280000000000000000e+02,4.500000000000000111e-01,4.037457600000000000e+09
4.000000000000000000e+01,1.180000000000000000e+02,4.140000000000000000e+02,1.480000000000000000e+02,1.270000000000000000e+02,4.040000000000000000e+02,2.580000000000000000e+02,1.460000000000000000e+02,4.600000000000000200e-01,4.057393000000000000e+09
4.400000000000000000e+01,1.130000000000000000e+02,4.540000000000000000e+02,1.400000000000000000e+02,9.800000000000000000e+01,3.180000000000000000e+02,2.560000000000000000e+02,1.750000000000000000e+02,4.600000000000000200e-01,4.080092000000000000e+09
3.800000000000000000e+01,1.000000000000000000e+02,5.180000000000000000e+02,1.120000000000000000e+02,7.700000000000000000e+01,3.000000000000000000e+02,2.610000000000000000e+02,1.740000000000000000e+02,4.600000000000000200e-01,4.101663900000000000e+09
3.800000000000000000e+01,1.010000000000000000e+02,5.090000000000000000e+02,1.020000000000000000e+02,6.800000000000000000e+01,3.220000000000000000e+02,2.680000000000000000e+02,1.720000000000000000e+02,4.699999999999999734e-01,4.120810900000000000e+09
4.500000000000000000e+01,1.270000000000000000e+02,5.230000000000000000e+02,1.080000000000000000e+02,6.000000000000000000e+01,3.070000000000000000e+02,2.660000000000000000e+02,1.880000000000000000e+02,4.799999999999999822e-01,4.141823700000000000e+09
4.600000000000000000e+01,1.280000000000000000e+02,5.460000000000000000e+02,1.140000000000000000e+02,4.500000000000000000e+01,2.510000000000000000e+02,1.960000000000000000e+02,1.740000000000000000e+02,4.899999999999999911e-01,4.164103600000000000e+09
4.400000000000000000e+01,1.340000000000000000e+02,5.100000000000000000e+02,1.250000000000000000e+02,5.100000000000000000e+01,1.980000000000000000e+02,1.660000000000000000e+02,1.270000000000000000e+02,5.000000000000000000e-01,4.183026800000000000e+09
4.800000000000000000e+01,1.380000000000000000e+02,4.330000000000000000e+02,1.260000000000000000e+02,6.100000000000000000e+01,2.990000000000000000e+02,1.350000000000000000e+02,1.270000000000000000e+02,5.100000000000000089e-01,4.200984900000000000e+09
4.700000000000000000e+01,1.280000000000000000e+02,3.900000000000000000e+02,1.160000000000000000e+02,6.300000000000000000e+01,2.940000000000000000e+02,1.280000000000000000e+02,1.300000000000000000e+02,5.100000000000000089e-01,4.219975100000000000e+09
4.100000000000000000e+01,9.900000000000000000e+01,3.640000000000000000e+02,1.110000000000000000e+02,6.100000000000000000e+01,2.900000000000000000e+02,1.280000000000000000e+02,1.060000000000000000e+02,5.200000000000000178e-01,4.239543600000000000e+09
4.700000000000000000e+01,1.110000000000000000e+02,3.220000000000000000e+02,1.190000000000000000e+02,7.600000000000000000e+01,3.020000000000000000e+02,1.330000000000000000e+02,1.060000000000000000e+02,5.200000000000000178e-01,4.262204200000000000e+09
5.200000000000000000e+01,1.170000000000000000e+02,3.760000000000000000e+02,1.000000000000000000e+02,7.700000000000000000e+01,3.150000000000000000e+02,1.470000000000000000e+02,1.090000000000000000e+02,5.200000000000000178e-01,4.281255000000000000e+09
4.900000000000000000e+01,1.160000000000000000e+02,4.380000000000000000e+02,9.900000000000000000e+01,7.300000000000000000e+01,2.270000000000000000e+02,1.810000000000000000e+02,1.070000000000000000e+02,5.200000000000000178e-01,4.300361400000000000e+09
5.400000000000000000e+01,1.170000000000000000e+02,4.850000000000000000e+02,1.080000000000000000e+02,7.000000000000000000e+01,2.550000000000000000e+02,1.650000000000000000e+02,1.170000000000000000e+02,5.300000000000000266e-01,4.319110100000000000e+09
6.000000000000000000e+01,1.330000000000000000e+02,4.970000000000000000e+02,1.100000000000000000e+02,6.900000000000000000e+01,2.580000000000000000e+02,1.740000000000000000e+02,1.270000000000000000e+02,5.300000000000000266e-01,4.338105100000000000e+09
9.300000000000000000e+01,1.220000000000000000e+02,4.870000000000000000e+02,8.900000000000000000e+01,5.400000000000000000e+01,2.500000000000000000e+02,1.740000000000000000e+02,1.340000000000000000e+02,5.400000000000000355e-01,4.359502600000000000e+09
2.380000000000000000e+02,1.170000000000000000e+02,4.340000000000000000e+02,8.700000000000000000e+01,4.900000000000000000e+01,2.430000000000000000e+02,1.630000000000000000e+02,1.660000000000000000e+02,5.400000000000000355e-01,4.380532200000000000e+09
2.650000000000000000e+02,1.110000000000000000e+02,3.510000000000000000e+02,8.500000000000000000e+01,4.900000000000000000e+01,2.450000000000000000e+02,1.890000000000000000e+02,1.760000000000000000e+02,5.400000000000000355e-01,4.399479700000000000e+09
2.650000000000000000e+02,1.060000000000000000e+02,2.590000000000000000e+02,7.700000000000000000e+01,5.100000000000000000e+01,2.010000000000000000e+02,2.050000000000000000e+02,1.760000000000000000e+02,5.400000000000000355e-01,4.418856100000000000e+09
2.650000000000000000e+02,9.400000000000000000e+01,2.500000000000000000e+02,1.050000000000000000e+02,6.600000000000000000e+01,2.040000000000000000e+02,2.010000000000000000e+02,1.730000000000000000e+02,5.400000000000000355e-01,4.439633800000000000e+09
2.550000000000000000e+02,1.160000000000000000e+02,2.330000000000000000e+02,1.120000000000000000e+02,6.900000000000000000e+01,1.950000000000000000e+02,1.960000000000000000e+02,1.660000000000000000e+02,5.300000000000000266e-01,4.462285500000000000e+09
1.300000000000000000e+02,1.280000000000000000e+02,2.980000000000000000e+02,1.320000000000000000e+02,7.300000000000000000e+01,1.890000000000000000e+02,1.960000000000000000e+02,1.350000000000000000e+02,5.300000000000000266e-01,4.480434800000000000e+09
6.200000000000000000e+01,1.310000000000000000e+02,3.180000000000000000e+02,1.300000000000000000e+02,7.000000000000000000e+01,1.820000000000000000e+02,1.230000000000000000e+02,1.240000000000000000e+02,5.300000000000000266e-01,4.498701600000000000e+09
5.800000000000000000e+01,1.400000000000000000e+02,3.430000000000000000e+02,1.290000000000000000e+02,6.900000000000000000e+01,1.640000000000000000e+02,1.000000000000000000e+02,1.120000000000000000e+02,5.300000000000000266e-01,4.522451700000000000e+09
5.600000000000000000e+01,1.410000000000000000e+02,3.780000000000000000e+02,1.040000000000000000e+02,5.700000000000000000e+01,1.530000000000000000e+02,9.400000000000000000e+01,1.150000000000000000e+02,5.400000000000000355e-01,4.540389400000000000e+09
5.500000000000000000e+01,1.210000000000000000e+02,4.000000000000000000e+02,1.060000000000000000e+02,5.700000000000000000e+01,1.680000000000000000e+02,1.220000000000000000e+02,1.210000000000000000e+02,5.400000000000000355e-01,4.559841900000000000e+09
5.200000000000000000e+01,9.900000000000000000e+01,3.660000000000000000e+02,1.050000000000000000e+02,5.300000000000000000e+01,1.650000000000000000e+02,1.320000000000000000e+02,1.180000000000000000e+02,5.400000000000000355e-01,4.580674900000000000e+09
4.600000000000000000e+01,1.030000000000000000e+02,3.490000000000000000e+02,1.030000000000000000e+02,5.700000000000000000e+01,1.600000000000000000e+02,1.330000000000000000e+02,9.500000000000000000e+01,5.400000000000000355e-01,4.599118500000000000e+09
4.600000000000000000e+01,9.200000000000000000e+01,3.380000000000000000e+02,1.060000000000000000e+02,5.700000000000000000e+01,1.530000000000000000e+02,1.460000000000000000e+02,8.900000000000000000e+01,5.400000000000000355e-01,4.618266500000000000e+09
4.800000000000000000e+01,9.100000000000000000e+01,3.090000000000000000e+02,1.190000000000000000e+02,5.400000000000000000e+01,1.480000000000000000e+02,1.580000000000000000e+02,7.400000000000000000e+01,5.400000000000000355e-01,4.639167200000000000e+09
4.100000000000000000e+01,8.900000000000000000e+01,2.890000000000000000e+02,1.090000000000000000e+02,5.000000000000000000e+01,1.470000000000000000e+02,1.340000000000000000e+02,6.000000000000000000e+01,5.500000000000000444e-01,4.657995600000000000e+09
4.100000000000000000e+01,9.700000000000000000e+01,2.830000000000000000e+02,8.500000000000000000e+01,4.600000000000000000e+01,1.440000000000000000e+02,1.210000000000000000e+02,5.300000000000000000e+01,5.500000000000000444e-01,4.679102100000000000e+09
4.000000000000000000e+01,8.800000000000000000e+01,2.840000000000000000e+02,9.300000000000000000e+01,4.300000000000000000e+01,1.020000000000000000e+02,1.250000000000000000e+02,5.800000000000000000e+01,5.500000000000000444e-01,4.697992300000000000e+09
4.700000000000000000e+01,9.500000000000000000e+01,3.210000000000000000e+02,9.200000000000000000e+01,4.100000000000000000e+01,1.120000000000000000e+02,1.340000000000000000e+02,9.500000000000000000e+01,5.500000000000000444e-01,4.717227700000000000e+09
4.300000000000000000e+01,9.800000000000000000e+01,3.300000000000000000e+02,7.100000000000000000e+01,5.700000000000000000e+01,1.210000000000000000e+02,1.230000000000000000e+02,9.600000000000000000e+01,5.500000000000000444e-01,4.737780700000000000e+09
4.400000000000000000e+01,9.800000000000000000e+01,3.220000000000000000e+02,7.300000000000000000e+01,5.600000000000000000e+01,1.210000000000000000e+02,1.250000000000000000e+02,9.700000000000000000e+01,5.500000000000000444e-01,4.764364900000000000e+09
4.400000000000000000e+01,9.100000000000000000e+01,3.100000000000000000e+02,7.800000000000000000e+01,6.200000000000000000e+01,1.170000000000000000e+02,1.310000000000000000e+02,9.700000000000000000e+01,5.400000000000000355e-01,4.782993900000000000e+09
4.400000000000000000e+01,1.030000000000000000e+02,3.240000000000000000e+02,8.300000000000000000e+01,6.200000000000000000e+01,1.180000000000000000e+02,1.190000000000000000e+02,9.100000000000000000e+01,5.400000000000000355e-01,4.801190600000000000e+09
4.200000000000000000e+01,1.010000000000000000e+02,3.110000000000000000e+02,9.300000000000000000e+01,6.700000000000000000e+01,1.030000000000000000e+02,8.700000000000000000e+01,6.600000000000000000e+01,5.400000000000000355e-01,4.819550300000000000e+09
4.000000000000000000e+01,9.300000000000000000e+01,3.040000000000000000e+02,1.020000000000000000e+02,5.300000000000000000e+01,9.500000000000000000e+01,7.600000000000000000e+01,5.900000000000000000e+01,5.400000000000000355e-01,4.838379500000000000e+09
5.500000000000000000e+01,1.180000000000000000e+02,4.060000000000000000e+02,1.240000000000000000e+02,5.700000000000000000e+01,6.200000000000000000e+01,8.500000000000000000e+01,6.300000000000000000e+01,5.400000000000000355e-01,4.858891700000000000e+09
6.600000000000000000e+01,1.410000000000000000e+02,5.610000000000000000e+02,1.450000000000000000e+02,6.200000000000000000e+01,6.400000000000000000e+01,9.900000000000000000e+01,6.600000000000000000e+01,5.400000000000000355e-01,4.880234100000000000e+09
6.400000000000000000e+01,1.360000000000000000e+02,5.770000000000000000e+02,1.440000000000000000e+02,6.400000000000000000e+01,5.900000000000000000e+01,1.020000000000000000e+02,6.600000000000000000e+01,5.400000000000000355e-01,4.899110300000000000e+09
6.700000000000000000e+01,2.520000000000000000e+02,8.220000000000000000e+02,1.500000000000000000e+02,5.900000000000000000e+01,6.600000000000000000e+01,1.630000000000000000e+02,5.400000000000000000e+01,5.300000000000000266e-01,4.919158700000000000e+09
7.800000000000000000e+01,2.950000000000000000e+02,8.830000000000000000e+02,1.710000000000000000e+02,8.400000000000000000e+01,7.100000000000000000e+01,1.690000000000000000e+02,5.500000000000000000e+01,5.200000000000000178e-01,4.938829600000000000e+09
8.200000000000000000e+01,3.000000000000000000e+02,9.510000000000000000e+02,1.670000000000000000e+02,9.000000000000000000e+01,8.700000000000000000e+01,1.820000000000000000e+02,5.100000000000000000e+01,5.100000000000000089e-01,4.962002800000000000e+09
7.600000000000000000e+01,2.900000000000000000e+02,8.730000000000000000e+02,1.480000000000000000e+02,8.600000000000000000e+01,1.660000000000000000e+02,1.730000000000000000e+02,4.700000000000000000e+01,5.000000000000000000e-01,4.982652800000000000e+09
7.900000000000000000e+01,2.990000000000000000e+02,9.140000000000000000e+02,1.700000000000000000e+02,8.600000000000000000e+01,1.710000000000000000e+02,1.780000000000000000e+02,4.800000000000000000e+01,4.899999999999999911e-01,5.000863500000000000e+09
7.800000000000000000e+01,2.690000000000000000e+02,8.730000000000000000e+02,1.620000000000000000e+02,8.500000000000000000e+01,1.770000000000000000e+02,1.270000000000000000e+02,4.000000000000000000e+01,4.699999999999999734e-01,5.019960200000000000e+09
7.300000000000000000e+01,2.550000000000000000e+02,9.530000000000000000e+02,1.510000000000000000e+02,6.600000000000000000e+01,1.760000000000000000e+02,1.250000000000000000e+02,3.800000000000000000e+01,4.600000000000000200e-01,5.039406300000000000e+09
5.600000000000000000e+01,2.460000000000000000e+02,8.630000000000000000e+02,1.400000000000000000e+02,5.500000000000000000e+01,1.830000000000000000e+02,1.140000000000000000e+02,3.400000000000000000e+01,4.500000000000000111e-01,5.059672800000000000e+09
5.500000000000000000e+01,2.480000000000000000e+02,8.770000000000000000e+02,1.400000000000000000e+02,5.100000000000000000e+01,1.260000000000000000e+02,1.200000000000000000e+02,3.300000000000000000e+01,4.400000000000000022e-01,5.079125500000000000e+09
6.100000000000000000e+01,2.480000000000000000e+02,8.580000000000000000e+02,1.230000000000000000e+02,5.200000000000000000e+01,1.350000000000000000e+02,1.300000000000000000e+02,3.800000000000000000e+01,4.299999999999999933e-01,5.098767300000000000e+09
6.200000000000000000e+01,2.240000000000000000e+02,7.810000000000000000e+02,1.350000000000000000e+02,5.200000000000000000e+01,1.310000000000000000e+02,1.270000000000000000e+02,3.800000000000000000e+01,4.199999999999999845e-01,5.118148800000000000e+09
6.100000000000000000e+01,2.010000000000000000e+02,6.480000000000000000e+02,1.350000000000000000e+02,4.700000000000000000e+01,1.410000000000000000e+02,1.360000000000000000e+02,3.900000000000000000e+01,4.199999999999999845e-01,5.138200900000000000e+09
6.400000000000000000e+01,2.060000000000000000e+02,6.380000000000000000e+02,1.380000000000000000e+02,4.500000000000000000e+01,2.480000000000000000e+02,1.660000000000000000e+02,4.000000000000000000e+01,4.299999999999999933e-01,5.160667700000000000e+09
6.800000000000000000e+01,2.100000000000000000e+02,6.190000000000000000e+02,1.390000000000000000e+02,4.800000000000000000e+01,2.510000000000000000e+02,2.120000000000000000e+02,4.300000000000000000e+01,4.400000000000000022e-01,5.181862300000000000e+09
6.400000000000000000e+01,2.060000000000000000e+02,6.470000000000000000e+02,1.380000000000000000e+02,4.900000000000000000e+01,2.550000000000000000e+02,2.120000000000000000e+02,4.500000000000000000e+01,4.500000000000000111e-01,5.200373800000000000e+09
5.900000000000000000e+01,1.650000000000000000e+02,5.400000000000000000e+02,1.390000000000000000e+02,5.700000000000000000e+01,2.640000000000000000e+02,2.170000000000000000e+02,4.600000000000000000e+01,4.699999999999999734e-01,5.218664500000000000e+09
6.300000000000000000e+01,1.480000000000000000e+02,5.360000000000000000e+02,1.300000000000000000e+02,7.500000000000000000e+01,2.710000000000000000e+02,2.500000000000000000e+02,5.900000000000000000e+01,4.799999999999999822e-01,5.238248700000000000e+09
6.800000000000000000e+01,1.320000000000000000e+02,5.440000000000000000e+02,1.450000000000000000e+02,8.200000000000000000e+01,3.030000000000000000e+02,2.350000000000000000e+02,9.400000000000000000e+01,4.899999999999999911e-01,5.260973300000000000e+09
7.500000000000000000e+01,1.650000000000000000e+02,7.040000000000000000e+02,1.530000000000000000e+02,8.600000000000000000e+01,3.050000000000000000e+02,2.120000000000000000e+02,9.600000000000000000e+01,4.899999999999999911e-01,5.279595200000000000e+09
7.900000000000000000e+01,1.680000000000000000e+02,7.060000000000000000e+02,1.530000000000000000e+02,8.500000000000000000e+01,2.980000000000000000e+02,2.210000000000000000e+02,9.700000000000000000e+01,5.000000000000000000e-01,5.298513900000000000e+09
8.400000000000000000e+01,1.920000000000000000e+02,7.070000000000000000e+02,1.470000000000000000e+02,8.600000000000000000e+01,3.040000000000000000e+02,2.270000000000000000e+02,1.010000000000000000e+02,5.000000000000000000e-01,5.318824100000000000e+09
8.600000000000000000e+01,2.080000000000000000e+02,7.190000000000000000e+02,1.540000000000000000e+02,7.800000000000000000e+01,3.110000000000000000e+02,1.920000000000000000e+02,1.460000000000000000e+02,5.100000000000000089e-01,5.337883700000000000e+09
8.400000000000000000e+01,2.230000000000000000e+02,7.050000000000000000e+02,1.900000000000000000e+02,8.300000000000000000e+01,2.100000000000000000e+02,2.000000000000000000e+02,1.270000000000000000e+02,5.000000000000000000e-01,5.359882900000000000e+09
7.400000000000000000e+01,2.020000000000000000e+02,5.900000000000000000e+02,1.860000000000000000e+02,7.900000000000000000e+01,2.080000000000000000e+02,1.800000000000000000e+02,1.270000000000000000e+02,5.100000000000000089e-01,5.381016900000000000e+09
6.900000000000000000e+01,2.030000000000000000e+02,6.670000000000000000e+02,1.850000000000000000e+02,8.200000000000000000e+01,2.060000000000000000e+02,1.540000000000000000e+02,1.260000000000000000e+02,5.000000000000000000e-01,5.400859000000000000e+09
7.500000000000000000e+01,1.920000000000000000e+02,7.380000000000000000e+02,1.840000000000000000e+02,7.900000000000000000e+01,1.850000000000000000e+02,1.540000000000000000e+02,1.280000000000000000e+02,4.899999999999999911e-01,5.419505100000000000e+09
6.500000000000000000e+01,1.730000000000000000e+02,7.390000000000000000e+02,1.860000000000000000e+02,7.100000000000000000e+01,1.610000000000000000e+02,1.470000000000000000e+02,6.200000000000000000e+01,4.799999999999999822e-01,5.438986100000000000e+09
6.900000000000000000e+01,1.610000000000000000e+02,7.800000000000000000e+02,1.770000000000000000e+02,5.600000000000000000e+01,1.200000000000000000e+02,1.240000000000000000e+02,6.200000000000000000e+01,4.799999999999999822e-01,5.460766200000000000e+09
7.400000000000000000e+01,1.730000000000000000e+02,7.840000000000000000e+02,2.010000000000000000e+02,5.500000000000000000e+01,1.110000000000000000e+02,1.300000000000000000e+02,5.900000000000000000e+01,4.799999999999999822e-01,5.480057100000000000e+09
9.100000000000000000e+01,1.980000000000000000e+02,7.240000000000000000e+02,2.010000000000000000e+02,6.200000000000000000e+01,1.220000000000000000e+02,1.770000000000000000e+02,6.000000000000000000e+01,4.799999999999999822e-01,5.498264400000000000e+09
9.100000000000000000e+01,2.130000000000000000e+02,6.960000000000000000e+02,2.100000000000000000e+02,6.400000000000000000e+01,1.510000000000000000e+02,1.690000000000000000e+02,5.800000000000000000e+01,4.899999999999999911e-01,5.517260800000000000e+09
9.400000000000000000e+01,2.180000000000000000e+02,6.560000000000000000e+02,2.050000000000000000e+02,7.100000000000000000e+01,2.810000000000000000e+02,1.750000000000000000e+02,6.600000000000000000e+01,4.899999999999999911e-01,5.537032600000000000e+09
9.300000000000000000e+01,2.310000000000000000e+02,7.550000000000000000e+02,1.930000000000000000e+02,7.100000000000000000e+01,2.960000000000000000e+02,1.770000000000000000e+02,6.600000000000000000e+01,5.000000000000000000e-01,5.560278900000000000e+09
8.900000000000000000e+01,2.300000000000000000e+02,7.790000000000000000e+02,1.660000000000000000e+02,7.500000000000000000e+01,3.130000000000000000e+02,1.800000000000000000e+02,6.600000000000000000e+01,4.899999999999999911e-01,5.579938700000000000e+09
7.800000000000000000e+01,2.320000000000000000e+02,7.450000000000000000e+02,1.770000000000000000e+02,7.400000000000000000e+01,3.790000000000000000e+02,1.810000000000000000e+02,8.700000000000000000e+01,4.899999999999999911e-01,5.598908800000000000e+09
7.300000000000000000e+01,2.180000000000000000e+02,7.200000000000000000e+02,1.710000000000000000e+02,6.800000000000000000e+01,4.060000000000000000e+02,2.010000000000000000e+02,1.340000000000000000e+02,4.899999999999999911e-01,5.619145700000000000e+09
8.500000000000000000e+01,2.800000000000000000e+02,7.850000000000000000e+02,2.220000000000000000e+02,7.500000000000000000e+01,3.300000000000000000e+02,1.960000000000000000e+02,1.470000000000000000e+02,4.899999999999999911e-01,5.638422800000000000e+09
8.400000000000000000e+01,2.860000000000000000e+02,7.270000000000000000e+02,2.240000000000000000e+02,7.700000000000000000e+01,3.190000000000000000e+02,1.890000000000000000e+02,1.470000000000000000e+02,5.000000000000000000e-01,5.659048200000000000e+09
8.300000000000000000e+01,2.780000000000000000e+02,7.130000000000000000e+02,2.430000000000000000e+02,7.500000000000000000e+01,3.360000000000000000e+02,1.960000000000000000e+02,1.620000000000000000e+02,5.000000000000000000e-01,5.680490500000000000e+09
9.300000000000000000e+01,2.680000000000000000e+02,7.280000000000000000e+02,2.570000000000000000e+02,7.900000000000000000e+01,2.670000000000000000e+02,1.650000000000000000e+02,1.920000000000000000e+02,5.000000000000000000e-01,5.699436000000000000e+09
9.000000000000000000e+01,2.860000000000000000e+02,7.410000000000000000e+02,2.560000000000000000e+02,8.100000000000000000e+01,2.500000000000000000e+02,1.730000000000000000e+02,1.860000000000000000e+02,5.000000000000000000e-01,5.718732100000000000e+09
8.600000000000000000e+01,2.650000000000000000e+02,7.460000000000000000e+02,2.060000000000000000e+02,7.300000000000000000e+01,2.570000000000000000e+02,1.820000000000000000e+02,1.800000000000000000e+02,4.899999999999999911e-01,5.738488500000000000e+09
9.500000000000000000e+01,2.500000000000000000e+02,7.260000000000000000e+02,2.070000000000000000e+02,8.300000000000000000e+01,2.570000000000000000e+02,1.940000000000000000e+02,1.870000000000000000e+02,4.799999999999999822e-01,5.761823000000000000e+09
9.700000000000000000e+01,2.530000000000000000e+02,7.180000000000000000e+02,1.910000000000000000e+02,8.100000000000000000e+01,2.390000000000000000e+02,1.970000000000000000e+02,1.800000000000000000e+02,4.799999999999999822e-01,5.781444500000000000e+09
9.100000000000000000e+01,2.510000000000000000e+02,8.410000000000000000e+02,1.880000000000000000e+02,7.800000000000000000e+01,2.270000000000000000e+02,2.330000000000000000e+02,1.430000000000000000e+02,4.699999999999999734e-01,5.801083500000000000e+09
9.000000000000000000e+01,2.300000000000000000e+02,8.780000000000000000e+02,1.980000000000000000e+02,7.900000000000000000e+01,1.810000000000000000e+02,2.140000000000000000e+02,1.090000000000000000e+02,4.699999999999999734e-01,5.819271000000000000e+09
9.900000000000000000e+01,2.150000000000000000e+02,9.080000000000000000e+02,2.330000000000000000e+02,9.400000000000000000e+01,1.660000000000000000e+02,2.240000000000000000e+02,1.110000000000000000e+02,4.500000000000000111e-01,5.839114900000000000e+09
1.020000000000000000e+02,2.520000000000000000e+02,1.031000000000000000e+03,2.310000000000000000e+02,9.100000000000000000e+01,1.830000000000000000e+02,2.220000000000000000e+02,1.420000000000000000e+02,4.500000000000000111e-01,5.858878800000000000e+09
1.070000000000000000e+02,2.730000000000000000e+02,1.084000000000000000e+03,2.650000000000000000e+02,9.700000000000000000e+01,2.750000000000000000e+02,2.310000000000000000e+02,1.660000000000000000e+02,4.400000000000000022e-01,5.878704900000000000e+09
1.030000000000000000e+02,2.600000000000000000e+02,9.700000000000000000e+02,2.430000000000000000e+02,9.000000000000000000e+01,3.100000000000000000e+02,2.120000000000000000e+02,2.080000000000000000e+02,4.299999999999999933e-01,5.898929100000000000e+09
1.180000000000000000e+02,2.740000000000000000e+02,9.450000000000000000e+02,2.420000000000000000e+02,9.700000000000000000e+01,3.120000000000000000e+02,2.330000000000000000e+02,2.150000000000000000e+02,4.199999999999999845e-01,5.918131200000000000e+09
1.060000000000000000e+02,2.560000000000000000e+02,9.500000000000000000e+02,2.290000000000000000e+02,8.300000000000000000e+01,3.140000000000000000e+02,2.150000000000000000e+02,2.160000000000000000e+02,4.099999999999999756e-01,5.937422700000000000e+09
9.400000000000000000e+01,2.150000000000000000e+02,8.530000000000000000e+02,2.340000000000000000e+02,8.000000000000000000e+01,3.080000000000000000e+02,2.180000000000000000e+02,1.940000000000000000e+02,4.099999999999999756e-01,5.965248800000000000e+09
1.080000000000000000e+02,2.370000000000000000e+02,9.690000000000000000e+02,2.500000000000000000e+02,1.160000000000000000e+02,2.170000000000000000e+02,2.750000000000000000e+02,1.690000000000000000e+02,3.900000000000000133e-01,5.983260500000000000e+09
1.120000000000000000e+02,2.610000000000000000e+02,1.097000000000000000e+03,2.610000000000000000e+02,1.260000000000000000e+02,1.780000000000000000e+02,2.800000000000000000e+02,1.180000000000000000e+02,3.800000000000000044e-01,6.001057300000000000e+09
1.180000000000000000e+02,2.700000000000000000e+02,1.140000000000000000e+03,2.710000000000000000e+02,1.360000000000000000e+02,1.720000000000000000e+02,2.680000000000000000e+02,1.060000000000000000e+02,3.699999999999999956e-01,6.019319200000000000e+09
1.370000000000000000e+02,3.060000000000000000e+02,1.161000000000000000e+03,2.940000000000000000e+02,1.590000000000000000e+02,1.860000000000000000e+02,2.920000000000000000e+02,9.700000000000000000e+01,3.499999999999999778e-01,6.037853400000000000e+09
1.460000000000000000e+02,3.700000000000000000e+02,1.218000000000000000e+03,3.270000000000000000e+02,1.730000000000000000e+02,1.830000000000000000e+02,2.920000000000000000e+02,9.300000000000000000e+01,3.400000000000000244e-01,6.059048300000000000e+09
1.460000000000000000e+02,3.750000000000000000e+02,1.138000000000000000e+03,3.190000000000000000e+02,1.600000000000000000e+02,1.690000000000000000e+02,2.340000000000000000e+02,9.600000000000000000e+01,3.200000000000000067e-01,6.081347800000000000e+09
1.460000000000000000e+02,4.060000000000000000e+02,1.086000000000000000e+03,3.430000000000000000e+02,1.590000000000000000e+02,1.570000000000000000e+02,2.490000000000000000e+02,8.200000000000000000e+01,2.999999999999999889e-01,6.099433700000000000e+09
1.400000000000000000e+02,3.940000000000000000e+02,1.021000000000000000e+03,3.400000000000000000e+02,1.660000000000000000e+02,1.710000000000000000e+02,2.410000000000000000e+02,8.300000000000000000e+01,2.800000000000000266e-01,6.119242600000000000e+09
1.250000000000000000e+02,4.030000000000000000e+02,9.570000000000000000e+02,3.160000000000000000e+02,1.470000000000000000e+02,1.540000000000000000e+02,2.270000000000000000e+02,7.700000000000000000e+01,2.600000000000000089e-01,6.140276000000000000e+09
1.280000000000000000e+02,3.600000000000000000e+02,9.040000000000000000e+02,2.970000000000000000e+02,1.480000000000000000e+02,1.820000000000000000e+02,2.370000000000000000e+02,7.800000000000000000e+01,2.399999999999999911e-01,6.161583100000000000e+09
1.130000000000000000e+02,3.290000000000000000e+02,8.560000000000000000e+02,2.920000000000000000e+02,1.360000000000000000e+02,1.730000000000000000e+02,2.210000000000000000e+02,7.100000000000000000e+01,2.200000000000000011e-01,6.181338300000000000e+09
1.130000000000000000e+02,2.920000000000000000e+02,8.740000000000000000e+02,2.840000000000000000e+02,1.340000000000000000e+02,1.630000000000000000e+02,2.060000000000000000e+02,6.800000000000000000e+01,2.099999999999999922e-01,6.200011400000000000e+09
1.110000000000000000e+02,3.140000000000000000e+02,9.360000000000000000e+02,3.060000000000000000e+02,1.180000000000000000e+02,1.560000000000000000e+02,2.350000000000000000e+02,7.000000000000000000e+01,2.000000000000000111e-01,6.218430800000000000e+09
1.090000000000000000e+02,2.570000000000000000e+02,9.970000000000000000e+02,3.210000000000000000e+02,1.210000000000000000e+02,1.600000000000000000e+02,2.200000000000000000e+02,7.300000000000000000e+01,2.000000000000000111e-01,6.240978200000000000e+09
1.040000000000000000e+02,2.340000000000000000e+02,9.760000000000000000e+02,3.530000000000000000e+02,9.900000000000000000e+01,1.400000000000000000e+02,2.140000000000000000e+02,7.800000000000000000e+01,2.000000000000000111e-01,6.261730300000000000e+09
1.160000000000000000e+02,2.490000000000000000e+02,1.026000000000000000e+03,3.580000000000000000e+02,1.060000000000000000e+02,2.190000000000000000e+02,2.240000000000000000e+02,9.400000000000000000e+01,2.099999999999999922e-01,6.280324900000000000e+09
1.210000000000000000e+02,2.650000000000000000e+02,1.049000000000000000e+03,3.730000000000000000e+02,1.110000000000000000e+02,2.260000000000000000e+02,2.120000000000000000e+02,1.090000000000000000e+02,2.200000000000000011e-01,6.298314400000000000e+09
1.290000000000000000e+02,2.540000000000000000e+02,1.039000000000000000e+03,3.790000000000000000e+02,1.130000000000000000e+02,2.290000000000000000e+02,2.140000000000000000e+02,1.180000000000000000e+02,2.300000000000000100e-01,6.316977200000000000e+09
1.330000000000000000e+02,2.770000000000000000e+02,1.014000000000000000e+03,4.090000000000000000e+02,1.160000000000000000e+02,2.230000000000000000e+02,2.140000000000000000e+02,1.190000000000000000e+02,2.399999999999999911e-01,6.336553000000000000e+09
1.300000000000000000e+02,2.920000000000000000e+02,1.045000000000000000e+03,3.970000000000000000e+02,1.160000000000000000e+02,2.190000000000000000e+02,2.230000000000000000e+02,1.360000000000000000e+02,2.500000000000000000e-01,6.362776700000000000e+09
1.260000000000000000e+02,3.050000000000000000e+02,9.690000000000000000e+02,3.760000000000000000e+02,1.140000000000000000e+02,1.400000000000000000e+02,2.280000000000000000e+02,1.320000000000000000e+02,2.600000000000000089e-01,6.382473600000000000e+09
1.400000000000000000e+02,3.380000000000000000e+02,9.100000000000000000e+02,3.890000000000000000e+02,1.370000000000000000e+02,1.510000000000000000e+02,2.240000000000000000e+02,1.640000000000000000e+02,2.600000000000000089e-01,6.400970400000000000e+09
1.270000000000000000e+02,3.660000000000000000e+02,1.006000000000000000e+03,3.700000000000000000e+02,1.280000000000000000e+02,1.340000000000000000e+02,2.040000000000000000e+02,1.570000000000000000e+02,2.600000000000000089e-01,6.419527500000000000e+09
1.620000000000000000e+02,3.820000000000000000e+02,9.760000000000000000e+02,3.490000000000000000e+02,1.450000000000000000e+02,1.510000000000000000e+02,2.590000000000000000e+02,1.690000000000000000e+02,2.600000000000000089e-01,6.439411900000000000e+09
1.640000000000000000e+02,3.770000000000000000e+02,1.002000000000000000e+03,3.200000000000000000e+02,1.470000000000000000e+02,1.530000000000000000e+02,2.610000000000000000e+02,1.540000000000000000e+02,2.600000000000000089e-01,6.461241700000000000e+09
1.630000000000000000e+02,3.650000000000000000e+02,1.046000000000000000e+03,3.280000000000000000e+02,1.450000000000000000e+02,1.550000000000000000e+02,2.650000000000000000e+02,1.600000000000000000e+02,2.500000000000000000e-01,6.479854500000000000e+09
1.590000000000000000e+02,3.880000000000000000e+02,1.108000000000000000e+03,3.060000000000000000e+02,1.300000000000000000e+02,1.420000000000000000e+02,2.720000000000000000e+02,1.200000000000000000e+02,2.399999999999999911e-01,6.499296600000000000e+09
1.740000000000000000e+02,3.730000000000000000e+02,1.001000000000000000e+03,3.380000000000000000e+02,1.420000000000000000e+02,1.440000000000000000e+02,2.700000000000000000e+02,1.170000000000000000e+02,2.300000000000000100e-01,6.518318800000000000e+09
1.560000000000000000e+02,3.790000000000000000e+02,1.010000000000000000e+03,3.810000000000000000e+02,1.390000000000000000e+02,1.290000000000000000e+02,2.550000000000000000e+02,1.020000000000000000e+02,2.200000000000000011e-01,6.538832400000000000e+09
1.630000000000000000e+02,3.930000000000000000e+02,9.460000000000000000e+02,4.120000000000000000e+02,1.510000000000000000e+02,1.430000000000000000e+02,2.530000000000000000e+02,1.190000000000000000e+02,2.099999999999999922e-01,6.559600400000000000e+09
1.700000000000000000e+02,4.360000000000000000e+02,9.390000000000000000e+02,4.680000000000000000e+02,1.660000000000000000e+02,1.440000000000000000e+02,2.760000000000000000e+02,1.730000000000000000e+02,2.000000000000000111e-01,6.581474100000000000e+09
1.740000000000000000e+02,4.030000000000000000e+02,9.000000000000000000e+02,4.800000000000000000e+02,1.780000000000000000e+02,1.460000000000000000e+02,2.930000000000000000e+02,1.850000000000000000e+02,1.900000000000000022e-01,6.599699500000000000e+09
1.830000000000000000e+02,4.730000000000000000e+02,9.140000000000000000e+02,5.250000000000000000e+02,2.060000000000000000e+02,1.610000000000000000e+02,3.210000000000000000e+02,1.930000000000000000e+02,1.799999999999999933e-01,6.621064300000000000e+09
1.910000000000000000e+02,5.040000000000000000e+02,9.520000000000000000e+02,5.600000000000000000e+02,2.160000000000000000e+02,1.830000000000000000e+02,3.510000000000000000e+02,2.110000000000000000e+02,1.700000000000000122e-01,6.640410500000000000e+09
1.920000000000000000e+02,4.930000000000000000e+02,9.310000000000000000e+02,5.610000000000000000e+02,2.160000000000000000e+02,1.780000000000000000e+02,3.590000000000000000e+02,2.030000000000000000e+02,1.600000000000000033e-01,6.662417200000000000e+09
1.840000000000000000e+02,4.740000000000000000e+02,9.670000000000000000e+02,5.230000000000000000e+02,2.050000000000000000e+02,1.800000000000000000e+02,3.430000000000000000e+02,1.480000000000000000e+02,1.499999999999999944e-01,6.680539300000000000e+09
1.700000000000000000e+02,4.570000000000000000e+02,9.790000000000000000e+02,5.120000000000000000e+02,1.920000000000000000e+02,2.060000000000000000e+02,3.190000000000000000e+02,1.310000000000000000e+02,1.400000000000000133e-01,6.699929100000000000e+09
1.610000000000000000e+02,4.070000000000000000e+02,1.033000000000000000e+03,5.090000000000000000e+02,1.700000000000000000e+02,1.970000000000000000e+02,2.850000000000000000e+02,1.260000000000000000e+02,1.400000000000000133e-01,6.719333600000000000e+09
1.420000000000000000e+02,3.560000000000000000e+02,9.740000000000000000e+02,4.630000000000000000e+02,1.470000000000000000e+02,1.880000000000000000e+02,2.430000000000000000e+02,9.500000000000000000e+01,1.400000000000000133e-01,6.738263100000000000e+09
1.410000000000000000e+02,3.790000000000000000e+02,9.400000000000000000e+02,4.370000000000000000e+02,1.420000000000000000e+02,1.770000000000000000e+02,2.410000000000000000e+02,9.100000000000000000e+01,1.300000000000000044e-01,6.761892000000000000e+09
1.410000000000000000e+02,3.420000000000000000e+02,8.710000000000000000e+02,4.390000000000000000e+02,1.400000000000000000e+02,1.770000000000000000e+02,2.280000000000000000e+02,1.400000000000000000e+02,1.400000000000000133e-01,6.780676800000000000e+09
1.350000000000000000e+02,3.270000000000000000e+02,8.310000000000000000e+02,4.250000000000000000e+02,1.350000000000000000e+02,1.500000000000000000e+02,2.360000000000000000e+02,1.430000000000000000e+02,1.400000000000000133e-01,6.800691900000000000e+09
1.450000000000000000e+02,2.900000000000000000e+02,7.630000000000000000e+02,3.810000000000000000e+02,1.310000000000000000e+02,1.650000000000000000e+02,2.640000000000000000e+02,1.720000000000000000e+02,1.499999999999999944e-01,6.819296600000000000e+09
1.550000000000000000e+02,3.340000000000000000e+02,7.650000000000000000e+02,3.650000000000000000e+02,1.420000000000000000e+02,1.580000000000000000e+02,2.490000000000000000e+02,1.800000000000000000e+02,1.600000000000000033e-01,6.838045100000000000e+09
1.590000000000000000e+02,3.280000000000000000e+02,8.020000000000000000e+02,3.570000000000000000e+02,1.370000000000000000e+02,1.640000000000000000e+02,2.440000000000000000e+02,2.050000000000000000e+02,1.600000000000000033e-01,6.858076300000000000e+09
1.760000000000000000e+02,3.300000000000000000e+02,7.550000000000000000e+02,3.310000000000000000e+02,1.510000000000000000e+02,3.870000000000000000e+02,3.410000000000000000e+02,3.640000000000000000e+02,1.799999999999999933e-01,6.880035500000000000e+09
1.820000000000000000e+02,3.250000000000000000e+02,6.280000000000000000e+02,3.130000000000000000e+02,1.510000000000000000e+02,4.280000000000000000e+02,4.060000000000000000e+02,4.190000000000000000e+02,1.900000000000000022e-01,6.898579900000000000e+09
1.770000000000000000e+02,2.950000000000000000e+02,5.260000000000000000e+02,2.380000000000000000e+02,1.410000000000000000e+02,5.670000000000000000e+02,4.490000000000000000e+02,5.080000000000000000e+02,2.000000000000000111e-01,6.918872600000000000e+09
1.760000000000000000e+02,1.970000000000000000e+02,4.490000000000000000e+02,1.570000000000000000e+02,1.380000000000000000e+02,7.070000000000000000e+02,4.830000000000000000e+02,5.590000000000000000e+02,2.099999999999999922e-01,6.939025900000000000e+09
1.710000000000000000e+02,1.540000000000000000e+02,4.370000000000000000e+02,1.390000000000000000e+02,1.390000000000000000e+02,8.340000000000000000e+02,5.000000000000000000e+02,5.850000000000000000e+02,2.300000000000000100e-01,6.960965000000000000e+09
1.680000000000000000e+02,1.460000000000000000e+02,4.420000000000000000e+02,1.340000000000000000e+02,1.420000000000000000e+02,8.550000000000000000e+02,5.330000000000000000e+02,5.660000000000000000e+02,2.500000000000000000e-01,6.980010200000000000e+09
2.000000000000000000e+02,1.230000000000000000e+02,4.650000000000000000e+02,1.300000000000000000e+02,1.450000000000000000e+02,9.580000000000000000e+02,5.380000000000000000e+02,8.210000000000000000e+02,2.600000000000000089e-01,6.999102800000000000e+09
2.140000000000000000e+02,1.310000000000000000e+02,4.480000000000000000e+02,1.340000000000000000e+02,1.480000000000000000e+02,1.001000000000000000e+03,6.800000000000000000e+02,9.240000000000000000e+02,2.700000000000000178e-01,7.019351200000000000e+09
2.190000000000000000e+02,1.990000000000000000e+02,4.290000000000000000e+02,1.210000000000000000e+02,1.300000000000000000e+02,1.000000000000000000e+03,7.610000000000000000e+02,9.500000000000000000e+02,2.800000000000000266e-01,7.038832000000000000e+09
2.340000000000000000e+02,2.310000000000000000e+02,5.060000000000000000e+02,1.180000000000000000e+02,1.250000000000000000e+02,9.810000000000000000e+02,8.280000000000000000e+02,9.740000000000000000e+02,2.999999999999999889e-01,7.059031500000000000e+09
2.450000000000000000e+02,2.450000000000000000e+02,5.740000000000000000e+02,1.140000000000000000e+02,1.050000000000000000e+02,9.850000000000000000e+02,9.020000000000000000e+02,9.890000000000000000e+02,3.200000000000000067e-01,7.079567100000000000e+09
2.330000000000000000e+02,2.540000000000000000e+02,5.900000000000000000e+02,1.150000000000000000e+02,1.040000000000000000e+02,8.980000000000000000e+02,9.530000000000000000e+02,8.050000000000000000e+02,3.300000000000000155e-01,7.100717000000000000e+09
2.300000000000000000e+02,2.580000000000000000e+02,7.350000000000000000e+02,1.140000000000000000e+02,9.500000000000000000e+01,8.490000000000000000e+02,8.580000000000000000e+02,7.080000000000000000e+02,3.400000000000000244e-01,7.120790400000000000e+09
2.260000000000000000e+02,2.210000000000000000e+02,8.380000000000000000e+02,1.430000000000000000e+02,9.600000000000000000e+01,7.760000000000000000e+02,8.120000000000000000e+02,7.100000000000000000e+02,3.599999999999999867e-01,7.140367400000000000e+09
2.040000000000000000e+02,2.150000000000000000e+02,7.980000000000000000e+02,1.480000000000000000e+02,9.400000000000000000e+01,6.680000000000000000e+02,7.670000000000000000e+02,6.580000000000000000e+02,3.699999999999999956e-01,7.160806700000000000e+09
1.770000000000000000e+02,2.010000000000000000e+02,7.740000000000000000e+02,1.460000000000000000e+02,8.700000000000000000e+01,5.550000000000000000e+02,6.240000000000000000e+02,5.780000000000000000e+02,3.699999999999999956e-01,7.179630800000000000e+09
1.510000000000000000e+02,1.910000000000000000e+02,7.640000000000000000e+02,1.440000000000000000e+02,7.900000000000000000e+01,5.660000000000000000e+02,5.240000000000000000e+02,5.220000000000000000e+02,3.599999999999999867e-01,7.198565800000000000e+09
1.100000000000000000e+02,1.830000000000000000e+02,6.360000000000000000e+02,1.480000000000000000e+02,6.900000000000000000e+01,4.280000000000000000e+02,4.750000000000000000e+02,3.910000000000000000e+02,3.699999999999999956e-01,7.219230600000000000e+09
9.400000000000000000e+01,2.030000000000000000e+02,5.320000000000000000e+02,1.340000000000000000e+02,6.200000000000000000e+01,3.730000000000000000e+02,4.060000000000000000e+02,2.350000000000000000e+02,3.800000000000000044e-01,7.238935400000000000e+09
1.010000000000000000e+02,1.740000000000000000e+02,4.680000000000000000e+02,1.220000000000000000e+02,5.700000000000000000e+01,4.310000000000000000e+02,4.120000000000000000e+02,2.330000000000000000e+02,3.800000000000000044e-01,7.270430800000000000e+09
9.800000000000000000e+01,1.700000000000000000e+02,4.540000000000000000e+02,1.130000000000000000e+02,5.600000000000000000e+01,4.030000000000000000e+02,4.070000000000000000e+02,2.230000000000000000e+02,3.900000000000000133e-01,7.287953400000000000e+09
1.000000000000000000e+02,1.740000000000000000e+02,4.500000000000000000e+02,1.210000000000000000e+02,5.200000000000000000e+01,3.170000000000000000e+02,3.510000000000000000e+02,2.120000000000000000e+02,3.900000000000000133e-01,7.306733800000000000e+09
9.800000000000000000e+01,1.720000000000000000e+02,4.550000000000000000e+02,1.130000000000000000e+02,5.300000000000000000e+01,3.490000000000000000e+02,3.740000000000000000e+02,2.140000000000000000e+02,3.900000000000000133e-01,7.324383200000000000e+09
8.700000000000000000e+01,1.450000000000000000e+02,4.160000000000000000e+02,9.700000000000000000e+01,4.800000000000000000e+01,3.270000000000000000e+02,3.520000000000000000e+02,1.820000000000000000e+02,4.099999999999999756e-01,7.343698100000000000e+09
7.100000000000000000e+01,1.450000000000000000e+02,4.260000000000000000e+02,9.800000000000000000e+01,5.300000000000000000e+01,2.430000000000000000e+02,2.480000000000000000e+02,1.440000000000000000e+02,4.199999999999999845e-01,7.365046800000000000e+09
6.300000000000000000e+01,1.370000000000000000e+02,3.790000000000000000e+02,1.000000000000000000e+02,5.000000000000000000e+01,2.480000000000000000e+02,2.140000000000000000e+02,1.250000000000000000e+02,4.299999999999999933e-01,7.383330100000000000e+09
5.900000000000000000e+01,1.290000000000000000e+02,3.510000000000000000e+02,9.100000000000000000e+01,5.600000000000000000e+01,2.460000000000000000e+02,2.180000000000000000e+02,1.250000000000000000e+02,4.400000000000000022e-01,7.401021100000000000e+09
5.800000000000000000e+01,1.390000000000000000e+02,3.510000000000000000e+02,9.300000000000000000e+01,5.300000000000000000e+01,1.850000000000000000e+02,1.590000000000000000e+02,1.010000000000000000e+02,4.600000000000000200e-01,7.422477900000000000e+09
4.600000000000000000e+01,1.320000000000000000e+02,3.090000000000000000e+02,9.100000000000000000e+01,5.400000000000000000e+01,1.810000000000000000e+02,1.900000000000000000e+02,9.900000000000000000e+01,4.699999999999999734e-01,7.440426600000000000e+09
4.100000000000000000e+01,1.240000000000000000e+02,2.570000000000000000e+02,8.400000000000000000e+01,4.600000000000000000e+01,1.670000000000000000e+02,1.630000000000000000e+02,9.000000000000000000e+01,4.799999999999999822e-01,7.459944900000000000e+09
4.600000000000000000e+01,1.320000000000000000e+02,2.860000000000000000e+02,8.500000000000000000e+01,4.800000000000000000e+01,1.370000000000000000e+02,1.680000000000000000e+02,8.100000000000000000e+01,4.899999999999999911e-01,7.485955300000000000e+09
4.400000000000000000e+01,1.330000000000000000e+02,2.710000000000000000e+02,8.200000000000000000e+01,4.100000000000000000e+01,1.380000000000000000e+02,1.690000000000000000e+02,7.200000000000000000e+01,5.000000000000000000e-01,7.504258100000000000e+09
4.100000000000000000e+01,1.100000000000000000e+02,2.390000000000000000e+02,8.100000000000000000e+01,4.100000000000000000e+01,1.800000000000000000e+02,1.730000000000000000e+02,7.300000000000000000e+01,5.100000000000000089e-01,7.522641900000000000e+09
4.100000000000000000e+01,1.100000000000000000e+02,2.780000000000000000e+02,8.400000000000000000e+01,3.600000000000000000e+01,1.840000000000000000e+02,1.360000000000000000e+02,7.000000000000000000e+01,5.200000000000000178e-01,7.540391600000000000e+09
4.300000000000000000e+01,1.080000000000000000e+02,2.790000000000000000e+02,8.400000000000000000e+01,4.600000000000000000e+01,1.830000000000000000e+02,1.320000000000000000e+02,7.100000000000000000e+01,5.200000000000000178e-01,7.562611300000000000e+09
3.900000000000000000e+01,9.900000000000000000e+01,2.490000000000000000e+02,8.400000000000000000e+01,4.500000000000000000e+01,1.800000000000000000e+02,1.160000000000000000e+02,7.400000000000000000e+01,5.300000000000000266e-01,7.581207200000000000e+09
4.000000000000000000e+01,1.020000000000000000e+02,2.650000000000000000e+02,8.500000000000000000e+01,4.300000000000000000e+01,1.530000000000000000e+02,1.190000000000000000e+02,8.700000000000000000e+01,5.300000000000000266e-01,7.600304700000000000e+09
4.200000000000000000e+01,1.210000000000000000e+02,3.220000000000000000e+02,8.400000000000000000e+01,4.200000000000000000e+01,1.190000000000000000e+02,1.310000000000000000e+02,9.000000000000000000e+01,5.300000000000000266e-01,7.619752400000000000e+09
4.200000000000000000e+01,1.180000000000000000e+02,3.870000000000000000e+02,7.100000000000000000e+01,4.300000000000000000e+01,1.110000000000000000e+02,1.230000000000000000e+02,9.600000000000000000e+01,5.300000000000000266e-01,7.639807000000000000e+09
4.100000000000000000e+01,1.310000000000000000e+02,4.590000000000000000e+02,8.000000000000000000e+01,3.400000000000000000e+01,1.060000000000000000e+02,1.340000000000000000e+02,1.070000000000000000e+02,5.400000000000000355e-01,7.661575900000000000e+09
4.100000000000000000e+01,1.420000000000000000e+02,4.900000000000000000e+02,7.900000000000000000e+01,2.900000000000000000e+01,1.030000000000000000e+02,1.310000000000000000e+02,1.030000000000000000e+02,5.400000000000000355e-01,7.681353700000000000e+09
4.100000000000000000e+01,1.410000000000000000e+02,4.940000000000000000e+02,8.000000000000000000e+01,3.400000000000000000e+01,1.080000000000000000e+02,1.380000000000000000e+02,9.500000000000000000e+01,5.500000000000000444e-01,7.699581400000000000e+09
3.800000000000000000e+01,1.230000000000000000e+02,4.640000000000000000e+02,7.400000000000000000e+01,3.100000000000000000e+01,7.900000000000000000e+01,1.170000000000000000e+02,9.700000000000000000e+01,5.500000000000000444e-01,7.719424600000000000e+09
4.100000000000000000e+01,1.180000000000000000e+02,4.110000000000000000e+02,8.000000000000000000e+01,3.300000000000000000e+01,1.000000000000000000e+02,1.200000000000000000e+02,9.400000000000000000e+01,5.500000000000000444e-01,7.738786200000000000e+09
3.600000000000000000e+01,1.090000000000000000e+02,3.520000000000000000e+02,6.100000000000000000e+01,3.200000000000000000e+01,1.030000000000000000e+02,1.050000000000000000e+02,8.200000000000000000e+01,5.500000000000000444e-01,7.759534300000000000e+09
3.600000000000000000e+01,9.500000000000000000e+01,3.210000000000000000e+02,6.400000000000000000e+01,3.400000000000000000e+01,1.050000000000000000e+02,1.070000000000000000e+02,8.100000000000000000e+01,5.500000000000000444e-01,7.792057100000000000e+09
3.300000000000000000e+01,1.110000000000000000e+02,3.650000000000000000e+02,6.700000000000000000e+01,3.300000000000000000e+01,9.500000000000000000e+01,9.100000000000000000e+01,6.200000000000000000e+01,5.500000000000000444e-01,7.809743900000000000e+09
3.500000000000000000e+01,1.110000000000000000e+02,3.640000000000000000e+02,7.200000000000000000e+01,3.700000000000000000e+01,9.500000000000000000e+01,8.500000000000000000e+01,6.500000000000000000e+01,5.500000000000000444e-01,7.828008400000000000e+09
3.400000000000000000e+01,1.120000000000000000e+02,3.370000000000000000e+02,6.400000000000000000e+01,3.400000000000000000e+01,6.900000000000000000e+01,9.200000000000000000e+01,6.800000000000000000e+01,5.500000000000000444e-01,7.846106200000000000e+09
3.300000000000000000e+01,9.800000000000000000e+01,3.000000000000000000e+02,6.900000000000000000e+01,3.600000000000000000e+01,5.700000000000000000e+01,9.500000000000000000e+01,6.900000000000000000e+01,5.500000000000000444e-01,7.866074800000000000e+09
4.000000000000000000e+01,1.010000000000000000e+02,4.050000000000000000e+02,1.070000000000000000e+02,3.900000000000000000e+01,6.100000000000000000e+01,1.030000000000000000e+02,7.200000000000000000e+01,5.500000000000000444e-01,7.883792600000000000e+09
4.000000000000000000e+01,8.100000000000000000e+01,3.730000000000000000e+02,1.110000000000000000e+02,3.800000000000000000e+01,5.800000000000000000e+01,9.400000000000000000e+01,7.100000000000000000e+01,5.500000000000000444e-01,7.901307900000000000e+09
4.400000000000000000e+01,9.800000000000000000e+01,4.000000000000000000e+02,1.120000000000000000e+02,3.700000000000000000e+01,5.800000000000000000e+01,9.800000000000000000e+01,5.600000000000000000e+01,5.500000000000000444e-01,7.919936700000000000e+09
3.900000000000000000e+01,8.500000000000000000e+01,3.960000000000000000e+02,1.130000000000000000e+02,3.700000000000000000e+01,5.700000000000000000e+01,8.600000000000000000e+01,4.500000000000000000e+01,5.600000000000000533e-01,7.938689400000000000e+09
4.200000000000000000e+01,8.700000000000000000e+01,4.140000000000000000e+02,1.180000000000000000e+02,3.500000000000000000e+01,6.200000000000000000e+01,8.300000000000000000e+01,4.200000000000000000e+01,5.600000000000000533e-01,7.964469200000000000e+09
3.800000000000000000e+01,9.400000000000000000e+01,3.070000000000000000e+02,9.800000000000000000e+01,3.400000000000000000e+01,5.400000000000000000e+01,6.900000000000000000e+01,3.700000000000000000e+01,5.600000000000000533e-01,7.983285100000000000e+09
3.900000000000000000e+01,1.050000000000000000e+02,3.090000000000000000e+02,9.800000000000000000e+01,4.100000000000000000e+01,5.100000000000000000e+01,6.800000000000000000e+01,3.700000000000000000e+01,5.699999999999999512e-01,8.000977800000000000e+09
3.500000000000000000e+01,9.000000000000000000e+01,2.650000000000000000e+02,9.500000000000000000e+01,4.000000000000000000e+01,4.900000000000000000e+01,6.200000000000000000e+01,3.100000000000000000e+01,5.699999999999999512e-01,8.019109800000000000e+09
4.100000000000000000e+01,9.800000000000000000e+01,2.780000000000000000e+02,1.010000000000000000e+02,4.400000000000000000e+01,6.400000000000000000e+01,6.600000000000000000e+01,3.000000000000000000e+01,5.699999999999999512e-01,8.038620400000000000e+09
3.800000000000000000e+01,9.900000000000000000e+01,2.930000000000000000e+02,9.700000000000000000e+01,4.300000000000000000e+01,6.300000000000000000e+01,6.100000000000000000e+01,2.700000000000000000e+01,5.799999999999999600e-01,8.063294700000000000e+09
3.700000000000000000e+01,9.200000000000000000e+01,3.210000000000000000e+02,9.500000000000000000e+01,4.100000000000000000e+01,6.200000000000000000e+01,6.500000000000000000e+01,2.600000000000000000e+01,5.899999999999999689e-01,8.083351300000000000e+09
3.700000000000000000e+01,8.000000000000000000e+01,3.180000000000000000e+02,8.900000000000000000e+01,3.400000000000000000e+01,6.000000000000000000e+01,6.300000000000000000e+01,2.600000000000000000e+01,5.899999999999999689e-01,8.101901600000000000e+09
4.300000000000000000e+01,1.310000000000000000e+02,3.430000000000000000e+02,9.300000000000000000e+01,3.400000000000000000e+01,6.200000000000000000e+01,6.900000000000000000e+01,2.800000000000000000e+01,5.899999999999999689e-01,8.120456000000000000e+09
4.100000000000000000e+01,1.330000000000000000e+02,3.530000000000000000e+02,8.800000000000000000e+01,3.000000000000000000e+01,4.900000000000000000e+01,6.400000000000000000e+01,2.800000000000000000e+01,5.899999999999999689e-01,8.139103800000000000e+09
4.000000000000000000e+01,1.270000000000000000e+02,3.230000000000000000e+02,8.400000000000000000e+01,3.100000000000000000e+01,4.800000000000000000e+01,1.010000000000000000e+02,3.000000000000000000e+01,5.899999999999999689e-01,8.160325200000000000e+09
4.000000000000000000e+01,1.260000000000000000e+02,2.760000000000000000e+02,5.700000000000000000e+01,3.200000000000000000e+01,5.200000000000000000e+01,9.900000000000000000e+01,3.000000000000000000e+01,5.899999999999999689e-01,8.183829800000000000e+09
4.300000000000000000e+01,1.390000000000000000e+02,2.810000000000000000e+02,7.200000000000000000e+01,3.700000000000000000e+01,5.400000000000000000e+01,1.020000000000000000e+02,2.900000000000000000e+01,5.899999999999999689e-01,8.201309200000000000e+09
3.800000000000000000e+01,1.180000000000000000e+02,3.870000000000000000e+02,8.100000000000000000e+01,3.900000000000000000e+01,6.300000000000000000e+01,1.040000000000000000e+02,3.000000000000000000e+01,5.899999999999999689e-01,8.219990300000000000e+09
3.600000000000000000e+01,1.230000000000000000e+02,3.780000000000000000e+02,9.000000000000000000e+01,3.900000000000000000e+01,6.400000000000000000e+01,1.070000000000000000e+02,3.000000000000000000e+01,5.899999999999999689e-01,8.240355300000000000e+09
3.600000000000000000e+01,1.310000000000000000e+02,3.720000000000000000e+02,9.000000000000000000e+01,4.000000000000000000e+01,6.100000000000000000e+01,7.700000000000000000e+01,2.900000000000000000e+01,5.899999999999999689e-01,8.261568600000000000e+09
3.700000000000000000e+01,1.340000000000000000e+02,3.910000000000000000e+02,9.500000000000000000e+01,4.000000000000000000e+01,5.800000000000000000e+01,7.700000000000000000e+01,2.800000000000000000e+01,5.999999999999999778e-01,8.281270600000000000e+09
3.400000000000000000e+01,1.200000000000000000e+02,3.840000000000000000e+02,8.500000000000000000e+01,3.700000000000000000e+01,6.400000000000000000e+01,7.300000000000000000e+01,2.700000000000000000e+01,5.999999999999999778e-01,8.300314300000000000e+09
3.600000000000000000e+01,9.900000000000000000e+01,2.750000000000000000e+02,8.100000000000000000e+01,3.600000000000000000e+01,5.700000000000000000e+01,7.000000000000000000e+01,2.500000000000000000e+01,5.999999999999999778e-01,8.319112500000000000e+09
3.600000000000000000e+01,8.800000000000000000e+01,2.670000000000000000e+02,8.200000000000000000e+01,3.600000000000000000e+01,5.400000000000000000e+01,5.900000000000000000e+01,2.300000000000000000e+01,5.999999999999999778e-01,8.340823200000000000e+09
3.500000000000000000e+01,8.400000000000000000e+01,3.000000000000000000e+02,8.400000000000000000e+01,3.300000000000000000e+01,5.300000000000000000e+01,5.500000000000000000e+01,2.300000000000000000e+01,5.899999999999999689e-01,8.363181500000000000e+09
3.800000000000000000e+01,1.010000000000000000e+02,3.300000000000000000e+02,8.400000000000000000e+01,3.500000000000000000e+01,5.100000000000000000e+01,5.700000000000000000e+01,2.400000000000000000e+01,5.899999999999999689e-01,8.381146500000000000e+09
3.800000000000000000e+01,1.030000000000000000e+02,3.270000000000000000e+02,8.400000000000000000e+01,3.300000000000000000e+01,4.200000000000000000e+01,6.000000000000000000e+01,2.300000000000000000e+01,5.999999999999999778e-01,8.405209100000000000e+09
3.200000000000000000e+01,9.900000000000000000e+01,2.950000000000000000e+02,8.200000000000000000e+01,3.400000000000000000e+01,4.800000000000000000e+01,6.000000000000000000e+01,2.400000000000000000e+01,5.999999999999999778e-01,8.422818200000000000e+09
3.100000000000000000e+01,9.800000000000000000e+01,3.150000000000000000e+02,6.800000000000000000e+01,3.600000000000000000e+01,5.300000000000000000e+01,6.200000000000000000e+01,2.400000000000000000e+01,5.899999999999999689e-01,8.441560100000000000e+09
3.200000000000000000e+01,1.030000000000000000e+02,3.490000000000000000e+02,6.400000000000000000e+01,4.100000000000000000e+01,5.600000000000000000e+01,6.400000000000000000e+01,2.600000000000000000e+01,5.899999999999999689e-01,8.465234600000000000e+09
3.200000000000000000e+01,1.080000000000000000e+02,4.000000000000000000e+02,7.800000000000000000e+01,3.600000000000000000e+01,5.500000000000000000e+01,6.400000000000000000e+01,2.600000000000000000e+01,5.899999999999999689e-01,8.484337300000000000e+09
3.400000000000000000e+01,1.110000000000000000e+02,4.050000000000000000e+02,8.600000000000000000e+01,3.800000000000000000e+01,6.400000000000000000e+01,6.800000000000000000e+01,2.900000000000000000e+01,5.899999999999999689e-01,8.501552500000000000e+09
3.500000000000000000e+01,1.140000000000000000e+02,4.160000000000000000e+02,7.700000000000000000e+01,3.700000000000000000e+01,5.700000000000000000e+01,6.000000000000000000e+01,2.700000000000000000e+01,5.899999999999999689e-01,8.526047400000000000e+09
3.700000000000000000e+01,1.200000000000000000e+02,4.140000000000000000e+02,8.300000000000000000e+01,3.500000000000000000e+01,5.400000000000000000e+01,5.900000000000000000e+01,2.800000000000000000e+01,5.899999999999999689e-01,8.544298000000000000e+09
3.700000000000000000e+01,1.190000000000000000e+02,3.730000000000000000e+02,8.200000000000000000e+01,3.000000000000000000e+01,5.100000000000000000e+01,5.800000000000000000e+01,2.700000000000000000e+01,5.899999999999999689e-01,8.565353400000000000e+09
3.300000000000000000e+01,1.080000000000000000e+02,2.890000000000000000e+02,6.500000000000000000e+01,3.400000000000000000e+01,5.300000000000000000e+01,6.300000000000000000e+01,2.800000000000000000e+01,5.899999999999999689e-01,8.583557800000000000e+09
3.300000000000000000e+01,1.050000000000000000e+02,3.150000000000000000e+02,5.700000000000000000e+01,3.300000000000000000e+01,3.900000000000000000e+01,6.700000000000000000e+01,2.700000000000000000e+01,5.899999999999999689e-01,8.601385100000000000e+09
3.500000000000000000e+01,1.140000000000000000e+02,3.280000000000000000e+02,6.300000000000000000e+01,3.500000000000000000e+01,3.700000000000000000e+01,7.000000000000000000e+01,2.700000000000000000e+01,5.799999999999999600e-01,8.623748500000000000e+09
3.600000000000000000e+01,1.190000000000000000e+02,3.500000000000000000e+02,6.400000000000000000e+01,4.100000000000000000e+01,5.600000000000000000e+01,7.800000000000000000e+01,2.600000000000000000e+01,5.799999999999999600e-01,8.645897400000000000e+09
3.600000000000000000e+01,1.420000000000000000e+02,3.550000000000000000e+02,8.200000000000000000e+01,4.100000000000000000e+01,5.700000000000000000e+01,7.800000000000000000e+01,2.500000000000000000e+01,5.799999999999999600e-01,8.666167000000000000e+09
3.900000000000000000e+01,1.390000000000000000e+02,3.890000000000000000e+02,1.060000000000000000e+02,4.300000000000000000e+01,6.300000000000000000e+01,7.900000000000000000e+01,2.400000000000000000e+01,5.899999999999999689e-01,8.684001400000000000e+09
3.900000000000000000e+01,1.410000000000000000e+02,4.120000000000000000e+02,1.070000000000000000e+02,4.600000000000000000e+01,6.700000000000000000e+01,7.300000000000000000e+01,2.300000000000000000e+01,5.899999999999999689e-01,8.701959700000000000e+09
3.600000000000000000e+01,1.320000000000000000e+02,4.110000000000000000e+02,1.060000000000000000e+02,4.300000000000000000e+01,6.700000000000000000e+01,7.500000000000000000e+01,2.200000000000000000e+01,5.899999999999999689e-01,8.721404800000000000e+09
3.500000000000000000e+01,1.220000000000000000e+02,3.810000000000000000e+02,1.050000000000000000e+02,4.000000000000000000e+01,5.200000000000000000e+01,6.800000000000000000e+01,2.700000000000000000e+01,5.899999999999999689e-01,8.739240000000000000e+09
3.500000000000000000e+01,9.800000000000000000e+01,3.760000000000000000e+02,1.010000000000000000e+02,4.200000000000000000e+01,5.200000000000000000e+01,6.700000000000000000e+01,2.900000000000000000e+01,5.899999999999999689e-01,8.763486300000000000e+09
4.300000000000000000e+01,1.300000000000000000e+02,4.410000000000000000e+02,8.600000000000000000e+01,4.600000000000000000e+01,6.200000000000000000e+01,6.300000000000000000e+01,3.100000000000000000e+01,5.899999999999999689e-01,8.782920100000000000e+09
4.400000000000000000e+01,1.520000000000000000e+02,4.590000000000000000e+02,9.200000000000000000e+01,4.400000000000000000e+01,6.400000000000000000e+01,6.300000000000000000e+01,3.200000000000000000e+01,5.999999999999999778e-01,8.800620100000000000e+09
4.500000000000000000e+01,1.570000000000000000e+02,4.440000000000000000e+02,9.700000000000000000e+01,4.600000000000000000e+01,6.500000000000000000e+01,6.000000000000000000e+01,3.200000000000000000e+01,6.099999999999999867e-01,8.820543400000000000e+09
4.500000000000000000e+01,1.820000000000000000e+02,4.640000000000000000e+02,9.900000000000000000e+01,4.600000000000000000e+01,6.700000000000000000e+01,6.000000000000000000e+01,2.900000000000000000e+01,6.099999999999999867e-01,8.841194300000000000e+09
5.000000000000000000e+01,2.010000000000000000e+02,5.730000000000000000e+02,1.160000000000000000e+02,4.900000000000000000e+01,7.200000000000000000e+01,7.700000000000000000e+01,3.300000000000000000e+01,6.199999999999999956e-01,8.862756200000000000e+09
4.600000000000000000e+01,1.850000000000000000e+02,5.440000000000000000e+02,1.170000000000000000e+02,4.800000000000000000e+01,6.800000000000000000e+01,8.400000000000000000e+01,3.200000000000000000e+01,6.199999999999999956e-01,8.886435000000000000e+09
5.200000000000000000e+01,1.810000000000000000e+02,5.500000000000000000e+02,1.310000000000000000e+02,5.600000000000000000e+01,8.200000000000000000e+01,9.400000000000000000e+01,3.600000000000000000e+01,6.199999999999999956e-01,8.904082500000000000e+09
5.400000000000000000e+01,1.850000000000000000e+02,6.130000000000000000e+02,1.460000000000000000e+02,5.900000000000000000e+01,9.600000000000000000e+01,9.700000000000000000e+01,3.600000000000000000e+01,6.199999999999999956e-01,8.922109400000000000e+09
5.900000000000000000e+01,1.630000000000000000e+02,6.210000000000000000e+02,1.690000000000000000e+02,7.600000000000000000e+01,1.060000000000000000e+02,1.100000000000000000e+02,3.900000000000000000e+01,6.199999999999999956e-01,8.941174600000000000e+09
5.800000000000000000e+01,1.430000000000000000e+02,5.570000000000000000e+02,2.030000000000000000e+02,9.400000000000000000e+01,1.190000000000000000e+02,1.240000000000000000e+02,3.800000000000000000e+01,6.199999999999999956e-01,8.963485400000000000e+09
5.600000000000000000e+01,1.440000000000000000e+02,5.190000000000000000e+02,2.080000000000000000e+02,9.800000000000000000e+01,1.260000000000000000e+02,1.200000000000000000e+02,3.800000000000000000e+01,6.099999999999999867e-01,8.982083500000000000e+09
6.300000000000000000e+01,1.650000000000000000e+02,6.910000000000000000e+02,2.110000000000000000e+02,9.800000000000000000e+01,1.290000000000000000e+02,1.170000000000000000e+02,3.700000000000000000e+01,6.099999999999999867e-01,9.001061500000000000e+09
7.400000000000000000e+01,1.620000000000000000e+02,7.230000000000000000e+02,2.030000000000000000e+02,1.010000000000000000e+02,1.510000000000000000e+02,1.360000000000000000e+02,4.300000000000000000e+01,5.899999999999999689e-01,9.019494600000000000e+09
7.100000000000000000e+01,1.630000000000000000e+02,7.640000000000000000e+02,1.990000000000000000e+02,9.100000000000000000e+01,1.460000000000000000e+02,1.250000000000000000e+02,4.100000000000000000e+01,5.799999999999999600e-01,9.044217000000000000e+09
7.800000000000000000e+01,1.950000000000000000e+02,8.140000000000000000e+02,1.760000000000000000e+02,7.400000000000000000e+01,1.430000000000000000e+02,1.110000000000000000e+02,4.400000000000000000e+01,5.699999999999999512e-01,9.063300200000000000e+09
8.000000000000000000e+01,2.070000000000000000e+02,8.310000000000000000e+02,1.810000000000000000e+02,7.400000000000000000e+01,1.710000000000000000e+02,1.150000000000000000e+02,4.400000000000000000e+01,5.500000000000000444e-01,9.081751800000000000e+09
7.200000000000000000e+01,2.080000000000000000e+02,7.700000000000000000e+02,1.690000000000000000e+02,7.300000000000000000e+01,1.750000000000000000e+02,1.190000000000000000e+02,4.200000000000000000e+01,5.400000000000000355e-01,9.100737300000000000e+09
6.900000000000000000e+01,2.280000000000000000e+02,7.490000000000000000e+02,1.690000000000000000e+02,7.000000000000000000e+01,1.660000000000000000e+02,1.070000000000000000e+02,3.900000000000000000e+01,5.300000000000000266e-01,9.120108400000000000e+09
7.500000000000000000e+01,2.710000000000000000e+02,8.200000000000000000e+02,1.690000000000000000e+02,7.300000000000000000e+01,1.750000000000000000e+02,1.240000000000000000e+02,4.200000000000000000e+01,5.100000000000000089e-01,9.141039800000000000e+09
8.900000000000000000e+01,2.960000000000000000e+02,8.000000000000000000e+02,1.900000000000000000e+02,7.300000000000000000e+01,1.820000000000000000e+02,1.630000000000000000e+02,4.300000000000000000e+01,5.000000000000000000e-01,9.165056000000000000e+09
9.600000000000000000e+01,3.000000000000000000e+02,8.040000000000000000e+02,2.170000000000000000e+02,7.000000000000000000e+01,1.890000000000000000e+02,1.770000000000000000e+02,4.400000000000000000e+01,4.799999999999999822e-01,9.183111800000000000e+09
9.500000000000000000e+01,2.850000000000000000e+02,7.530000000000000000e+02,2.160000000000000000e+02,6.700000000000000000e+01,1.920000000000000000e+02,1.800000000000000000e+02,4.400000000000000000e+01,4.699999999999999734e-01,9.202070600000000000e+09
9.200000000000000000e+01,2.750000000000000000e+02,7.340000000000000000e+02,2.190000000000000000e+02,6.200000000000000000e+01,1.910000000000000000e+02,1.750000000000000000e+02,4.100000000000000000e+01,4.699999999999999734e-01,9.220247500000000000e+09
8.800000000000000000e+01,2.410000000000000000e+02,7.080000000000000000e+02,2.180000000000000000e+02,6.300000000000000000e+01,1.950000000000000000e+02,1.870000000000000000e+02,3.900000000000000000e+01,4.799999999999999822e-01,9.240627200000000000e+09
6.600000000000000000e+01,1.830000000000000000e+02,7.030000000000000000e+02,1.940000000000000000e+02,6.600000000000000000e+01,2.040000000000000000e+02,1.670000000000000000e+02,3.400000000000000000e+01,4.799999999999999822e-01,9.262467900000000000e+09
5.600000000000000000e+01,1.940000000000000000e+02,6.880000000000000000e+02,1.640000000000000000e+02,6.200000000000000000e+01,1.690000000000000000e+02,1.560000000000000000e+02,3.200000000000000000e+01,4.799999999999999822e-01,9.282440700000000000e+09
6.200000000000000000e+01,1.960000000000000000e+02,7.310000000000000000e+02,1.710000000000000000e+02,6.700000000000000000e+01,1.710000000000000000e+02,1.590000000000000000e+02,3.700000000000000000e+01,4.799999999999999822e-01,9.301161800000000000e+09
6.300000000000000000e+01,1.990000000000000000e+02,7.640000000000000000e+02,1.700000000000000000e+02,7.600000000000000000e+01,1.770000000000000000e+02,1.670000000000000000e+02,4.100000000000000000e+01,4.799999999999999822e-01,9.321419100000000000e+09
6.200000000000000000e+01,1.930000000000000000e+02,7.430000000000000000e+02,1.760000000000000000e+02,7.200000000000000000e+01,1.650000000000000000e+02,1.430000000000000000e+02,4.100000000000000000e+01,4.799999999999999822e-01,9.340326900000000000e+09
7.500000000000000000e+01,2.080000000000000000e+02,7.710000000000000000e+02,1.930000000000000000e+02,8.200000000000000000e+01,1.420000000000000000e+02,1.790000000000000000e+02,5.200000000000000000e+01,4.799999999999999822e-01,9.360118300000000000e+09
8.600000000000000000e+01,2.260000000000000000e+02,1.000000000000000000e+03,2.780000000000000000e+02,9.000000000000000000e+01,1.570000000000000000e+02,1.910000000000000000e+02,5.800000000000000000e+01,4.799999999999999822e-01,9.383228800000000000e+09
8.600000000000000000e+01,2.320000000000000000e+02,9.780000000000000000e+02,2.850000000000000000e+02,8.700000000000000000e+01,1.630000000000000000e+02,1.870000000000000000e+02,5.800000000000000000e+01,4.799999999999999822e-01,9.402334700000000000e+09
8.300000000000000000e+01,2.260000000000000000e+02,9.500000000000000000e+02,2.840000000000000000e+02,8.400000000000000000e+01,1.600000000000000000e+02,1.840000000000000000e+02,5.500000000000000000e+01,4.699999999999999734e-01,9.421194800000000000e+09
9.500000000000000000e+01,2.450000000000000000e+02,9.870000000000000000e+02,2.740000000000000000e+02,9.300000000000000000e+01,1.680000000000000000e+02,1.920000000000000000e+02,6.300000000000000000e+01,4.600000000000000200e-01,9.441409900000000000e+09
8.900000000000000000e+01,2.540000000000000000e+02,9.520000000000000000e+02,2.770000000000000000e+02,8.200000000000000000e+01,1.760000000000000000e+02,1.460000000000000000e+02,5.300000000000000000e+01,4.500000000000000111e-01,9.464314100000000000e+09
7.900000000000000000e+01,2.140000000000000000e+02,8.160000000000000000e+02,1.990000000000000000e+02,7.300000000000000000e+01,2.020000000000000000e+02,1.400000000000000000e+02,4.600000000000000000e+01,4.400000000000000022e-01,9.493517200000000000e+09
9.300000000000000000e+01,2.500000000000000000e+02,8.540000000000000000e+02,1.990000000000000000e+02,8.400000000000000000e+01,1.950000000000000000e+02,1.720000000000000000e+02,5.200000000000000000e+01,4.299999999999999933e-01,9.511142400000000000e+09
1.140000000000000000e+02,2.890000000000000000e+02,8.630000000000000000e+02,2.510000000000000000e+02,9.800000000000000000e+01,1.840000000000000000e+02,2.100000000000000000e+02,6.400000000000000000e+01,4.199999999999999845e-01,9.529369500000000000e+09
1.330000000000000000e+02,3.050000000000000000e+02,8.280000000000000000e+02,2.800000000000000000e+02,1.100000000000000000e+02,2.040000000000000000e+02,2.340000000000000000e+02,7.500000000000000000e+01,4.199999999999999845e-01,9.546901300000000000e+09
1.320000000000000000e+02,2.980000000000000000e+02,8.720000000000000000e+02,2.590000000000000000e+02,1.090000000000000000e+02,2.080000000000000000e+02,2.320000000000000000e+02,7.500000000000000000e+01,4.099999999999999756e-01,9.568355300000000000e+09
1.330000000000000000e+02,3.150000000000000000e+02,9.120000000000000000e+02,2.990000000000000000e+02,1.170000000000000000e+02,1.710000000000000000e+02,2.290000000000000000e+02,7.600000000000000000e+01,4.000000000000000222e-01,9.586051000000000000e+09
1.300000000000000000e+02,2.910000000000000000e+02,9.430000000000000000e+02,3.230000000000000000e+02,1.180000000000000000e+02,1.750000000000000000e+02,2.240000000000000000e+02,7.500000000000000000e+01,3.900000000000000133e-01,9.607128000000000000e+09
1.180000000000000000e+02,2.640000000000000000e+02,1.017000000000000000e+03,2.980000000000000000e+02,1.080000000000000000e+02,1.730000000000000000e+02,1.890000000000000000e+02,6.700000000000000000e+01,3.800000000000000044e-01,9.625383100000000000e+09
1.000000000000000000e+02,2.600000000000000000e+02,1.006000000000000000e+03,3.050000000000000000e+02,1.060000000000000000e+02,1.670000000000000000e+02,1.730000000000000000e+02,5.300000000000000000e+01,3.699999999999999956e-01,9.643086900000000000e+09
9.900000000000000000e+01,2.430000000000000000e+02,1.077000000000000000e+03,3.160000000000000000e+02,1.060000000000000000e+02,1.490000000000000000e+02,1.800000000000000000e+02,5.200000000000000000e+01,3.699999999999999956e-01,9.664187000000000000e+09
1.110000000000000000e+02,2.390000000000000000e+02,1.049000000000000000e+03,2.960000000000000000e+02,9.900000000000000000e+01,1.450000000000000000e+02,2.080000000000000000e+02,5.600000000000000000e+01,3.599999999999999867e-01,9.682379200000000000e+09
1.150000000000000000e+02,2.810000000000000000e+02,1.047000000000000000e+03,2.820000000000000000e+02,1.070000000000000000e+02,1.370000000000000000e+02,2.110000000000000000e+02,6.000000000000000000e+01,3.499999999999999778e-01,9.700426600000000000e+09
1.290000000000000000e+02,3.350000000000000000e+02,1.016000000000000000e+03,3.100000000000000000e+02,1.180000000000000000e+02,1.450000000000000000e+02,2.280000000000000000e+02,7.300000000000000000e+01,3.400000000000000244e-01,9.726285100000000000e+09
1.160000000000000000e+02,3.440000000000000000e+02,1.024000000000000000e+03,2.870000000000000000e+02,1.000000000000000000e+02,1.090000000000000000e+02,2.180000000000000000e+02,6.700000000000000000e+01,3.300000000000000155e-01,9.743957300000000000e+09
1.570000000000000000e+02,4.090000000000000000e+02,1.086000000000000000e+03,3.280000000000000000e+02,1.160000000000000000e+02,1.170000000000000000e+02,2.550000000000000000e+02,8.900000000000000000e+01,3.099999999999999978e-01,9.765957200000000000e+09
1.580000000000000000e+02,4.310000000000000000e+02,1.173000000000000000e+03,3.160000000000000000e+02,1.220000000000000000e+02,1.260000000000000000e+02,2.370000000000000000e+02,9.000000000000000000e+01,2.999999999999999889e-01,9.785178400000000000e+09
1.580000000000000000e+02,4.050000000000000000e+02,1.121000000000000000e+03,3.260000000000000000e+02,1.250000000000000000e+02,1.300000000000000000e+02,2.470000000000000000e+02,9.100000000000000000e+01,2.899999999999999800e-01,9.802872700000000000e+09
1.490000000000000000e+02,3.520000000000000000e+02,1.140000000000000000e+03,3.200000000000000000e+02,1.170000000000000000e+02,1.230000000000000000e+02,2.400000000000000000e+02,8.500000000000000000e+01,2.800000000000000266e-01,9.820606800000000000e+09
1.550000000000000000e+02,3.380000000000000000e+02,1.167000000000000000e+03,3.300000000000000000e+02,1.230000000000000000e+02,1.250000000000000000e+02,2.470000000000000000e+02,8.600000000000000000e+01,2.700000000000000178e-01,9.846388100000000000e+09
1.230000000000000000e+02,2.640000000000000000e+02,1.026000000000000000e+03,2.910000000000000000e+02,1.170000000000000000e+02,1.210000000000000000e+02,2.270000000000000000e+02,7.100000000000000000e+01,2.600000000000000089e-01,9.865349500000000000e+09
1.220000000000000000e+02,2.220000000000000000e+02,8.740000000000000000e+02,3.110000000000000000e+02,1.230000000000000000e+02,1.140000000000000000e+02,2.320000000000000000e+02,7.100000000000000000e+01,2.500000000000000000e-01,9.883235500000000000e+09
1.240000000000000000e+02,2.270000000000000000e+02,8.900000000000000000e+02,3.030000000000000000e+02,1.100000000000000000e+02,1.100000000000000000e+02,2.170000000000000000e+02,6.900000000000000000e+01,2.500000000000000000e-01,9.902015300000000000e+09
1.250000000000000000e+02,2.590000000000000000e+02,9.030000000000000000e+02,3.050000000000000000e+02,1.150000000000000000e+02,1.090000000000000000e+02,2.210000000000000000e+02,6.800000000000000000e+01,2.500000000000000000e-01,9.920707300000000000e+09
1.360000000000000000e+02,2.590000000000000000e+02,1.000000000000000000e+03,3.420000000000000000e+02,1.190000000000000000e+02,1.190000000000000000e+02,2.200000000000000000e+02,7.900000000000000000e+01,2.500000000000000000e-01,9.940056200000000000e+09
1.490000000000000000e+02,2.840000000000000000e+02,9.990000000000000000e+02,4.130000000000000000e+02,1.370000000000000000e+02,1.270000000000000000e+02,2.080000000000000000e+02,8.600000000000000000e+01,2.500000000000000000e-01,9.960941900000000000e+09
1.480000000000000000e+02,2.830000000000000000e+02,1.034000000000000000e+03,3.970000000000000000e+02,1.430000000000000000e+02,1.410000000000000000e+02,2.140000000000000000e+02,8.600000000000000000e+01,2.500000000000000000e-01,9.980896500000000000e+09
1.510000000000000000e+02,2.920000000000000000e+02,1.037000000000000000e+03,4.130000000000000000e+02,1.470000000000000000e+02,1.460000000000000000e+02,2.280000000000000000e+02,8.700000000000000000e+01,2.500000000000000000e-01,9.999621500000000000e+09
