7.600000000000000000e+01,2.540000000000000000e+02,6.250000000000000000e+02,7.200000000000000000e+01,3.700000000000000000e+01,1.470000000000000000e+02,1.610000000000000000e+02,4.160000000000000000e+02,3.499999999999999778e-01,4.308608000000000000e+08
7.400000000000000000e+01,2.340000000000000000e+02,5.960000000000000000e+02,7.500000000000000000e+01,3.400000000000000000e+01,1.440000000000000000e+02,1.720000000000000000e+02,4.980000000000000000e+02,3.499999999999999778e-01,4.556304000000000000e+08
7.700000000000000000e+01,2.150000000000000000e+02,5.250000000000000000e+02,8.400000000000000000e+01,3.800000000000000000e+01,1.230000000000000000e+02,1.650000000000000000e+02,4.920000000000000000e+02,3.499999999999999778e-01,9.818242000000000000e+08
7.400000000000000000e+01,2.090000000000000000e+02,5.270000000000000000e+02,8.400000000000000000e+01,3.800000000000000000e+01,1.170000000000000000e+02,1.700000000000000000e+02,4.960000000000000000e+02,3.499999999999999778e-01,1.024274600000000000e+09
7.600000000000000000e+01,1.880000000000000000e+02,5.470000000000000000e+02,8.200000000000000000e+01,4.100000000000000000e+01,1.060000000000000000e+02,1.670000000000000000e+02,4.430000000000000000e+02,3.499999999999999778e-01,1.072954800000000000e+09
7.200000000000000000e+01,1.940000000000000000e+02,6.500000000000000000e+02,9.200000000000000000e+01,4.500000000000000000e+01,1.390000000000000000e+02,1.270000000000000000e+02,4.700000000000000000e+02,3.499999999999999778e-01,1.135090500000000000e+09
6.300000000000000000e+01,2.690000000000000000e+02,6.590000000000000000e+02,8.600000000000000000e+01,4.600000000000000000e+01,1.740000000000000000e+02,1.010000000000000000e+02,4.040000000000000000e+02,3.499999999999999778e-01,1.200862200000000000e+09
5.900000000000000000e+01,2.600000000000000000e+02,6.380000000000000000e+02,7.600000000000000000e+01,4.100000000000000000e+01,1.830000000000000000e+02,8.900000000000000000e+01,3.840000000000000000e+02,3.499999999999999778e-01,1.261564700000000000e+09
5.900000000000000000e+01,2.570000000000000000e+02,6.530000000000000000e+02,7.500000000000000000e+01,4.000000000000000000e+01,1.830000000000000000e+02,7.400000000000000000e+01,3.650000000000000000e+02,3.499999999999999778e-01,1.309251200000000000e+09
4.800000000000000000e+01,2.560000000000000000e+02,6.040000000000000000e+02,7.200000000000000000e+01,4.000000000000000000e+01,1.830000000000000000e+02,6.800000000000000000e+01,3.520000000000000000e+02,3.499999999999999778e-01,1.350588400000000000e+09
4.900000000000000000e+01,3.080000000000000000e+02,4.720000000000000000e+02,5.200000000000000000e+01,3.600000000000000000e+01,2.110000000000000000e+02,6.400000000000000000e+01,2.990000000000000000e+02,3.599999999999999867e-01,1.369390600000000000e+09
5.200000000000000000e+01,2.640000000000000000e+02,4.860000000000000000e+02,5.200000000000000000e+01,3.500000000000000000e+01,1.970000000000000000e+02,4.800000000000000000e+01,1.950000000000000000e+02,3.599999999999999867e-01,1.391030900000000000e+09
5.800000000000000000e+01,2.800000000000000000e+02,5.580000000000000000e+02,6.000000000000000000e+01,3.300000000000000000e+01,1.960000000000000000e+02,4.800000000000000000e+01,1.840000000000000000e+02,3.699999999999999956e-01,1.414138700000000000e+09
5.900000000000000000e+01,2.880000000000000000e+02,5.580000000000000000e+02,7.100000000000000000e+01,3.900000000000000000e+01,2.260000000000000000e+02,5.500000000000000000e+01,2.300000000000000000e+02,3.800000000000000044e-01,1.432134900000000000e+09
6.600000000000000000e+01,3.540000000000000000e+02,6.780000000000000000e+02,7.500000000000000000e+01,4.000000000000000000e+01,2.610000000000000000e+02,5.900000000000000000e+01,2.800000000000000000e+02,3.800000000000000044e-01,1.450144400000000000e+09
7.000000000000000000e+01,3.160000000000000000e+02,7.450000000000000000e+02,8.200000000000000000e+01,4.200000000000000000e+01,2.240000000000000000e+02,6.000000000000000000e+01,2.950000000000000000e+02,3.800000000000000044e-01,1.467912800000000000e+09
7.100000000000000000e+01,3.140000000000000000e+02,7.810000000000000000e+02,8.700000000000000000e+01,4.600000000000000000e+01,2.090000000000000000e+02,6.300000000000000000e+01,3.130000000000000000e+02,3.800000000000000044e-01,1.486638100000000000e+09
7.100000000000000000e+01,3.140000000000000000e+02,7.760000000000000000e+02,8.700000000000000000e+01,5.800000000000000000e+01,3.840000000000000000e+02,1.350000000000000000e+02,3.500000000000000000e+02,3.800000000000000044e-01,1.506613000000000000e+09
7.900000000000000000e+01,3.450000000000000000e+02,7.810000000000000000e+02,8.700000000000000000e+01,5.800000000000000000e+01,3.880000000000000000e+02,1.480000000000000000e+02,3.420000000000000000e+02,3.800000000000000044e-01,1.562931900000000000e+09
7.400000000000000000e+01,2.830000000000000000e+02,6.750000000000000000e+02,8.400000000000000000e+01,5.600000000000000000e+01,3.870000000000000000e+02,1.490000000000000000e+02,2.900000000000000000e+02,3.800000000000000044e-01,1.580848100000000000e+09
6.600000000000000000e+01,2.770000000000000000e+02,5.360000000000000000e+02,7.500000000000000000e+01,5.500000000000000000e+01,3.830000000000000000e+02,1.490000000000000000e+02,2.760000000000000000e+02,3.800000000000000044e-01,1.598215500000000000e+09
6.900000000000000000e+01,2.660000000000000000e+02,4.970000000000000000e+02,7.400000000000000000e+01,5.400000000000000000e+01,3.840000000000000000e+02,1.510000000000000000e+02,2.710000000000000000e+02,3.800000000000000044e-01,1.616722900000000000e+09
6.200000000000000000e+01,2.540000000000000000e+02,4.800000000000000000e+02,6.900000000000000000e+01,4.200000000000000000e+01,2.030000000000000000e+02,9.200000000000000000e+01,2.250000000000000000e+02,3.800000000000000044e-01,1.634383500000000000e+09
5.000000000000000000e+01,2.070000000000000000e+02,4.970000000000000000e+02,6.100000000000000000e+01,3.800000000000000000e+01,1.870000000000000000e+02,6.900000000000000000e+01,1.930000000000000000e+02,3.800000000000000044e-01,1.652218300000000000e+09
4.700000000000000000e+01,1.930000000000000000e+02,4.950000000000000000e+02,6.100000000000000000e+01,4.100000000000000000e+01,1.900000000000000000e+02,6.300000000000000000e+01,2.210000000000000000e+02,3.800000000000000044e-01,1.669505200000000000e+09
5.800000000000000000e+01,2.140000000000000000e+02,6.160000000000000000e+02,7.400000000000000000e+01,4.400000000000000000e+01,2.280000000000000000e+02,6.000000000000000000e+01,2.350000000000000000e+02,3.900000000000000133e-01,1.687524600000000000e+09
5.500000000000000000e+01,2.160000000000000000e+02,5.670000000000000000e+02,6.800000000000000000e+01,4.200000000000000000e+01,2.300000000000000000e+02,4.900000000000000000e+01,2.210000000000000000e+02,3.900000000000000133e-01,1.704994500000000000e+09
5.800000000000000000e+01,2.020000000000000000e+02,5.570000000000000000e+02,6.700000000000000000e+01,4.500000000000000000e+01,2.470000000000000000e+02,4.900000000000000000e+01,2.340000000000000000e+02,3.900000000000000133e-01,1.722586800000000000e+09
5.800000000000000000e+01,2.060000000000000000e+02,5.270000000000000000e+02,5.900000000000000000e+01,4.400000000000000000e+01,2.410000000000000000e+02,4.400000000000000000e+01,2.240000000000000000e+02,4.000000000000000222e-01,1.741322000000000000e+09
5.800000000000000000e+01,2.100000000000000000e+02,5.520000000000000000e+02,6.100000000000000000e+01,4.100000000000000000e+01,1.980000000000000000e+02,5.000000000000000000e+01,2.150000000000000000e+02,4.000000000000000222e-01,1.760259500000000000e+09
4.400000000000000000e+01,1.760000000000000000e+02,4.410000000000000000e+02,4.600000000000000000e+01,3.600000000000000000e+01,1.410000000000000000e+02,5.100000000000000000e+01,1.890000000000000000e+02,4.099999999999999756e-01,1.777700600000000000e+09
4.300000000000000000e+01,1.830000000000000000e+02,5.080000000000000000e+02,5.300000000000000000e+01,3.700000000000000000e+01,1.340000000000000000e+02,5.000000000000000000e+01,1.830000000000000000e+02,4.199999999999999845e-01,1.794932500000000000e+09
3.900000000000000000e+01,1.880000000000000000e+02,4.580000000000000000e+02,5.600000000000000000e+01,3.200000000000000000e+01,9.700000000000000000e+01,4.600000000000000000e+01,1.730000000000000000e+02,4.199999999999999845e-01,1.812402300000000000e+09
5.200000000000000000e+01,2.280000000000000000e+02,4.660000000000000000e+02,6.600000000000000000e+01,3.200000000000000000e+01,5.300000000000000000e+01,4.500000000000000000e+01,1.870000000000000000e+02,4.299999999999999933e-01,1.829870100000000000e+09
5.900000000000000000e+01,2.440000000000000000e+02,5.710000000000000000e+02,6.800000000000000000e+01,3.000000000000000000e+01,4.900000000000000000e+01,3.600000000000000000e+01,1.650000000000000000e+02,4.299999999999999933e-01,1.849554500000000000e+09
6.400000000000000000e+01,2.490000000000000000e+02,5.790000000000000000e+02,8.500000000000000000e+01,3.000000000000000000e+01,4.400000000000000000e+01,3.000000000000000000e+01,1.560000000000000000e+02,4.400000000000000022e-01,1.867834200000000000e+09
6.900000000000000000e+01,2.800000000000000000e+02,6.280000000000000000e+02,9.400000000000000000e+01,3.100000000000000000e+01,3.800000000000000000e+01,2.900000000000000000e+01,1.490000000000000000e+02,4.500000000000000111e-01,1.886169800000000000e+09
1.030000000000000000e+02,3.810000000000000000e+02,8.040000000000000000e+02,1.580000000000000000e+02,6.500000000000000000e+01,4.300000000000000000e+01,3.200000000000000000e+01,1.180000000000000000e+02,4.600000000000000200e-01,1.903930800000000000e+09
1.050000000000000000e+02,3.950000000000000000e+02,8.460000000000000000e+02,1.730000000000000000e+02,7.100000000000000000e+01,4.300000000000000000e+01,3.100000000000000000e+01,1.100000000000000000e+02,4.600000000000000200e-01,1.921159800000000000e+09
1.110000000000000000e+02,4.110000000000000000e+02,8.850000000000000000e+02,2.090000000000000000e+02,9.200000000000000000e+01,4.800000000000000000e+01,3.400000000000000000e+01,1.060000000000000000e+02,4.500000000000000111e-01,1.938689000000000000e+09
1.130000000000000000e+02,4.480000000000000000e+02,9.110000000000000000e+02,2.080000000000000000e+02,9.800000000000000000e+01,4.700000000000000000e+01,3.400000000000000000e+01,1.090000000000000000e+02,4.500000000000000111e-01,1.957125400000000000e+09
1.160000000000000000e+02,4.870000000000000000e+02,9.030000000000000000e+02,2.130000000000000000e+02,1.020000000000000000e+02,4.800000000000000000e+01,3.400000000000000000e+01,1.130000000000000000e+02,4.400000000000000022e-01,1.974924500000000000e+09
1.020000000000000000e+02,4.610000000000000000e+02,8.310000000000000000e+02,1.830000000000000000e+02,9.000000000000000000e+01,4.300000000000000000e+01,3.900000000000000000e+01,1.500000000000000000e+02,4.299999999999999933e-01,1.992424500000000000e+09
9.300000000000000000e+01,4.260000000000000000e+02,8.400000000000000000e+02,1.750000000000000000e+02,8.800000000000000000e+01,5.800000000000000000e+01,4.800000000000000000e+01,1.760000000000000000e+02,4.199999999999999845e-01,2.009928000000000000e+09
8.400000000000000000e+01,4.260000000000000000e+02,7.490000000000000000e+02,1.360000000000000000e+02,8.200000000000000000e+01,9.300000000000000000e+01,4.900000000000000000e+01,2.060000000000000000e+02,4.099999999999999756e-01,2.027298200000000000e+09
9.200000000000000000e+01,4.150000000000000000e+02,8.870000000000000000e+02,1.500000000000000000e+02,1.220000000000000000e+02,9.700000000000000000e+01,5.100000000000000000e+01,2.200000000000000000e+02,3.900000000000000133e-01,2.047383600000000000e+09
9.400000000000000000e+01,3.530000000000000000e+02,9.810000000000000000e+02,2.340000000000000000e+02,1.490000000000000000e+02,1.050000000000000000e+02,5.300000000000000000e+01,2.180000000000000000e+02,3.699999999999999956e-01,2.065399000000000000e+09
8.600000000000000000e+01,3.470000000000000000e+02,9.360000000000000000e+02,2.330000000000000000e+02,1.550000000000000000e+02,1.050000000000000000e+02,4.700000000000000000e+01,1.920000000000000000e+02,3.400000000000000244e-01,2.083794800000000000e+09
9.600000000000000000e+01,4.320000000000000000e+02,9.740000000000000000e+02,2.410000000000000000e+02,1.570000000000000000e+02,1.210000000000000000e+02,3.900000000000000000e+01,1.600000000000000000e+02,3.200000000000000067e-01,2.100982800000000000e+09
1.150000000000000000e+02,4.680000000000000000e+02,1.047000000000000000e+03,2.880000000000000000e+02,1.820000000000000000e+02,1.100000000000000000e+02,4.400000000000000000e+01,1.230000000000000000e+02,2.999999999999999889e-01,2.118661900000000000e+09
1.930000000000000000e+02,5.920000000000000000e+02,1.046000000000000000e+03,3.820000000000000000e+02,2.180000000000000000e+02,1.210000000000000000e+02,6.000000000000000000e+01,9.900000000000000000e+01,2.800000000000000266e-01,2.137880900000000000e+09
2.260000000000000000e+02,7.300000000000000000e+02,1.009000000000000000e+03,4.330000000000000000e+02,2.910000000000000000e+02,1.250000000000000000e+02,6.900000000000000000e+01,1.140000000000000000e+02,2.600000000000000089e-01,2.157045500000000000e+09
2.680000000000000000e+02,9.120000000000000000e+02,1.257000000000000000e+03,5.110000000000000000e+02,3.210000000000000000e+02,1.510000000000000000e+02,8.300000000000000000e+01,1.270000000000000000e+02,2.399999999999999911e-01,2.174996400000000000e+09
2.880000000000000000e+02,9.200000000000000000e+02,1.230000000000000000e+03,5.330000000000000000e+02,3.420000000000000000e+02,1.540000000000000000e+02,9.000000000000000000e+01,1.310000000000000000e+02,2.200000000000000011e-01,2.192978900000000000e+09
3.220000000000000000e+02,9.440000000000000000e+02,1.191000000000000000e+03,6.270000000000000000e+02,3.660000000000000000e+02,1.550000000000000000e+02,9.700000000000000000e+01,1.410000000000000000e+02,1.900000000000000022e-01,2.210757900000000000e+09
2.900000000000000000e+02,9.380000000000000000e+02,1.167000000000000000e+03,6.020000000000000000e+02,3.380000000000000000e+02,1.470000000000000000e+02,9.300000000000000000e+01,1.390000000000000000e+02,1.600000000000000033e-01,2.228575800000000000e+09
3.050000000000000000e+02,9.510000000000000000e+02,1.154000000000000000e+03,5.840000000000000000e+02,2.870000000000000000e+02,1.520000000000000000e+02,9.800000000000000000e+01,1.490000000000000000e+02,1.400000000000000133e-01,2.246913200000000000e+09
2.790000000000000000e+02,8.670000000000000000e+02,1.039000000000000000e+03,5.310000000000000000e+02,2.540000000000000000e+02,1.280000000000000000e+02,8.900000000000000000e+01,1.410000000000000000e+02,1.199999999999999956e-01,2.265168900000000000e+09
2.640000000000000000e+02,8.940000000000000000e+02,1.095000000000000000e+03,5.330000000000000000e+02,2.370000000000000000e+02,1.180000000000000000e+02,8.500000000000000000e+01,1.310000000000000000e+02,1.100000000000000006e-01,2.284134600000000000e+09
2.230000000000000000e+02,9.120000000000000000e+02,1.169000000000000000e+03,4.380000000000000000e+02,1.840000000000000000e+02,1.120000000000000000e+02,7.900000000000000000e+01,1.140000000000000000e+02,8.999999999999999667e-02,2.302110800000000000e+09
2.550000000000000000e+02,8.660000000000000000e+02,1.153000000000000000e+03,4.680000000000000000e+02,2.260000000000000000e+02,1.290000000000000000e+02,9.100000000000000000e+01,1.340000000000000000e+02,8.000000000000000167e-02,2.320372600000000000e+09
2.090000000000000000e+02,8.330000000000000000e+02,1.278000000000000000e+03,4.670000000000000000e+02,2.100000000000000000e+02,1.190000000000000000e+02,8.100000000000000000e+01,1.130000000000000000e+02,8.000000000000000167e-02,2.338003300000000000e+09
2.130000000000000000e+02,7.500000000000000000e+02,1.208000000000000000e+03,4.690000000000000000e+02,2.280000000000000000e+02,1.280000000000000000e+02,8.500000000000000000e+01,1.160000000000000000e+02,7.000000000000000666e-02,2.355609600000000000e+09
2.060000000000000000e+02,6.970000000000000000e+02,1.196000000000000000e+03,4.450000000000000000e+02,2.350000000000000000e+02,1.210000000000000000e+02,8.200000000000000000e+01,1.110000000000000000e+02,5.999999999999999778e-02,2.374261700000000000e+09
2.250000000000000000e+02,7.070000000000000000e+02,1.240000000000000000e+03,4.380000000000000000e+02,2.570000000000000000e+02,1.280000000000000000e+02,9.100000000000000000e+01,1.200000000000000000e+02,5.999999999999999778e-02,2.391745300000000000e+09
1.840000000000000000e+02,7.330000000000000000e+02,1.308000000000000000e+03,3.930000000000000000e+02,2.220000000000000000e+02,1.220000000000000000e+02,7.700000000000000000e+01,9.100000000000000000e+01,5.000000000000000278e-02,2.409043800000000000e+09
2.060000000000000000e+02,7.600000000000000000e+02,1.225000000000000000e+03,5.340000000000000000e+02,2.360000000000000000e+02,1.280000000000000000e+02,7.800000000000000000e+01,9.400000000000000000e+01,5.000000000000000278e-02,2.426864000000000000e+09
2.110000000000000000e+02,7.950000000000000000e+02,1.206000000000000000e+03,6.240000000000000000e+02,2.330000000000000000e+02,1.230000000000000000e+02,7.900000000000000000e+01,9.500000000000000000e+01,5.000000000000000278e-02,2.445118100000000000e+09
2.500000000000000000e+02,8.980000000000000000e+02,1.172000000000000000e+03,6.760000000000000000e+02,2.360000000000000000e+02,1.230000000000000000e+02,8.900000000000000000e+01,1.110000000000000000e+02,4.000000000000000083e-02,2.462669900000000000e+09
2.270000000000000000e+02,8.370000000000000000e+02,1.102000000000000000e+03,6.820000000000000000e+02,2.010000000000000000e+02,1.120000000000000000e+02,7.600000000000000000e+01,1.010000000000000000e+02,4.000000000000000083e-02,2.480117000000000000e+09
2.600000000000000000e+02,8.310000000000000000e+02,9.790000000000000000e+02,7.270000000000000000e+02,2.050000000000000000e+02,1.180000000000000000e+02,8.300000000000000000e+01,1.200000000000000000e+02,4.000000000000000083e-02,2.498463900000000000e+09
2.770000000000000000e+02,7.740000000000000000e+02,9.520000000000000000e+02,6.370000000000000000e+02,2.090000000000000000e+02,1.400000000000000000e+02,8.300000000000000000e+01,1.210000000000000000e+02,4.000000000000000083e-02,2.515927600000000000e+09
2.840000000000000000e+02,8.990000000000000000e+02,1.109000000000000000e+03,5.610000000000000000e+02,1.910000000000000000e+02,1.400000000000000000e+02,8.200000000000000000e+01,1.220000000000000000e+02,2.999999999999999889e-02,2.534211800000000000e+09
2.720000000000000000e+02,8.700000000000000000e+02,1.105000000000000000e+03,5.590000000000000000e+02,1.780000000000000000e+02,1.420000000000000000e+02,7.700000000000000000e+01,1.160000000000000000e+02,2.999999999999999889e-02,2.551541200000000000e+09
2.950000000000000000e+02,9.020000000000000000e+02,1.055000000000000000e+03,5.490000000000000000e+02,2.010000000000000000e+02,1.420000000000000000e+02,8.500000000000000000e+01,1.240000000000000000e+02,2.999999999999999889e-02,2.569625400000000000e+09
3.000000000000000000e+02,9.550000000000000000e+02,1.070000000000000000e+03,5.740000000000000000e+02,2.530000000000000000e+02,1.580000000000000000e+02,8.900000000000000000e+01,1.250000000000000000e+02,2.999999999999999889e-02,2.588606700000000000e+09
2.840000000000000000e+02,9.690000000000000000e+02,1.112000000000000000e+03,5.940000000000000000e+02,2.630000000000000000e+02,1.470000000000000000e+02,9.200000000000000000e+01,1.280000000000000000e+02,2.999999999999999889e-02,2.608027100000000000e+09
2.780000000000000000e+02,8.240000000000000000e+02,1.096000000000000000e+03,5.950000000000000000e+02,2.730000000000000000e+02,1.490000000000000000e+02,9.500000000000000000e+01,1.300000000000000000e+02,2.999999999999999889e-02,2.625603300000000000e+09
2.840000000000000000e+02,9.210000000000000000e+02,1.128000000000000000e+03,6.460000000000000000e+02,2.910000000000000000e+02,1.630000000000000000e+02,9.200000000000000000e+01,1.270000000000000000e+02,2.999999999999999889e-02,2.642779600000000000e+09
2.820000000000000000e+02,9.570000000000000000e+02,1.159000000000000000e+03,6.980000000000000000e+02,2.970000000000000000e+02,1.720000000000000000e+02,8.700000000000000000e+01,1.230000000000000000e+02,2.999999999999999889e-02,2.660435100000000000e+09
2.620000000000000000e+02,8.960000000000000000e+02,1.127000000000000000e+03,6.390000000000000000e+02,2.560000000000000000e+02,1.520000000000000000e+02,8.300000000000000000e+01,1.170000000000000000e+02,2.999999999999999889e-02,2.678005100000000000e+09
2.900000000000000000e+02,9.330000000000000000e+02,1.123000000000000000e+03,6.550000000000000000e+02,2.390000000000000000e+02,1.540000000000000000e+02,8.400000000000000000e+01,1.210000000000000000e+02,2.999999999999999889e-02,2.697016100000000000e+09
3.320000000000000000e+02,1.122000000000000000e+03,1.024000000000000000e+03,7.080000000000000000e+02,2.470000000000000000e+02,1.660000000000000000e+02,8.800000000000000000e+01,1.300000000000000000e+02,2.999999999999999889e-02,2.715853400000000000e+09
3.340000000000000000e+02,1.043000000000000000e+03,1.133000000000000000e+03,6.980000000000000000e+02,2.430000000000000000e+02,1.630000000000000000e+02,9.100000000000000000e+01,1.350000000000000000e+02,2.000000000000000042e-02,2.734238200000000000e+09
3.240000000000000000e+02,1.000000000000000000e+03,1.159000000000000000e+03,6.650000000000000000e+02,2.270000000000000000e+02,1.570000000000000000e+02,8.900000000000000000e+01,1.330000000000000000e+02,2.000000000000000042e-02,2.751863900000000000e+09
3.080000000000000000e+02,1.041000000000000000e+03,1.201000000000000000e+03,6.530000000000000000e+02,2.320000000000000000e+02,1.530000000000000000e+02,8.300000000000000000e+01,1.210000000000000000e+02,2.000000000000000042e-02,2.769946900000000000e+09
2.690000000000000000e+02,9.680000000000000000e+02,1.176000000000000000e+03,6.150000000000000000e+02,2.440000000000000000e+02,1.470000000000000000e+02,7.700000000000000000e+01,1.070000000000000000e+02,2.000000000000000042e-02,2.788557900000000000e+09
2.110000000000000000e+02,7.790000000000000000e+02,1.247000000000000000e+03,5.470000000000000000e+02,2.370000000000000000e+02,1.420000000000000000e+02,6.500000000000000000e+01,8.800000000000000000e+01,2.000000000000000042e-02,2.806167400000000000e+09
1.740000000000000000e+02,6.910000000000000000e+02,1.107000000000000000e+03,4.380000000000000000e+02,2.190000000000000000e+02,1.220000000000000000e+02,5.900000000000000000e+01,7.900000000000000000e+01,2.000000000000000042e-02,2.823911500000000000e+09
2.020000000000000000e+02,7.780000000000000000e+02,1.065000000000000000e+03,4.460000000000000000e+02,2.440000000000000000e+02,1.310000000000000000e+02,6.900000000000000000e+01,9.700000000000000000e+01,2.000000000000000042e-02,2.841596400000000000e+09
2.050000000000000000e+02,7.420000000000000000e+02,1.071000000000000000e+03,4.530000000000000000e+02,2.320000000000000000e+02,1.310000000000000000e+02,6.800000000000000000e+01,9.800000000000000000e+01,2.000000000000000042e-02,2.859045600000000000e+09
2.230000000000000000e+02,8.150000000000000000e+02,1.069000000000000000e+03,4.310000000000000000e+02,2.050000000000000000e+02,1.220000000000000000e+02,7.100000000000000000e+01,1.090000000000000000e+02,2.000000000000000042e-02,2.876791000000000000e+09
2.100000000000000000e+02,7.750000000000000000e+02,9.730000000000000000e+02,4.330000000000000000e+02,1.990000000000000000e+02,1.080000000000000000e+02,6.900000000000000000e+01,1.040000000000000000e+02,1.000000000000000021e-02,2.893992000000000000e+09
2.500000000000000000e+02,8.470000000000000000e+02,1.086000000000000000e+03,5.140000000000000000e+02,2.270000000000000000e+02,1.270000000000000000e+02,7.800000000000000000e+01,1.180000000000000000e+02,1.000000000000000021e-02,2.911043700000000000e+09
2.840000000000000000e+02,8.790000000000000000e+02,1.162000000000000000e+03,5.130000000000000000e+02,2.440000000000000000e+02,1.370000000000000000e+02,9.000000000000000000e+01,1.360000000000000000e+02,1.000000000000000021e-02,2.928996000000000000e+09
2.810000000000000000e+02,8.780000000000000000e+02,1.177000000000000000e+03,5.310000000000000000e+02,2.450000000000000000e+02,1.410000000000000000e+02,9.000000000000000000e+01,1.330000000000000000e+02,1.000000000000000021e-02,2.947123300000000000e+09
2.780000000000000000e+02,8.560000000000000000e+02,1.186000000000000000e+03,5.960000000000000000e+02,2.400000000000000000e+02,1.430000000000000000e+02,9.000000000000000000e+01,1.270000000000000000e+02,1.000000000000000021e-02,2.966227900000000000e+09
3.030000000000000000e+02,9.110000000000000000e+02,1.217000000000000000e+03,6.300000000000000000e+02,2.550000000000000000e+02,1.470000000000000000e+02,9.700000000000000000e+01,1.400000000000000000e+02,1.000000000000000021e-02,2.984446400000000000e+09
3.020000000000000000e+02,9.130000000000000000e+02,1.120000000000000000e+03,6.390000000000000000e+02,2.470000000000000000e+02,1.450000000000000000e+02,9.800000000000000000e+01,1.400000000000000000e+02,1.000000000000000021e-02,3.002096000000000000e+09
2.650000000000000000e+02,7.930000000000000000e+02,1.070000000000000000e+03,6.760000000000000000e+02,2.450000000000000000e+02,1.370000000000000000e+02,8.900000000000000000e+01,1.250000000000000000e+02,1.000000000000000021e-02,3.019662500000000000e+09
2.840000000000000000e+02,8.040000000000000000e+02,1.067000000000000000e+03,7.280000000000000000e+02,2.790000000000000000e+02,1.460000000000000000e+02,9.600000000000000000e+01,1.360000000000000000e+02,1.000000000000000021e-02,3.037041500000000000e+09
3.120000000000000000e+02,9.160000000000000000e+02,1.080000000000000000e+03,7.090000000000000000e+02,2.940000000000000000e+02,1.490000000000000000e+02,1.000000000000000000e+02,1.460000000000000000e+02,1.000000000000000021e-02,3.054645200000000000e+09
3.100000000000000000e+02,9.000000000000000000e+02,1.029000000000000000e+03,7.020000000000000000e+02,2.800000000000000000e+02,1.430000000000000000e+02,9.900000000000000000e+01,1.440000000000000000e+02,1.000000000000000021e-02,3.072526700000000000e+09
2.780000000000000000e+02,8.900000000000000000e+02,1.119000000000000000e+03,6.520000000000000000e+02,2.590000000000000000e+02,1.280000000000000000e+02,8.900000000000000000e+01,1.290000000000000000e+02,1.000000000000000021e-02,3.090215300000000000e+09
2.670000000000000000e+02,9.010000000000000000e+02,1.221000000000000000e+03,5.670000000000000000e+02,2.200000000000000000e+02,1.140000000000000000e+02,8.300000000000000000e+01,1.190000000000000000e+02,1.000000000000000021e-02,3.108174600000000000e+09
2.720000000000000000e+02,9.020000000000000000e+02,1.216000000000000000e+03,4.700000000000000000e+02,1.880000000000000000e+02,9.700000000000000000e+01,7.900000000000000000e+01,1.190000000000000000e+02,1.000000000000000021e-02,3.125824500000000000e+09
2.430000000000000000e+02,8.310000000000000000e+02,1.128000000000000000e+03,4.420000000000000000e+02,1.850000000000000000e+02,1.000000000000000000e+02,7.300000000000000000e+01,1.090000000000000000e+02,1.000000000000000021e-02,3.144398900000000000e+09
2.320000000000000000e+02,8.320000000000000000e+02,1.177000000000000000e+03,4.260000000000000000e+02,1.910000000000000000e+02,1.050000000000000000e+02,8.100000000000000000e+01,1.080000000000000000e+02,1.000000000000000021e-02,3.161169900000000000e+09
2.560000000000000000e+02,8.260000000000000000e+02,1.227000000000000000e+03,4.390000000000000000e+02,2.140000000000000000e+02,1.160000000000000000e+02,8.800000000000000000e+01,1.200000000000000000e+02,2.000000000000000042e-02,3.177424700000000000e+09
2.630000000000000000e+02,8.810000000000000000e+02,1.122000000000000000e+03,5.220000000000000000e+02,2.390000000000000000e+02,1.310000000000000000e+02,9.500000000000000000e+01,1.260000000000000000e+02,2.000000000000000042e-02,3.193896500000000000e+09
2.500000000000000000e+02,8.480000000000000000e+02,1.146000000000000000e+03,5.190000000000000000e+02,2.310000000000000000e+02,1.370000000000000000e+02,9.500000000000000000e+01,1.210000000000000000e+02,2.000000000000000042e-02,3.209993200000000000e+09
3.200000000000000000e+02,9.000000000000000000e+02,1.144000000000000000e+03,6.140000000000000000e+02,2.660000000000000000e+02,1.530000000000000000e+02,1.090000000000000000e+02,1.490000000000000000e+02,2.000000000000000042e-02,3.226110500000000000e+09
3.380000000000000000e+02,9.420000000000000000e+02,1.197000000000000000e+03,7.240000000000000000e+02,3.100000000000000000e+02,1.680000000000000000e+02,1.080000000000000000e+02,1.530000000000000000e+02,2.000000000000000042e-02,3.242204300000000000e+09
3.340000000000000000e+02,9.230000000000000000e+02,1.256000000000000000e+03,7.290000000000000000e+02,2.990000000000000000e+02,1.720000000000000000e+02,1.060000000000000000e+02,1.510000000000000000e+02,2.000000000000000042e-02,3.259529300000000000e+09
3.500000000000000000e+02,9.970000000000000000e+02,1.253000000000000000e+03,7.760000000000000000e+02,3.120000000000000000e+02,1.750000000000000000e+02,1.040000000000000000e+02,1.520000000000000000e+02,2.000000000000000042e-02,3.276226800000000000e+09
3.580000000000000000e+02,1.083000000000000000e+03,1.211000000000000000e+03,8.140000000000000000e+02,3.270000000000000000e+02,1.750000000000000000e+02,1.070000000000000000e+02,1.560000000000000000e+02,2.000000000000000042e-02,3.292697800000000000e+09
2.840000000000000000e+02,9.680000000000000000e+02,1.245000000000000000e+03,7.100000000000000000e+02,2.880000000000000000e+02,1.540000000000000000e+02,9.000000000000000000e+01,1.230000000000000000e+02,2.000000000000000042e-02,3.308976100000000000e+09
2.450000000000000000e+02,8.930000000000000000e+02,1.191000000000000000e+03,5.730000000000000000e+02,2.430000000000000000e+02,1.390000000000000000e+02,7.900000000000000000e+01,1.100000000000000000e+02,2.000000000000000042e-02,3.325139800000000000e+09
2.230000000000000000e+02,8.510000000000000000e+02,1.053000000000000000e+03,5.310000000000000000e+02,2.320000000000000000e+02,1.250000000000000000e+02,7.300000000000000000e+01,1.010000000000000000e+02,1.000000000000000021e-02,3.341259800000000000e+09
1.900000000000000000e+02,7.040000000000000000e+02,9.990000000000000000e+02,3.820000000000000000e+02,1.900000000000000000e+02,1.030000000000000000e+02,6.900000000000000000e+01,1.000000000000000000e+02,1.000000000000000021e-02,3.357848800000000000e+09
1.550000000000000000e+02,5.090000000000000000e+02,9.350000000000000000e+02,2.720000000000000000e+02,1.550000000000000000e+02,1.320000000000000000e+02,1.120000000000000000e+02,1.300000000000000000e+02,2.000000000000000042e-02,3.373938500000000000e+09
1.470000000000000000e+02,4.840000000000000000e+02,8.700000000000000000e+02,2.730000000000000000e+02,1.450000000000000000e+02,2.430000000000000000e+02,3.760000000000000000e+02,3.340000000000000000e+02,2.000000000000000042e-02,3.390269800000000000e+09
1.580000000000000000e+02,4.490000000000000000e+02,7.290000000000000000e+02,2.470000000000000000e+02,1.530000000000000000e+02,4.860000000000000000e+02,5.700000000000000000e+02,5.400000000000000000e+02,2.000000000000000042e-02,3.406460200000000000e+09
1.580000000000000000e+02,4.550000000000000000e+02,5.380000000000000000e+02,2.270000000000000000e+02,1.560000000000000000e+02,5.790000000000000000e+02,6.670000000000000000e+02,6.610000000000000000e+02,2.999999999999999889e-02,3.423345500000000000e+09
1.380000000000000000e+02,4.160000000000000000e+02,4.580000000000000000e+02,1.660000000000000000e+02,1.930000000000000000e+02,8.160000000000000000e+02,8.640000000000000000e+02,7.660000000000000000e+02,4.000000000000000083e-02,3.440786900000000000e+09
1.390000000000000000e+02,4.660000000000000000e+02,4.550000000000000000e+02,1.410000000000000000e+02,2.220000000000000000e+02,9.930000000000000000e+02,1.044000000000000000e+03,8.480000000000000000e+02,7.000000000000000666e-02,3.457366600000000000e+09
1.550000000000000000e+02,5.080000000000000000e+02,4.070000000000000000e+02,1.440000000000000000e+02,2.350000000000000000e+02,1.049000000000000000e+03,1.105000000000000000e+03,9.350000000000000000e+02,8.999999999999999667e-02,3.473790600000000000e+09
1.510000000000000000e+02,4.900000000000000000e+02,3.890000000000000000e+02,1.340000000000000000e+02,2.360000000000000000e+02,1.017000000000000000e+03,1.036000000000000000e+03,9.450000000000000000e+02,1.199999999999999956e-01,3.490266800000000000e+09
1.520000000000000000e+02,4.610000000000000000e+02,3.670000000000000000e+02,1.290000000000000000e+02,2.490000000000000000e+02,1.077000000000000000e+03,1.065000000000000000e+03,1.004000000000000000e+03,1.499999999999999944e-01,3.506754700000000000e+09
1.470000000000000000e+02,4.730000000000000000e+02,3.390000000000000000e+02,1.350000000000000000e+02,2.110000000000000000e+02,1.063000000000000000e+03,1.045000000000000000e+03,1.072000000000000000e+03,1.799999999999999933e-01,3.523537000000000000e+09
1.540000000000000000e+02,5.480000000000000000e+02,3.120000000000000000e+02,1.430000000000000000e+02,1.830000000000000000e+02,9.630000000000000000e+02,9.570000000000000000e+02,1.041000000000000000e+03,2.200000000000000011e-01,3.539762800000000000e+09
1.450000000000000000e+02,5.070000000000000000e+02,3.520000000000000000e+02,1.430000000000000000e+02,1.800000000000000000e+02,9.720000000000000000e+02,8.690000000000000000e+02,9.770000000000000000e+02,2.399999999999999911e-01,3.555911500000000000e+09
1.290000000000000000e+02,5.210000000000000000e+02,4.010000000000000000e+02,1.370000000000000000e+02,1.500000000000000000e+02,1.082000000000000000e+03,1.005000000000000000e+03,8.890000000000000000e+02,2.700000000000000178e-01,3.573057700000000000e+09
1.320000000000000000e+02,5.260000000000000000e+02,4.100000000000000000e+02,1.420000000000000000e+02,1.270000000000000000e+02,1.031000000000000000e+03,1.025000000000000000e+03,7.720000000000000000e+02,2.999999999999999889e-01,3.589754600000000000e+09
1.250000000000000000e+02,5.030000000000000000e+02,4.220000000000000000e+02,1.330000000000000000e+02,1.240000000000000000e+02,9.000000000000000000e+02,1.010000000000000000e+03,6.600000000000000000e+02,3.300000000000000155e-01,3.606811100000000000e+09
1.160000000000000000e+02,3.660000000000000000e+02,5.100000000000000000e+02,1.210000000000000000e+02,1.130000000000000000e+02,8.550000000000000000e+02,9.730000000000000000e+02,6.460000000000000000e+02,3.599999999999999867e-01,3.623454200000000000e+09
1.230000000000000000e+02,4.140000000000000000e+02,4.950000000000000000e+02,1.620000000000000000e+02,8.800000000000000000e+01,7.670000000000000000e+02,9.290000000000000000e+02,5.580000000000000000e+02,3.699999999999999956e-01,3.640800800000000000e+09
1.340000000000000000e+02,4.260000000000000000e+02,4.780000000000000000e+02,2.090000000000000000e+02,9.200000000000000000e+01,5.420000000000000000e+02,7.740000000000000000e+02,5.440000000000000000e+02,3.800000000000000044e-01,3.657363900000000000e+09
1.300000000000000000e+02,4.200000000000000000e+02,4.770000000000000000e+02,2.090000000000000000e+02,9.300000000000000000e+01,5.120000000000000000e+02,6.750000000000000000e+02,4.900000000000000000e+02,3.800000000000000044e-01,3.674199500000000000e+09
1.380000000000000000e+02,3.940000000000000000e+02,4.720000000000000000e+02,2.140000000000000000e+02,9.200000000000000000e+01,4.920000000000000000e+02,5.140000000000000000e+02,5.010000000000000000e+02,3.800000000000000044e-01,3.690866100000000000e+09
1.410000000000000000e+02,4.210000000000000000e+02,4.410000000000000000e+02,2.250000000000000000e+02,9.500000000000000000e+01,4.560000000000000000e+02,4.330000000000000000e+02,4.530000000000000000e+02,3.800000000000000044e-01,3.708243500000000000e+09
1.260000000000000000e+02,3.480000000000000000e+02,4.350000000000000000e+02,1.860000000000000000e+02,9.000000000000000000e+01,4.250000000000000000e+02,4.330000000000000000e+02,4.450000000000000000e+02,3.800000000000000044e-01,3.724905100000000000e+09
1.160000000000000000e+02,3.190000000000000000e+02,4.800000000000000000e+02,1.630000000000000000e+02,8.700000000000000000e+01,3.760000000000000000e+02,4.190000000000000000e+02,4.330000000000000000e+02,3.699999999999999956e-01,3.743128700000000000e+09
1.090000000000000000e+02,3.020000000000000000e+02,4.890000000000000000e+02,1.620000000000000000e+02,7.400000000000000000e+01,2.720000000000000000e+02,3.320000000000000000e+02,4.380000000000000000e+02,3.699999999999999956e-01,3.762847900000000000e+09
9.600000000000000000e+01,2.800000000000000000e+02,4.830000000000000000e+02,1.540000000000000000e+02,7.000000000000000000e+01,2.420000000000000000e+02,2.750000000000000000e+02,2.390000000000000000e+02,3.800000000000000044e-01,3.779975500000000000e+09
8.000000000000000000e+01,3.190000000000000000e+02,4.530000000000000000e+02,1.310000000000000000e+02,6.000000000000000000e+01,2.270000000000000000e+02,2.380000000000000000e+02,2.410000000000000000e+02,3.699999999999999956e-01,3.797114400000000000e+09
7.500000000000000000e+01,3.790000000000000000e+02,5.190000000000000000e+02,1.280000000000000000e+02,5.200000000000000000e+01,2.260000000000000000e+02,2.140000000000000000e+02,2.270000000000000000e+02,3.699999999999999956e-01,3.814245800000000000e+09
6.300000000000000000e+01,4.030000000000000000e+02,5.660000000000000000e+02,8.800000000000000000e+01,4.500000000000000000e+01,2.210000000000000000e+02,1.800000000000000000e+02,2.160000000000000000e+02,3.800000000000000044e-01,3.831379500000000000e+09
6.200000000000000000e+01,4.210000000000000000e+02,5.780000000000000000e+02,8.400000000000000000e+01,4.500000000000000000e+01,2.100000000000000000e+02,2.180000000000000000e+02,2.030000000000000000e+02,3.900000000000000133e-01,3.849136500000000000e+09
6.000000000000000000e+01,4.390000000000000000e+02,5.820000000000000000e+02,8.300000000000000000e+01,4.700000000000000000e+01,2.110000000000000000e+02,2.860000000000000000e+02,2.090000000000000000e+02,4.000000000000000222e-01,3.867327500000000000e+09
5.800000000000000000e+01,3.890000000000000000e+02,5.910000000000000000e+02,8.500000000000000000e+01,4.300000000000000000e+01,2.020000000000000000e+02,2.830000000000000000e+02,1.860000000000000000e+02,4.099999999999999756e-01,3.884697700000000000e+09
5.900000000000000000e+01,3.130000000000000000e+02,5.260000000000000000e+02,7.800000000000000000e+01,4.500000000000000000e+01,1.970000000000000000e+02,2.780000000000000000e+02,1.930000000000000000e+02,4.199999999999999845e-01,3.925139400000000000e+09
6.300000000000000000e+01,2.720000000000000000e+02,4.710000000000000000e+02,7.400000000000000000e+01,4.500000000000000000e+01,1.980000000000000000e+02,2.830000000000000000e+02,2.080000000000000000e+02,4.299999999999999933e-01,3.942305000000000000e+09
6.100000000000000000e+01,2.490000000000000000e+02,4.890000000000000000e+02,7.200000000000000000e+01,4.300000000000000000e+01,1.600000000000000000e+02,2.370000000000000000e+02,1.890000000000000000e+02,4.400000000000000022e-01,3.959494300000000000e+09
5.800000000000000000e+01,2.200000000000000000e+02,4.780000000000000000e+02,7.600000000000000000e+01,4.400000000000000000e+01,1.420000000000000000e+02,1.390000000000000000e+02,1.610000000000000000e+02,4.600000000000000200e-01,3.976785500000000000e+09
6.000000000000000000e+01,1.900000000000000000e+02,4.790000000000000000e+02,7.800000000000000000e+01,4.800000000000000000e+01,1.700000000000000000e+02,2.180000000000000000e+02,1.970000000000000000e+02,4.600000000000000200e-01,3.994347400000000000e+09
5.700000000000000000e+01,2.190000000000000000e+02,4.700000000000000000e+02,7.500000000000000000e+01,4.700000000000000000e+01,1.780000000000000000e+02,2.180000000000000000e+02,1.900000000000000000e+02,4.699999999999999734e-01,4.011521500000000000e+09
5.100000000000000000e+01,3.180000000000000000e+02,4.040000000000000000e+02,7.200000000000000000e+01,4.700000000000000000e+01,1.750000000000000000e+02,2.250000000000000000e+02,1.670000000000000000e+02,4.799999999999999822e-01,4.028825900000000000e+09
5.500000000000000000e+01,3.280000000000000000e+02,3.880000000000000000e+02,8.500000000000000000e+01,4.800000000000000000e+01,1.770000000000000000e+02,2.330000000000000000e+02,1.670000000000000000e+02,4.899999999999999911e-01,4.047009800000000000e+09
5.300000000000000000e+01,3.410000000000000000e+02,4.330000000000000000e+02,8.200000000000000000e+01,4.300000000000000000e+01,1.710000000000000000e+02,2.720000000000000000e+02,1.640000000000000000e+02,5.000000000000000000e-01,4.064604800000000000e+09
4.800000000000000000e+01,3.360000000000000000e+02,3.850000000000000000e+02,7.900000000000000000e+01,4.100000000000000000e+01,1.810000000000000000e+02,2.510000000000000000e+02,1.430000000000000000e+02,5.100000000000000089e-01,4.083253000000000000e+09
5.000000000000000000e+01,3.440000000000000000e+02,4.630000000000000000e+02,8.100000000000000000e+01,4.200000000000000000e+01,1.860000000000000000e+02,2.550000000000000000e+02,1.380000000000000000e+02,5.200000000000000178e-01,4.101439900000000000e+09
4.500000000000000000e+01,2.640000000000000000e+02,5.110000000000000000e+02,7.700000000000000000e+01,3.800000000000000000e+01,1.810000000000000000e+02,2.580000000000000000e+02,1.400000000000000000e+02,5.300000000000000266e-01,4.120018800000000000e+09
4.500000000000000000e+01,2.540000000000000000e+02,5.360000000000000000e+02,7.600000000000000000e+01,4.500000000000000000e+01,1.820000000000000000e+02,2.560000000000000000e+02,1.630000000000000000e+02,5.400000000000000355e-01,4.140805000000000000e+09
4.700000000000000000e+01,2.300000000000000000e+02,5.070000000000000000e+02,7.800000000000000000e+01,4.800000000000000000e+01,2.180000000000000000e+02,2.490000000000000000e+02,1.620000000000000000e+02,5.400000000000000355e-01,4.160357500000000000e+09
4.800000000000000000e+01,2.600000000000000000e+02,4.940000000000000000e+02,7.500000000000000000e+01,4.800000000000000000e+01,2.050000000000000000e+02,2.000000000000000000e+02,1.460000000000000000e+02,5.500000000000000444e-01,4.179856900000000000e+09
4.500000000000000000e+01,2.150000000000000000e+02,4.160000000000000000e+02,7.100000000000000000e+01,4.700000000000000000e+01,1.940000000000000000e+02,1.990000000000000000e+02,1.470000000000000000e+02,5.500000000000000444e-01,4.201134100000000000e+09
4.500000000000000000e+01,2.020000000000000000e+02,3.600000000000000000e+02,6.500000000000000000e+01,4.800000000000000000e+01,2.020000000000000000e+02,1.890000000000000000e+02,1.630000000000000000e+02,5.500000000000000444e-01,4.218992100000000000e+09
4.300000000000000000e+01,2.160000000000000000e+02,3.010000000000000000e+02,4.800000000000000000e+01,4.100000000000000000e+01,2.050000000000000000e+02,1.780000000000000000e+02,1.390000000000000000e+02,5.500000000000000444e-01,4.241386400000000000e+09
4.200000000000000000e+01,2.440000000000000000e+02,4.850000000000000000e+02,4.700000000000000000e+01,3.700000000000000000e+01,1.500000000000000000e+02,1.160000000000000000e+02,1.330000000000000000e+02,5.500000000000000444e-01,4.260765500000000000e+09
4.500000000000000000e+01,2.350000000000000000e+02,5.320000000000000000e+02,5.900000000000000000e+01,3.500000000000000000e+01,1.170000000000000000e+02,1.150000000000000000e+02,1.150000000000000000e+02,5.500000000000000444e-01,4.279532200000000000e+09
4.400000000000000000e+01,2.520000000000000000e+02,5.730000000000000000e+02,6.000000000000000000e+01,3.600000000000000000e+01,1.010000000000000000e+02,1.000000000000000000e+02,1.070000000000000000e+02,5.400000000000000355e-01,4.300943600000000000e+09
4.500000000000000000e+01,2.620000000000000000e+02,5.790000000000000000e+02,6.200000000000000000e+01,3.600000000000000000e+01,8.800000000000000000e+01,6.400000000000000000e+01,1.440000000000000000e+02,5.400000000000000355e-01,4.320603000000000000e+09
4.100000000000000000e+01,2.800000000000000000e+02,5.960000000000000000e+02,6.300000000000000000e+01,3.600000000000000000e+01,7.200000000000000000e+01,8.100000000000000000e+01,1.420000000000000000e+02,5.400000000000000355e-01,4.340542000000000000e+09
4.800000000000000000e+01,3.050000000000000000e+02,5.970000000000000000e+02,7.100000000000000000e+01,4.200000000000000000e+01,6.800000000000000000e+01,7.900000000000000000e+01,1.420000000000000000e+02,5.300000000000000266e-01,4.361123500000000000e+09
4.500000000000000000e+01,3.070000000000000000e+02,5.720000000000000000e+02,7.500000000000000000e+01,4.900000000000000000e+01,6.800000000000000000e+01,7.700000000000000000e+01,1.430000000000000000e+02,5.300000000000000266e-01,4.381528600000000000e+09
4.700000000000000000e+01,3.050000000000000000e+02,5.760000000000000000e+02,8.900000000000000000e+01,5.000000000000000000e+01,6.000000000000000000e+01,7.600000000000000000e+01,1.420000000000000000e+02,5.300000000000000266e-01,4.398913900000000000e+09
4.600000000000000000e+01,2.960000000000000000e+02,6.100000000000000000e+02,8.800000000000000000e+01,4.900000000000000000e+01,4.800000000000000000e+01,7.300000000000000000e+01,6.900000000000000000e+01,5.300000000000000266e-01,4.418902400000000000e+09
6.500000000000000000e+01,3.250000000000000000e+02,7.370000000000000000e+02,1.070000000000000000e+02,5.800000000000000000e+01,5.300000000000000000e+01,4.500000000000000000e+01,7.500000000000000000e+01,5.300000000000000266e-01,4.439497900000000000e+09
9.800000000000000000e+01,3.660000000000000000e+02,7.180000000000000000e+02,1.850000000000000000e+02,1.060000000000000000e+02,6.600000000000000000e+01,4.700000000000000000e+01,7.800000000000000000e+01,5.200000000000000178e-01,4.459518100000000000e+09
1.040000000000000000e+02,4.050000000000000000e+02,8.310000000000000000e+02,1.900000000000000000e+02,1.110000000000000000e+02,6.400000000000000000e+01,4.500000000000000000e+01,7.600000000000000000e+01,5.100000000000000089e-01,4.479127600000000000e+09
1.060000000000000000e+02,4.160000000000000000e+02,8.690000000000000000e+02,1.890000000000000000e+02,1.320000000000000000e+02,1.200000000000000000e+02,4.500000000000000000e+01,7.400000000000000000e+01,4.899999999999999911e-01,4.499425100000000000e+09
1.070000000000000000e+02,4.190000000000000000e+02,9.010000000000000000e+02,1.980000000000000000e+02,1.370000000000000000e+02,1.330000000000000000e+02,4.700000000000000000e+01,7.300000000000000000e+01,4.699999999999999734e-01,4.525792700000000000e+09
1.130000000000000000e+02,4.360000000000000000e+02,8.740000000000000000e+02,2.030000000000000000e+02,1.370000000000000000e+02,1.390000000000000000e+02,4.900000000000000000e+01,1.080000000000000000e+02,4.600000000000000200e-01,4.543737200000000000e+09
1.140000000000000000e+02,5.240000000000000000e+02,9.910000000000000000e+02,1.430000000000000000e+02,1.050000000000000000e+02,1.360000000000000000e+02,4.700000000000000000e+01,1.120000000000000000e+02,4.400000000000000022e-01,4.562858100000000000e+09
1.810000000000000000e+02,6.990000000000000000e+02,1.144000000000000000e+03,2.890000000000000000e+02,1.440000000000000000e+02,1.420000000000000000e+02,6.300000000000000000e+01,1.300000000000000000e+02,4.199999999999999845e-01,4.582324400000000000e+09
1.930000000000000000e+02,7.470000000000000000e+02,1.172000000000000000e+03,3.100000000000000000e+02,1.370000000000000000e+02,1.040000000000000000e+02,6.500000000000000000e+01,1.330000000000000000e+02,3.900000000000000133e-01,4.600755900000000000e+09
2.000000000000000000e+02,7.770000000000000000e+02,1.253000000000000000e+03,3.320000000000000000e+02,1.520000000000000000e+02,9.700000000000000000e+01,6.600000000000000000e+01,1.360000000000000000e+02,3.599999999999999867e-01,4.618623200000000000e+09
2.280000000000000000e+02,8.560000000000000000e+02,1.289000000000000000e+03,3.580000000000000000e+02,1.640000000000000000e+02,1.230000000000000000e+02,6.800000000000000000e+01,1.140000000000000000e+02,3.300000000000000155e-01,4.639605200000000000e+09
2.330000000000000000e+02,8.740000000000000000e+02,1.197000000000000000e+03,3.720000000000000000e+02,1.720000000000000000e+02,1.210000000000000000e+02,6.800000000000000000e+01,1.060000000000000000e+02,2.999999999999999889e-01,4.660193800000000000e+09
2.270000000000000000e+02,7.950000000000000000e+02,1.079000000000000000e+03,3.410000000000000000e+02,1.560000000000000000e+02,1.170000000000000000e+02,6.700000000000000000e+01,1.010000000000000000e+02,2.800000000000000266e-01,4.679191900000000000e+09
2.670000000000000000e+02,8.130000000000000000e+02,1.038000000000000000e+03,4.470000000000000000e+02,1.840000000000000000e+02,1.350000000000000000e+02,8.200000000000000000e+01,1.210000000000000000e+02,2.600000000000000089e-01,4.700228800000000000e+09
2.790000000000000000e+02,8.410000000000000000e+02,9.710000000000000000e+02,5.380000000000000000e+02,2.110000000000000000e+02,1.400000000000000000e+02,8.700000000000000000e+01,1.260000000000000000e+02,2.399999999999999911e-01,4.720770100000000000e+09
2.860000000000000000e+02,8.550000000000000000e+02,1.007000000000000000e+03,5.760000000000000000e+02,2.440000000000000000e+02,1.400000000000000000e+02,9.100000000000000000e+01,1.290000000000000000e+02,2.200000000000000011e-01,4.740824200000000000e+09
2.930000000000000000e+02,8.640000000000000000e+02,1.112000000000000000e+03,5.980000000000000000e+02,2.630000000000000000e+02,1.550000000000000000e+02,9.800000000000000000e+01,1.370000000000000000e+02,2.000000000000000111e-01,4.758687300000000000e+09
3.390000000000000000e+02,9.540000000000000000e+02,1.170000000000000000e+03,6.750000000000000000e+02,2.880000000000000000e+02,1.720000000000000000e+02,1.100000000000000000e+02,1.590000000000000000e+02,1.700000000000000122e-01,4.778955300000000000e+09
3.220000000000000000e+02,9.730000000000000000e+02,1.220000000000000000e+03,6.900000000000000000e+02,2.760000000000000000e+02,1.580000000000000000e+02,1.020000000000000000e+02,1.510000000000000000e+02,1.600000000000000033e-01,4.798636600000000000e+09
3.210000000000000000e+02,9.950000000000000000e+02,1.238000000000000000e+03,6.850000000000000000e+02,2.610000000000000000e+02,1.520000000000000000e+02,1.020000000000000000e+02,1.500000000000000000e+02,1.400000000000000133e-01,4.818477000000000000e+09
3.300000000000000000e+02,9.730000000000000000e+02,1.236000000000000000e+03,7.000000000000000000e+02,2.440000000000000000e+02,1.360000000000000000e+02,1.010000000000000000e+02,1.550000000000000000e+02,1.300000000000000044e-01,4.840056600000000000e+09
3.320000000000000000e+02,9.190000000000000000e+02,1.185000000000000000e+03,7.240000000000000000e+02,2.420000000000000000e+02,1.260000000000000000e+02,9.800000000000000000e+01,1.540000000000000000e+02,1.100000000000000006e-01,4.859505600000000000e+09
2.730000000000000000e+02,9.140000000000000000e+02,1.080000000000000000e+03,7.170000000000000000e+02,2.210000000000000000e+02,1.060000000000000000e+02,8.300000000000000000e+01,1.290000000000000000e+02,1.000000000000000056e-01,4.879506600000000000e+09
2.800000000000000000e+02,9.070000000000000000e+02,1.095000000000000000e+03,7.130000000000000000e+02,2.270000000000000000e+02,1.110000000000000000e+02,8.000000000000000000e+01,1.260000000000000000e+02,8.999999999999999667e-02,4.900176600000000000e+09
3.010000000000000000e+02,9.210000000000000000e+02,1.099000000000000000e+03,7.150000000000000000e+02,2.630000000000000000e+02,1.360000000000000000e+02,8.700000000000000000e+01,1.340000000000000000e+02,8.000000000000000167e-02,4.920337200000000000e+09
2.650000000000000000e+02,9.090000000000000000e+02,1.163000000000000000e+03,6.830000000000000000e+02,2.550000000000000000e+02,1.370000000000000000e+02,8.000000000000000000e+01,1.190000000000000000e+02,7.000000000000000666e-02,4.938764300000000000e+09
2.610000000000000000e+02,9.290000000000000000e+02,1.272000000000000000e+03,6.730000000000000000e+02,2.350000000000000000e+02,1.380000000000000000e+02,7.700000000000000000e+01,1.140000000000000000e+02,5.999999999999999778e-02,4.959368100000000000e+09
2.740000000000000000e+02,8.180000000000000000e+02,1.330000000000000000e+03,6.240000000000000000e+02,2.390000000000000000e+02,1.510000000000000000e+02,7.600000000000000000e+01,1.160000000000000000e+02,5.999999999999999778e-02,4.980480500000000000e+09
2.910000000000000000e+02,8.390000000000000000e+02,1.294000000000000000e+03,5.950000000000000000e+02,2.500000000000000000e+02,1.560000000000000000e+02,8.400000000000000000e+01,1.290000000000000000e+02,5.000000000000000278e-02,4.999793600000000000e+09
2.890000000000000000e+02,8.630000000000000000e+02,1.350000000000000000e+03,6.030000000000000000e+02,2.400000000000000000e+02,1.610000000000000000e+02,8.400000000000000000e+01,1.320000000000000000e+02,5.000000000000000278e-02,5.019564400000000000e+09
3.310000000000000000e+02,9.070000000000000000e+02,1.230000000000000000e+03,6.330000000000000000e+02,2.390000000000000000e+02,1.540000000000000000e+02,9.200000000000000000e+01,1.460000000000000000e+02,5.000000000000000278e-02,5.040378300000000000e+09
3.340000000000000000e+02,9.130000000000000000e+02,1.166000000000000000e+03,6.940000000000000000e+02,2.530000000000000000e+02,1.600000000000000000e+02,9.700000000000000000e+01,1.480000000000000000e+02,4.000000000000000083e-02,5.061018500000000000e+09
3.220000000000000000e+02,9.370000000000000000e+02,1.186000000000000000e+03,7.430000000000000000e+02,2.470000000000000000e+02,1.510000000000000000e+02,9.500000000000000000e+01,1.450000000000000000e+02,4.000000000000000083e-02,5.080022100000000000e+09
2.910000000000000000e+02,9.030000000000000000e+02,1.221000000000000000e+03,7.360000000000000000e+02,2.510000000000000000e+02,1.470000000000000000e+02,9.200000000000000000e+01,1.340000000000000000e+02,4.000000000000000083e-02,5.100009600000000000e+09
2.860000000000000000e+02,9.390000000000000000e+02,1.176000000000000000e+03,7.220000000000000000e+02,2.440000000000000000e+02,1.430000000000000000e+02,8.500000000000000000e+01,1.250000000000000000e+02,4.000000000000000083e-02,5.120879100000000000e+09
2.580000000000000000e+02,8.460000000000000000e+02,1.231000000000000000e+03,6.900000000000000000e+02,2.620000000000000000e+02,1.560000000000000000e+02,8.500000000000000000e+01,1.200000000000000000e+02,4.000000000000000083e-02,5.138749400000000000e+09
2.850000000000000000e+02,9.310000000000000000e+02,1.178000000000000000e+03,6.430000000000000000e+02,2.670000000000000000e+02,1.550000000000000000e+02,8.300000000000000000e+01,1.300000000000000000e+02,2.999999999999999889e-02,5.159304500000000000e+09
3.000000000000000000e+02,9.400000000000000000e+02,1.185000000000000000e+03,6.010000000000000000e+02,2.740000000000000000e+02,1.540000000000000000e+02,8.600000000000000000e+01,1.330000000000000000e+02,2.999999999999999889e-02,5.180659400000000000e+09
3.060000000000000000e+02,9.930000000000000000e+02,1.204000000000000000e+03,6.270000000000000000e+02,2.590000000000000000e+02,1.560000000000000000e+02,8.700000000000000000e+01,1.360000000000000000e+02,2.999999999999999889e-02,5.199666300000000000e+09
2.820000000000000000e+02,9.050000000000000000e+02,1.148000000000000000e+03,5.650000000000000000e+02,2.250000000000000000e+02,1.260000000000000000e+02,8.200000000000000000e+01,1.290000000000000000e+02,2.999999999999999889e-02,5.219402000000000000e+09
2.980000000000000000e+02,9.730000000000000000e+02,1.171000000000000000e+03,5.940000000000000000e+02,2.220000000000000000e+02,1.190000000000000000e+02,8.100000000000000000e+01,1.330000000000000000e+02,2.999999999999999889e-02,5.240690900000000000e+09
2.960000000000000000e+02,9.420000000000000000e+02,1.266000000000000000e+03,6.180000000000000000e+02,2.260000000000000000e+02,1.190000000000000000e+02,8.500000000000000000e+01,1.320000000000000000e+02,2.999999999999999889e-02,5.260676900000000000e+09
2.760000000000000000e+02,9.560000000000000000e+02,1.218000000000000000e+03,5.860000000000000000e+02,2.080000000000000000e+02,1.180000000000000000e+02,7.900000000000000000e+01,1.230000000000000000e+02,2.999999999999999889e-02,5.281584600000000000e+09
2.640000000000000000e+02,8.790000000000000000e+02,1.270000000000000000e+03,5.040000000000000000e+02,1.950000000000000000e+02,1.120000000000000000e+02,7.500000000000000000e+01,1.160000000000000000e+02,2.999999999999999889e-02,5.300002700000000000e+09
2.850000000000000000e+02,9.180000000000000000e+02,1.340000000000000000e+03,5.400000000000000000e+02,2.170000000000000000e+02,1.220000000000000000e+02,7.700000000000000000e+01,1.200000000000000000e+02,2.999999999999999889e-02,5.319983200000000000e+09
2.470000000000000000e+02,8.960000000000000000e+02,1.371000000000000000e+03,5.090000000000000000e+02,1.840000000000000000e+02,1.100000000000000000e+02,6.700000000000000000e+01,1.000000000000000000e+02,2.999999999999999889e-02,5.339921300000000000e+09
1.950000000000000000e+02,8.360000000000000000e+02,1.274000000000000000e+03,4.380000000000000000e+02,1.570000000000000000e+02,9.900000000000000000e+01,5.600000000000000000e+01,8.100000000000000000e+01,2.999999999999999889e-02,5.359972200000000000e+09
1.860000000000000000e+02,7.520000000000000000e+02,1.226000000000000000e+03,4.060000000000000000e+02,1.490000000000000000e+02,9.500000000000000000e+01,5.600000000000000000e+01,8.000000000000000000e+01,2.999999999999999889e-02,5.380196200000000000e+09
1.980000000000000000e+02,7.780000000000000000e+02,1.125000000000000000e+03,4.010000000000000000e+02,1.550000000000000000e+02,1.130000000000000000e+02,5.800000000000000000e+01,1.070000000000000000e+02,4.000000000000000083e-02,5.400150900000000000e+09
1.730000000000000000e+02,7.090000000000000000e+02,1.105000000000000000e+03,3.700000000000000000e+02,1.310000000000000000e+02,1.200000000000000000e+02,5.800000000000000000e+01,1.040000000000000000e+02,4.000000000000000083e-02,5.421136300000000000e+09
1.660000000000000000e+02,6.180000000000000000e+02,9.900000000000000000e+02,3.330000000000000000e+02,1.430000000000000000e+02,2.810000000000000000e+02,7.800000000000000000e+01,1.480000000000000000e+02,4.000000000000000083e-02,5.439549900000000000e+09
1.550000000000000000e+02,5.220000000000000000e+02,9.470000000000000000e+02,2.750000000000000000e+02,1.460000000000000000e+02,3.900000000000000000e+02,1.380000000000000000e+02,2.180000000000000000e+02,5.000000000000000278e-02,5.459409000000000000e+09
1.520000000000000000e+02,5.010000000000000000e+02,9.070000000000000000e+02,2.420000000000000000e+02,1.590000000000000000e+02,4.970000000000000000e+02,1.760000000000000000e+02,4.140000000000000000e+02,5.000000000000000278e-02,5.480453900000000000e+09
1.250000000000000000e+02,4.350000000000000000e+02,8.860000000000000000e+02,2.410000000000000000e+02,1.620000000000000000e+02,6.350000000000000000e+02,2.940000000000000000e+02,4.630000000000000000e+02,5.999999999999999778e-02,5.501065400000000000e+09
1.390000000000000000e+02,3.900000000000000000e+02,7.410000000000000000e+02,1.770000000000000000e+02,1.840000000000000000e+02,6.860000000000000000e+02,3.690000000000000000e+02,6.840000000000000000e+02,5.999999999999999778e-02,5.521033200000000000e+09
1.460000000000000000e+02,3.820000000000000000e+02,6.120000000000000000e+02,1.540000000000000000e+02,1.880000000000000000e+02,7.060000000000000000e+02,5.750000000000000000e+02,8.460000000000000000e+02,7.000000000000000666e-02,5.539695100000000000e+09
1.560000000000000000e+02,3.800000000000000000e+02,6.210000000000000000e+02,1.410000000000000000e+02,1.890000000000000000e+02,7.710000000000000000e+02,6.530000000000000000e+02,9.630000000000000000e+02,8.000000000000000167e-02,5.559179000000000000e+09
1.610000000000000000e+02,3.750000000000000000e+02,5.790000000000000000e+02,1.320000000000000000e+02,1.990000000000000000e+02,8.820000000000000000e+02,7.200000000000000000e+02,1.099000000000000000e+03,8.999999999999999667e-02,5.578895700000000000e+09
1.670000000000000000e+02,3.310000000000000000e+02,4.700000000000000000e+02,1.150000000000000000e+02,1.970000000000000000e+02,9.460000000000000000e+02,7.740000000000000000e+02,1.180000000000000000e+03,1.199999999999999956e-01,5.599801500000000000e+09
1.600000000000000000e+02,3.300000000000000000e+02,5.200000000000000000e+02,9.600000000000000000e+01,1.680000000000000000e+02,1.072000000000000000e+03,8.370000000000000000e+02,1.149000000000000000e+03,1.499999999999999944e-01,5.620215800000000000e+09
1.540000000000000000e+02,3.680000000000000000e+02,5.950000000000000000e+02,1.050000000000000000e+02,1.560000000000000000e+02,1.174000000000000000e+03,7.890000000000000000e+02,1.081000000000000000e+03,1.600000000000000033e-01,5.638208500000000000e+09
1.600000000000000000e+02,3.890000000000000000e+02,5.250000000000000000e+02,1.080000000000000000e+02,1.480000000000000000e+02,1.141000000000000000e+03,7.640000000000000000e+02,1.028000000000000000e+03,1.799999999999999933e-01,5.658335600000000000e+09
1.560000000000000000e+02,3.940000000000000000e+02,5.840000000000000000e+02,1.200000000000000000e+02,1.160000000000000000e+02,1.088000000000000000e+03,7.620000000000000000e+02,8.910000000000000000e+02,2.000000000000000111e-01,5.678094500000000000e+09
1.490000000000000000e+02,3.850000000000000000e+02,6.100000000000000000e+02,1.190000000000000000e+02,1.050000000000000000e+02,9.940000000000000000e+02,7.140000000000000000e+02,8.300000000000000000e+02,2.200000000000000011e-01,5.697683200000000000e+09
1.390000000000000000e+02,3.560000000000000000e+02,5.590000000000000000e+02,1.160000000000000000e+02,9.800000000000000000e+01,8.330000000000000000e+02,6.550000000000000000e+02,7.610000000000000000e+02,2.399999999999999911e-01,5.718332800000000000e+09
1.300000000000000000e+02,3.140000000000000000e+02,4.780000000000000000e+02,9.400000000000000000e+01,9.100000000000000000e+01,7.100000000000000000e+02,5.870000000000000000e+02,7.400000000000000000e+02,2.600000000000000089e-01,5.741874900000000000e+09
1.160000000000000000e+02,3.270000000000000000e+02,5.790000000000000000e+02,9.200000000000000000e+01,7.500000000000000000e+01,6.720000000000000000e+02,5.450000000000000000e+02,6.580000000000000000e+02,2.800000000000000266e-01,5.761773500000000000e+09
1.000000000000000000e+02,3.130000000000000000e+02,6.170000000000000000e+02,6.200000000000000000e+01,6.000000000000000000e+01,5.820000000000000000e+02,4.500000000000000000e+02,5.440000000000000000e+02,2.999999999999999889e-01,5.780007700000000000e+09
1.000000000000000000e+02,3.190000000000000000e+02,5.910000000000000000e+02,6.600000000000000000e+01,4.600000000000000000e+01,5.590000000000000000e+02,3.760000000000000000e+02,5.450000000000000000e+02,3.099999999999999978e-01,5.800084900000000000e+09
8.300000000000000000e+01,3.100000000000000000e+02,5.910000000000000000e+02,6.600000000000000000e+01,5.200000000000000000e+01,5.490000000000000000e+02,3.050000000000000000e+02,4.810000000000000000e+02,3.099999999999999978e-01,5.820106600000000000e+09
8.600000000000000000e+01,3.230000000000000000e+02,5.920000000000000000e+02,7.100000000000000000e+01,4.900000000000000000e+01,4.260000000000000000e+02,2.920000000000000000e+02,4.100000000000000000e+02,3.099999999999999978e-01,5.840380700000000000e+09
9.700000000000000000e+01,3.800000000000000000e+02,5.090000000000000000e+02,7.100000000000000000e+01,5.700000000000000000e+01,3.880000000000000000e+02,2.680000000000000000e+02,4.090000000000000000e+02,3.200000000000000067e-01,5.860593400000000000e+09
1.120000000000000000e+02,3.970000000000000000e+02,4.310000000000000000e+02,8.100000000000000000e+01,5.500000000000000000e+01,3.310000000000000000e+02,2.550000000000000000e+02,4.040000000000000000e+02,3.200000000000000067e-01,5.880618700000000000e+09
1.070000000000000000e+02,3.900000000000000000e+02,3.940000000000000000e+02,7.300000000000000000e+01,5.700000000000000000e+01,2.600000000000000000e+02,2.540000000000000000e+02,2.270000000000000000e+02,3.400000000000000244e-01,5.899321300000000000e+09
1.130000000000000000e+02,3.870000000000000000e+02,4.240000000000000000e+02,7.700000000000000000e+01,5.700000000000000000e+01,3.180000000000000000e+02,2.260000000000000000e+02,2.260000000000000000e+02,3.499999999999999778e-01,5.920190000000000000e+09
1.120000000000000000e+02,3.960000000000000000e+02,4.420000000000000000e+02,7.200000000000000000e+01,5.800000000000000000e+01,3.190000000000000000e+02,2.180000000000000000e+02,2.400000000000000000e+02,3.599999999999999867e-01,5.938632100000000000e+09
9.700000000000000000e+01,3.120000000000000000e+02,4.400000000000000000e+02,6.400000000000000000e+01,5.000000000000000000e+01,3.070000000000000000e+02,2.080000000000000000e+02,2.280000000000000000e+02,3.699999999999999956e-01,5.968034000000000000e+09
8.500000000000000000e+01,2.850000000000000000e+02,3.950000000000000000e+02,5.100000000000000000e+01,4.700000000000000000e+01,3.050000000000000000e+02,2.230000000000000000e+02,2.310000000000000000e+02,3.800000000000000044e-01,5.985943400000000000e+09
8.100000000000000000e+01,2.500000000000000000e+02,4.560000000000000000e+02,6.400000000000000000e+01,4.600000000000000000e+01,3.250000000000000000e+02,2.360000000000000000e+02,1.980000000000000000e+02,3.900000000000000133e-01,6.003847100000000000e+09
7.300000000000000000e+01,2.580000000000000000e+02,4.340000000000000000e+02,6.300000000000000000e+01,4.200000000000000000e+01,2.390000000000000000e+02,2.400000000000000000e+02,1.900000000000000000e+02,4.000000000000000222e-01,6.023389200000000000e+09
7.500000000000000000e+01,2.070000000000000000e+02,4.010000000000000000e+02,6.900000000000000000e+01,3.800000000000000000e+01,3.030000000000000000e+02,2.380000000000000000e+02,1.940000000000000000e+02,4.099999999999999756e-01,6.044838700000000000e+09
6.400000000000000000e+01,1.960000000000000000e+02,3.460000000000000000e+02,6.800000000000000000e+01,3.500000000000000000e+01,3.950000000000000000e+02,2.420000000000000000e+02,2.240000000000000000e+02,4.199999999999999845e-01,6.062915100000000000e+09
5.900000000000000000e+01,2.340000000000000000e+02,4.030000000000000000e+02,7.200000000000000000e+01,3.700000000000000000e+01,4.080000000000000000e+02,2.470000000000000000e+02,2.210000000000000000e+02,4.400000000000000022e-01,6.081988200000000000e+09
6.200000000000000000e+01,2.530000000000000000e+02,3.820000000000000000e+02,6.500000000000000000e+01,3.700000000000000000e+01,3.730000000000000000e+02,2.280000000000000000e+02,2.220000000000000000e+02,4.500000000000000111e-01,6.100756500000000000e+09
7.100000000000000000e+01,2.400000000000000000e+02,3.690000000000000000e+02,6.400000000000000000e+01,3.500000000000000000e+01,3.690000000000000000e+02,2.050000000000000000e+02,2.480000000000000000e+02,4.500000000000000111e-01,6.120932000000000000e+09
6.400000000000000000e+01,2.490000000000000000e+02,3.710000000000000000e+02,5.900000000000000000e+01,3.800000000000000000e+01,3.390000000000000000e+02,2.170000000000000000e+02,2.210000000000000000e+02,4.600000000000000200e-01,6.138972000000000000e+09
6.300000000000000000e+01,2.340000000000000000e+02,4.150000000000000000e+02,5.900000000000000000e+01,3.600000000000000000e+01,2.340000000000000000e+02,2.160000000000000000e+02,1.950000000000000000e+02,4.600000000000000200e-01,6.159313800000000000e+09
6.800000000000000000e+01,2.410000000000000000e+02,4.530000000000000000e+02,6.600000000000000000e+01,3.700000000000000000e+01,2.100000000000000000e+02,2.080000000000000000e+02,1.900000000000000000e+02,4.699999999999999734e-01,6.179061300000000000e+09
6.500000000000000000e+01,2.800000000000000000e+02,5.000000000000000000e+02,6.200000000000000000e+01,3.800000000000000000e+01,2.090000000000000000e+02,2.110000000000000000e+02,2.090000000000000000e+02,4.699999999999999734e-01,6.200217200000000000e+09
5.200000000000000000e+01,2.820000000000000000e+02,4.800000000000000000e+02,6.000000000000000000e+01,3.700000000000000000e+01,2.180000000000000000e+02,2.120000000000000000e+02,1.730000000000000000e+02,4.799999999999999822e-01,6.220103900000000000e+09
4.900000000000000000e+01,2.700000000000000000e+02,4.880000000000000000e+02,6.200000000000000000e+01,4.000000000000000000e+01,1.550000000000000000e+02,1.330000000000000000e+02,1.530000000000000000e+02,4.799999999999999822e-01,6.241160400000000000e+09
4.900000000000000000e+01,2.590000000000000000e+02,4.890000000000000000e+02,6.300000000000000000e+01,4.100000000000000000e+01,1.280000000000000000e+02,1.630000000000000000e+02,1.370000000000000000e+02,4.899999999999999911e-01,6.260427100000000000e+09
4.200000000000000000e+01,2.650000000000000000e+02,4.460000000000000000e+02,5.300000000000000000e+01,4.100000000000000000e+01,1.170000000000000000e+02,1.440000000000000000e+02,1.270000000000000000e+02,4.899999999999999911e-01,6.278985200000000000e+09
3.800000000000000000e+01,2.160000000000000000e+02,4.000000000000000000e+02,5.100000000000000000e+01,3.900000000000000000e+01,1.120000000000000000e+02,1.450000000000000000e+02,7.700000000000000000e+01,4.899999999999999911e-01,6.299018300000000000e+09
4.300000000000000000e+01,2.440000000000000000e+02,4.760000000000000000e+02,6.300000000000000000e+01,4.100000000000000000e+01,8.000000000000000000e+01,1.410000000000000000e+02,5.900000000000000000e+01,5.000000000000000000e-01,6.319569900000000000e+09
4.400000000000000000e+01,2.470000000000000000e+02,4.720000000000000000e+02,6.200000000000000000e+01,3.500000000000000000e+01,7.900000000000000000e+01,1.390000000000000000e+02,4.700000000000000000e+01,5.000000000000000000e-01,6.345307800000000000e+09
5.200000000000000000e+01,2.690000000000000000e+02,5.210000000000000000e+02,9.200000000000000000e+01,3.800000000000000000e+01,6.600000000000000000e+01,7.400000000000000000e+01,4.500000000000000000e+01,5.100000000000000089e-01,6.364242400000000000e+09
5.700000000000000000e+01,2.790000000000000000e+02,6.020000000000000000e+02,1.010000000000000000e+02,4.200000000000000000e+01,6.000000000000000000e+01,6.400000000000000000e+01,4.200000000000000000e+01,5.200000000000000178e-01,6.383223100000000000e+09
5.800000000000000000e+01,2.870000000000000000e+02,5.830000000000000000e+02,1.070000000000000000e+02,4.400000000000000000e+01,6.000000000000000000e+01,4.800000000000000000e+01,3.700000000000000000e+01,5.300000000000000266e-01,6.401388500000000000e+09
5.600000000000000000e+01,2.690000000000000000e+02,5.270000000000000000e+02,1.040000000000000000e+02,4.700000000000000000e+01,6.000000000000000000e+01,4.200000000000000000e+01,2.900000000000000000e+01,5.400000000000000355e-01,6.420648900000000000e+09
5.600000000000000000e+01,2.700000000000000000e+02,5.540000000000000000e+02,1.110000000000000000e+02,4.600000000000000000e+01,5.300000000000000000e+01,3.600000000000000000e+01,3.000000000000000000e+01,5.500000000000000444e-01,6.438972400000000000e+09
4.700000000000000000e+01,2.560000000000000000e+02,4.850000000000000000e+02,8.800000000000000000e+01,4.600000000000000000e+01,4.700000000000000000e+01,3.000000000000000000e+01,2.700000000000000000e+01,5.600000000000000533e-01,6.460815500000000000e+09
4.100000000000000000e+01,1.990000000000000000e+02,3.720000000000000000e+02,7.700000000000000000e+01,3.800000000000000000e+01,4.400000000000000000e+01,2.700000000000000000e+01,2.900000000000000000e+01,5.699999999999999512e-01,6.478979300000000000e+09
4.000000000000000000e+01,1.850000000000000000e+02,3.720000000000000000e+02,6.900000000000000000e+01,3.600000000000000000e+01,4.300000000000000000e+01,2.700000000000000000e+01,2.800000000000000000e+01,5.699999999999999512e-01,6.499200000000000000e+09
4.000000000000000000e+01,1.660000000000000000e+02,3.610000000000000000e+02,6.200000000000000000e+01,3.200000000000000000e+01,3.800000000000000000e+01,2.500000000000000000e+01,2.800000000000000000e+01,5.799999999999999600e-01,6.519606400000000000e+09
4.000000000000000000e+01,1.680000000000000000e+02,3.700000000000000000e+02,5.700000000000000000e+01,3.200000000000000000e+01,3.700000000000000000e+01,2.400000000000000000e+01,8.300000000000000000e+01,5.799999999999999600e-01,6.540185000000000000e+09
4.300000000000000000e+01,1.690000000000000000e+02,3.700000000000000000e+02,6.400000000000000000e+01,2.700000000000000000e+01,4.400000000000000000e+01,2.700000000000000000e+01,9.000000000000000000e+01,5.799999999999999600e-01,6.560621300000000000e+09
5.100000000000000000e+01,2.390000000000000000e+02,3.300000000000000000e+02,6.600000000000000000e+01,3.500000000000000000e+01,1.180000000000000000e+02,2.900000000000000000e+01,1.180000000000000000e+02,5.799999999999999600e-01,6.580420300000000000e+09
5.900000000000000000e+01,2.550000000000000000e+02,3.900000000000000000e+02,7.700000000000000000e+01,3.700000000000000000e+01,1.450000000000000000e+02,3.400000000000000000e+01,1.470000000000000000e+02,5.799999999999999600e-01,6.600716300000000000e+09
6.400000000000000000e+01,2.800000000000000000e+02,4.030000000000000000e+02,8.400000000000000000e+01,4.700000000000000000e+01,2.350000000000000000e+02,3.900000000000000000e+01,1.960000000000000000e+02,5.799999999999999600e-01,6.620164400000000000e+09
6.800000000000000000e+01,2.770000000000000000e+02,3.960000000000000000e+02,8.300000000000000000e+01,5.000000000000000000e+01,2.430000000000000000e+02,4.600000000000000000e+01,1.880000000000000000e+02,5.799999999999999600e-01,6.639997000000000000e+09
6.900000000000000000e+01,2.960000000000000000e+02,4.360000000000000000e+02,8.000000000000000000e+01,5.100000000000000000e+01,2.450000000000000000e+02,4.700000000000000000e+01,1.900000000000000000e+02,5.799999999999999600e-01,6.659547100000000000e+09
6.200000000000000000e+01,2.420000000000000000e+02,5.350000000000000000e+02,8.900000000000000000e+01,5.000000000000000000e+01,2.340000000000000000e+02,5.000000000000000000e+01,1.840000000000000000e+02,5.799999999999999600e-01,6.679764900000000000e+09
5.800000000000000000e+01,2.500000000000000000e+02,4.880000000000000000e+02,8.200000000000000000e+01,5.200000000000000000e+01,2.320000000000000000e+02,4.700000000000000000e+01,1.940000000000000000e+02,5.699999999999999512e-01,6.700079500000000000e+09
6.200000000000000000e+01,2.480000000000000000e+02,4.820000000000000000e+02,8.000000000000000000e+01,4.700000000000000000e+01,1.630000000000000000e+02,4.800000000000000000e+01,1.920000000000000000e+02,5.699999999999999512e-01,6.719785600000000000e+09
5.800000000000000000e+01,2.720000000000000000e+02,4.610000000000000000e+02,7.300000000000000000e+01,4.500000000000000000e+01,1.620000000000000000e+02,4.500000000000000000e+01,2.080000000000000000e+02,5.699999999999999512e-01,6.740388200000000000e+09
5.700000000000000000e+01,2.580000000000000000e+02,4.150000000000000000e+02,6.700000000000000000e+01,4.400000000000000000e+01,1.660000000000000000e+02,4.300000000000000000e+01,2.270000000000000000e+02,5.600000000000000533e-01,6.759476600000000000e+09
5.700000000000000000e+01,2.930000000000000000e+02,3.460000000000000000e+02,5.100000000000000000e+01,4.100000000000000000e+01,1.560000000000000000e+02,4.800000000000000000e+01,2.200000000000000000e+02,5.600000000000000533e-01,6.780034500000000000e+09
5.400000000000000000e+01,3.230000000000000000e+02,3.760000000000000000e+02,5.200000000000000000e+01,4.200000000000000000e+01,1.390000000000000000e+02,4.700000000000000000e+01,1.970000000000000000e+02,5.600000000000000533e-01,6.800498000000000000e+09
4.600000000000000000e+01,3.250000000000000000e+02,4.010000000000000000e+02,5.000000000000000000e+01,3.900000000000000000e+01,1.120000000000000000e+02,4.200000000000000000e+01,1.630000000000000000e+02,5.500000000000000444e-01,6.819585400000000000e+09
4.800000000000000000e+01,3.160000000000000000e+02,3.940000000000000000e+02,5.200000000000000000e+01,5.200000000000000000e+01,2.480000000000000000e+02,4.300000000000000000e+01,2.030000000000000000e+02,5.400000000000000355e-01,6.840925300000000000e+09
4.900000000000000000e+01,3.160000000000000000e+02,4.020000000000000000e+02,5.500000000000000000e+01,5.100000000000000000e+01,2.600000000000000000e+02,4.300000000000000000e+01,1.870000000000000000e+02,5.400000000000000355e-01,6.859140500000000000e+09
5.400000000000000000e+01,3.340000000000000000e+02,3.760000000000000000e+02,6.100000000000000000e+01,5.100000000000000000e+01,2.610000000000000000e+02,3.700000000000000000e+01,1.960000000000000000e+02,5.300000000000000266e-01,6.880033500000000000e+09
5.500000000000000000e+01,2.840000000000000000e+02,4.110000000000000000e+02,6.200000000000000000e+01,4.900000000000000000e+01,2.630000000000000000e+02,3.500000000000000000e+01,2.050000000000000000e+02,5.300000000000000266e-01,6.900851600000000000e+09
5.500000000000000000e+01,2.850000000000000000e+02,4.030000000000000000e+02,5.800000000000000000e+01,4.900000000000000000e+01,2.730000000000000000e+02,3.500000000000000000e+01,2.000000000000000000e+02,5.200000000000000178e-01,6.921227400000000000e+09
5.300000000000000000e+01,3.260000000000000000e+02,4.160000000000000000e+02,6.100000000000000000e+01,3.600000000000000000e+01,1.550000000000000000e+02,3.300000000000000000e+01,1.460000000000000000e+02,5.200000000000000178e-01,6.940580000000000000e+09
5.200000000000000000e+01,3.350000000000000000e+02,4.250000000000000000e+02,6.500000000000000000e+01,3.500000000000000000e+01,1.550000000000000000e+02,4.200000000000000000e+01,1.400000000000000000e+02,5.200000000000000178e-01,6.958397300000000000e+09
4.300000000000000000e+01,3.060000000000000000e+02,4.800000000000000000e+02,6.400000000000000000e+01,3.600000000000000000e+01,1.510000000000000000e+02,3.900000000000000000e+01,1.320000000000000000e+02,5.200000000000000178e-01,6.979824900000000000e+09
4.400000000000000000e+01,3.340000000000000000e+02,4.300000000000000000e+02,6.100000000000000000e+01,3.200000000000000000e+01,1.460000000000000000e+02,4.000000000000000000e+01,1.190000000000000000e+02,5.300000000000000266e-01,7.000023200000000000e+09
3.900000000000000000e+01,3.310000000000000000e+02,4.470000000000000000e+02,6.400000000000000000e+01,2.800000000000000000e+01,1.250000000000000000e+02,4.000000000000000000e+01,1.140000000000000000e+02,5.300000000000000266e-01,7.019822900000000000e+09
4.000000000000000000e+01,2.980000000000000000e+02,5.720000000000000000e+02,6.400000000000000000e+01,2.800000000000000000e+01,1.200000000000000000e+02,4.100000000000000000e+01,1.200000000000000000e+02,5.300000000000000266e-01,7.040228000000000000e+09
4.400000000000000000e+01,3.150000000000000000e+02,6.100000000000000000e+02,5.800000000000000000e+01,3.400000000000000000e+01,8.600000000000000000e+01,3.000000000000000000e+01,1.210000000000000000e+02,5.300000000000000266e-01,7.060155500000000000e+09
4.800000000000000000e+01,3.230000000000000000e+02,5.920000000000000000e+02,6.400000000000000000e+01,3.700000000000000000e+01,8.300000000000000000e+01,3.400000000000000000e+01,1.180000000000000000e+02,5.300000000000000266e-01,7.081297200000000000e+09
5.300000000000000000e+01,2.970000000000000000e+02,5.870000000000000000e+02,6.900000000000000000e+01,4.200000000000000000e+01,1.130000000000000000e+02,3.400000000000000000e+01,1.230000000000000000e+02,5.300000000000000266e-01,7.099485400000000000e+09
6.000000000000000000e+01,3.150000000000000000e+02,5.650000000000000000e+02,6.800000000000000000e+01,4.000000000000000000e+01,1.140000000000000000e+02,3.900000000000000000e+01,1.520000000000000000e+02,5.400000000000000355e-01,7.117682900000000000e+09
6.100000000000000000e+01,3.340000000000000000e+02,4.720000000000000000e+02,6.700000000000000000e+01,4.100000000000000000e+01,1.180000000000000000e+02,3.600000000000000000e+01,1.270000000000000000e+02,5.400000000000000355e-01,7.140270400000000000e+09
6.300000000000000000e+01,3.240000000000000000e+02,4.230000000000000000e+02,7.900000000000000000e+01,4.800000000000000000e+01,1.860000000000000000e+02,4.400000000000000000e+01,1.330000000000000000e+02,5.500000000000000444e-01,7.161580400000000000e+09
5.900000000000000000e+01,2.990000000000000000e+02,3.600000000000000000e+02,7.300000000000000000e+01,4.500000000000000000e+01,2.000000000000000000e+02,4.300000000000000000e+01,1.290000000000000000e+02,5.500000000000000444e-01,7.183146600000000000e+09
5.300000000000000000e+01,3.120000000000000000e+02,4.330000000000000000e+02,6.700000000000000000e+01,4.200000000000000000e+01,1.870000000000000000e+02,4.600000000000000000e+01,1.240000000000000000e+02,5.500000000000000444e-01,7.202918100000000000e+09
4.700000000000000000e+01,2.840000000000000000e+02,4.360000000000000000e+02,7.100000000000000000e+01,4.300000000000000000e+01,1.920000000000000000e+02,4.200000000000000000e+01,1.190000000000000000e+02,5.500000000000000444e-01,7.220953400000000000e+09
5.000000000000000000e+01,2.700000000000000000e+02,4.080000000000000000e+02,7.500000000000000000e+01,4.500000000000000000e+01,2.170000000000000000e+02,4.200000000000000000e+01,1.200000000000000000e+02,5.500000000000000444e-01,7.238858700000000000e+09
4.400000000000000000e+01,2.450000000000000000e+02,3.950000000000000000e+02,7.000000000000000000e+01,3.700000000000000000e+01,1.590000000000000000e+02,3.800000000000000000e+01,1.200000000000000000e+02,5.500000000000000444e-01,7.260320800000000000e+09
4.500000000000000000e+01,2.460000000000000000e+02,3.800000000000000000e+02,6.800000000000000000e+01,4.600000000000000000e+01,1.630000000000000000e+02,3.600000000000000000e+01,1.220000000000000000e+02,5.600000000000000533e-01,7.278608400000000000e+09
4.600000000000000000e+01,2.440000000000000000e+02,2.770000000000000000e+02,6.700000000000000000e+01,4.700000000000000000e+01,2.030000000000000000e+02,3.400000000000000000e+01,1.390000000000000000e+02,5.500000000000000444e-01,7.299754900000000000e+09
4.500000000000000000e+01,2.540000000000000000e+02,3.670000000000000000e+02,6.600000000000000000e+01,5.200000000000000000e+01,2.030000000000000000e+02,3.400000000000000000e+01,1.190000000000000000e+02,5.600000000000000533e-01,7.319953800000000000e+09
4.000000000000000000e+01,2.580000000000000000e+02,4.190000000000000000e+02,7.100000000000000000e+01,5.000000000000000000e+01,1.780000000000000000e+02,3.500000000000000000e+01,1.220000000000000000e+02,5.600000000000000533e-01,7.340429600000000000e+09
4.500000000000000000e+01,2.990000000000000000e+02,4.270000000000000000e+02,7.500000000000000000e+01,5.200000000000000000e+01,1.900000000000000000e+02,3.700000000000000000e+01,1.270000000000000000e+02,5.600000000000000533e-01,7.361165800000000000e+09
4.400000000000000000e+01,2.960000000000000000e+02,4.530000000000000000e+02,7.500000000000000000e+01,4.900000000000000000e+01,2.310000000000000000e+02,4.100000000000000000e+01,1.510000000000000000e+02,5.600000000000000533e-01,7.380399500000000000e+09
4.500000000000000000e+01,2.790000000000000000e+02,4.860000000000000000e+02,8.100000000000000000e+01,5.000000000000000000e+01,1.990000000000000000e+02,4.100000000000000000e+01,1.390000000000000000e+02,5.600000000000000533e-01,7.400169400000000000e+09
4.600000000000000000e+01,2.770000000000000000e+02,4.600000000000000000e+02,8.300000000000000000e+01,4.500000000000000000e+01,1.980000000000000000e+02,4.200000000000000000e+01,1.400000000000000000e+02,5.600000000000000533e-01,7.421095500000000000e+09
4.500000000000000000e+01,2.490000000000000000e+02,4.460000000000000000e+02,7.300000000000000000e+01,4.600000000000000000e+01,1.990000000000000000e+02,4.200000000000000000e+01,1.460000000000000000e+02,5.600000000000000533e-01,7.439999700000000000e+09
4.500000000000000000e+01,2.370000000000000000e+02,4.730000000000000000e+02,6.000000000000000000e+01,4.200000000000000000e+01,2.110000000000000000e+02,4.300000000000000000e+01,1.630000000000000000e+02,5.600000000000000533e-01,7.460796400000000000e+09
4.600000000000000000e+01,2.470000000000000000e+02,4.650000000000000000e+02,5.800000000000000000e+01,3.900000000000000000e+01,1.750000000000000000e+02,4.200000000000000000e+01,1.490000000000000000e+02,5.600000000000000533e-01,7.480585900000000000e+09
4.700000000000000000e+01,2.530000000000000000e+02,5.130000000000000000e+02,5.100000000000000000e+01,4.000000000000000000e+01,1.770000000000000000e+02,4.200000000000000000e+01,1.460000000000000000e+02,5.600000000000000533e-01,7.499399100000000000e+09
5.000000000000000000e+01,2.550000000000000000e+02,5.010000000000000000e+02,4.800000000000000000e+01,4.300000000000000000e+01,1.770000000000000000e+02,4.500000000000000000e+01,1.470000000000000000e+02,5.600000000000000533e-01,7.518490000000000000e+09
4.800000000000000000e+01,2.480000000000000000e+02,4.850000000000000000e+02,5.200000000000000000e+01,4.200000000000000000e+01,1.820000000000000000e+02,4.200000000000000000e+01,1.380000000000000000e+02,5.600000000000000533e-01,7.536767200000000000e+09
4.400000000000000000e+01,2.220000000000000000e+02,4.910000000000000000e+02,5.300000000000000000e+01,4.200000000000000000e+01,1.740000000000000000e+02,3.500000000000000000e+01,1.240000000000000000e+02,5.600000000000000533e-01,7.563815000000000000e+09
4.200000000000000000e+01,2.060000000000000000e+02,5.600000000000000000e+02,5.200000000000000000e+01,4.000000000000000000e+01,1.420000000000000000e+02,3.200000000000000000e+01,1.130000000000000000e+02,5.500000000000000444e-01,7.582553600000000000e+09
4.400000000000000000e+01,2.020000000000000000e+02,4.940000000000000000e+02,6.400000000000000000e+01,4.500000000000000000e+01,1.360000000000000000e+02,3.300000000000000000e+01,1.170000000000000000e+02,5.500000000000000444e-01,7.600954400000000000e+09
4.100000000000000000e+01,1.970000000000000000e+02,5.220000000000000000e+02,6.000000000000000000e+01,4.200000000000000000e+01,1.380000000000000000e+02,3.200000000000000000e+01,1.260000000000000000e+02,5.400000000000000355e-01,7.620916300000000000e+09
4.200000000000000000e+01,1.920000000000000000e+02,5.150000000000000000e+02,5.900000000000000000e+01,4.300000000000000000e+01,1.300000000000000000e+02,3.200000000000000000e+01,1.220000000000000000e+02,5.400000000000000355e-01,7.640992300000000000e+09
4.100000000000000000e+01,1.870000000000000000e+02,4.820000000000000000e+02,6.100000000000000000e+01,4.400000000000000000e+01,1.000000000000000000e+02,3.300000000000000000e+01,1.520000000000000000e+02,5.400000000000000355e-01,7.659413900000000000e+09
4.100000000000000000e+01,2.120000000000000000e+02,5.460000000000000000e+02,6.700000000000000000e+01,4.400000000000000000e+01,1.410000000000000000e+02,3.800000000000000000e+01,1.560000000000000000e+02,5.300000000000000266e-01,7.679690000000000000e+09
4.700000000000000000e+01,2.560000000000000000e+02,5.810000000000000000e+02,6.400000000000000000e+01,3.800000000000000000e+01,1.490000000000000000e+02,3.700000000000000000e+01,1.530000000000000000e+02,5.300000000000000266e-01,7.699875600000000000e+09
4.800000000000000000e+01,2.400000000000000000e+02,5.590000000000000000e+02,6.400000000000000000e+01,3.700000000000000000e+01,1.500000000000000000e+02,3.300000000000000000e+01,1.500000000000000000e+02,5.300000000000000266e-01,7.720866100000000000e+09
6.100000000000000000e+01,2.700000000000000000e+02,5.680000000000000000e+02,6.600000000000000000e+01,3.700000000000000000e+01,1.500000000000000000e+02,3.500000000000000000e+01,1.740000000000000000e+02,5.300000000000000266e-01,7.739457900000000000e+09
6.200000000000000000e+01,2.690000000000000000e+02,6.720000000000000000e+02,7.300000000000000000e+01,3.500000000000000000e+01,1.610000000000000000e+02,3.400000000000000000e+01,1.370000000000000000e+02,5.200000000000000178e-01,7.758652200000000000e+09
6.700000000000000000e+01,2.520000000000000000e+02,5.770000000000000000e+02,7.200000000000000000e+01,3.900000000000000000e+01,1.530000000000000000e+02,3.100000000000000000e+01,1.330000000000000000e+02,5.200000000000000178e-01,7.780134300000000000e+09
6.200000000000000000e+01,2.270000000000000000e+02,5.830000000000000000e+02,7.100000000000000000e+01,3.800000000000000000e+01,1.440000000000000000e+02,2.800000000000000000e+01,1.290000000000000000e+02,5.200000000000000178e-01,7.800688800000000000e+09
6.500000000000000000e+01,2.870000000000000000e+02,6.610000000000000000e+02,8.000000000000000000e+01,4.100000000000000000e+01,1.400000000000000000e+02,2.800000000000000000e+01,1.180000000000000000e+02,5.200000000000000178e-01,7.820903600000000000e+09
5.600000000000000000e+01,2.560000000000000000e+02,6.580000000000000000e+02,8.100000000000000000e+01,4.000000000000000000e+01,1.350000000000000000e+02,2.800000000000000000e+01,8.800000000000000000e+01,5.200000000000000178e-01,7.841032500000000000e+09
6.100000000000000000e+01,3.380000000000000000e+02,6.480000000000000000e+02,8.200000000000000000e+01,4.100000000000000000e+01,1.290000000000000000e+02,3.300000000000000000e+01,7.700000000000000000e+01,5.300000000000000266e-01,7.860727300000000000e+09
5.600000000000000000e+01,3.470000000000000000e+02,7.640000000000000000e+02,9.700000000000000000e+01,3.900000000000000000e+01,9.400000000000000000e+01,3.100000000000000000e+01,7.000000000000000000e+01,5.300000000000000266e-01,7.878755200000000000e+09
5.900000000000000000e+01,3.740000000000000000e+02,8.300000000000000000e+02,1.620000000000000000e+02,5.000000000000000000e+01,9.100000000000000000e+01,3.300000000000000000e+01,6.800000000000000000e+01,5.200000000000000178e-01,7.898842700000000000e+09
6.100000000000000000e+01,3.720000000000000000e+02,8.380000000000000000e+02,1.710000000000000000e+02,5.600000000000000000e+01,8.600000000000000000e+01,3.400000000000000000e+01,6.500000000000000000e+01,5.200000000000000178e-01,7.919076300000000000e+09
6.100000000000000000e+01,3.940000000000000000e+02,8.740000000000000000e+02,1.890000000000000000e+02,6.300000000000000000e+01,8.300000000000000000e+01,3.500000000000000000e+01,5.000000000000000000e+01,5.100000000000000089e-01,7.940127300000000000e+09
6.000000000000000000e+01,3.880000000000000000e+02,8.630000000000000000e+02,2.040000000000000000e+02,9.400000000000000000e+01,7.800000000000000000e+01,3.400000000000000000e+01,4.100000000000000000e+01,5.000000000000000000e-01,7.959926600000000000e+09
8.500000000000000000e+01,4.610000000000000000e+02,8.960000000000000000e+02,2.410000000000000000e+02,1.080000000000000000e+02,8.200000000000000000e+01,3.700000000000000000e+01,5.200000000000000000e+01,4.799999999999999822e-01,7.980375700000000000e+09
1.180000000000000000e+02,4.980000000000000000e+02,9.100000000000000000e+02,2.710000000000000000e+02,1.080000000000000000e+02,8.000000000000000000e+01,4.200000000000000000e+01,6.100000000000000000e+01,4.600000000000000200e-01,8.000578600000000000e+09
1.430000000000000000e+02,5.490000000000000000e+02,9.340000000000000000e+02,2.730000000000000000e+02,1.360000000000000000e+02,8.800000000000000000e+01,4.500000000000000000e+01,6.900000000000000000e+01,4.400000000000000022e-01,8.021281900000000000e+09
1.800000000000000000e+02,6.510000000000000000e+02,9.550000000000000000e+02,2.880000000000000000e+02,1.780000000000000000e+02,9.700000000000000000e+01,5.800000000000000000e+01,8.400000000000000000e+01,4.099999999999999756e-01,8.039188700000000000e+09
2.000000000000000000e+02,7.870000000000000000e+02,1.028000000000000000e+03,2.970000000000000000e+02,2.060000000000000000e+02,1.040000000000000000e+02,6.200000000000000000e+01,9.000000000000000000e+01,3.800000000000000044e-01,8.059137400000000000e+09
2.460000000000000000e+02,8.950000000000000000e+02,1.104000000000000000e+03,4.400000000000000000e+02,2.480000000000000000e+02,1.260000000000000000e+02,7.900000000000000000e+01,1.080000000000000000e+02,3.499999999999999778e-01,8.079337500000000000e+09
2.500000000000000000e+02,9.600000000000000000e+02,1.068000000000000000e+03,4.590000000000000000e+02,2.640000000000000000e+02,1.320000000000000000e+02,8.200000000000000000e+01,1.110000000000000000e+02,3.099999999999999978e-01,8.099386300000000000e+09
2.780000000000000000e+02,1.094000000000000000e+03,1.183000000000000000e+03,5.240000000000000000e+02,2.650000000000000000e+02,1.390000000000000000e+02,9.100000000000000000e+01,1.200000000000000000e+02,2.800000000000000266e-01,8.119547400000000000e+09
2.860000000000000000e+02,1.175000000000000000e+03,1.280000000000000000e+03,5.420000000000000000e+02,2.670000000000000000e+02,1.420000000000000000e+02,9.200000000000000000e+01,1.240000000000000000e+02,2.500000000000000000e-01,8.139677800000000000e+09
2.770000000000000000e+02,1.154000000000000000e+03,1.271000000000000000e+03,5.650000000000000000e+02,2.520000000000000000e+02,1.420000000000000000e+02,9.200000000000000000e+01,1.200000000000000000e+02,2.200000000000000011e-01,8.159757800000000000e+09
2.670000000000000000e+02,1.149000000000000000e+03,1.271000000000000000e+03,4.720000000000000000e+02,2.300000000000000000e+02,1.370000000000000000e+02,8.900000000000000000e+01,1.170000000000000000e+02,2.000000000000000111e-01,8.180831300000000000e+09
2.670000000000000000e+02,1.105000000000000000e+03,1.411000000000000000e+03,4.430000000000000000e+02,2.250000000000000000e+02,1.330000000000000000e+02,9.000000000000000000e+01,1.180000000000000000e+02,1.799999999999999933e-01,8.200754700000000000e+09
2.330000000000000000e+02,1.013000000000000000e+03,1.304000000000000000e+03,4.500000000000000000e+02,2.160000000000000000e+02,1.280000000000000000e+02,8.200000000000000000e+01,1.100000000000000000e+02,1.600000000000000033e-01,8.219481500000000000e+09
2.400000000000000000e+02,9.390000000000000000e+02,1.237000000000000000e+03,4.450000000000000000e+02,2.060000000000000000e+02,1.280000000000000000e+02,8.100000000000000000e+01,1.130000000000000000e+02,1.499999999999999944e-01,8.239827100000000000e+09
2.700000000000000000e+02,9.060000000000000000e+02,1.280000000000000000e+03,4.470000000000000000e+02,2.130000000000000000e+02,1.300000000000000000e+02,8.600000000000000000e+01,1.260000000000000000e+02,1.300000000000000044e-01,8.259667500000000000e+09
2.780000000000000000e+02,8.740000000000000000e+02,1.211000000000000000e+03,5.000000000000000000e+02,2.470000000000000000e+02,1.370000000000000000e+02,8.900000000000000000e+01,1.280000000000000000e+02,1.199999999999999956e-01,8.279908500000000000e+09
2.970000000000000000e+02,8.860000000000000000e+02,1.114000000000000000e+03,5.730000000000000000e+02,2.660000000000000000e+02,1.470000000000000000e+02,9.400000000000000000e+01,1.350000000000000000e+02,1.100000000000000006e-01,8.299815600000000000e+09
3.340000000000000000e+02,8.610000000000000000e+02,1.135000000000000000e+03,6.180000000000000000e+02,3.090000000000000000e+02,1.580000000000000000e+02,1.120000000000000000e+02,1.560000000000000000e+02,1.000000000000000056e-01,8.319680500000000000e+09
3.200000000000000000e+02,9.260000000000000000e+02,1.177000000000000000e+03,6.720000000000000000e+02,3.110000000000000000e+02,1.560000000000000000e+02,1.120000000000000000e+02,1.520000000000000000e+02,8.999999999999999667e-02,8.340054800000000000e+09
2.950000000000000000e+02,9.240000000000000000e+02,1.141000000000000000e+03,6.590000000000000000e+02,2.990000000000000000e+02,1.470000000000000000e+02,1.070000000000000000e+02,1.420000000000000000e+02,8.000000000000000167e-02,8.360497400000000000e+09
2.640000000000000000e+02,9.110000000000000000e+02,1.126000000000000000e+03,6.180000000000000000e+02,2.570000000000000000e+02,1.290000000000000000e+02,9.600000000000000000e+01,1.280000000000000000e+02,7.000000000000000666e-02,8.380595600000000000e+09
2.530000000000000000e+02,9.080000000000000000e+02,1.128000000000000000e+03,5.850000000000000000e+02,2.470000000000000000e+02,1.250000000000000000e+02,9.400000000000000000e+01,1.250000000000000000e+02,5.999999999999999778e-02,8.400115700000000000e+09
2.140000000000000000e+02,9.260000000000000000e+02,1.198000000000000000e+03,5.200000000000000000e+02,2.220000000000000000e+02,1.280000000000000000e+02,8.200000000000000000e+01,1.090000000000000000e+02,5.999999999999999778e-02,8.419608300000000000e+09
2.380000000000000000e+02,9.670000000000000000e+02,1.256000000000000000e+03,4.700000000000000000e+02,2.300000000000000000e+02,1.230000000000000000e+02,8.600000000000000000e+01,1.160000000000000000e+02,5.000000000000000278e-02,8.440695500000000000e+09
2.510000000000000000e+02,1.018000000000000000e+03,1.238000000000000000e+03,5.630000000000000000e+02,2.420000000000000000e+02,1.310000000000000000e+02,8.800000000000000000e+01,1.210000000000000000e+02,5.000000000000000278e-02,8.460971300000000000e+09
2.800000000000000000e+02,1.049000000000000000e+03,1.337000000000000000e+03,6.350000000000000000e+02,2.570000000000000000e+02,1.360000000000000000e+02,9.700000000000000000e+01,1.360000000000000000e+02,4.000000000000000083e-02,8.481546600000000000e+09
2.780000000000000000e+02,1.022000000000000000e+03,1.286000000000000000e+03,6.150000000000000000e+02,2.550000000000000000e+02,1.410000000000000000e+02,9.500000000000000000e+01,1.330000000000000000e+02,2.999999999999999889e-02,8.500395200000000000e+09
2.630000000000000000e+02,9.930000000000000000e+02,1.204000000000000000e+03,5.930000000000000000e+02,2.260000000000000000e+02,1.200000000000000000e+02,8.400000000000000000e+01,1.200000000000000000e+02,2.999999999999999889e-02,8.519753900000000000e+09
2.340000000000000000e+02,8.810000000000000000e+02,1.105000000000000000e+03,5.960000000000000000e+02,1.980000000000000000e+02,1.220000000000000000e+02,7.300000000000000000e+01,1.060000000000000000e+02,2.999999999999999889e-02,8.540860200000000000e+09
2.990000000000000000e+02,9.270000000000000000e+02,1.173000000000000000e+03,6.150000000000000000e+02,2.410000000000000000e+02,1.390000000000000000e+02,8.800000000000000000e+01,1.350000000000000000e+02,2.999999999999999889e-02,8.559606000000000000e+09
3.080000000000000000e+02,8.790000000000000000e+02,1.079000000000000000e+03,5.810000000000000000e+02,2.550000000000000000e+02,1.440000000000000000e+02,9.100000000000000000e+01,1.390000000000000000e+02,2.999999999999999889e-02,8.580071900000000000e+09
2.950000000000000000e+02,8.720000000000000000e+02,1.153000000000000000e+03,5.610000000000000000e+02,2.500000000000000000e+02,1.400000000000000000e+02,8.900000000000000000e+01,1.370000000000000000e+02,2.999999999999999889e-02,8.599899200000000000e+09
3.060000000000000000e+02,8.520000000000000000e+02,1.216000000000000000e+03,5.750000000000000000e+02,2.600000000000000000e+02,1.450000000000000000e+02,9.600000000000000000e+01,1.460000000000000000e+02,2.000000000000000042e-02,8.620086700000000000e+09
3.220000000000000000e+02,8.200000000000000000e+02,1.177000000000000000e+03,5.990000000000000000e+02,2.600000000000000000e+02,1.440000000000000000e+02,9.900000000000000000e+01,1.520000000000000000e+02,2.000000000000000042e-02,8.639239600000000000e+09
2.660000000000000000e+02,7.200000000000000000e+02,1.081000000000000000e+03,5.570000000000000000e+02,2.110000000000000000e+02,1.210000000000000000e+02,8.700000000000000000e+01,1.250000000000000000e+02,2.000000000000000042e-02,8.659779400000000000e+09
2.540000000000000000e+02,7.800000000000000000e+02,1.078000000000000000e+03,5.690000000000000000e+02,1.860000000000000000e+02,1.080000000000000000e+02,7.900000000000000000e+01,1.120000000000000000e+02,2.000000000000000042e-02,8.679341200000000000e+09
2.600000000000000000e+02,7.880000000000000000e+02,1.027000000000000000e+03,6.170000000000000000e+02,1.920000000000000000e+02,1.130000000000000000e+02,7.900000000000000000e+01,1.170000000000000000e+02,2.000000000000000042e-02,8.699935800000000000e+09
2.740000000000000000e+02,8.240000000000000000e+02,1.059000000000000000e+03,6.520000000000000000e+02,2.230000000000000000e+02,1.230000000000000000e+02,9.000000000000000000e+01,1.300000000000000000e+02,2.000000000000000042e-02,8.719503100000000000e+09
2.580000000000000000e+02,7.960000000000000000e+02,1.130000000000000000e+03,6.350000000000000000e+02,2.300000000000000000e+02,1.300000000000000000e+02,9.000000000000000000e+01,1.260000000000000000e+02,2.000000000000000042e-02,8.739630000000000000e+09
2.530000000000000000e+02,7.570000000000000000e+02,1.247000000000000000e+03,6.160000000000000000e+02,2.420000000000000000e+02,1.350000000000000000e+02,8.900000000000000000e+01,1.270000000000000000e+02,2.000000000000000042e-02,8.758298400000000000e+09
2.400000000000000000e+02,6.460000000000000000e+02,1.244000000000000000e+03,5.930000000000000000e+02,2.540000000000000000e+02,1.410000000000000000e+02,9.300000000000000000e+01,1.310000000000000000e+02,2.000000000000000042e-02,8.780172100000000000e+09
2.260000000000000000e+02,6.490000000000000000e+02,1.291000000000000000e+03,5.570000000000000000e+02,2.360000000000000000e+02,1.290000000000000000e+02,8.900000000000000000e+01,1.210000000000000000e+02,2.000000000000000042e-02,8.799671600000000000e+09
1.920000000000000000e+02,5.640000000000000000e+02,1.254000000000000000e+03,4.750000000000000000e+02,1.890000000000000000e+02,1.170000000000000000e+02,7.000000000000000000e+01,9.800000000000000000e+01,2.000000000000000042e-02,8.818452600000000000e+09
1.840000000000000000e+02,5.320000000000000000e+02,1.214000000000000000e+03,4.150000000000000000e+02,1.740000000000000000e+02,1.080000000000000000e+02,6.700000000000000000e+01,9.100000000000000000e+01,2.999999999999999889e-02,8.838439700000000000e+09
1.770000000000000000e+02,4.970000000000000000e+02,1.061000000000000000e+03,3.330000000000000000e+02,1.530000000000000000e+02,1.010000000000000000e+02,6.500000000000000000e+01,1.060000000000000000e+02,2.999999999999999889e-02,8.858678000000000000e+09
1.470000000000000000e+02,4.570000000000000000e+02,1.006000000000000000e+03,2.500000000000000000e+02,1.100000000000000000e+02,1.970000000000000000e+02,6.500000000000000000e+01,2.200000000000000000e+02,4.000000000000000083e-02,8.879675400000000000e+09
1.500000000000000000e+02,4.050000000000000000e+02,8.850000000000000000e+02,1.880000000000000000e+02,1.160000000000000000e+02,3.970000000000000000e+02,1.720000000000000000e+02,3.810000000000000000e+02,5.000000000000000278e-02,8.899727800000000000e+09
1.420000000000000000e+02,3.940000000000000000e+02,7.380000000000000000e+02,1.730000000000000000e+02,1.380000000000000000e+02,5.150000000000000000e+02,3.260000000000000000e+02,4.920000000000000000e+02,5.999999999999999778e-02,8.920811700000000000e+09
1.390000000000000000e+02,3.600000000000000000e+02,6.060000000000000000e+02,1.530000000000000000e+02,1.440000000000000000e+02,6.430000000000000000e+02,4.550000000000000000e+02,6.160000000000000000e+02,7.000000000000000666e-02,8.942494800000000000e+09
1.340000000000000000e+02,2.700000000000000000e+02,6.940000000000000000e+02,1.280000000000000000e+02,1.470000000000000000e+02,7.800000000000000000e+02,5.320000000000000000e+02,7.100000000000000000e+02,8.000000000000000167e-02,8.961067400000000000e+09
1.310000000000000000e+02,2.410000000000000000e+02,6.680000000000000000e+02,1.030000000000000000e+02,1.530000000000000000e+02,8.680000000000000000e+02,6.760000000000000000e+02,8.300000000000000000e+02,1.000000000000000056e-01,8.979647000000000000e+09
1.420000000000000000e+02,2.870000000000000000e+02,6.820000000000000000e+02,1.140000000000000000e+02,1.650000000000000000e+02,9.860000000000000000e+02,7.310000000000000000e+02,8.910000000000000000e+02,1.100000000000000006e-01,9.000346000000000000e+09
1.510000000000000000e+02,2.920000000000000000e+02,6.520000000000000000e+02,1.060000000000000000e+02,1.620000000000000000e+02,9.680000000000000000e+02,7.930000000000000000e+02,9.430000000000000000e+02,1.199999999999999956e-01,9.020249500000000000e+09
1.680000000000000000e+02,2.940000000000000000e+02,6.670000000000000000e+02,1.030000000000000000e+02,1.730000000000000000e+02,1.028000000000000000e+03,9.110000000000000000e+02,9.300000000000000000e+02,1.400000000000000133e-01,9.040790700000000000e+09
1.550000000000000000e+02,3.180000000000000000e+02,5.080000000000000000e+02,9.300000000000000000e+01,1.630000000000000000e+02,1.028000000000000000e+03,9.340000000000000000e+02,9.760000000000000000e+02,1.700000000000000122e-01,9.061061500000000000e+09
1.740000000000000000e+02,4.000000000000000000e+02,4.930000000000000000e+02,9.000000000000000000e+01,1.560000000000000000e+02,9.880000000000000000e+02,9.400000000000000000e+02,9.530000000000000000e+02,2.000000000000000111e-01,9.079797700000000000e+09
1.590000000000000000e+02,3.930000000000000000e+02,4.010000000000000000e+02,7.400000000000000000e+01,1.340000000000000000e+02,8.730000000000000000e+02,9.940000000000000000e+02,8.700000000000000000e+02,2.300000000000000100e-01,9.100277400000000000e+09
1.600000000000000000e+02,4.160000000000000000e+02,4.260000000000000000e+02,7.600000000000000000e+01,1.250000000000000000e+02,9.540000000000000000e+02,9.470000000000000000e+02,8.130000000000000000e+02,2.600000000000000089e-01,9.120804600000000000e+09
1.480000000000000000e+02,4.380000000000000000e+02,4.860000000000000000e+02,7.800000000000000000e+01,1.020000000000000000e+02,8.600000000000000000e+02,8.430000000000000000e+02,9.110000000000000000e+02,2.899999999999999800e-01,9.140159100000000000e+09
1.600000000000000000e+02,4.470000000000000000e+02,4.720000000000000000e+02,8.300000000000000000e+01,9.800000000000000000e+01,8.010000000000000000e+02,8.680000000000000000e+02,8.170000000000000000e+02,3.200000000000000067e-01,9.158934500000000000e+09
1.360000000000000000e+02,3.660000000000000000e+02,4.030000000000000000e+02,9.500000000000000000e+01,9.100000000000000000e+01,7.790000000000000000e+02,7.990000000000000000e+02,7.280000000000000000e+02,3.400000000000000244e-01,9.179137700000000000e+09
1.450000000000000000e+02,3.490000000000000000e+02,4.020000000000000000e+02,1.080000000000000000e+02,9.200000000000000000e+01,7.040000000000000000e+02,6.820000000000000000e+02,7.170000000000000000e+02,3.599999999999999867e-01,9.199482200000000000e+09
1.360000000000000000e+02,3.480000000000000000e+02,4.490000000000000000e+02,1.160000000000000000e+02,7.700000000000000000e+01,5.910000000000000000e+02,6.570000000000000000e+02,6.790000000000000000e+02,3.800000000000000044e-01,9.219583100000000000e+09
1.200000000000000000e+02,3.190000000000000000e+02,3.880000000000000000e+02,1.120000000000000000e+02,6.700000000000000000e+01,5.430000000000000000e+02,6.130000000000000000e+02,5.060000000000000000e+02,3.900000000000000133e-01,9.239877300000000000e+09
1.090000000000000000e+02,2.940000000000000000e+02,4.300000000000000000e+02,1.100000000000000000e+02,7.600000000000000000e+01,4.630000000000000000e+02,4.900000000000000000e+02,5.210000000000000000e+02,4.099999999999999756e-01,9.260985700000000000e+09
1.280000000000000000e+02,3.570000000000000000e+02,4.560000000000000000e+02,9.500000000000000000e+01,7.300000000000000000e+01,4.120000000000000000e+02,4.360000000000000000e+02,5.880000000000000000e+02,4.099999999999999756e-01,9.279642200000000000e+09
1.160000000000000000e+02,3.830000000000000000e+02,5.650000000000000000e+02,8.100000000000000000e+01,6.800000000000000000e+01,4.100000000000000000e+02,4.580000000000000000e+02,5.930000000000000000e+02,4.000000000000000222e-01,9.299736200000000000e+09
1.250000000000000000e+02,3.560000000000000000e+02,5.280000000000000000e+02,7.700000000000000000e+01,6.700000000000000000e+01,3.430000000000000000e+02,4.270000000000000000e+02,6.240000000000000000e+02,4.000000000000000222e-01,9.319412000000000000e+09
1.190000000000000000e+02,3.640000000000000000e+02,5.100000000000000000e+02,7.700000000000000000e+01,6.100000000000000000e+01,2.940000000000000000e+02,3.730000000000000000e+02,5.690000000000000000e+02,3.900000000000000133e-01,9.339866100000000000e+09
1.240000000000000000e+02,3.470000000000000000e+02,5.560000000000000000e+02,8.000000000000000000e+01,5.300000000000000000e+01,3.110000000000000000e+02,4.160000000000000000e+02,5.480000000000000000e+02,3.800000000000000044e-01,9.360921400000000000e+09
1.050000000000000000e+02,2.660000000000000000e+02,5.810000000000000000e+02,8.600000000000000000e+01,5.200000000000000000e+01,3.260000000000000000e+02,4.220000000000000000e+02,4.490000000000000000e+02,3.699999999999999956e-01,9.379874900000000000e+09
1.010000000000000000e+02,2.120000000000000000e+02,4.830000000000000000e+02,8.400000000000000000e+01,5.100000000000000000e+01,3.240000000000000000e+02,4.200000000000000000e+02,4.610000000000000000e+02,3.599999999999999867e-01,9.400871900000000000e+09
8.800000000000000000e+01,2.410000000000000000e+02,4.680000000000000000e+02,8.200000000000000000e+01,5.400000000000000000e+01,3.150000000000000000e+02,4.180000000000000000e+02,3.970000000000000000e+02,3.599999999999999867e-01,9.418734700000000000e+09
8.600000000000000000e+01,2.220000000000000000e+02,4.610000000000000000e+02,7.900000000000000000e+01,5.600000000000000000e+01,3.220000000000000000e+02,4.200000000000000000e+02,3.920000000000000000e+02,3.599999999999999867e-01,9.438717400000000000e+09
6.900000000000000000e+01,2.270000000000000000e+02,3.910000000000000000e+02,7.800000000000000000e+01,4.800000000000000000e+01,2.770000000000000000e+02,3.470000000000000000e+02,3.340000000000000000e+02,3.599999999999999867e-01,9.459442900000000000e+09
5.900000000000000000e+01,2.470000000000000000e+02,3.520000000000000000e+02,7.200000000000000000e+01,4.800000000000000000e+01,2.390000000000000000e+02,3.240000000000000000e+02,3.380000000000000000e+02,3.599999999999999867e-01,9.479389800000000000e+09
6.100000000000000000e+01,2.620000000000000000e+02,3.290000000000000000e+02,6.900000000000000000e+01,4.900000000000000000e+01,2.300000000000000000e+02,2.680000000000000000e+02,2.790000000000000000e+02,3.699999999999999956e-01,9.498479500000000000e+09
5.200000000000000000e+01,2.520000000000000000e+02,3.500000000000000000e+02,6.200000000000000000e+01,5.200000000000000000e+01,2.620000000000000000e+02,2.940000000000000000e+02,2.390000000000000000e+02,3.699999999999999956e-01,9.520156600000000000e+09
5.800000000000000000e+01,2.820000000000000000e+02,3.810000000000000000e+02,7.100000000000000000e+01,5.200000000000000000e+01,2.530000000000000000e+02,2.770000000000000000e+02,2.260000000000000000e+02,3.699999999999999956e-01,9.538111700000000000e+09
6.100000000000000000e+01,2.920000000000000000e+02,4.100000000000000000e+02,7.000000000000000000e+01,5.400000000000000000e+01,2.480000000000000000e+02,2.750000000000000000e+02,2.500000000000000000e+02,3.699999999999999956e-01,9.559056300000000000e+09
6.100000000000000000e+01,2.780000000000000000e+02,4.000000000000000000e+02,6.500000000000000000e+01,5.000000000000000000e+01,2.520000000000000000e+02,2.850000000000000000e+02,2.400000000000000000e+02,3.800000000000000044e-01,9.578368200000000000e+09
6.200000000000000000e+01,2.550000000000000000e+02,4.610000000000000000e+02,7.200000000000000000e+01,4.600000000000000000e+01,2.900000000000000000e+02,2.830000000000000000e+02,2.240000000000000000e+02,3.800000000000000044e-01,9.596630300000000000e+09
6.200000000000000000e+01,2.330000000000000000e+02,4.360000000000000000e+02,7.400000000000000000e+01,3.900000000000000000e+01,2.250000000000000000e+02,2.260000000000000000e+02,2.190000000000000000e+02,3.900000000000000133e-01,9.621076400000000000e+09
5.900000000000000000e+01,2.450000000000000000e+02,4.970000000000000000e+02,7.100000000000000000e+01,3.900000000000000000e+01,2.120000000000000000e+02,2.130000000000000000e+02,2.300000000000000000e+02,3.900000000000000133e-01,9.641041800000000000e+09
6.300000000000000000e+01,3.230000000000000000e+02,5.380000000000000000e+02,7.500000000000000000e+01,3.600000000000000000e+01,2.160000000000000000e+02,2.090000000000000000e+02,2.100000000000000000e+02,4.000000000000000222e-01,9.661680000000000000e+09
6.200000000000000000e+01,3.180000000000000000e+02,5.160000000000000000e+02,8.200000000000000000e+01,4.000000000000000000e+01,2.170000000000000000e+02,1.660000000000000000e+02,1.710000000000000000e+02,4.099999999999999756e-01,9.680946800000000000e+09
5.100000000000000000e+01,3.140000000000000000e+02,4.870000000000000000e+02,7.400000000000000000e+01,4.000000000000000000e+01,1.440000000000000000e+02,1.070000000000000000e+02,1.500000000000000000e+02,4.199999999999999845e-01,9.702372400000000000e+09
5.100000000000000000e+01,3.130000000000000000e+02,4.920000000000000000e+02,7.400000000000000000e+01,3.900000000000000000e+01,1.580000000000000000e+02,9.100000000000000000e+01,1.340000000000000000e+02,4.299999999999999933e-01,9.722145400000000000e+09
5.400000000000000000e+01,2.970000000000000000e+02,4.610000000000000000e+02,7.900000000000000000e+01,3.900000000000000000e+01,1.460000000000000000e+02,7.200000000000000000e+01,9.900000000000000000e+01,4.500000000000000111e-01,9.746197500000000000e+09
5.100000000000000000e+01,2.030000000000000000e+02,3.920000000000000000e+02,8.700000000000000000e+01,4.100000000000000000e+01,1.390000000000000000e+02,5.400000000000000000e+01,6.800000000000000000e+01,4.600000000000000200e-01,9.764936800000000000e+09
4.900000000000000000e+01,2.170000000000000000e+02,4.970000000000000000e+02,9.000000000000000000e+01,4.000000000000000000e+01,1.090000000000000000e+02,4.700000000000000000e+01,5.200000000000000000e+01,4.799999999999999822e-01,9.782817700000000000e+09
5.500000000000000000e+01,2.350000000000000000e+02,4.840000000000000000e+02,9.800000000000000000e+01,4.500000000000000000e+01,1.260000000000000000e+02,4.400000000000000000e+01,1.010000000000000000e+02,4.899999999999999911e-01,9.803013400000000000e+09
5.500000000000000000e+01,2.620000000000000000e+02,4.850000000000000000e+02,9.800000000000000000e+01,4.700000000000000000e+01,1.060000000000000000e+02,3.900000000000000000e+01,1.060000000000000000e+02,5.000000000000000000e-01,9.821835100000000000e+09
5.100000000000000000e+01,2.350000000000000000e+02,4.930000000000000000e+02,9.500000000000000000e+01,5.000000000000000000e+01,1.030000000000000000e+02,3.500000000000000000e+01,1.090000000000000000e+02,5.200000000000000178e-01,9.840268700000000000e+09
4.600000000000000000e+01,2.240000000000000000e+02,5.000000000000000000e+02,7.900000000000000000e+01,4.800000000000000000e+01,1.380000000000000000e+02,3.700000000000000000e+01,1.110000000000000000e+02,5.300000000000000266e-01,9.861749600000000000e+09
4.800000000000000000e+01,2.260000000000000000e+02,4.810000000000000000e+02,7.000000000000000000e+01,4.800000000000000000e+01,1.570000000000000000e+02,3.800000000000000000e+01,1.100000000000000000e+02,5.400000000000000355e-01,9.881098900000000000e+09
4.200000000000000000e+01,2.120000000000000000e+02,5.320000000000000000e+02,5.900000000000000000e+01,4.200000000000000000e+01,1.470000000000000000e+02,4.000000000000000000e+01,6.500000000000000000e+01,5.400000000000000355e-01,9.900643800000000000e+09
4.400000000000000000e+01,1.760000000000000000e+02,5.330000000000000000e+02,6.200000000000000000e+01,4.000000000000000000e+01,1.450000000000000000e+02,4.000000000000000000e+01,1.100000000000000000e+02,5.400000000000000355e-01,9.920938600000000000e+09
4.900000000000000000e+01,1.920000000000000000e+02,5.070000000000000000e+02,6.200000000000000000e+01,3.400000000000000000e+01,1.420000000000000000e+02,4.100000000000000000e+01,1.150000000000000000e+02,5.500000000000000444e-01,9.938797300000000000e+09
5.400000000000000000e+01,2.050000000000000000e+02,4.980000000000000000e+02,6.600000000000000000e+01,3.800000000000000000e+01,1.100000000000000000e+02,4.200000000000000000e+01,1.170000000000000000e+02,5.500000000000000444e-01,9.959406300000000000e+09
5.200000000000000000e+01,1.950000000000000000e+02,4.690000000000000000e+02,6.200000000000000000e+01,4.200000000000000000e+01,8.300000000000000000e+01,4.200000000000000000e+01,1.180000000000000000e+02,5.400000000000000355e-01,9.980390900000000000e+09
5.000000000000000000e+01,1.840000000000000000e+02,4.160000000000000000e+02,5.900000000000000000e+01,4.100000000000000000e+01,1.120000000000000000e+02,3.400000000000000000e+01,1.510000000000000000e+02,5.400000000000000355e-01,1.000055500000000000e+10
5.600000000000000000e+01,2.330000000000000000e+02,4.420000000000000000e+02,7.100000000000000000e+01,5.000000000000000000e+01,1.200000000000000000e+02,4.200000000000000000e+01,1.310000000000000000e+02,5.400000000000000355e-01,1.001844910000000000e+10
4.900000000000000000e+01,2.290000000000000000e+02,4.430000000000000000e+02,6.400000000000000000e+01,4.900000000000000000e+01,1.210000000000000000e+02,4.000000000000000000e+01,1.260000000000000000e+02,5.400000000000000355e-01,1.003944550000000000e+10
4.200000000000000000e+01,2.200000000000000000e+02,4.590000000000000000e+02,6.100000000000000000e+01,4.600000000000000000e+01,1.200000000000000000e+02,3.700000000000000000e+01,1.230000000000000000e+02,5.400000000000000355e-01,1.006002440000000000e+10
4.900000000000000000e+01,2.460000000000000000e+02,4.730000000000000000e+02,8.700000000000000000e+01,4.400000000000000000e+01,1.190000000000000000e+02,3.500000000000000000e+01,1.270000000000000000e+02,5.400000000000000355e-01,1.008027570000000000e+10
5.300000000000000000e+01,2.630000000000000000e+02,4.910000000000000000e+02,9.000000000000000000e+01,4.800000000000000000e+01,8.500000000000000000e+01,3.500000000000000000e+01,8.400000000000000000e+01,5.400000000000000355e-01,1.009998660000000000e+10
5.200000000000000000e+01,2.510000000000000000e+02,5.250000000000000000e+02,8.700000000000000000e+01,3.900000000000000000e+01,7.200000000000000000e+01,2.500000000000000000e+01,6.400000000000000000e+01,5.500000000000000444e-01,1.011977230000000000e+10
5.500000000000000000e+01,2.540000000000000000e+02,5.690000000000000000e+02,9.800000000000000000e+01,3.900000000000000000e+01,6.900000000000000000e+01,2.600000000000000000e+01,5.600000000000000000e+01,5.500000000000000444e-01,1.013945780000000000e+10
5.800000000000000000e+01,2.600000000000000000e+02,5.650000000000000000e+02,1.160000000000000000e+02,4.100000000000000000e+01,9.700000000000000000e+01,2.900000000000000000e+01,5.500000000000000000e+01,5.600000000000000533e-01,1.016043040000000000e+10
7.100000000000000000e+01,3.160000000000000000e+02,5.610000000000000000e+02,1.130000000000000000e+02,4.900000000000000000e+01,1.120000000000000000e+02,3.600000000000000000e+01,5.200000000000000000e+01,5.600000000000000533e-01,1.017982690000000000e+10
6.900000000000000000e+01,3.020000000000000000e+02,5.610000000000000000e+02,1.130000000000000000e+02,4.300000000000000000e+01,1.150000000000000000e+02,3.700000000000000000e+01,4.900000000000000000e+01,5.699999999999999512e-01,1.019980250000000000e+10
6.400000000000000000e+01,2.750000000000000000e+02,5.010000000000000000e+02,1.110000000000000000e+02,4.700000000000000000e+01,1.120000000000000000e+02,3.600000000000000000e+01,4.800000000000000000e+01,5.799999999999999600e-01,1.021983050000000000e+10
7.500000000000000000e+01,3.220000000000000000e+02,5.990000000000000000e+02,1.170000000000000000e+02,5.800000000000000000e+01,1.220000000000000000e+02,3.800000000000000000e+01,5.000000000000000000e+01,5.799999999999999600e-01,1.024034800000000000e+10
8.000000000000000000e+01,3.900000000000000000e+02,6.180000000000000000e+02,1.190000000000000000e+02,6.500000000000000000e+01,2.360000000000000000e+02,4.300000000000000000e+01,1.010000000000000000e+02,5.799999999999999600e-01,1.025993520000000000e+10
6.900000000000000000e+01,3.410000000000000000e+02,7.670000000000000000e+02,1.060000000000000000e+02,5.800000000000000000e+01,2.510000000000000000e+02,3.600000000000000000e+01,1.020000000000000000e+02,5.799999999999999600e-01,1.027974730000000000e+10
7.400000000000000000e+01,4.110000000000000000e+02,7.670000000000000000e+02,1.150000000000000000e+02,6.100000000000000000e+01,2.590000000000000000e+02,3.800000000000000000e+01,1.070000000000000000e+02,5.799999999999999600e-01,1.030013090000000000e+10
8.100000000000000000e+01,4.750000000000000000e+02,8.280000000000000000e+02,1.150000000000000000e+02,6.200000000000000000e+01,2.720000000000000000e+02,4.100000000000000000e+01,1.080000000000000000e+02,5.699999999999999512e-01,1.032080720000000000e+10
7.700000000000000000e+01,4.510000000000000000e+02,8.400000000000000000e+02,1.350000000000000000e+02,6.400000000000000000e+01,2.770000000000000000e+02,4.500000000000000000e+01,1.090000000000000000e+02,5.600000000000000533e-01,1.034081230000000000e+10
8.400000000000000000e+01,4.890000000000000000e+02,8.800000000000000000e+02,1.300000000000000000e+02,5.900000000000000000e+01,1.920000000000000000e+02,4.100000000000000000e+01,6.900000000000000000e+01,5.400000000000000355e-01,1.036142300000000000e+10
9.000000000000000000e+01,5.080000000000000000e+02,7.970000000000000000e+02,1.290000000000000000e+02,6.300000000000000000e+01,2.050000000000000000e+02,4.500000000000000000e+01,6.000000000000000000e+01,5.300000000000000266e-01,1.038054830000000000e+10
9.000000000000000000e+01,4.950000000000000000e+02,8.410000000000000000e+02,1.220000000000000000e+02,6.600000000000000000e+01,2.290000000000000000e+02,4.400000000000000000e+01,5.200000000000000000e+01,5.200000000000000178e-01,1.040082980000000000e+10
8.400000000000000000e+01,4.360000000000000000e+02,8.290000000000000000e+02,1.250000000000000000e+02,6.300000000000000000e+01,2.250000000000000000e+02,4.400000000000000000e+01,4.600000000000000000e+01,5.000000000000000000e-01,1.041929110000000000e+10
