5.400000000000000000e+01,2.200000000000000000e+02,6.310000000000000000e+02,1.170000000000000000e+02,3.200000000000000000e+01,3.800000000000000000e+01,1.740000000000000000e+02,1.830000000000000000e+02,5.500000000000000444e-01,4.764306000000000000e+08
5.800000000000000000e+01,2.320000000000000000e+02,6.260000000000000000e+02,1.120000000000000000e+02,3.300000000000000000e+01,3.400000000000000000e+01,1.230000000000000000e+02,1.750000000000000000e+02,5.500000000000000444e-01,5.029229000000000000e+08
5.500000000000000000e+01,2.390000000000000000e+02,6.520000000000000000e+02,1.050000000000000000e+02,3.000000000000000000e+01,3.000000000000000000e+01,1.330000000000000000e+02,1.720000000000000000e+02,5.400000000000000355e-01,8.289878000000000000e+08
5.700000000000000000e+01,2.360000000000000000e+02,6.430000000000000000e+02,9.100000000000000000e+01,2.700000000000000000e+01,3.200000000000000000e+01,1.430000000000000000e+02,1.900000000000000000e+02,5.300000000000000266e-01,8.462905000000000000e+08
5.700000000000000000e+01,2.460000000000000000e+02,6.310000000000000000e+02,1.000000000000000000e+02,2.900000000000000000e+01,3.700000000000000000e+01,1.460000000000000000e+02,1.880000000000000000e+02,5.300000000000000266e-01,8.637524000000000000e+08
5.400000000000000000e+01,1.920000000000000000e+02,5.560000000000000000e+02,9.500000000000000000e+01,3.000000000000000000e+01,3.800000000000000000e+01,1.470000000000000000e+02,1.780000000000000000e+02,5.300000000000000266e-01,8.817385000000000000e+08
5.000000000000000000e+01,1.730000000000000000e+02,5.150000000000000000e+02,9.600000000000000000e+01,2.800000000000000000e+01,3.600000000000000000e+01,2.030000000000000000e+02,1.810000000000000000e+02,5.300000000000000266e-01,8.980398000000000000e+08
5.200000000000000000e+01,1.880000000000000000e+02,4.810000000000000000e+02,9.400000000000000000e+01,3.000000000000000000e+01,3.500000000000000000e+01,1.880000000000000000e+02,1.400000000000000000e+02,5.300000000000000266e-01,9.149412000000000000e+08
5.600000000000000000e+01,2.390000000000000000e+02,5.070000000000000000e+02,1.000000000000000000e+02,3.200000000000000000e+01,3.600000000000000000e+01,2.140000000000000000e+02,1.150000000000000000e+02,5.400000000000000355e-01,9.312930000000000000e+08
5.900000000000000000e+01,2.520000000000000000e+02,4.330000000000000000e+02,1.030000000000000000e+02,3.200000000000000000e+01,3.700000000000000000e+01,2.930000000000000000e+02,1.960000000000000000e+02,5.500000000000000444e-01,9.485564000000000000e+08
5.600000000000000000e+01,2.590000000000000000e+02,4.890000000000000000e+02,1.030000000000000000e+02,3.200000000000000000e+01,4.900000000000000000e+01,3.690000000000000000e+02,2.100000000000000000e+02,5.500000000000000444e-01,9.657951000000000000e+08
5.700000000000000000e+01,2.580000000000000000e+02,4.820000000000000000e+02,9.700000000000000000e+01,3.800000000000000000e+01,5.200000000000000000e+01,3.510000000000000000e+02,2.080000000000000000e+02,5.500000000000000444e-01,9.828003000000000000e+08
5.600000000000000000e+01,2.630000000000000000e+02,5.410000000000000000e+02,1.020000000000000000e+02,3.800000000000000000e+01,5.300000000000000000e+01,3.550000000000000000e+02,2.100000000000000000e+02,5.400000000000000355e-01,1.000605700000000000e+09
5.400000000000000000e+01,2.340000000000000000e+02,5.690000000000000000e+02,1.060000000000000000e+02,3.800000000000000000e+01,5.100000000000000000e+01,3.340000000000000000e+02,2.230000000000000000e+02,5.400000000000000355e-01,1.016892600000000000e+09
5.700000000000000000e+01,2.150000000000000000e+02,5.790000000000000000e+02,1.050000000000000000e+02,4.100000000000000000e+01,4.900000000000000000e+01,2.980000000000000000e+02,2.000000000000000000e+02,5.400000000000000355e-01,1.034237500000000000e+09
5.800000000000000000e+01,2.070000000000000000e+02,5.160000000000000000e+02,9.700000000000000000e+01,4.000000000000000000e+01,3.500000000000000000e+01,2.060000000000000000e+02,1.760000000000000000e+02,5.400000000000000355e-01,1.050927700000000000e+09
6.100000000000000000e+01,2.130000000000000000e+02,5.510000000000000000e+02,1.050000000000000000e+02,3.900000000000000000e+01,3.300000000000000000e+01,1.950000000000000000e+02,1.880000000000000000e+02,5.400000000000000355e-01,1.068042400000000000e+09
6.200000000000000000e+01,2.020000000000000000e+02,4.930000000000000000e+02,1.010000000000000000e+02,3.900000000000000000e+01,3.000000000000000000e+01,1.830000000000000000e+02,1.880000000000000000e+02,5.400000000000000355e-01,1.085092700000000000e+09
6.300000000000000000e+01,2.080000000000000000e+02,3.960000000000000000e+02,9.800000000000000000e+01,3.700000000000000000e+01,3.300000000000000000e+01,2.320000000000000000e+02,1.780000000000000000e+02,5.400000000000000355e-01,1.103384800000000000e+09
5.800000000000000000e+01,2.220000000000000000e+02,3.860000000000000000e+02,8.200000000000000000e+01,3.500000000000000000e+01,3.600000000000000000e+01,2.300000000000000000e+02,1.550000000000000000e+02,5.400000000000000355e-01,1.122160000000000000e+09
6.100000000000000000e+01,2.210000000000000000e+02,4.290000000000000000e+02,8.000000000000000000e+01,3.300000000000000000e+01,3.700000000000000000e+01,2.270000000000000000e+02,1.580000000000000000e+02,5.400000000000000355e-01,1.139399200000000000e+09
5.500000000000000000e+01,2.200000000000000000e+02,4.050000000000000000e+02,6.900000000000000000e+01,2.800000000000000000e+01,3.500000000000000000e+01,2.280000000000000000e+02,1.400000000000000000e+02,5.400000000000000355e-01,1.156115500000000000e+09
5.700000000000000000e+01,2.050000000000000000e+02,4.080000000000000000e+02,7.800000000000000000e+01,3.000000000000000000e+01,4.400000000000000000e+01,2.730000000000000000e+02,1.360000000000000000e+02,5.400000000000000355e-01,1.173120700000000000e+09
5.200000000000000000e+01,1.880000000000000000e+02,4.730000000000000000e+02,8.000000000000000000e+01,3.500000000000000000e+01,4.700000000000000000e+01,2.350000000000000000e+02,1.270000000000000000e+02,5.500000000000000444e-01,1.189670100000000000e+09
5.700000000000000000e+01,1.740000000000000000e+02,5.580000000000000000e+02,1.000000000000000000e+02,3.600000000000000000e+01,4.200000000000000000e+01,1.940000000000000000e+02,9.700000000000000000e+01,5.500000000000000444e-01,1.206554800000000000e+09
5.600000000000000000e+01,1.630000000000000000e+02,5.540000000000000000e+02,1.060000000000000000e+02,4.000000000000000000e+01,4.500000000000000000e+01,1.980000000000000000e+02,8.900000000000000000e+01,5.500000000000000444e-01,1.223329300000000000e+09
7.900000000000000000e+01,1.570000000000000000e+02,5.760000000000000000e+02,1.150000000000000000e+02,4.300000000000000000e+01,5.400000000000000000e+01,2.490000000000000000e+02,1.720000000000000000e+02,5.600000000000000533e-01,1.242207500000000000e+09
7.700000000000000000e+01,1.550000000000000000e+02,5.940000000000000000e+02,1.140000000000000000e+02,4.400000000000000000e+01,5.100000000000000000e+01,2.140000000000000000e+02,1.710000000000000000e+02,5.600000000000000533e-01,1.259342500000000000e+09
7.600000000000000000e+01,1.490000000000000000e+02,5.390000000000000000e+02,1.110000000000000000e+02,4.100000000000000000e+01,4.700000000000000000e+01,2.150000000000000000e+02,1.700000000000000000e+02,5.600000000000000533e-01,1.276407300000000000e+09
7.600000000000000000e+01,1.400000000000000000e+02,5.150000000000000000e+02,1.100000000000000000e+02,4.000000000000000000e+01,5.000000000000000000e+01,2.440000000000000000e+02,1.920000000000000000e+02,5.600000000000000533e-01,1.294188000000000000e+09
7.700000000000000000e+01,1.550000000000000000e+02,5.310000000000000000e+02,1.250000000000000000e+02,4.400000000000000000e+01,6.600000000000000000e+01,2.410000000000000000e+02,1.930000000000000000e+02,5.600000000000000533e-01,1.313280700000000000e+09
7.600000000000000000e+01,1.880000000000000000e+02,5.570000000000000000e+02,1.210000000000000000e+02,4.500000000000000000e+01,6.100000000000000000e+01,1.850000000000000000e+02,1.330000000000000000e+02,5.600000000000000533e-01,1.332792500000000000e+09
9.000000000000000000e+01,2.070000000000000000e+02,5.530000000000000000e+02,1.360000000000000000e+02,4.600000000000000000e+01,5.800000000000000000e+01,2.100000000000000000e+02,1.330000000000000000e+02,5.600000000000000533e-01,1.351173000000000000e+09
9.700000000000000000e+01,2.170000000000000000e+02,6.430000000000000000e+02,1.570000000000000000e+02,5.200000000000000000e+01,6.300000000000000000e+01,2.520000000000000000e+02,1.400000000000000000e+02,5.600000000000000533e-01,1.368090700000000000e+09
1.010000000000000000e+02,2.220000000000000000e+02,5.920000000000000000e+02,1.570000000000000000e+02,5.600000000000000000e+01,6.900000000000000000e+01,2.760000000000000000e+02,1.260000000000000000e+02,5.600000000000000533e-01,1.385170600000000000e+09
9.900000000000000000e+01,2.360000000000000000e+02,5.710000000000000000e+02,1.520000000000000000e+02,5.100000000000000000e+01,5.200000000000000000e+01,2.740000000000000000e+02,1.260000000000000000e+02,5.600000000000000533e-01,1.401871100000000000e+09
8.700000000000000000e+01,2.020000000000000000e+02,5.360000000000000000e+02,1.490000000000000000e+02,5.100000000000000000e+01,5.200000000000000000e+01,3.270000000000000000e+02,1.230000000000000000e+02,5.699999999999999512e-01,1.418190900000000000e+09
7.300000000000000000e+01,1.780000000000000000e+02,5.560000000000000000e+02,1.380000000000000000e+02,4.800000000000000000e+01,5.300000000000000000e+01,3.180000000000000000e+02,1.450000000000000000e+02,5.699999999999999512e-01,1.434541700000000000e+09
6.900000000000000000e+01,2.110000000000000000e+02,5.340000000000000000e+02,1.390000000000000000e+02,5.000000000000000000e+01,5.000000000000000000e+01,2.870000000000000000e+02,1.470000000000000000e+02,5.699999999999999512e-01,1.452001700000000000e+09
6.500000000000000000e+01,2.030000000000000000e+02,5.330000000000000000e+02,1.280000000000000000e+02,4.400000000000000000e+01,3.800000000000000000e+01,2.450000000000000000e+02,1.460000000000000000e+02,5.699999999999999512e-01,1.470063900000000000e+09
6.600000000000000000e+01,1.680000000000000000e+02,5.220000000000000000e+02,1.180000000000000000e+02,4.400000000000000000e+01,4.300000000000000000e+01,2.770000000000000000e+02,1.690000000000000000e+02,5.699999999999999512e-01,1.487151500000000000e+09
6.400000000000000000e+01,1.720000000000000000e+02,5.260000000000000000e+02,1.160000000000000000e+02,4.300000000000000000e+01,4.900000000000000000e+01,2.440000000000000000e+02,1.720000000000000000e+02,5.699999999999999512e-01,1.506124100000000000e+09
6.100000000000000000e+01,1.790000000000000000e+02,5.110000000000000000e+02,1.260000000000000000e+02,4.300000000000000000e+01,4.700000000000000000e+01,2.310000000000000000e+02,1.540000000000000000e+02,5.699999999999999512e-01,1.525499200000000000e+09
5.700000000000000000e+01,1.280000000000000000e+02,5.000000000000000000e+02,1.000000000000000000e+02,3.400000000000000000e+01,4.500000000000000000e+01,2.250000000000000000e+02,1.480000000000000000e+02,5.699999999999999512e-01,1.543937900000000000e+09
5.200000000000000000e+01,1.370000000000000000e+02,4.970000000000000000e+02,1.100000000000000000e+02,4.100000000000000000e+01,4.600000000000000000e+01,2.320000000000000000e+02,1.470000000000000000e+02,5.699999999999999512e-01,1.561359200000000000e+09
4.400000000000000000e+01,1.380000000000000000e+02,5.320000000000000000e+02,1.090000000000000000e+02,3.800000000000000000e+01,4.100000000000000000e+01,2.120000000000000000e+02,1.150000000000000000e+02,5.699999999999999512e-01,1.577931400000000000e+09
4.600000000000000000e+01,1.360000000000000000e+02,5.090000000000000000e+02,1.060000000000000000e+02,3.700000000000000000e+01,3.000000000000000000e+01,1.900000000000000000e+02,1.030000000000000000e+02,5.699999999999999512e-01,1.594894000000000000e+09
4.800000000000000000e+01,1.290000000000000000e+02,6.180000000000000000e+02,9.200000000000000000e+01,3.600000000000000000e+01,3.200000000000000000e+01,1.780000000000000000e+02,1.040000000000000000e+02,5.699999999999999512e-01,1.611814400000000000e+09
4.600000000000000000e+01,1.340000000000000000e+02,6.710000000000000000e+02,8.800000000000000000e+01,3.500000000000000000e+01,3.100000000000000000e+01,1.770000000000000000e+02,9.500000000000000000e+01,5.600000000000000533e-01,1.628323200000000000e+09
4.200000000000000000e+01,1.260000000000000000e+02,6.950000000000000000e+02,6.900000000000000000e+01,2.700000000000000000e+01,2.900000000000000000e+01,1.510000000000000000e+02,5.800000000000000000e+01,5.600000000000000533e-01,1.645831500000000000e+09
4.800000000000000000e+01,1.290000000000000000e+02,6.890000000000000000e+02,7.000000000000000000e+01,3.000000000000000000e+01,3.000000000000000000e+01,1.090000000000000000e+02,6.500000000000000000e+01,5.600000000000000533e-01,1.664306200000000000e+09
4.800000000000000000e+01,1.290000000000000000e+02,6.930000000000000000e+02,7.200000000000000000e+01,3.000000000000000000e+01,2.800000000000000000e+01,9.900000000000000000e+01,6.100000000000000000e+01,5.500000000000000444e-01,1.681854800000000000e+09
4.700000000000000000e+01,1.290000000000000000e+02,5.690000000000000000e+02,5.900000000000000000e+01,2.800000000000000000e+01,2.400000000000000000e+01,1.100000000000000000e+02,1.030000000000000000e+02,5.500000000000000444e-01,1.699655100000000000e+09
4.400000000000000000e+01,1.160000000000000000e+02,4.550000000000000000e+02,6.000000000000000000e+01,2.700000000000000000e+01,2.700000000000000000e+01,1.170000000000000000e+02,1.050000000000000000e+02,5.500000000000000444e-01,1.717222400000000000e+09
4.400000000000000000e+01,1.230000000000000000e+02,4.440000000000000000e+02,8.200000000000000000e+01,3.200000000000000000e+01,3.400000000000000000e+01,1.660000000000000000e+02,1.090000000000000000e+02,5.500000000000000444e-01,1.734345900000000000e+09
4.200000000000000000e+01,1.220000000000000000e+02,3.940000000000000000e+02,7.900000000000000000e+01,3.100000000000000000e+01,3.500000000000000000e+01,1.690000000000000000e+02,1.070000000000000000e+02,5.500000000000000444e-01,1.752272900000000000e+09
4.300000000000000000e+01,1.340000000000000000e+02,3.890000000000000000e+02,7.800000000000000000e+01,3.000000000000000000e+01,3.500000000000000000e+01,1.570000000000000000e+02,1.080000000000000000e+02,5.500000000000000444e-01,1.768962400000000000e+09
4.400000000000000000e+01,1.330000000000000000e+02,4.730000000000000000e+02,8.800000000000000000e+01,3.300000000000000000e+01,3.800000000000000000e+01,1.550000000000000000e+02,1.010000000000000000e+02,5.500000000000000444e-01,1.786569800000000000e+09
4.900000000000000000e+01,1.440000000000000000e+02,4.880000000000000000e+02,9.100000000000000000e+01,3.300000000000000000e+01,3.700000000000000000e+01,1.490000000000000000e+02,1.340000000000000000e+02,5.500000000000000444e-01,1.804835700000000000e+09
5.300000000000000000e+01,1.360000000000000000e+02,5.240000000000000000e+02,1.020000000000000000e+02,3.300000000000000000e+01,3.000000000000000000e+01,9.000000000000000000e+01,1.340000000000000000e+02,5.500000000000000444e-01,1.823344900000000000e+09
4.800000000000000000e+01,1.280000000000000000e+02,5.810000000000000000e+02,1.040000000000000000e+02,3.100000000000000000e+01,2.700000000000000000e+01,9.300000000000000000e+01,1.360000000000000000e+02,5.500000000000000444e-01,1.841039700000000000e+09
4.800000000000000000e+01,1.260000000000000000e+02,5.790000000000000000e+02,1.030000000000000000e+02,3.400000000000000000e+01,3.000000000000000000e+01,1.290000000000000000e+02,1.380000000000000000e+02,5.500000000000000444e-01,1.858886600000000000e+09
5.800000000000000000e+01,1.610000000000000000e+02,5.940000000000000000e+02,1.150000000000000000e+02,3.700000000000000000e+01,3.100000000000000000e+01,1.360000000000000000e+02,1.660000000000000000e+02,5.500000000000000444e-01,1.877230100000000000e+09
5.500000000000000000e+01,1.670000000000000000e+02,6.390000000000000000e+02,1.230000000000000000e+02,4.000000000000000000e+01,3.100000000000000000e+01,1.580000000000000000e+02,1.440000000000000000e+02,5.600000000000000533e-01,1.895195000000000000e+09
4.900000000000000000e+01,1.580000000000000000e+02,6.230000000000000000e+02,1.140000000000000000e+02,3.700000000000000000e+01,3.000000000000000000e+01,1.620000000000000000e+02,1.410000000000000000e+02,5.600000000000000533e-01,1.913116800000000000e+09
5.800000000000000000e+01,1.970000000000000000e+02,6.270000000000000000e+02,1.140000000000000000e+02,3.900000000000000000e+01,3.100000000000000000e+01,1.630000000000000000e+02,1.400000000000000000e+02,5.600000000000000533e-01,1.930426000000000000e+09
5.600000000000000000e+01,1.970000000000000000e+02,6.520000000000000000e+02,1.180000000000000000e+02,3.700000000000000000e+01,3.000000000000000000e+01,1.500000000000000000e+02,1.410000000000000000e+02,5.600000000000000533e-01,1.947538400000000000e+09
4.700000000000000000e+01,1.740000000000000000e+02,5.790000000000000000e+02,9.900000000000000000e+01,3.100000000000000000e+01,2.500000000000000000e+01,1.560000000000000000e+02,8.300000000000000000e+01,5.600000000000000533e-01,1.964928500000000000e+09
4.500000000000000000e+01,1.600000000000000000e+02,5.050000000000000000e+02,8.900000000000000000e+01,2.700000000000000000e+01,2.400000000000000000e+01,1.370000000000000000e+02,7.800000000000000000e+01,5.600000000000000533e-01,1.982972700000000000e+09
4.900000000000000000e+01,1.670000000000000000e+02,5.940000000000000000e+02,9.700000000000000000e+01,3.000000000000000000e+01,2.600000000000000000e+01,1.350000000000000000e+02,7.900000000000000000e+01,5.600000000000000533e-01,2.000411100000000000e+09
3.900000000000000000e+01,1.300000000000000000e+02,5.950000000000000000e+02,1.000000000000000000e+02,2.800000000000000000e+01,2.600000000000000000e+01,1.310000000000000000e+02,7.200000000000000000e+01,5.600000000000000533e-01,2.019234500000000000e+09
4.200000000000000000e+01,1.220000000000000000e+02,6.140000000000000000e+02,1.080000000000000000e+02,3.000000000000000000e+01,2.600000000000000000e+01,1.460000000000000000e+02,6.400000000000000000e+01,5.600000000000000533e-01,2.036139500000000000e+09
4.100000000000000000e+01,1.140000000000000000e+02,6.670000000000000000e+02,1.190000000000000000e+02,3.200000000000000000e+01,2.700000000000000000e+01,1.360000000000000000e+02,4.900000000000000000e+01,5.600000000000000533e-01,2.053446400000000000e+09
4.400000000000000000e+01,1.100000000000000000e+02,6.920000000000000000e+02,1.180000000000000000e+02,3.000000000000000000e+01,2.700000000000000000e+01,1.340000000000000000e+02,9.200000000000000000e+01,5.600000000000000533e-01,2.070515100000000000e+09
4.500000000000000000e+01,1.130000000000000000e+02,6.410000000000000000e+02,1.120000000000000000e+02,2.800000000000000000e+01,2.700000000000000000e+01,1.320000000000000000e+02,1.100000000000000000e+02,5.600000000000000533e-01,2.087788800000000000e+09
4.600000000000000000e+01,1.120000000000000000e+02,6.040000000000000000e+02,1.120000000000000000e+02,3.000000000000000000e+01,3.100000000000000000e+01,1.300000000000000000e+02,1.130000000000000000e+02,5.699999999999999512e-01,2.104180400000000000e+09
4.200000000000000000e+01,1.170000000000000000e+02,5.650000000000000000e+02,1.050000000000000000e+02,2.900000000000000000e+01,3.100000000000000000e+01,8.300000000000000000e+01,1.140000000000000000e+02,5.699999999999999512e-01,2.122456500000000000e+09
4.100000000000000000e+01,1.160000000000000000e+02,5.820000000000000000e+02,9.700000000000000000e+01,2.800000000000000000e+01,2.800000000000000000e+01,6.400000000000000000e+01,1.150000000000000000e+02,5.699999999999999512e-01,2.142874000000000000e+09
4.500000000000000000e+01,1.230000000000000000e+02,5.570000000000000000e+02,1.100000000000000000e+02,3.400000000000000000e+01,3.100000000000000000e+01,6.000000000000000000e+01,8.600000000000000000e+01,5.699999999999999512e-01,2.162707600000000000e+09
4.200000000000000000e+01,1.220000000000000000e+02,5.630000000000000000e+02,1.040000000000000000e+02,3.600000000000000000e+01,3.000000000000000000e+01,5.800000000000000000e+01,5.800000000000000000e+01,5.699999999999999512e-01,2.185122800000000000e+09
4.400000000000000000e+01,1.230000000000000000e+02,5.700000000000000000e+02,1.010000000000000000e+02,3.700000000000000000e+01,2.500000000000000000e+01,6.100000000000000000e+01,5.400000000000000000e+01,5.699999999999999512e-01,2.207215300000000000e+09
4.800000000000000000e+01,1.200000000000000000e+02,5.860000000000000000e+02,9.700000000000000000e+01,3.700000000000000000e+01,2.600000000000000000e+01,5.800000000000000000e+01,5.700000000000000000e+01,5.799999999999999600e-01,2.227663700000000000e+09
4.900000000000000000e+01,1.350000000000000000e+02,5.650000000000000000e+02,9.700000000000000000e+01,3.600000000000000000e+01,2.700000000000000000e+01,5.700000000000000000e+01,5.200000000000000000e+01,5.799999999999999600e-01,2.247427700000000000e+09
4.700000000000000000e+01,1.590000000000000000e+02,5.610000000000000000e+02,8.000000000000000000e+01,3.300000000000000000e+01,2.500000000000000000e+01,5.200000000000000000e+01,6.400000000000000000e+01,5.799999999999999600e-01,2.266795100000000000e+09
4.600000000000000000e+01,1.530000000000000000e+02,5.180000000000000000e+02,7.400000000000000000e+01,3.000000000000000000e+01,2.500000000000000000e+01,6.100000000000000000e+01,6.300000000000000000e+01,5.799999999999999600e-01,2.284487600000000000e+09
4.500000000000000000e+01,1.550000000000000000e+02,5.930000000000000000e+02,7.600000000000000000e+01,2.800000000000000000e+01,2.600000000000000000e+01,1.340000000000000000e+02,6.500000000000000000e+01,5.799999999999999600e-01,2.302895800000000000e+09
4.200000000000000000e+01,1.580000000000000000e+02,5.620000000000000000e+02,7.700000000000000000e+01,3.100000000000000000e+01,2.500000000000000000e+01,1.380000000000000000e+02,6.100000000000000000e+01,5.799999999999999600e-01,2.321082300000000000e+09
4.300000000000000000e+01,1.570000000000000000e+02,5.530000000000000000e+02,8.200000000000000000e+01,3.700000000000000000e+01,2.600000000000000000e+01,1.400000000000000000e+02,6.300000000000000000e+01,5.799999999999999600e-01,2.340088700000000000e+09
4.400000000000000000e+01,1.380000000000000000e+02,5.710000000000000000e+02,8.900000000000000000e+01,3.600000000000000000e+01,2.800000000000000000e+01,1.500000000000000000e+02,5.300000000000000000e+01,5.899999999999999689e-01,2.358872400000000000e+09
4.400000000000000000e+01,1.480000000000000000e+02,5.650000000000000000e+02,8.700000000000000000e+01,3.400000000000000000e+01,2.800000000000000000e+01,1.460000000000000000e+02,8.300000000000000000e+01,5.899999999999999689e-01,2.378048100000000000e+09
5.000000000000000000e+01,1.370000000000000000e+02,4.670000000000000000e+02,8.300000000000000000e+01,3.600000000000000000e+01,3.100000000000000000e+01,1.620000000000000000e+02,9.700000000000000000e+01,5.899999999999999689e-01,2.396136100000000000e+09
5.100000000000000000e+01,1.300000000000000000e+02,4.480000000000000000e+02,8.700000000000000000e+01,3.500000000000000000e+01,3.100000000000000000e+01,1.700000000000000000e+02,9.700000000000000000e+01,5.799999999999999600e-01,2.414951000000000000e+09
5.400000000000000000e+01,1.190000000000000000e+02,3.820000000000000000e+02,7.700000000000000000e+01,2.900000000000000000e+01,3.100000000000000000e+01,1.750000000000000000e+02,9.900000000000000000e+01,5.799999999999999600e-01,2.433139300000000000e+09
5.000000000000000000e+01,1.060000000000000000e+02,3.710000000000000000e+02,8.000000000000000000e+01,2.800000000000000000e+01,3.000000000000000000e+01,1.710000000000000000e+02,9.600000000000000000e+01,5.799999999999999600e-01,2.451398200000000000e+09
4.800000000000000000e+01,9.700000000000000000e+01,3.960000000000000000e+02,8.000000000000000000e+01,2.900000000000000000e+01,2.900000000000000000e+01,1.690000000000000000e+02,7.700000000000000000e+01,5.799999999999999600e-01,2.470627500000000000e+09
4.400000000000000000e+01,1.100000000000000000e+02,4.210000000000000000e+02,8.700000000000000000e+01,2.800000000000000000e+01,2.800000000000000000e+01,1.380000000000000000e+02,1.200000000000000000e+02,5.799999999999999600e-01,2.489975800000000000e+09
4.700000000000000000e+01,1.120000000000000000e+02,4.510000000000000000e+02,1.090000000000000000e+02,3.100000000000000000e+01,2.900000000000000000e+01,1.320000000000000000e+02,1.280000000000000000e+02,5.799999999999999600e-01,2.509112300000000000e+09
4.000000000000000000e+01,1.240000000000000000e+02,5.000000000000000000e+02,1.160000000000000000e+02,3.200000000000000000e+01,2.700000000000000000e+01,1.290000000000000000e+02,1.280000000000000000e+02,5.799999999999999600e-01,2.527392300000000000e+09
4.400000000000000000e+01,1.400000000000000000e+02,5.010000000000000000e+02,1.140000000000000000e+02,3.900000000000000000e+01,2.900000000000000000e+01,1.330000000000000000e+02,1.280000000000000000e+02,5.799999999999999600e-01,2.545537900000000000e+09
4.700000000000000000e+01,1.370000000000000000e+02,4.660000000000000000e+02,1.200000000000000000e+02,4.100000000000000000e+01,3.100000000000000000e+01,1.320000000000000000e+02,1.330000000000000000e+02,5.799999999999999600e-01,2.564460100000000000e+09
5.500000000000000000e+01,1.450000000000000000e+02,4.620000000000000000e+02,1.420000000000000000e+02,4.600000000000000000e+01,2.900000000000000000e+01,9.300000000000000000e+01,8.400000000000000000e+01,5.799999999999999600e-01,2.582629700000000000e+09
5.200000000000000000e+01,1.450000000000000000e+02,4.780000000000000000e+02,1.230000000000000000e+02,4.400000000000000000e+01,2.800000000000000000e+01,1.230000000000000000e+02,9.700000000000000000e+01,5.799999999999999600e-01,2.600671700000000000e+09
5.200000000000000000e+01,1.460000000000000000e+02,5.130000000000000000e+02,1.250000000000000000e+02,4.200000000000000000e+01,2.600000000000000000e+01,1.170000000000000000e+02,9.700000000000000000e+01,5.799999999999999600e-01,2.618829700000000000e+09
5.200000000000000000e+01,1.380000000000000000e+02,5.310000000000000000e+02,1.240000000000000000e+02,3.600000000000000000e+01,2.700000000000000000e+01,1.210000000000000000e+02,1.000000000000000000e+02,5.799999999999999600e-01,2.636769900000000000e+09
5.200000000000000000e+01,1.350000000000000000e+02,5.200000000000000000e+02,1.180000000000000000e+02,3.700000000000000000e+01,2.400000000000000000e+01,1.250000000000000000e+02,1.030000000000000000e+02,5.799999999999999600e-01,2.655563400000000000e+09
4.600000000000000000e+01,1.310000000000000000e+02,5.450000000000000000e+02,8.500000000000000000e+01,2.900000000000000000e+01,2.700000000000000000e+01,1.220000000000000000e+02,1.020000000000000000e+02,5.799999999999999600e-01,2.673378800000000000e+09
4.900000000000000000e+01,1.400000000000000000e+02,5.520000000000000000e+02,8.800000000000000000e+01,3.100000000000000000e+01,2.700000000000000000e+01,7.800000000000000000e+01,8.000000000000000000e+01,5.799999999999999600e-01,2.691948900000000000e+09
4.900000000000000000e+01,1.290000000000000000e+02,4.940000000000000000e+02,8.000000000000000000e+01,3.300000000000000000e+01,2.800000000000000000e+01,7.400000000000000000e+01,7.900000000000000000e+01,5.899999999999999689e-01,2.710029900000000000e+09
4.900000000000000000e+01,1.220000000000000000e+02,5.180000000000000000e+02,7.300000000000000000e+01,3.400000000000000000e+01,2.600000000000000000e+01,4.900000000000000000e+01,7.600000000000000000e+01,5.799999999999999600e-01,2.729181900000000000e+09
4.800000000000000000e+01,1.270000000000000000e+02,5.340000000000000000e+02,7.900000000000000000e+01,3.300000000000000000e+01,2.900000000000000000e+01,3.500000000000000000e+01,5.200000000000000000e+01,5.799999999999999600e-01,2.747139500000000000e+09
4.700000000000000000e+01,1.330000000000000000e+02,5.660000000000000000e+02,8.700000000000000000e+01,3.300000000000000000e+01,2.800000000000000000e+01,3.200000000000000000e+01,5.300000000000000000e+01,5.899999999999999689e-01,2.765362000000000000e+09
4.500000000000000000e+01,1.320000000000000000e+02,5.660000000000000000e+02,1.000000000000000000e+02,3.300000000000000000e+01,2.900000000000000000e+01,2.700000000000000000e+01,4.700000000000000000e+01,5.899999999999999689e-01,2.783597500000000000e+09
5.400000000000000000e+01,1.600000000000000000e+02,5.800000000000000000e+02,1.360000000000000000e+02,4.100000000000000000e+01,3.200000000000000000e+01,2.800000000000000000e+01,4.300000000000000000e+01,5.899999999999999689e-01,2.802479300000000000e+09
5.500000000000000000e+01,1.630000000000000000e+02,5.240000000000000000e+02,1.380000000000000000e+02,4.100000000000000000e+01,3.100000000000000000e+01,2.400000000000000000e+01,4.100000000000000000e+01,5.899999999999999689e-01,2.820316400000000000e+09
6.100000000000000000e+01,1.670000000000000000e+02,5.600000000000000000e+02,1.490000000000000000e+02,4.500000000000000000e+01,2.900000000000000000e+01,2.600000000000000000e+01,4.700000000000000000e+01,5.899999999999999689e-01,2.838450300000000000e+09
5.900000000000000000e+01,1.540000000000000000e+02,5.670000000000000000e+02,1.470000000000000000e+02,4.600000000000000000e+01,2.600000000000000000e+01,2.500000000000000000e+01,4.500000000000000000e+01,5.999999999999999778e-01,2.856988600000000000e+09
5.800000000000000000e+01,1.500000000000000000e+02,5.620000000000000000e+02,1.380000000000000000e+02,4.500000000000000000e+01,2.600000000000000000e+01,2.700000000000000000e+01,5.100000000000000000e+01,5.999999999999999778e-01,2.874751100000000000e+09
5.200000000000000000e+01,1.220000000000000000e+02,6.150000000000000000e+02,1.020000000000000000e+02,3.600000000000000000e+01,2.300000000000000000e+01,2.600000000000000000e+01,4.900000000000000000e+01,5.999999999999999778e-01,2.893348300000000000e+09
6.200000000000000000e+01,1.300000000000000000e+02,7.190000000000000000e+02,1.100000000000000000e+02,3.800000000000000000e+01,2.500000000000000000e+01,2.700000000000000000e+01,6.000000000000000000e+01,5.999999999999999778e-01,2.911907600000000000e+09
5.400000000000000000e+01,1.110000000000000000e+02,6.920000000000000000e+02,8.400000000000000000e+01,3.100000000000000000e+01,2.300000000000000000e+01,2.200000000000000000e+01,6.100000000000000000e+01,5.999999999999999778e-01,2.930672900000000000e+09
5.700000000000000000e+01,1.230000000000000000e+02,6.260000000000000000e+02,9.700000000000000000e+01,3.600000000000000000e+01,2.500000000000000000e+01,2.500000000000000000e+01,6.100000000000000000e+01,5.999999999999999778e-01,2.948471400000000000e+09
5.800000000000000000e+01,1.210000000000000000e+02,6.270000000000000000e+02,9.500000000000000000e+01,3.600000000000000000e+01,2.300000000000000000e+01,2.700000000000000000e+01,5.600000000000000000e+01,6.099999999999999867e-01,2.966794000000000000e+09
5.900000000000000000e+01,1.200000000000000000e+02,6.080000000000000000e+02,9.300000000000000000e+01,3.500000000000000000e+01,2.500000000000000000e+01,2.600000000000000000e+01,6.000000000000000000e+01,6.099999999999999867e-01,2.986210600000000000e+09
4.800000000000000000e+01,1.400000000000000000e+02,5.390000000000000000e+02,8.700000000000000000e+01,3.500000000000000000e+01,2.500000000000000000e+01,2.700000000000000000e+01,4.700000000000000000e+01,6.099999999999999867e-01,3.004365800000000000e+09
6.000000000000000000e+01,1.650000000000000000e+02,6.180000000000000000e+02,1.060000000000000000e+02,4.500000000000000000e+01,2.800000000000000000e+01,3.200000000000000000e+01,4.600000000000000000e+01,6.099999999999999867e-01,3.021580900000000000e+09
5.800000000000000000e+01,1.580000000000000000e+02,6.250000000000000000e+02,9.400000000000000000e+01,3.900000000000000000e+01,2.600000000000000000e+01,2.900000000000000000e+01,4.800000000000000000e+01,6.099999999999999867e-01,3.042099500000000000e+09
5.700000000000000000e+01,1.570000000000000000e+02,6.620000000000000000e+02,9.500000000000000000e+01,4.100000000000000000e+01,2.600000000000000000e+01,2.800000000000000000e+01,5.100000000000000000e+01,6.099999999999999867e-01,3.060788000000000000e+09
6.500000000000000000e+01,1.850000000000000000e+02,6.190000000000000000e+02,1.210000000000000000e+02,4.600000000000000000e+01,2.700000000000000000e+01,3.000000000000000000e+01,8.000000000000000000e+01,5.999999999999999778e-01,3.079605900000000000e+09
6.400000000000000000e+01,1.660000000000000000e+02,5.570000000000000000e+02,1.150000000000000000e+02,4.300000000000000000e+01,2.600000000000000000e+01,3.000000000000000000e+01,8.300000000000000000e+01,5.999999999999999778e-01,3.098452800000000000e+09
5.300000000000000000e+01,1.460000000000000000e+02,4.360000000000000000e+02,9.900000000000000000e+01,3.400000000000000000e+01,2.500000000000000000e+01,2.500000000000000000e+01,8.300000000000000000e+01,5.999999999999999778e-01,3.115436800000000000e+09
6.100000000000000000e+01,1.590000000000000000e+02,5.570000000000000000e+02,1.200000000000000000e+02,4.200000000000000000e+01,2.900000000000000000e+01,2.900000000000000000e+01,1.200000000000000000e+02,5.999999999999999778e-01,3.133471000000000000e+09
6.200000000000000000e+01,1.790000000000000000e+02,4.750000000000000000e+02,1.290000000000000000e+02,4.400000000000000000e+01,2.900000000000000000e+01,2.900000000000000000e+01,1.240000000000000000e+02,6.099999999999999867e-01,3.150390200000000000e+09
5.900000000000000000e+01,1.630000000000000000e+02,5.160000000000000000e+02,1.260000000000000000e+02,4.200000000000000000e+01,2.600000000000000000e+01,2.700000000000000000e+01,1.120000000000000000e+02,6.099999999999999867e-01,3.168731700000000000e+09
5.900000000000000000e+01,1.660000000000000000e+02,5.500000000000000000e+02,1.380000000000000000e+02,4.500000000000000000e+01,3.000000000000000000e+01,2.700000000000000000e+01,1.230000000000000000e+02,6.099999999999999867e-01,3.185349500000000000e+09
6.000000000000000000e+01,1.660000000000000000e+02,5.550000000000000000e+02,1.440000000000000000e+02,4.500000000000000000e+01,2.900000000000000000e+01,2.700000000000000000e+01,1.270000000000000000e+02,6.099999999999999867e-01,3.202560200000000000e+09
5.500000000000000000e+01,1.500000000000000000e+02,4.530000000000000000e+02,1.340000000000000000e+02,4.100000000000000000e+01,2.600000000000000000e+01,2.400000000000000000e+01,1.030000000000000000e+02,6.099999999999999867e-01,3.219393200000000000e+09
5.700000000000000000e+01,1.190000000000000000e+02,4.660000000000000000e+02,1.270000000000000000e+02,3.700000000000000000e+01,2.900000000000000000e+01,2.400000000000000000e+01,1.270000000000000000e+02,6.099999999999999867e-01,3.237318200000000000e+09
5.500000000000000000e+01,1.310000000000000000e+02,4.680000000000000000e+02,1.200000000000000000e+02,3.800000000000000000e+01,3.200000000000000000e+01,2.600000000000000000e+01,1.450000000000000000e+02,5.999999999999999778e-01,3.256498400000000000e+09
5.600000000000000000e+01,1.330000000000000000e+02,5.050000000000000000e+02,1.090000000000000000e+02,3.700000000000000000e+01,2.900000000000000000e+01,2.500000000000000000e+01,1.430000000000000000e+02,6.099999999999999867e-01,3.274216500000000000e+09
5.700000000000000000e+01,1.350000000000000000e+02,5.300000000000000000e+02,1.010000000000000000e+02,3.500000000000000000e+01,3.000000000000000000e+01,3.300000000000000000e+01,1.510000000000000000e+02,5.999999999999999778e-01,3.292591500000000000e+09
5.500000000000000000e+01,1.330000000000000000e+02,5.010000000000000000e+02,9.000000000000000000e+01,3.300000000000000000e+01,3.100000000000000000e+01,9.200000000000000000e+01,1.650000000000000000e+02,5.999999999999999778e-01,3.311436000000000000e+09
5.100000000000000000e+01,1.400000000000000000e+02,5.480000000000000000e+02,8.900000000000000000e+01,3.500000000000000000e+01,3.000000000000000000e+01,9.600000000000000000e+01,1.450000000000000000e+02,5.999999999999999778e-01,3.329108600000000000e+09
4.500000000000000000e+01,1.190000000000000000e+02,5.540000000000000000e+02,7.900000000000000000e+01,3.100000000000000000e+01,2.700000000000000000e+01,9.700000000000000000e+01,1.400000000000000000e+02,5.999999999999999778e-01,3.346662100000000000e+09
4.400000000000000000e+01,1.080000000000000000e+02,5.640000000000000000e+02,8.700000000000000000e+01,3.000000000000000000e+01,2.700000000000000000e+01,1.000000000000000000e+02,1.330000000000000000e+02,5.899999999999999689e-01,3.364563000000000000e+09
4.200000000000000000e+01,1.040000000000000000e+02,5.400000000000000000e+02,9.300000000000000000e+01,3.100000000000000000e+01,2.600000000000000000e+01,9.900000000000000000e+01,1.230000000000000000e+02,5.899999999999999689e-01,3.381877200000000000e+09
4.100000000000000000e+01,9.900000000000000000e+01,5.400000000000000000e+02,9.000000000000000000e+01,2.800000000000000000e+01,2.300000000000000000e+01,5.000000000000000000e+01,1.130000000000000000e+02,5.899999999999999689e-01,3.399815600000000000e+09
4.200000000000000000e+01,9.100000000000000000e+01,5.240000000000000000e+02,9.100000000000000000e+01,2.600000000000000000e+01,2.200000000000000000e+01,4.300000000000000000e+01,1.160000000000000000e+02,5.899999999999999689e-01,3.417737500000000000e+09
4.900000000000000000e+01,8.000000000000000000e+01,4.620000000000000000e+02,8.800000000000000000e+01,2.800000000000000000e+01,2.200000000000000000e+01,3.800000000000000000e+01,9.400000000000000000e+01,5.899999999999999689e-01,3.436390200000000000e+09
4.900000000000000000e+01,8.200000000000000000e+01,3.820000000000000000e+02,7.900000000000000000e+01,2.800000000000000000e+01,2.300000000000000000e+01,3.300000000000000000e+01,9.500000000000000000e+01,5.899999999999999689e-01,3.453977000000000000e+09
4.900000000000000000e+01,8.300000000000000000e+01,3.890000000000000000e+02,7.300000000000000000e+01,2.800000000000000000e+01,2.400000000000000000e+01,2.800000000000000000e+01,9.500000000000000000e+01,5.799999999999999600e-01,3.472115200000000000e+09
4.800000000000000000e+01,8.400000000000000000e+01,4.230000000000000000e+02,7.800000000000000000e+01,3.200000000000000000e+01,2.600000000000000000e+01,2.600000000000000000e+01,8.700000000000000000e+01,5.799999999999999600e-01,3.491263100000000000e+09
4.600000000000000000e+01,8.300000000000000000e+01,3.700000000000000000e+02,7.100000000000000000e+01,3.200000000000000000e+01,2.500000000000000000e+01,2.600000000000000000e+01,8.100000000000000000e+01,5.799999999999999600e-01,3.509895700000000000e+09
5.900000000000000000e+01,1.480000000000000000e+02,4.510000000000000000e+02,1.010000000000000000e+02,3.700000000000000000e+01,2.800000000000000000e+01,2.700000000000000000e+01,1.060000000000000000e+02,5.799999999999999600e-01,3.532118600000000000e+09
5.900000000000000000e+01,1.490000000000000000e+02,4.980000000000000000e+02,1.020000000000000000e+02,3.700000000000000000e+01,2.700000000000000000e+01,2.500000000000000000e+01,1.030000000000000000e+02,5.799999999999999600e-01,3.549608200000000000e+09
6.200000000000000000e+01,1.620000000000000000e+02,6.270000000000000000e+02,1.070000000000000000e+02,3.600000000000000000e+01,2.800000000000000000e+01,2.600000000000000000e+01,1.020000000000000000e+02,5.799999999999999600e-01,3.568797900000000000e+09
6.500000000000000000e+01,1.710000000000000000e+02,6.310000000000000000e+02,1.100000000000000000e+02,3.400000000000000000e+01,2.500000000000000000e+01,2.300000000000000000e+01,1.010000000000000000e+02,5.799999999999999600e-01,3.587649800000000000e+09
6.700000000000000000e+01,1.720000000000000000e+02,6.770000000000000000e+02,1.130000000000000000e+02,3.600000000000000000e+01,2.600000000000000000e+01,2.400000000000000000e+01,1.010000000000000000e+02,5.799999999999999600e-01,3.610036800000000000e+09
5.200000000000000000e+01,1.190000000000000000e+02,6.500000000000000000e+02,8.700000000000000000e+01,2.800000000000000000e+01,2.300000000000000000e+01,2.100000000000000000e+01,7.400000000000000000e+01,5.799999999999999600e-01,3.632005900000000000e+09
5.600000000000000000e+01,1.260000000000000000e+02,6.680000000000000000e+02,9.100000000000000000e+01,3.000000000000000000e+01,2.500000000000000000e+01,2.200000000000000000e+01,8.300000000000000000e+01,5.799999999999999600e-01,3.651168500000000000e+09
5.300000000000000000e+01,1.050000000000000000e+02,6.040000000000000000e+02,9.000000000000000000e+01,3.000000000000000000e+01,2.400000000000000000e+01,2.300000000000000000e+01,7.700000000000000000e+01,5.799999999999999600e-01,3.669655300000000000e+09
4.800000000000000000e+01,9.500000000000000000e+01,6.040000000000000000e+02,9.200000000000000000e+01,3.300000000000000000e+01,2.400000000000000000e+01,2.400000000000000000e+01,5.900000000000000000e+01,5.799999999999999600e-01,3.695753500000000000e+09
4.600000000000000000e+01,1.000000000000000000e+02,5.490000000000000000e+02,8.700000000000000000e+01,3.000000000000000000e+01,2.300000000000000000e+01,2.200000000000000000e+01,5.300000000000000000e+01,5.899999999999999689e-01,3.714336800000000000e+09
5.600000000000000000e+01,1.100000000000000000e+02,5.240000000000000000e+02,9.300000000000000000e+01,3.000000000000000000e+01,2.500000000000000000e+01,2.500000000000000000e+01,6.200000000000000000e+01,5.899999999999999689e-01,3.732182900000000000e+09
5.300000000000000000e+01,9.200000000000000000e+01,4.590000000000000000e+02,8.500000000000000000e+01,2.800000000000000000e+01,2.300000000000000000e+01,2.400000000000000000e+01,6.500000000000000000e+01,5.899999999999999689e-01,3.750010400000000000e+09
5.500000000000000000e+01,1.030000000000000000e+02,4.280000000000000000e+02,9.100000000000000000e+01,3.200000000000000000e+01,2.300000000000000000e+01,2.600000000000000000e+01,6.700000000000000000e+01,5.899999999999999689e-01,3.769370200000000000e+09
5.200000000000000000e+01,1.020000000000000000e+02,4.210000000000000000e+02,1.010000000000000000e+02,3.400000000000000000e+01,2.200000000000000000e+01,2.500000000000000000e+01,6.800000000000000000e+01,5.899999999999999689e-01,3.790579000000000000e+09
5.200000000000000000e+01,1.130000000000000000e+02,4.730000000000000000e+02,1.080000000000000000e+02,3.500000000000000000e+01,2.300000000000000000e+01,2.600000000000000000e+01,7.500000000000000000e+01,5.899999999999999689e-01,3.810270300000000000e+09
4.200000000000000000e+01,9.900000000000000000e+01,4.580000000000000000e+02,1.020000000000000000e+02,3.600000000000000000e+01,2.400000000000000000e+01,2.500000000000000000e+01,8.000000000000000000e+01,5.899999999999999689e-01,3.833169800000000000e+09
4.300000000000000000e+01,1.020000000000000000e+02,4.800000000000000000e+02,1.070000000000000000e+02,3.700000000000000000e+01,2.300000000000000000e+01,2.500000000000000000e+01,6.800000000000000000e+01,5.999999999999999778e-01,3.850733000000000000e+09
4.400000000000000000e+01,1.070000000000000000e+02,5.150000000000000000e+02,1.010000000000000000e+02,3.400000000000000000e+01,2.300000000000000000e+01,2.600000000000000000e+01,6.900000000000000000e+01,5.999999999999999778e-01,3.868759300000000000e+09
4.800000000000000000e+01,1.100000000000000000e+02,4.990000000000000000e+02,8.300000000000000000e+01,3.000000000000000000e+01,2.300000000000000000e+01,2.600000000000000000e+01,7.200000000000000000e+01,5.999999999999999778e-01,3.889939200000000000e+09
4.900000000000000000e+01,9.400000000000000000e+01,5.370000000000000000e+02,8.100000000000000000e+01,3.100000000000000000e+01,2.300000000000000000e+01,2.500000000000000000e+01,6.500000000000000000e+01,5.999999999999999778e-01,3.912789800000000000e+09
4.900000000000000000e+01,1.000000000000000000e+02,5.490000000000000000e+02,8.700000000000000000e+01,3.000000000000000000e+01,2.300000000000000000e+01,2.400000000000000000e+01,5.000000000000000000e+01,5.999999999999999778e-01,3.931317000000000000e+09
5.100000000000000000e+01,1.140000000000000000e+02,5.310000000000000000e+02,8.200000000000000000e+01,3.000000000000000000e+01,2.500000000000000000e+01,2.400000000000000000e+01,5.900000000000000000e+01,5.999999999999999778e-01,3.949090400000000000e+09
4.800000000000000000e+01,1.060000000000000000e+02,5.160000000000000000e+02,9.000000000000000000e+01,3.300000000000000000e+01,2.400000000000000000e+01,2.100000000000000000e+01,5.600000000000000000e+01,5.999999999999999778e-01,3.969354900000000000e+09
4.500000000000000000e+01,9.900000000000000000e+01,5.260000000000000000e+02,9.400000000000000000e+01,3.300000000000000000e+01,2.400000000000000000e+01,2.000000000000000000e+01,4.900000000000000000e+01,5.999999999999999778e-01,3.994838300000000000e+09
4.400000000000000000e+01,9.800000000000000000e+01,4.450000000000000000e+02,8.800000000000000000e+01,3.300000000000000000e+01,2.300000000000000000e+01,2.000000000000000000e+01,4.900000000000000000e+01,5.999999999999999778e-01,4.013366900000000000e+09
3.900000000000000000e+01,9.100000000000000000e+01,4.260000000000000000e+02,9.300000000000000000e+01,3.300000000000000000e+01,2.300000000000000000e+01,2.100000000000000000e+01,4.300000000000000000e+01,5.999999999999999778e-01,4.032302900000000000e+09
4.100000000000000000e+01,8.500000000000000000e+01,4.390000000000000000e+02,9.200000000000000000e+01,3.300000000000000000e+01,2.200000000000000000e+01,2.200000000000000000e+01,3.700000000000000000e+01,5.999999999999999778e-01,4.051058800000000000e+09
4.200000000000000000e+01,7.700000000000000000e+01,3.640000000000000000e+02,8.000000000000000000e+01,3.000000000000000000e+01,2.200000000000000000e+01,2.200000000000000000e+01,3.700000000000000000e+01,5.999999999999999778e-01,4.070345500000000000e+09
4.300000000000000000e+01,8.300000000000000000e+01,4.150000000000000000e+02,9.100000000000000000e+01,2.900000000000000000e+01,2.300000000000000000e+01,2.100000000000000000e+01,4.300000000000000000e+01,6.099999999999999867e-01,4.092375700000000000e+09
4.400000000000000000e+01,9.000000000000000000e+01,4.120000000000000000e+02,1.000000000000000000e+02,3.000000000000000000e+01,2.400000000000000000e+01,2.300000000000000000e+01,4.400000000000000000e+01,6.099999999999999867e-01,4.109990500000000000e+09
4.700000000000000000e+01,1.060000000000000000e+02,4.070000000000000000e+02,8.900000000000000000e+01,3.000000000000000000e+01,2.400000000000000000e+01,2.400000000000000000e+01,4.900000000000000000e+01,6.099999999999999867e-01,4.128654300000000000e+09
4.500000000000000000e+01,1.070000000000000000e+02,4.020000000000000000e+02,8.800000000000000000e+01,2.900000000000000000e+01,2.300000000000000000e+01,2.300000000000000000e+01,4.400000000000000000e+01,6.099999999999999867e-01,4.148084700000000000e+09
4.400000000000000000e+01,1.040000000000000000e+02,4.390000000000000000e+02,9.400000000000000000e+01,2.900000000000000000e+01,2.300000000000000000e+01,2.400000000000000000e+01,4.500000000000000000e+01,6.099999999999999867e-01,4.170181700000000000e+09
4.100000000000000000e+01,9.900000000000000000e+01,3.690000000000000000e+02,7.600000000000000000e+01,2.800000000000000000e+01,2.400000000000000000e+01,2.400000000000000000e+01,4.300000000000000000e+01,6.099999999999999867e-01,4.192375400000000000e+09
4.100000000000000000e+01,9.400000000000000000e+01,4.040000000000000000e+02,6.300000000000000000e+01,2.400000000000000000e+01,2.200000000000000000e+01,2.200000000000000000e+01,4.700000000000000000e+01,6.099999999999999867e-01,4.210969400000000000e+09
3.800000000000000000e+01,8.400000000000000000e+01,4.370000000000000000e+02,6.700000000000000000e+01,2.400000000000000000e+01,2.100000000000000000e+01,2.100000000000000000e+01,4.200000000000000000e+01,6.099999999999999867e-01,4.229939600000000000e+09
3.300000000000000000e+01,7.500000000000000000e+01,4.170000000000000000e+02,6.900000000000000000e+01,2.200000000000000000e+01,2.400000000000000000e+01,2.100000000000000000e+01,3.800000000000000000e+01,5.999999999999999778e-01,4.248496700000000000e+09
3.300000000000000000e+01,7.600000000000000000e+01,4.470000000000000000e+02,6.300000000000000000e+01,2.100000000000000000e+01,2.500000000000000000e+01,1.900000000000000000e+01,3.900000000000000000e+01,5.999999999999999778e-01,4.270206100000000000e+09
3.500000000000000000e+01,7.300000000000000000e+01,4.640000000000000000e+02,6.200000000000000000e+01,2.100000000000000000e+01,2.400000000000000000e+01,2.100000000000000000e+01,3.400000000000000000e+01,5.999999999999999778e-01,4.292361000000000000e+09
3.800000000000000000e+01,9.100000000000000000e+01,4.800000000000000000e+02,6.200000000000000000e+01,2.300000000000000000e+01,2.600000000000000000e+01,2.100000000000000000e+01,3.200000000000000000e+01,5.999999999999999778e-01,4.310181800000000000e+09
3.600000000000000000e+01,9.300000000000000000e+01,4.600000000000000000e+02,6.200000000000000000e+01,2.000000000000000000e+01,2.500000000000000000e+01,2.100000000000000000e+01,3.000000000000000000e+01,5.899999999999999689e-01,4.329526700000000000e+09
3.700000000000000000e+01,9.400000000000000000e+01,5.040000000000000000e+02,7.500000000000000000e+01,2.300000000000000000e+01,2.200000000000000000e+01,1.900000000000000000e+01,3.000000000000000000e+01,5.899999999999999689e-01,4.348964400000000000e+09
4.600000000000000000e+01,1.370000000000000000e+02,5.260000000000000000e+02,8.700000000000000000e+01,2.900000000000000000e+01,2.100000000000000000e+01,2.200000000000000000e+01,3.400000000000000000e+01,5.899999999999999689e-01,4.370169300000000000e+09
4.600000000000000000e+01,1.410000000000000000e+02,5.300000000000000000e+02,9.600000000000000000e+01,3.100000000000000000e+01,2.400000000000000000e+01,2.300000000000000000e+01,3.400000000000000000e+01,5.899999999999999689e-01,4.392282000000000000e+09
4.500000000000000000e+01,1.400000000000000000e+02,5.270000000000000000e+02,9.700000000000000000e+01,3.100000000000000000e+01,2.400000000000000000e+01,2.200000000000000000e+01,5.600000000000000000e+01,5.899999999999999689e-01,4.415681700000000000e+09
4.600000000000000000e+01,1.330000000000000000e+02,5.070000000000000000e+02,9.300000000000000000e+01,3.200000000000000000e+01,2.700000000000000000e+01,2.500000000000000000e+01,5.900000000000000000e+01,5.899999999999999689e-01,4.434843200000000000e+09
4.500000000000000000e+01,1.270000000000000000e+02,4.560000000000000000e+02,8.300000000000000000e+01,3.100000000000000000e+01,2.700000000000000000e+01,2.500000000000000000e+01,6.100000000000000000e+01,5.899999999999999689e-01,4.453433700000000000e+09
4.200000000000000000e+01,8.200000000000000000e+01,4.030000000000000000e+02,9.600000000000000000e+01,2.800000000000000000e+01,2.900000000000000000e+01,2.300000000000000000e+01,6.600000000000000000e+01,5.899999999999999689e-01,4.473653500000000000e+09
4.300000000000000000e+01,8.600000000000000000e+01,4.200000000000000000e+02,9.300000000000000000e+01,2.800000000000000000e+01,2.700000000000000000e+01,2.300000000000000000e+01,6.700000000000000000e+01,5.999999999999999778e-01,4.494449400000000000e+09
3.900000000000000000e+01,6.700000000000000000e+01,3.930000000000000000e+02,9.000000000000000000e+01,2.900000000000000000e+01,2.600000000000000000e+01,2.400000000000000000e+01,4.800000000000000000e+01,5.999999999999999778e-01,4.512641300000000000e+09
3.900000000000000000e+01,8.300000000000000000e+01,4.130000000000000000e+02,9.000000000000000000e+01,2.700000000000000000e+01,2.400000000000000000e+01,2.200000000000000000e+01,5.200000000000000000e+01,5.999999999999999778e-01,4.530498100000000000e+09
4.200000000000000000e+01,1.010000000000000000e+02,4.450000000000000000e+02,1.100000000000000000e+02,3.200000000000000000e+01,2.600000000000000000e+01,2.400000000000000000e+01,5.100000000000000000e+01,5.999999999999999778e-01,4.548396800000000000e+09
4.400000000000000000e+01,1.110000000000000000e+02,4.290000000000000000e+02,9.900000000000000000e+01,3.600000000000000000e+01,2.600000000000000000e+01,2.400000000000000000e+01,4.600000000000000000e+01,5.999999999999999778e-01,4.567564600000000000e+09
4.000000000000000000e+01,1.080000000000000000e+02,4.090000000000000000e+02,9.500000000000000000e+01,3.400000000000000000e+01,2.500000000000000000e+01,2.400000000000000000e+01,4.700000000000000000e+01,6.099999999999999867e-01,4.589651700000000000e+09
4.000000000000000000e+01,1.070000000000000000e+02,3.950000000000000000e+02,9.600000000000000000e+01,3.300000000000000000e+01,2.500000000000000000e+01,2.400000000000000000e+01,4.500000000000000000e+01,6.099999999999999867e-01,4.611907300000000000e+09
3.900000000000000000e+01,9.600000000000000000e+01,4.180000000000000000e+02,1.000000000000000000e+02,3.400000000000000000e+01,2.500000000000000000e+01,2.300000000000000000e+01,3.800000000000000000e+01,6.099999999999999867e-01,4.630942000000000000e+09
3.900000000000000000e+01,8.400000000000000000e+01,4.420000000000000000e+02,7.800000000000000000e+01,3.000000000000000000e+01,2.300000000000000000e+01,2.200000000000000000e+01,3.700000000000000000e+01,6.099999999999999867e-01,4.648986800000000000e+09
3.200000000000000000e+01,8.700000000000000000e+01,4.570000000000000000e+02,7.200000000000000000e+01,2.400000000000000000e+01,2.100000000000000000e+01,2.100000000000000000e+01,2.700000000000000000e+01,6.099999999999999867e-01,4.668408500000000000e+09
3.200000000000000000e+01,8.500000000000000000e+01,4.430000000000000000e+02,7.400000000000000000e+01,2.500000000000000000e+01,2.400000000000000000e+01,1.800000000000000000e+01,2.300000000000000000e+01,6.099999999999999867e-01,4.689621800000000000e+09
3.600000000000000000e+01,8.800000000000000000e+01,4.340000000000000000e+02,7.200000000000000000e+01,2.600000000000000000e+01,2.300000000000000000e+01,1.700000000000000000e+01,3.400000000000000000e+01,6.099999999999999867e-01,4.711944400000000000e+09
3.500000000000000000e+01,8.800000000000000000e+01,4.150000000000000000e+02,6.800000000000000000e+01,2.400000000000000000e+01,2.300000000000000000e+01,1.800000000000000000e+01,3.700000000000000000e+01,6.099999999999999867e-01,4.731220300000000000e+09
3.700000000000000000e+01,1.020000000000000000e+02,4.190000000000000000e+02,8.600000000000000000e+01,2.600000000000000000e+01,2.400000000000000000e+01,2.000000000000000000e+01,4.200000000000000000e+01,6.099999999999999867e-01,4.750005200000000000e+09
4.100000000000000000e+01,9.000000000000000000e+01,3.930000000000000000e+02,7.700000000000000000e+01,2.400000000000000000e+01,2.400000000000000000e+01,2.000000000000000000e+01,6.500000000000000000e+01,6.099999999999999867e-01,4.768731100000000000e+09
4.200000000000000000e+01,9.300000000000000000e+01,4.320000000000000000e+02,7.800000000000000000e+01,2.400000000000000000e+01,2.100000000000000000e+01,2.100000000000000000e+01,6.700000000000000000e+01,6.099999999999999867e-01,4.789922400000000000e+09
3.800000000000000000e+01,1.040000000000000000e+02,4.420000000000000000e+02,7.700000000000000000e+01,2.400000000000000000e+01,2.000000000000000000e+01,2.000000000000000000e+01,6.400000000000000000e+01,5.999999999999999778e-01,4.812481200000000000e+09
4.000000000000000000e+01,1.070000000000000000e+02,4.800000000000000000e+02,8.400000000000000000e+01,2.600000000000000000e+01,2.400000000000000000e+01,2.200000000000000000e+01,7.100000000000000000e+01,5.999999999999999778e-01,4.830828700000000000e+09
3.700000000000000000e+01,9.200000000000000000e+01,4.250000000000000000e+02,6.500000000000000000e+01,2.200000000000000000e+01,2.400000000000000000e+01,2.100000000000000000e+01,7.100000000000000000e+01,5.999999999999999778e-01,4.856219200000000000e+09
3.400000000000000000e+01,1.000000000000000000e+02,4.250000000000000000e+02,6.700000000000000000e+01,2.600000000000000000e+01,2.300000000000000000e+01,2.200000000000000000e+01,5.300000000000000000e+01,5.999999999999999778e-01,4.875156800000000000e+09
4.300000000000000000e+01,9.500000000000000000e+01,4.590000000000000000e+02,8.000000000000000000e+01,2.600000000000000000e+01,2.300000000000000000e+01,2.400000000000000000e+01,7.700000000000000000e+01,5.999999999999999778e-01,4.893315100000000000e+09
4.500000000000000000e+01,9.700000000000000000e+01,4.870000000000000000e+02,8.500000000000000000e+01,2.600000000000000000e+01,2.300000000000000000e+01,2.500000000000000000e+01,7.600000000000000000e+01,5.999999999999999778e-01,4.914191100000000000e+09
4.600000000000000000e+01,9.500000000000000000e+01,4.880000000000000000e+02,7.900000000000000000e+01,2.900000000000000000e+01,2.100000000000000000e+01,2.400000000000000000e+01,7.300000000000000000e+01,5.999999999999999778e-01,4.932766100000000000e+09
4.700000000000000000e+01,1.080000000000000000e+02,4.880000000000000000e+02,8.400000000000000000e+01,3.100000000000000000e+01,2.200000000000000000e+01,2.400000000000000000e+01,7.200000000000000000e+01,5.999999999999999778e-01,4.951280100000000000e+09
4.400000000000000000e+01,9.800000000000000000e+01,5.030000000000000000e+02,8.100000000000000000e+01,2.800000000000000000e+01,2.200000000000000000e+01,2.400000000000000000e+01,7.200000000000000000e+01,5.999999999999999778e-01,4.969880700000000000e+09
3.700000000000000000e+01,1.080000000000000000e+02,4.240000000000000000e+02,6.600000000000000000e+01,2.800000000000000000e+01,2.300000000000000000e+01,2.300000000000000000e+01,4.700000000000000000e+01,5.899999999999999689e-01,4.992196200000000000e+09
3.500000000000000000e+01,9.300000000000000000e+01,3.810000000000000000e+02,6.300000000000000000e+01,2.800000000000000000e+01,2.300000000000000000e+01,2.300000000000000000e+01,4.600000000000000000e+01,5.899999999999999689e-01,5.010369900000000000e+09
3.400000000000000000e+01,1.010000000000000000e+02,3.530000000000000000e+02,5.900000000000000000e+01,2.400000000000000000e+01,2.100000000000000000e+01,2.200000000000000000e+01,3.700000000000000000e+01,5.899999999999999689e-01,5.029142400000000000e+09
3.300000000000000000e+01,8.300000000000000000e+01,3.880000000000000000e+02,5.300000000000000000e+01,2.200000000000000000e+01,1.900000000000000000e+01,2.200000000000000000e+01,3.400000000000000000e+01,5.799999999999999600e-01,5.047595300000000000e+09
3.600000000000000000e+01,8.200000000000000000e+01,3.670000000000000000e+02,6.500000000000000000e+01,2.400000000000000000e+01,2.000000000000000000e+01,2.300000000000000000e+01,3.500000000000000000e+01,5.799999999999999600e-01,5.069845600000000000e+09
3.700000000000000000e+01,7.600000000000000000e+01,4.350000000000000000e+02,7.500000000000000000e+01,2.900000000000000000e+01,2.000000000000000000e+01,2.100000000000000000e+01,2.900000000000000000e+01,5.799999999999999600e-01,5.091985000000000000e+09
4.000000000000000000e+01,1.080000000000000000e+02,4.320000000000000000e+02,7.700000000000000000e+01,3.000000000000000000e+01,2.200000000000000000e+01,2.200000000000000000e+01,4.800000000000000000e+01,5.799999999999999600e-01,5.109471200000000000e+09
4.100000000000000000e+01,1.010000000000000000e+02,4.080000000000000000e+02,7.500000000000000000e+01,3.000000000000000000e+01,2.200000000000000000e+01,2.200000000000000000e+01,6.000000000000000000e+01,5.799999999999999600e-01,5.129976200000000000e+09
4.000000000000000000e+01,1.060000000000000000e+02,3.740000000000000000e+02,8.200000000000000000e+01,3.100000000000000000e+01,2.300000000000000000e+01,2.000000000000000000e+01,6.100000000000000000e+01,5.799999999999999600e-01,5.148744800000000000e+09
4.100000000000000000e+01,1.180000000000000000e+02,4.040000000000000000e+02,8.100000000000000000e+01,3.200000000000000000e+01,2.300000000000000000e+01,2.100000000000000000e+01,6.000000000000000000e+01,5.799999999999999600e-01,5.169768200000000000e+09
4.700000000000000000e+01,1.400000000000000000e+02,3.520000000000000000e+02,7.900000000000000000e+01,2.800000000000000000e+01,2.500000000000000000e+01,2.200000000000000000e+01,6.800000000000000000e+01,5.799999999999999600e-01,5.194046400000000000e+09
5.400000000000000000e+01,1.310000000000000000e+02,3.520000000000000000e+02,7.500000000000000000e+01,2.800000000000000000e+01,2.400000000000000000e+01,2.200000000000000000e+01,8.300000000000000000e+01,5.799999999999999600e-01,5.211827000000000000e+09
5.300000000000000000e+01,1.290000000000000000e+02,3.800000000000000000e+02,8.200000000000000000e+01,2.900000000000000000e+01,2.500000000000000000e+01,2.300000000000000000e+01,7.800000000000000000e+01,5.799999999999999600e-01,5.230647000000000000e+09
5.500000000000000000e+01,1.320000000000000000e+02,4.520000000000000000e+02,8.000000000000000000e+01,2.800000000000000000e+01,2.500000000000000000e+01,2.400000000000000000e+01,8.000000000000000000e+01,5.899999999999999689e-01,5.249218700000000000e+09
5.200000000000000000e+01,1.210000000000000000e+02,4.180000000000000000e+02,7.000000000000000000e+01,2.400000000000000000e+01,2.500000000000000000e+01,2.200000000000000000e+01,8.300000000000000000e+01,5.899999999999999689e-01,5.269816600000000000e+09
4.400000000000000000e+01,1.120000000000000000e+02,4.140000000000000000e+02,6.100000000000000000e+01,2.400000000000000000e+01,2.200000000000000000e+01,2.200000000000000000e+01,7.800000000000000000e+01,5.799999999999999600e-01,5.291866900000000000e+09
3.300000000000000000e+01,1.000000000000000000e+02,4.100000000000000000e+02,6.100000000000000000e+01,2.300000000000000000e+01,2.300000000000000000e+01,2.300000000000000000e+01,5.000000000000000000e+01,5.799999999999999600e-01,5.309999100000000000e+09
3.100000000000000000e+01,1.010000000000000000e+02,4.430000000000000000e+02,6.600000000000000000e+01,2.600000000000000000e+01,2.100000000000000000e+01,2.200000000000000000e+01,4.600000000000000000e+01,5.799999999999999600e-01,5.336982600000000000e+09
3.200000000000000000e+01,9.500000000000000000e+01,4.190000000000000000e+02,6.000000000000000000e+01,2.600000000000000000e+01,2.100000000000000000e+01,2.200000000000000000e+01,4.700000000000000000e+01,5.799999999999999600e-01,5.355582300000000000e+09
3.100000000000000000e+01,9.400000000000000000e+01,4.340000000000000000e+02,6.800000000000000000e+01,2.900000000000000000e+01,1.900000000000000000e+01,2.200000000000000000e+01,3.900000000000000000e+01,5.799999999999999600e-01,5.374242600000000000e+09
3.200000000000000000e+01,8.100000000000000000e+01,4.350000000000000000e+02,8.500000000000000000e+01,3.100000000000000000e+01,2.200000000000000000e+01,2.200000000000000000e+01,3.700000000000000000e+01,5.799999999999999600e-01,5.392916700000000000e+09
3.900000000000000000e+01,1.040000000000000000e+02,4.530000000000000000e+02,1.110000000000000000e+02,3.600000000000000000e+01,2.400000000000000000e+01,2.100000000000000000e+01,3.700000000000000000e+01,5.799999999999999600e-01,5.411996800000000000e+09
4.800000000000000000e+01,1.370000000000000000e+02,4.080000000000000000e+02,1.060000000000000000e+02,3.500000000000000000e+01,2.500000000000000000e+01,2.100000000000000000e+01,4.600000000000000000e+01,5.799999999999999600e-01,5.430172600000000000e+09
5.200000000000000000e+01,1.560000000000000000e+02,3.700000000000000000e+02,1.130000000000000000e+02,3.900000000000000000e+01,2.800000000000000000e+01,2.200000000000000000e+01,4.200000000000000000e+01,5.799999999999999600e-01,5.448059600000000000e+09
5.100000000000000000e+01,1.620000000000000000e+02,3.740000000000000000e+02,1.100000000000000000e+02,3.800000000000000000e+01,2.900000000000000000e+01,2.200000000000000000e+01,4.200000000000000000e+01,5.899999999999999689e-01,5.467839100000000000e+09
5.300000000000000000e+01,1.670000000000000000e+02,4.270000000000000000e+02,1.060000000000000000e+02,3.600000000000000000e+01,2.600000000000000000e+01,2.300000000000000000e+01,4.400000000000000000e+01,5.899999999999999689e-01,5.489789900000000000e+09
5.000000000000000000e+01,1.590000000000000000e+02,4.690000000000000000e+02,8.600000000000000000e+01,3.500000000000000000e+01,2.400000000000000000e+01,2.400000000000000000e+01,4.300000000000000000e+01,5.899999999999999689e-01,5.512190400000000000e+09
4.800000000000000000e+01,1.450000000000000000e+02,4.640000000000000000e+02,8.500000000000000000e+01,3.300000000000000000e+01,2.300000000000000000e+01,2.500000000000000000e+01,4.100000000000000000e+01,5.999999999999999778e-01,5.530677600000000000e+09
4.400000000000000000e+01,1.340000000000000000e+02,4.770000000000000000e+02,8.000000000000000000e+01,3.000000000000000000e+01,2.100000000000000000e+01,2.500000000000000000e+01,5.500000000000000000e+01,5.999999999999999778e-01,5.549209500000000000e+09
4.800000000000000000e+01,1.380000000000000000e+02,4.590000000000000000e+02,7.800000000000000000e+01,2.900000000000000000e+01,2.300000000000000000e+01,2.700000000000000000e+01,6.000000000000000000e+01,5.999999999999999778e-01,5.569256900000000000e+09
4.600000000000000000e+01,1.380000000000000000e+02,4.910000000000000000e+02,8.300000000000000000e+01,3.200000000000000000e+01,2.400000000000000000e+01,2.500000000000000000e+01,6.000000000000000000e+01,5.999999999999999778e-01,5.589667700000000000e+09
4.500000000000000000e+01,1.450000000000000000e+02,5.290000000000000000e+02,8.000000000000000000e+01,2.700000000000000000e+01,2.400000000000000000e+01,2.400000000000000000e+01,6.100000000000000000e+01,6.099999999999999867e-01,5.611962900000000000e+09
3.900000000000000000e+01,1.430000000000000000e+02,5.330000000000000000e+02,7.800000000000000000e+01,3.000000000000000000e+01,2.500000000000000000e+01,2.300000000000000000e+01,5.700000000000000000e+01,6.099999999999999867e-01,5.636549300000000000e+09
3.700000000000000000e+01,1.390000000000000000e+02,5.290000000000000000e+02,7.500000000000000000e+01,2.800000000000000000e+01,2.500000000000000000e+01,2.200000000000000000e+01,4.600000000000000000e+01,6.099999999999999867e-01,5.654389000000000000e+09
3.300000000000000000e+01,1.380000000000000000e+02,5.340000000000000000e+02,7.700000000000000000e+01,3.000000000000000000e+01,2.600000000000000000e+01,2.200000000000000000e+01,4.100000000000000000e+01,6.099999999999999867e-01,5.673459600000000000e+09
3.700000000000000000e+01,1.270000000000000000e+02,4.720000000000000000e+02,6.600000000000000000e+01,2.900000000000000000e+01,2.600000000000000000e+01,2.300000000000000000e+01,4.600000000000000000e+01,6.099999999999999867e-01,5.692199200000000000e+09
3.400000000000000000e+01,1.090000000000000000e+02,3.800000000000000000e+02,6.300000000000000000e+01,2.900000000000000000e+01,2.600000000000000000e+01,2.200000000000000000e+01,4.400000000000000000e+01,5.999999999999999778e-01,5.711308700000000000e+09
3.600000000000000000e+01,9.700000000000000000e+01,4.150000000000000000e+02,7.900000000000000000e+01,2.800000000000000000e+01,2.500000000000000000e+01,2.100000000000000000e+01,4.200000000000000000e+01,5.999999999999999778e-01,5.732591700000000000e+09
3.900000000000000000e+01,1.090000000000000000e+02,4.040000000000000000e+02,8.600000000000000000e+01,3.000000000000000000e+01,2.500000000000000000e+01,2.100000000000000000e+01,3.800000000000000000e+01,5.999999999999999778e-01,5.750874000000000000e+09
4.900000000000000000e+01,1.160000000000000000e+02,4.390000000000000000e+02,9.400000000000000000e+01,3.300000000000000000e+01,2.500000000000000000e+01,2.200000000000000000e+01,5.900000000000000000e+01,5.999999999999999778e-01,5.772221800000000000e+09
5.000000000000000000e+01,1.120000000000000000e+02,4.460000000000000000e+02,9.200000000000000000e+01,3.000000000000000000e+01,2.400000000000000000e+01,2.000000000000000000e+01,5.700000000000000000e+01,5.999999999999999778e-01,5.790340000000000000e+09
5.200000000000000000e+01,1.150000000000000000e+02,4.350000000000000000e+02,1.020000000000000000e+02,3.400000000000000000e+01,2.300000000000000000e+01,2.300000000000000000e+01,5.800000000000000000e+01,5.999999999999999778e-01,5.810225200000000000e+09
5.400000000000000000e+01,1.290000000000000000e+02,4.070000000000000000e+02,1.070000000000000000e+02,3.800000000000000000e+01,2.400000000000000000e+01,2.600000000000000000e+01,6.000000000000000000e+01,5.999999999999999778e-01,5.832450100000000000e+09
5.600000000000000000e+01,1.280000000000000000e+02,4.350000000000000000e+02,1.010000000000000000e+02,3.700000000000000000e+01,2.500000000000000000e+01,2.600000000000000000e+01,6.600000000000000000e+01,5.999999999999999778e-01,5.850454600000000000e+09
4.600000000000000000e+01,1.130000000000000000e+02,4.110000000000000000e+02,9.700000000000000000e+01,3.400000000000000000e+01,2.100000000000000000e+01,2.400000000000000000e+01,5.400000000000000000e+01,5.999999999999999778e-01,5.876637700000000000e+09
4.500000000000000000e+01,1.170000000000000000e+02,3.850000000000000000e+02,9.500000000000000000e+01,3.600000000000000000e+01,2.300000000000000000e+01,2.500000000000000000e+01,6.900000000000000000e+01,5.999999999999999778e-01,5.895381100000000000e+09
4.200000000000000000e+01,1.200000000000000000e+02,4.340000000000000000e+02,8.500000000000000000e+01,3.200000000000000000e+01,2.400000000000000000e+01,2.300000000000000000e+01,6.800000000000000000e+01,5.999999999999999778e-01,5.913310700000000000e+09
4.200000000000000000e+01,1.030000000000000000e+02,4.030000000000000000e+02,6.700000000000000000e+01,2.500000000000000000e+01,2.200000000000000000e+01,2.000000000000000000e+01,6.900000000000000000e+01,5.999999999999999778e-01,5.932410400000000000e+09
4.200000000000000000e+01,9.800000000000000000e+01,4.580000000000000000e+02,7.600000000000000000e+01,2.700000000000000000e+01,2.200000000000000000e+01,1.900000000000000000e+01,6.600000000000000000e+01,6.099999999999999867e-01,5.951128500000000000e+09
4.100000000000000000e+01,9.700000000000000000e+01,4.450000000000000000e+02,7.100000000000000000e+01,2.700000000000000000e+01,2.400000000000000000e+01,1.900000000000000000e+01,6.400000000000000000e+01,5.999999999999999778e-01,5.968848800000000000e+09
4.300000000000000000e+01,1.020000000000000000e+02,4.770000000000000000e+02,9.100000000000000000e+01,2.900000000000000000e+01,2.600000000000000000e+01,1.900000000000000000e+01,4.700000000000000000e+01,5.999999999999999778e-01,5.988548400000000000e+09
4.400000000000000000e+01,9.700000000000000000e+01,4.740000000000000000e+02,9.300000000000000000e+01,2.900000000000000000e+01,2.500000000000000000e+01,2.100000000000000000e+01,5.300000000000000000e+01,5.999999999999999778e-01,6.011901800000000000e+09
4.000000000000000000e+01,1.160000000000000000e+02,5.530000000000000000e+02,1.000000000000000000e+02,3.200000000000000000e+01,2.400000000000000000e+01,2.200000000000000000e+01,5.000000000000000000e+01,5.999999999999999778e-01,6.034697400000000000e+09
3.800000000000000000e+01,1.070000000000000000e+02,5.240000000000000000e+02,9.300000000000000000e+01,2.900000000000000000e+01,2.500000000000000000e+01,2.200000000000000000e+01,4.600000000000000000e+01,5.999999999999999778e-01,6.052744200000000000e+09
4.100000000000000000e+01,1.130000000000000000e+02,6.480000000000000000e+02,9.900000000000000000e+01,3.400000000000000000e+01,2.300000000000000000e+01,2.400000000000000000e+01,4.300000000000000000e+01,5.999999999999999778e-01,6.072113800000000000e+09
4.000000000000000000e+01,1.100000000000000000e+02,6.410000000000000000e+02,8.100000000000000000e+01,3.300000000000000000e+01,2.200000000000000000e+01,2.300000000000000000e+01,4.400000000000000000e+01,5.999999999999999778e-01,6.091168900000000000e+09
4.600000000000000000e+01,1.100000000000000000e+02,6.480000000000000000e+02,7.900000000000000000e+01,3.500000000000000000e+01,2.500000000000000000e+01,2.500000000000000000e+01,4.700000000000000000e+01,5.999999999999999778e-01,6.112534700000000000e+09
5.200000000000000000e+01,9.800000000000000000e+01,6.130000000000000000e+02,8.000000000000000000e+01,3.500000000000000000e+01,2.600000000000000000e+01,2.500000000000000000e+01,7.100000000000000000e+01,5.999999999999999778e-01,6.131217000000000000e+09
4.900000000000000000e+01,1.010000000000000000e+02,5.800000000000000000e+02,7.600000000000000000e+01,3.500000000000000000e+01,2.600000000000000000e+01,2.500000000000000000e+01,7.100000000000000000e+01,5.999999999999999778e-01,6.150138000000000000e+09
5.500000000000000000e+01,1.270000000000000000e+02,4.890000000000000000e+02,7.500000000000000000e+01,3.300000000000000000e+01,2.500000000000000000e+01,2.600000000000000000e+01,7.400000000000000000e+01,5.999999999999999778e-01,6.169301600000000000e+09
5.500000000000000000e+01,1.450000000000000000e+02,5.860000000000000000e+02,9.100000000000000000e+01,3.400000000000000000e+01,2.700000000000000000e+01,2.600000000000000000e+01,7.300000000000000000e+01,5.999999999999999778e-01,6.192491100000000000e+09
6.800000000000000000e+01,1.450000000000000000e+02,5.840000000000000000e+02,9.100000000000000000e+01,3.300000000000000000e+01,3.100000000000000000e+01,2.500000000000000000e+01,7.900000000000000000e+01,5.999999999999999778e-01,6.212875000000000000e+09
7.600000000000000000e+01,1.480000000000000000e+02,6.200000000000000000e+02,9.300000000000000000e+01,3.400000000000000000e+01,3.100000000000000000e+01,2.500000000000000000e+01,7.800000000000000000e+01,5.999999999999999778e-01,6.231276800000000000e+09
7.800000000000000000e+01,1.460000000000000000e+02,6.380000000000000000e+02,1.010000000000000000e+02,3.500000000000000000e+01,3.100000000000000000e+01,2.600000000000000000e+01,7.800000000000000000e+01,5.999999999999999778e-01,6.252587800000000000e+09
7.200000000000000000e+01,1.200000000000000000e+02,6.060000000000000000e+02,1.040000000000000000e+02,3.300000000000000000e+01,3.100000000000000000e+01,2.300000000000000000e+01,7.800000000000000000e+01,5.999999999999999778e-01,6.272068100000000000e+09
7.600000000000000000e+01,1.010000000000000000e+02,5.070000000000000000e+02,1.010000000000000000e+02,3.500000000000000000e+01,3.000000000000000000e+01,2.500000000000000000e+01,8.000000000000000000e+01,5.999999999999999778e-01,6.291270700000000000e+09
6.200000000000000000e+01,1.000000000000000000e+02,4.760000000000000000e+02,1.070000000000000000e+02,3.300000000000000000e+01,2.400000000000000000e+01,2.300000000000000000e+01,8.700000000000000000e+01,5.999999999999999778e-01,6.313652900000000000e+09
4.700000000000000000e+01,9.000000000000000000e+01,4.920000000000000000e+02,1.070000000000000000e+02,3.300000000000000000e+01,2.500000000000000000e+01,2.200000000000000000e+01,7.200000000000000000e+01,5.999999999999999778e-01,6.331304100000000000e+09
4.500000000000000000e+01,9.000000000000000000e+01,5.360000000000000000e+02,1.070000000000000000e+02,3.100000000000000000e+01,2.400000000000000000e+01,2.200000000000000000e+01,7.200000000000000000e+01,5.999999999999999778e-01,6.349513400000000000e+09
4.800000000000000000e+01,9.400000000000000000e+01,5.330000000000000000e+02,1.040000000000000000e+02,3.000000000000000000e+01,2.400000000000000000e+01,4.300000000000000000e+01,7.400000000000000000e+01,5.999999999999999778e-01,6.372121900000000000e+09
4.300000000000000000e+01,1.000000000000000000e+02,5.830000000000000000e+02,1.050000000000000000e+02,3.000000000000000000e+01,2.300000000000000000e+01,4.200000000000000000e+01,7.000000000000000000e+01,5.999999999999999778e-01,6.394467900000000000e+09
3.800000000000000000e+01,1.000000000000000000e+02,5.870000000000000000e+02,1.020000000000000000e+02,3.200000000000000000e+01,2.400000000000000000e+01,4.500000000000000000e+01,4.400000000000000000e+01,5.999999999999999778e-01,6.413607700000000000e+09
4.700000000000000000e+01,1.120000000000000000e+02,6.020000000000000000e+02,1.000000000000000000e+02,3.000000000000000000e+01,2.200000000000000000e+01,4.600000000000000000e+01,4.800000000000000000e+01,5.999999999999999778e-01,6.431965400000000000e+09
4.800000000000000000e+01,1.220000000000000000e+02,6.000000000000000000e+02,1.090000000000000000e+02,3.300000000000000000e+01,2.500000000000000000e+01,4.800000000000000000e+01,5.100000000000000000e+01,5.999999999999999778e-01,6.455202800000000000e+09
4.700000000000000000e+01,1.190000000000000000e+02,6.000000000000000000e+02,1.040000000000000000e+02,3.400000000000000000e+01,2.500000000000000000e+01,3.100000000000000000e+01,4.500000000000000000e+01,5.999999999999999778e-01,6.474042100000000000e+09
4.800000000000000000e+01,1.210000000000000000e+02,5.390000000000000000e+02,9.000000000000000000e+01,3.400000000000000000e+01,2.500000000000000000e+01,3.000000000000000000e+01,6.600000000000000000e+01,6.099999999999999867e-01,6.499477500000000000e+09
5.000000000000000000e+01,1.200000000000000000e+02,5.530000000000000000e+02,9.400000000000000000e+01,3.100000000000000000e+01,2.700000000000000000e+01,2.700000000000000000e+01,6.900000000000000000e+01,6.099999999999999867e-01,6.521740000000000000e+09
4.300000000000000000e+01,1.090000000000000000e+02,4.640000000000000000e+02,8.700000000000000000e+01,3.000000000000000000e+01,2.700000000000000000e+01,2.500000000000000000e+01,6.600000000000000000e+01,6.099999999999999867e-01,6.540433800000000000e+09
4.100000000000000000e+01,9.500000000000000000e+01,3.900000000000000000e+02,6.300000000000000000e+01,2.500000000000000000e+01,2.500000000000000000e+01,2.300000000000000000e+01,6.400000000000000000e+01,5.999999999999999778e-01,6.558835300000000000e+09
4.500000000000000000e+01,1.040000000000000000e+02,4.480000000000000000e+02,7.400000000000000000e+01,2.800000000000000000e+01,2.700000000000000000e+01,2.500000000000000000e+01,6.300000000000000000e+01,5.999999999999999778e-01,6.580719500000000000e+09
4.200000000000000000e+01,8.800000000000000000e+01,4.950000000000000000e+02,8.100000000000000000e+01,2.700000000000000000e+01,2.500000000000000000e+01,2.500000000000000000e+01,4.000000000000000000e+01,5.999999999999999778e-01,6.598673700000000000e+09
4.200000000000000000e+01,8.700000000000000000e+01,4.600000000000000000e+02,7.100000000000000000e+01,2.600000000000000000e+01,2.300000000000000000e+01,2.700000000000000000e+01,4.200000000000000000e+01,5.999999999999999778e-01,6.616755200000000000e+09
4.300000000000000000e+01,9.500000000000000000e+01,4.730000000000000000e+02,8.000000000000000000e+01,2.900000000000000000e+01,2.600000000000000000e+01,2.800000000000000000e+01,4.400000000000000000e+01,5.999999999999999778e-01,6.634831700000000000e+09
4.500000000000000000e+01,9.800000000000000000e+01,4.700000000000000000e+02,9.600000000000000000e+01,3.000000000000000000e+01,2.700000000000000000e+01,2.900000000000000000e+01,4.500000000000000000e+01,5.999999999999999778e-01,6.653688400000000000e+09
4.400000000000000000e+01,1.050000000000000000e+02,4.900000000000000000e+02,1.030000000000000000e+02,3.000000000000000000e+01,2.700000000000000000e+01,2.800000000000000000e+01,4.500000000000000000e+01,5.999999999999999778e-01,6.671702300000000000e+09
4.500000000000000000e+01,1.130000000000000000e+02,5.190000000000000000e+02,1.080000000000000000e+02,3.300000000000000000e+01,2.900000000000000000e+01,2.900000000000000000e+01,4.600000000000000000e+01,5.999999999999999778e-01,6.696335500000000000e+09
4.900000000000000000e+01,1.150000000000000000e+02,5.240000000000000000e+02,1.120000000000000000e+02,3.500000000000000000e+01,3.000000000000000000e+01,2.600000000000000000e+01,7.300000000000000000e+01,5.999999999999999778e-01,6.714618500000000000e+09
4.600000000000000000e+01,1.120000000000000000e+02,5.000000000000000000e+02,1.020000000000000000e+02,3.300000000000000000e+01,2.800000000000000000e+01,2.800000000000000000e+01,7.600000000000000000e+01,5.999999999999999778e-01,6.733471200000000000e+09
4.600000000000000000e+01,1.250000000000000000e+02,5.850000000000000000e+02,1.070000000000000000e+02,3.700000000000000000e+01,2.700000000000000000e+01,2.700000000000000000e+01,7.800000000000000000e+01,5.999999999999999778e-01,6.754439000000000000e+09
4.300000000000000000e+01,1.090000000000000000e+02,5.340000000000000000e+02,9.700000000000000000e+01,3.300000000000000000e+01,2.500000000000000000e+01,2.600000000000000000e+01,8.200000000000000000e+01,5.999999999999999778e-01,6.773399300000000000e+09
4.100000000000000000e+01,9.900000000000000000e+01,5.010000000000000000e+02,9.100000000000000000e+01,3.100000000000000000e+01,2.500000000000000000e+01,2.700000000000000000e+01,8.200000000000000000e+01,5.999999999999999778e-01,6.800440400000000000e+09
3.800000000000000000e+01,1.100000000000000000e+02,5.200000000000000000e+02,9.400000000000000000e+01,3.000000000000000000e+01,2.600000000000000000e+01,2.800000000000000000e+01,5.800000000000000000e+01,5.999999999999999778e-01,6.818407600000000000e+09
4.300000000000000000e+01,1.240000000000000000e+02,5.170000000000000000e+02,9.300000000000000000e+01,3.000000000000000000e+01,2.600000000000000000e+01,2.800000000000000000e+01,5.700000000000000000e+01,5.999999999999999778e-01,6.837168000000000000e+09
4.300000000000000000e+01,1.130000000000000000e+02,4.050000000000000000e+02,7.300000000000000000e+01,2.400000000000000000e+01,2.600000000000000000e+01,2.900000000000000000e+01,5.400000000000000000e+01,5.999999999999999778e-01,6.855993200000000000e+09
4.300000000000000000e+01,1.140000000000000000e+02,4.240000000000000000e+02,8.400000000000000000e+01,2.600000000000000000e+01,2.500000000000000000e+01,2.800000000000000000e+01,4.800000000000000000e+01,5.999999999999999778e-01,6.874620100000000000e+09
4.400000000000000000e+01,1.150000000000000000e+02,4.410000000000000000e+02,8.100000000000000000e+01,2.600000000000000000e+01,2.400000000000000000e+01,2.800000000000000000e+01,4.700000000000000000e+01,5.999999999999999778e-01,6.893107600000000000e+09
4.100000000000000000e+01,1.080000000000000000e+02,4.170000000000000000e+02,7.800000000000000000e+01,2.700000000000000000e+01,2.300000000000000000e+01,2.700000000000000000e+01,4.200000000000000000e+01,5.999999999999999778e-01,6.911778900000000000e+09
3.900000000000000000e+01,1.030000000000000000e+02,4.120000000000000000e+02,8.700000000000000000e+01,2.600000000000000000e+01,2.200000000000000000e+01,2.400000000000000000e+01,6.400000000000000000e+01,5.999999999999999778e-01,6.934783300000000000e+09
4.100000000000000000e+01,9.800000000000000000e+01,5.190000000000000000e+02,9.300000000000000000e+01,3.100000000000000000e+01,2.600000000000000000e+01,2.500000000000000000e+01,6.700000000000000000e+01,5.999999999999999778e-01,6.957715400000000000e+09
4.100000000000000000e+01,1.030000000000000000e+02,5.570000000000000000e+02,8.200000000000000000e+01,3.000000000000000000e+01,2.500000000000000000e+01,2.500000000000000000e+01,6.800000000000000000e+01,5.999999999999999778e-01,6.977196600000000000e+09
4.000000000000000000e+01,1.020000000000000000e+02,5.350000000000000000e+02,8.700000000000000000e+01,3.000000000000000000e+01,2.600000000000000000e+01,2.400000000000000000e+01,6.800000000000000000e+01,5.999999999999999778e-01,6.995055200000000000e+09
4.200000000000000000e+01,1.050000000000000000e+02,5.470000000000000000e+02,8.200000000000000000e+01,2.900000000000000000e+01,2.700000000000000000e+01,2.700000000000000000e+01,8.100000000000000000e+01,5.999999999999999778e-01,7.017229900000000000e+09
3.900000000000000000e+01,8.400000000000000000e+01,5.930000000000000000e+02,7.300000000000000000e+01,2.900000000000000000e+01,2.500000000000000000e+01,2.600000000000000000e+01,6.200000000000000000e+01,5.999999999999999778e-01,7.036546300000000000e+09
3.000000000000000000e+01,8.400000000000000000e+01,5.300000000000000000e+02,6.900000000000000000e+01,2.500000000000000000e+01,2.100000000000000000e+01,2.500000000000000000e+01,6.100000000000000000e+01,5.999999999999999778e-01,7.054997900000000000e+09
3.400000000000000000e+01,9.700000000000000000e+01,5.060000000000000000e+02,7.200000000000000000e+01,2.900000000000000000e+01,2.500000000000000000e+01,4.200000000000000000e+01,6.200000000000000000e+01,5.999999999999999778e-01,7.072960700000000000e+09
4.200000000000000000e+01,9.600000000000000000e+01,4.840000000000000000e+02,6.500000000000000000e+01,2.900000000000000000e+01,2.600000000000000000e+01,1.160000000000000000e+02,1.560000000000000000e+02,5.899999999999999689e-01,7.092764400000000000e+09
4.000000000000000000e+01,8.600000000000000000e+01,5.380000000000000000e+02,7.500000000000000000e+01,3.300000000000000000e+01,2.700000000000000000e+01,1.230000000000000000e+02,1.870000000000000000e+02,5.899999999999999689e-01,7.113532900000000000e+09
4.400000000000000000e+01,1.270000000000000000e+02,4.900000000000000000e+02,8.000000000000000000e+01,3.400000000000000000e+01,2.900000000000000000e+01,1.290000000000000000e+02,1.950000000000000000e+02,5.799999999999999600e-01,7.132036900000000000e+09
5.000000000000000000e+01,1.300000000000000000e+02,5.150000000000000000e+02,7.300000000000000000e+01,3.400000000000000000e+01,2.900000000000000000e+01,1.370000000000000000e+02,2.180000000000000000e+02,5.699999999999999512e-01,7.153201700000000000e+09
4.700000000000000000e+01,1.250000000000000000e+02,5.190000000000000000e+02,7.200000000000000000e+01,3.100000000000000000e+01,2.600000000000000000e+01,1.940000000000000000e+02,2.230000000000000000e+02,5.600000000000000533e-01,7.174002300000000000e+09
4.300000000000000000e+01,1.270000000000000000e+02,5.190000000000000000e+02,6.900000000000000000e+01,3.100000000000000000e+01,2.600000000000000000e+01,1.640000000000000000e+02,2.040000000000000000e+02,5.500000000000000444e-01,7.192107400000000000e+09
4.600000000000000000e+01,1.390000000000000000e+02,4.750000000000000000e+02,5.800000000000000000e+01,2.500000000000000000e+01,2.600000000000000000e+01,1.740000000000000000e+02,1.760000000000000000e+02,5.500000000000000444e-01,7.211860500000000000e+09
4.600000000000000000e+01,1.280000000000000000e+02,4.970000000000000000e+02,6.600000000000000000e+01,2.800000000000000000e+01,2.800000000000000000e+01,1.740000000000000000e+02,1.820000000000000000e+02,5.400000000000000355e-01,7.236047600000000000e+09
4.100000000000000000e+01,1.440000000000000000e+02,4.570000000000000000e+02,7.200000000000000000e+01,2.800000000000000000e+01,3.000000000000000000e+01,2.050000000000000000e+02,1.550000000000000000e+02,5.300000000000000266e-01,7.254593500000000000e+09
5.100000000000000000e+01,1.490000000000000000e+02,4.050000000000000000e+02,7.700000000000000000e+01,2.900000000000000000e+01,3.300000000000000000e+01,1.590000000000000000e+02,1.570000000000000000e+02,5.300000000000000266e-01,7.273236400000000000e+09
5.100000000000000000e+01,1.470000000000000000e+02,4.050000000000000000e+02,7.800000000000000000e+01,3.100000000000000000e+01,3.200000000000000000e+01,1.610000000000000000e+02,1.150000000000000000e+02,5.300000000000000266e-01,7.294259100000000000e+09
4.800000000000000000e+01,1.420000000000000000e+02,4.060000000000000000e+02,8.500000000000000000e+01,3.200000000000000000e+01,3.000000000000000000e+01,1.490000000000000000e+02,1.100000000000000000e+02,5.300000000000000266e-01,7.313280900000000000e+09
4.900000000000000000e+01,1.280000000000000000e+02,4.330000000000000000e+02,8.600000000000000000e+01,2.900000000000000000e+01,2.900000000000000000e+01,1.460000000000000000e+02,8.100000000000000000e+01,5.300000000000000266e-01,7.331916000000000000e+09
5.300000000000000000e+01,1.150000000000000000e+02,4.340000000000000000e+02,8.400000000000000000e+01,2.800000000000000000e+01,2.700000000000000000e+01,9.000000000000000000e+01,8.700000000000000000e+01,5.300000000000000266e-01,7.355549100000000000e+09
4.500000000000000000e+01,1.030000000000000000e+02,4.340000000000000000e+02,8.000000000000000000e+01,2.800000000000000000e+01,2.400000000000000000e+01,7.200000000000000000e+01,6.800000000000000000e+01,5.300000000000000266e-01,7.373850300000000000e+09
4.700000000000000000e+01,1.200000000000000000e+02,5.050000000000000000e+02,9.600000000000000000e+01,3.000000000000000000e+01,2.400000000000000000e+01,6.000000000000000000e+01,7.900000000000000000e+01,5.400000000000000355e-01,7.393022100000000000e+09
4.800000000000000000e+01,1.510000000000000000e+02,5.300000000000000000e+02,9.400000000000000000e+01,2.800000000000000000e+01,2.400000000000000000e+01,4.900000000000000000e+01,7.700000000000000000e+01,5.500000000000000444e-01,7.414777900000000000e+09
4.600000000000000000e+01,1.500000000000000000e+02,5.530000000000000000e+02,9.000000000000000000e+01,2.700000000000000000e+01,2.100000000000000000e+01,4.200000000000000000e+01,9.500000000000000000e+01,5.500000000000000444e-01,7.434332700000000000e+09
4.200000000000000000e+01,1.500000000000000000e+02,5.560000000000000000e+02,8.900000000000000000e+01,3.100000000000000000e+01,2.100000000000000000e+01,3.400000000000000000e+01,9.900000000000000000e+01,5.600000000000000533e-01,7.452505200000000000e+09
4.300000000000000000e+01,1.560000000000000000e+02,5.460000000000000000e+02,8.800000000000000000e+01,3.000000000000000000e+01,2.000000000000000000e+01,4.400000000000000000e+01,1.040000000000000000e+02,5.600000000000000533e-01,7.474352100000000000e+09
3.700000000000000000e+01,1.430000000000000000e+02,4.730000000000000000e+02,7.400000000000000000e+01,2.700000000000000000e+01,2.000000000000000000e+01,4.800000000000000000e+01,9.600000000000000000e+01,5.699999999999999512e-01,7.495038800000000000e+09
4.600000000000000000e+01,1.070000000000000000e+02,4.480000000000000000e+02,7.600000000000000000e+01,2.900000000000000000e+01,2.200000000000000000e+01,4.900000000000000000e+01,1.100000000000000000e+02,5.699999999999999512e-01,7.513235400000000000e+09
4.800000000000000000e+01,1.190000000000000000e+02,3.550000000000000000e+02,7.000000000000000000e+01,2.900000000000000000e+01,2.500000000000000000e+01,4.800000000000000000e+01,9.900000000000000000e+01,5.699999999999999512e-01,7.534826400000000000e+09
4.700000000000000000e+01,1.220000000000000000e+02,4.190000000000000000e+02,6.800000000000000000e+01,2.300000000000000000e+01,2.500000000000000000e+01,4.700000000000000000e+01,1.300000000000000000e+02,5.699999999999999512e-01,7.556604700000000000e+09
4.500000000000000000e+01,1.150000000000000000e+02,4.180000000000000000e+02,6.900000000000000000e+01,2.700000000000000000e+01,2.400000000000000000e+01,3.500000000000000000e+01,1.230000000000000000e+02,5.699999999999999512e-01,7.575666500000000000e+09
5.200000000000000000e+01,1.270000000000000000e+02,4.650000000000000000e+02,6.100000000000000000e+01,2.600000000000000000e+01,2.500000000000000000e+01,2.500000000000000000e+01,1.240000000000000000e+02,5.699999999999999512e-01,7.594933100000000000e+09
4.300000000000000000e+01,1.220000000000000000e+02,4.440000000000000000e+02,5.500000000000000000e+01,2.700000000000000000e+01,2.600000000000000000e+01,2.500000000000000000e+01,1.110000000000000000e+02,5.600000000000000533e-01,7.616515400000000000e+09
4.400000000000000000e+01,1.300000000000000000e+02,4.870000000000000000e+02,7.300000000000000000e+01,3.100000000000000000e+01,2.300000000000000000e+01,2.500000000000000000e+01,1.240000000000000000e+02,5.600000000000000533e-01,7.634466100000000000e+09
4.800000000000000000e+01,1.230000000000000000e+02,4.570000000000000000e+02,7.900000000000000000e+01,3.300000000000000000e+01,2.300000000000000000e+01,2.500000000000000000e+01,9.800000000000000000e+01,5.600000000000000533e-01,7.653453300000000000e+09
4.700000000000000000e+01,1.210000000000000000e+02,4.560000000000000000e+02,8.500000000000000000e+01,3.100000000000000000e+01,2.400000000000000000e+01,2.300000000000000000e+01,1.010000000000000000e+02,5.600000000000000533e-01,7.677179300000000000e+09
4.500000000000000000e+01,1.180000000000000000e+02,4.590000000000000000e+02,9.700000000000000000e+01,3.200000000000000000e+01,2.500000000000000000e+01,2.300000000000000000e+01,9.900000000000000000e+01,5.600000000000000533e-01,7.695512900000000000e+09
4.600000000000000000e+01,1.380000000000000000e+02,5.310000000000000000e+02,1.060000000000000000e+02,3.200000000000000000e+01,2.400000000000000000e+01,2.300000000000000000e+01,1.030000000000000000e+02,5.600000000000000533e-01,7.714236500000000000e+09
5.300000000000000000e+01,1.300000000000000000e+02,4.980000000000000000e+02,1.040000000000000000e+02,3.400000000000000000e+01,3.000000000000000000e+01,2.600000000000000000e+01,9.800000000000000000e+01,5.600000000000000533e-01,7.737542500000000000e+09
4.800000000000000000e+01,1.280000000000000000e+02,5.020000000000000000e+02,1.080000000000000000e+02,3.400000000000000000e+01,3.000000000000000000e+01,2.600000000000000000e+01,8.100000000000000000e+01,5.600000000000000533e-01,7.755976700000000000e+09
5.300000000000000000e+01,1.270000000000000000e+02,5.060000000000000000e+02,1.010000000000000000e+02,3.400000000000000000e+01,3.000000000000000000e+01,2.600000000000000000e+01,7.900000000000000000e+01,5.699999999999999512e-01,7.774159400000000000e+09
5.700000000000000000e+01,1.250000000000000000e+02,4.620000000000000000e+02,1.030000000000000000e+02,4.000000000000000000e+01,3.000000000000000000e+01,3.500000000000000000e+01,1.870000000000000000e+02,5.699999999999999512e-01,7.797601200000000000e+09
5.800000000000000000e+01,1.120000000000000000e+02,3.560000000000000000e+02,9.100000000000000000e+01,3.800000000000000000e+01,3.000000000000000000e+01,3.800000000000000000e+01,1.940000000000000000e+02,5.699999999999999512e-01,7.816286500000000000e+09
4.900000000000000000e+01,9.800000000000000000e+01,3.470000000000000000e+02,7.600000000000000000e+01,3.300000000000000000e+01,2.500000000000000000e+01,3.500000000000000000e+01,1.900000000000000000e+02,5.699999999999999512e-01,7.834890200000000000e+09
5.100000000000000000e+01,9.400000000000000000e+01,2.950000000000000000e+02,6.600000000000000000e+01,3.100000000000000000e+01,2.700000000000000000e+01,3.500000000000000000e+01,1.970000000000000000e+02,5.600000000000000533e-01,7.863832300000000000e+09
4.800000000000000000e+01,1.020000000000000000e+02,2.680000000000000000e+02,6.400000000000000000e+01,3.000000000000000000e+01,2.600000000000000000e+01,3.400000000000000000e+01,2.060000000000000000e+02,5.600000000000000533e-01,7.881865700000000000e+09
4.700000000000000000e+01,9.800000000000000000e+01,2.400000000000000000e+02,5.200000000000000000e+01,2.200000000000000000e+01,2.300000000000000000e+01,2.600000000000000000e+01,1.650000000000000000e+02,5.600000000000000533e-01,7.899821600000000000e+09
4.700000000000000000e+01,9.700000000000000000e+01,2.580000000000000000e+02,6.700000000000000000e+01,2.500000000000000000e+01,2.100000000000000000e+01,2.100000000000000000e+01,1.570000000000000000e+02,5.500000000000000444e-01,7.917227000000000000e+09
4.700000000000000000e+01,9.600000000000000000e+01,3.710000000000000000e+02,7.500000000000000000e+01,2.900000000000000000e+01,2.400000000000000000e+01,2.000000000000000000e+01,1.640000000000000000e+02,5.500000000000000444e-01,7.935533900000000000e+09
4.600000000000000000e+01,1.140000000000000000e+02,4.190000000000000000e+02,8.400000000000000000e+01,2.800000000000000000e+01,2.300000000000000000e+01,1.900000000000000000e+01,1.590000000000000000e+02,5.500000000000000444e-01,7.955920800000000000e+09
4.400000000000000000e+01,1.120000000000000000e+02,4.400000000000000000e+02,8.500000000000000000e+01,3.000000000000000000e+01,2.400000000000000000e+01,2.100000000000000000e+01,1.490000000000000000e+02,5.400000000000000355e-01,7.977709200000000000e+09
4.200000000000000000e+01,1.140000000000000000e+02,4.450000000000000000e+02,8.100000000000000000e+01,3.000000000000000000e+01,2.600000000000000000e+01,2.100000000000000000e+01,1.170000000000000000e+02,5.400000000000000355e-01,7.995575900000000000e+09
4.100000000000000000e+01,1.120000000000000000e+02,4.380000000000000000e+02,8.000000000000000000e+01,2.800000000000000000e+01,2.600000000000000000e+01,2.100000000000000000e+01,1.150000000000000000e+02,5.400000000000000355e-01,8.015763800000000000e+09
4.300000000000000000e+01,1.160000000000000000e+02,4.130000000000000000e+02,8.300000000000000000e+01,2.800000000000000000e+01,2.400000000000000000e+01,2.400000000000000000e+01,9.800000000000000000e+01,5.400000000000000355e-01,8.037093300000000000e+09
4.400000000000000000e+01,1.060000000000000000e+02,4.800000000000000000e+02,7.500000000000000000e+01,2.900000000000000000e+01,2.400000000000000000e+01,2.600000000000000000e+01,1.140000000000000000e+02,5.400000000000000355e-01,8.056444200000000000e+09
5.000000000000000000e+01,1.170000000000000000e+02,5.070000000000000000e+02,8.000000000000000000e+01,3.100000000000000000e+01,2.500000000000000000e+01,2.700000000000000000e+01,1.220000000000000000e+02,5.400000000000000355e-01,8.075618000000000000e+09
4.300000000000000000e+01,1.130000000000000000e+02,5.060000000000000000e+02,7.900000000000000000e+01,3.000000000000000000e+01,2.400000000000000000e+01,2.500000000000000000e+01,9.800000000000000000e+01,5.500000000000000444e-01,8.096972800000000000e+09
4.300000000000000000e+01,1.150000000000000000e+02,5.210000000000000000e+02,7.800000000000000000e+01,3.000000000000000000e+01,2.500000000000000000e+01,2.500000000000000000e+01,1.040000000000000000e+02,5.500000000000000444e-01,8.115446600000000000e+09
5.500000000000000000e+01,1.190000000000000000e+02,4.740000000000000000e+02,7.200000000000000000e+01,2.800000000000000000e+01,2.600000000000000000e+01,2.500000000000000000e+01,1.110000000000000000e+02,5.600000000000000533e-01,8.133755600000000000e+09
5.200000000000000000e+01,1.180000000000000000e+02,3.620000000000000000e+02,7.300000000000000000e+01,2.700000000000000000e+01,2.700000000000000000e+01,2.400000000000000000e+01,9.000000000000000000e+01,5.600000000000000533e-01,8.156678900000000000e+09
5.000000000000000000e+01,1.100000000000000000e+02,4.240000000000000000e+02,8.300000000000000000e+01,2.800000000000000000e+01,2.700000000000000000e+01,2.300000000000000000e+01,8.100000000000000000e+01,5.600000000000000533e-01,8.174795800000000000e+09
5.400000000000000000e+01,1.100000000000000000e+02,4.540000000000000000e+02,9.000000000000000000e+01,2.900000000000000000e+01,2.700000000000000000e+01,2.300000000000000000e+01,1.050000000000000000e+02,5.600000000000000533e-01,8.194481500000000000e+09
5.300000000000000000e+01,1.040000000000000000e+02,4.470000000000000000e+02,8.100000000000000000e+01,2.900000000000000000e+01,2.600000000000000000e+01,2.400000000000000000e+01,1.120000000000000000e+02,5.699999999999999512e-01,8.217036700000000000e+09
3.900000000000000000e+01,1.170000000000000000e+02,4.600000000000000000e+02,8.800000000000000000e+01,2.900000000000000000e+01,2.500000000000000000e+01,2.100000000000000000e+01,1.060000000000000000e+02,5.699999999999999512e-01,8.235032000000000000e+09
4.200000000000000000e+01,1.380000000000000000e+02,4.820000000000000000e+02,9.000000000000000000e+01,3.000000000000000000e+01,2.500000000000000000e+01,2.100000000000000000e+01,1.060000000000000000e+02,5.699999999999999512e-01,8.254805700000000000e+09
4.300000000000000000e+01,1.350000000000000000e+02,4.080000000000000000e+02,8.000000000000000000e+01,2.700000000000000000e+01,2.300000000000000000e+01,2.200000000000000000e+01,1.130000000000000000e+02,5.699999999999999512e-01,8.276449200000000000e+09
3.800000000000000000e+01,1.340000000000000000e+02,4.390000000000000000e+02,8.500000000000000000e+01,2.700000000000000000e+01,2.500000000000000000e+01,2.400000000000000000e+01,9.900000000000000000e+01,5.699999999999999512e-01,8.295640300000000000e+09
3.800000000000000000e+01,1.330000000000000000e+02,4.410000000000000000e+02,8.900000000000000000e+01,2.700000000000000000e+01,2.600000000000000000e+01,2.500000000000000000e+01,8.000000000000000000e+01,5.799999999999999600e-01,8.314357400000000000e+09
3.900000000000000000e+01,1.240000000000000000e+02,5.210000000000000000e+02,8.200000000000000000e+01,2.600000000000000000e+01,2.500000000000000000e+01,2.600000000000000000e+01,7.800000000000000000e+01,5.799999999999999600e-01,8.337040700000000000e+09
3.700000000000000000e+01,9.500000000000000000e+01,5.400000000000000000e+02,1.010000000000000000e+02,2.800000000000000000e+01,2.500000000000000000e+01,2.600000000000000000e+01,7.600000000000000000e+01,5.799999999999999600e-01,8.355312600000000000e+09
3.900000000000000000e+01,9.100000000000000000e+01,5.370000000000000000e+02,1.060000000000000000e+02,2.900000000000000000e+01,2.400000000000000000e+01,2.500000000000000000e+01,6.000000000000000000e+01,5.799999999999999600e-01,8.374596600000000000e+09
4.500000000000000000e+01,9.000000000000000000e+01,5.300000000000000000e+02,9.800000000000000000e+01,2.900000000000000000e+01,2.100000000000000000e+01,2.400000000000000000e+01,5.300000000000000000e+01,5.899999999999999689e-01,8.397294200000000000e+09
5.000000000000000000e+01,1.050000000000000000e+02,5.380000000000000000e+02,1.030000000000000000e+02,2.800000000000000000e+01,2.000000000000000000e+01,2.300000000000000000e+01,1.010000000000000000e+02,5.899999999999999689e-01,8.418464800000000000e+09
4.900000000000000000e+01,1.000000000000000000e+02,5.070000000000000000e+02,1.090000000000000000e+02,3.000000000000000000e+01,2.100000000000000000e+01,2.200000000000000000e+01,1.040000000000000000e+02,5.899999999999999689e-01,8.436423200000000000e+09
4.900000000000000000e+01,9.900000000000000000e+01,4.530000000000000000e+02,9.200000000000000000e+01,2.700000000000000000e+01,2.300000000000000000e+01,2.100000000000000000e+01,1.090000000000000000e+02,5.899999999999999689e-01,8.463686800000000000e+09
4.600000000000000000e+01,1.130000000000000000e+02,4.900000000000000000e+02,9.000000000000000000e+01,2.800000000000000000e+01,2.500000000000000000e+01,2.300000000000000000e+01,1.090000000000000000e+02,5.899999999999999689e-01,8.481996700000000000e+09
4.200000000000000000e+01,1.240000000000000000e+02,4.530000000000000000e+02,9.600000000000000000e+01,3.000000000000000000e+01,2.500000000000000000e+01,2.200000000000000000e+01,1.060000000000000000e+02,5.899999999999999689e-01,8.500238200000000000e+09
3.800000000000000000e+01,1.290000000000000000e+02,4.450000000000000000e+02,8.900000000000000000e+01,3.100000000000000000e+01,2.500000000000000000e+01,2.100000000000000000e+01,9.000000000000000000e+01,5.999999999999999778e-01,8.517586200000000000e+09
3.900000000000000000e+01,1.230000000000000000e+02,4.230000000000000000e+02,8.000000000000000000e+01,2.900000000000000000e+01,2.400000000000000000e+01,2.100000000000000000e+01,9.400000000000000000e+01,5.999999999999999778e-01,8.538881000000000000e+09
3.900000000000000000e+01,1.310000000000000000e+02,4.340000000000000000e+02,7.600000000000000000e+01,2.900000000000000000e+01,2.100000000000000000e+01,2.300000000000000000e+01,9.400000000000000000e+01,5.999999999999999778e-01,8.556895300000000000e+09
4.300000000000000000e+01,1.300000000000000000e+02,3.810000000000000000e+02,7.300000000000000000e+01,3.000000000000000000e+01,2.000000000000000000e+01,2.300000000000000000e+01,9.200000000000000000e+01,5.999999999999999778e-01,8.576093800000000000e+09
4.500000000000000000e+01,1.200000000000000000e+02,4.490000000000000000e+02,5.700000000000000000e+01,2.600000000000000000e+01,2.200000000000000000e+01,2.300000000000000000e+01,9.400000000000000000e+01,5.899999999999999689e-01,8.600549500000000000e+09
4.600000000000000000e+01,1.040000000000000000e+02,4.730000000000000000e+02,5.900000000000000000e+01,2.500000000000000000e+01,2.000000000000000000e+01,2.300000000000000000e+01,6.800000000000000000e+01,5.899999999999999689e-01,8.628434900000000000e+09
4.800000000000000000e+01,1.140000000000000000e+02,4.400000000000000000e+02,6.400000000000000000e+01,2.600000000000000000e+01,2.200000000000000000e+01,2.300000000000000000e+01,7.700000000000000000e+01,5.899999999999999689e-01,8.646084600000000000e+09
4.700000000000000000e+01,1.100000000000000000e+02,4.330000000000000000e+02,6.600000000000000000e+01,2.800000000000000000e+01,2.400000000000000000e+01,2.300000000000000000e+01,7.200000000000000000e+01,5.799999999999999600e-01,8.664344500000000000e+09
4.200000000000000000e+01,9.900000000000000000e+01,4.790000000000000000e+02,5.700000000000000000e+01,2.400000000000000000e+01,2.400000000000000000e+01,2.000000000000000000e+01,7.100000000000000000e+01,5.799999999999999600e-01,8.681885000000000000e+09
3.900000000000000000e+01,1.350000000000000000e+02,4.770000000000000000e+02,6.500000000000000000e+01,2.600000000000000000e+01,2.300000000000000000e+01,2.100000000000000000e+01,6.900000000000000000e+01,5.799999999999999600e-01,8.699842200000000000e+09
4.100000000000000000e+01,1.490000000000000000e+02,4.670000000000000000e+02,7.500000000000000000e+01,2.700000000000000000e+01,2.500000000000000000e+01,1.900000000000000000e+01,8.500000000000000000e+01,5.799999999999999600e-01,8.717877700000000000e+09
4.300000000000000000e+01,1.500000000000000000e+02,5.070000000000000000e+02,7.600000000000000000e+01,2.900000000000000000e+01,2.500000000000000000e+01,2.200000000000000000e+01,8.600000000000000000e+01,5.799999999999999600e-01,8.743961900000000000e+09
5.500000000000000000e+01,1.640000000000000000e+02,5.630000000000000000e+02,9.000000000000000000e+01,3.100000000000000000e+01,2.400000000000000000e+01,2.200000000000000000e+01,9.500000000000000000e+01,5.799999999999999600e-01,8.761791700000000000e+09
5.600000000000000000e+01,1.630000000000000000e+02,5.590000000000000000e+02,9.500000000000000000e+01,3.100000000000000000e+01,2.300000000000000000e+01,2.200000000000000000e+01,9.400000000000000000e+01,5.699999999999999512e-01,8.779722800000000000e+09
5.900000000000000000e+01,1.480000000000000000e+02,5.510000000000000000e+02,9.300000000000000000e+01,3.400000000000000000e+01,2.500000000000000000e+01,2.300000000000000000e+01,1.070000000000000000e+02,5.699999999999999512e-01,8.797551700000000000e+09
5.800000000000000000e+01,1.430000000000000000e+02,5.320000000000000000e+02,9.000000000000000000e+01,3.300000000000000000e+01,2.400000000000000000e+01,2.500000000000000000e+01,1.270000000000000000e+02,5.699999999999999512e-01,8.816000800000000000e+09
5.700000000000000000e+01,1.360000000000000000e+02,4.850000000000000000e+02,8.300000000000000000e+01,3.000000000000000000e+01,2.300000000000000000e+01,2.600000000000000000e+01,1.390000000000000000e+02,5.799999999999999600e-01,8.838756100000000000e+09
4.600000000000000000e+01,1.130000000000000000e+02,4.090000000000000000e+02,6.600000000000000000e+01,2.700000000000000000e+01,2.400000000000000000e+01,2.500000000000000000e+01,1.370000000000000000e+02,5.699999999999999512e-01,8.857697900000000000e+09
4.400000000000000000e+01,1.120000000000000000e+02,3.780000000000000000e+02,6.400000000000000000e+01,2.900000000000000000e+01,2.500000000000000000e+01,2.600000000000000000e+01,1.390000000000000000e+02,5.699999999999999512e-01,8.884435600000000000e+09
4.100000000000000000e+01,1.100000000000000000e+02,3.790000000000000000e+02,7.000000000000000000e+01,2.800000000000000000e+01,2.300000000000000000e+01,2.600000000000000000e+01,1.330000000000000000e+02,5.699999999999999512e-01,8.901519800000000000e+09
3.900000000000000000e+01,9.400000000000000000e+01,4.320000000000000000e+02,6.700000000000000000e+01,2.500000000000000000e+01,2.400000000000000000e+01,2.600000000000000000e+01,1.070000000000000000e+02,5.699999999999999512e-01,8.920136400000000000e+09
3.500000000000000000e+01,8.900000000000000000e+01,4.840000000000000000e+02,7.800000000000000000e+01,2.800000000000000000e+01,2.400000000000000000e+01,2.300000000000000000e+01,7.400000000000000000e+01,5.699999999999999512e-01,8.938213000000000000e+09
3.400000000000000000e+01,9.000000000000000000e+01,4.890000000000000000e+02,7.800000000000000000e+01,2.800000000000000000e+01,2.400000000000000000e+01,2.200000000000000000e+01,6.700000000000000000e+01,5.699999999999999512e-01,8.957913200000000000e+09
3.500000000000000000e+01,8.600000000000000000e+01,4.790000000000000000e+02,7.300000000000000000e+01,2.700000000000000000e+01,2.300000000000000000e+01,2.100000000000000000e+01,6.100000000000000000e+01,5.699999999999999512e-01,8.975983100000000000e+09
4.000000000000000000e+01,7.800000000000000000e+01,4.650000000000000000e+02,7.900000000000000000e+01,3.000000000000000000e+01,2.400000000000000000e+01,2.300000000000000000e+01,5.900000000000000000e+01,5.699999999999999512e-01,8.995864700000000000e+09
3.900000000000000000e+01,8.700000000000000000e+01,4.060000000000000000e+02,7.600000000000000000e+01,3.000000000000000000e+01,2.400000000000000000e+01,2.300000000000000000e+01,4.900000000000000000e+01,5.699999999999999512e-01,9.019607300000000000e+09
4.100000000000000000e+01,9.100000000000000000e+01,3.870000000000000000e+02,6.600000000000000000e+01,3.000000000000000000e+01,2.600000000000000000e+01,2.300000000000000000e+01,4.800000000000000000e+01,5.699999999999999512e-01,9.037172300000000000e+09
4.400000000000000000e+01,1.120000000000000000e+02,4.370000000000000000e+02,7.300000000000000000e+01,3.400000000000000000e+01,2.800000000000000000e+01,2.600000000000000000e+01,4.700000000000000000e+01,5.600000000000000533e-01,9.063839800000000000e+09
4.600000000000000000e+01,1.250000000000000000e+02,4.900000000000000000e+02,9.400000000000000000e+01,3.600000000000000000e+01,2.700000000000000000e+01,2.600000000000000000e+01,4.800000000000000000e+01,5.699999999999999512e-01,9.082258200000000000e+09
3.800000000000000000e+01,1.160000000000000000e+02,4.640000000000000000e+02,8.200000000000000000e+01,3.100000000000000000e+01,2.400000000000000000e+01,2.300000000000000000e+01,3.700000000000000000e+01,5.699999999999999512e-01,9.100042100000000000e+09
4.200000000000000000e+01,1.090000000000000000e+02,4.730000000000000000e+02,7.900000000000000000e+01,3.200000000000000000e+01,2.400000000000000000e+01,2.300000000000000000e+01,4.100000000000000000e+01,5.699999999999999512e-01,9.119677900000000000e+09
4.000000000000000000e+01,1.260000000000000000e+02,5.150000000000000000e+02,8.700000000000000000e+01,3.200000000000000000e+01,2.300000000000000000e+01,2.600000000000000000e+01,4.400000000000000000e+01,5.799999999999999600e-01,9.138172600000000000e+09
4.100000000000000000e+01,1.220000000000000000e+02,5.400000000000000000e+02,8.900000000000000000e+01,2.900000000000000000e+01,2.100000000000000000e+01,2.500000000000000000e+01,7.000000000000000000e+01,5.799999999999999600e-01,9.164077800000000000e+09
3.900000000000000000e+01,1.170000000000000000e+02,5.140000000000000000e+02,7.200000000000000000e+01,2.800000000000000000e+01,2.000000000000000000e+01,2.500000000000000000e+01,7.500000000000000000e+01,5.799999999999999600e-01,9.183336400000000000e+09
4.400000000000000000e+01,1.180000000000000000e+02,5.420000000000000000e+02,8.100000000000000000e+01,2.900000000000000000e+01,2.300000000000000000e+01,2.600000000000000000e+01,7.800000000000000000e+01,5.799999999999999600e-01,9.201269300000000000e+09
4.500000000000000000e+01,1.390000000000000000e+02,5.830000000000000000e+02,8.800000000000000000e+01,2.900000000000000000e+01,2.700000000000000000e+01,2.600000000000000000e+01,7.400000000000000000e+01,5.799999999999999600e-01,9.219231000000000000e+09
4.800000000000000000e+01,1.250000000000000000e+02,5.940000000000000000e+02,8.600000000000000000e+01,2.800000000000000000e+01,2.700000000000000000e+01,2.500000000000000000e+01,9.300000000000000000e+01,5.799999999999999600e-01,9.237036400000000000e+09
4.700000000000000000e+01,1.160000000000000000e+02,5.660000000000000000e+02,8.800000000000000000e+01,2.800000000000000000e+01,2.500000000000000000e+01,2.500000000000000000e+01,7.900000000000000000e+01,5.799999999999999600e-01,9.259907200000000000e+09
4.800000000000000000e+01,1.180000000000000000e+02,5.650000000000000000e+02,8.300000000000000000e+01,2.500000000000000000e+01,2.700000000000000000e+01,2.500000000000000000e+01,8.800000000000000000e+01,5.899999999999999689e-01,9.278000000000000000e+09
4.700000000000000000e+01,1.230000000000000000e+02,5.500000000000000000e+02,8.000000000000000000e+01,2.500000000000000000e+01,2.600000000000000000e+01,2.800000000000000000e+01,9.100000000000000000e+01,5.899999999999999689e-01,9.297991200000000000e+09
4.400000000000000000e+01,9.700000000000000000e+01,5.360000000000000000e+02,8.200000000000000000e+01,2.600000000000000000e+01,2.300000000000000000e+01,2.600000000000000000e+01,9.400000000000000000e+01,5.899999999999999689e-01,9.317996100000000000e+09
3.900000000000000000e+01,9.600000000000000000e+01,4.640000000000000000e+02,7.400000000000000000e+01,2.600000000000000000e+01,2.200000000000000000e+01,3.000000000000000000e+01,7.900000000000000000e+01,5.899999999999999689e-01,9.336811700000000000e+09
3.700000000000000000e+01,1.050000000000000000e+02,4.510000000000000000e+02,6.200000000000000000e+01,2.500000000000000000e+01,2.200000000000000000e+01,2.900000000000000000e+01,7.700000000000000000e+01,5.899999999999999689e-01,9.356951000000000000e+09
3.500000000000000000e+01,9.700000000000000000e+01,4.270000000000000000e+02,6.800000000000000000e+01,2.900000000000000000e+01,2.200000000000000000e+01,2.900000000000000000e+01,6.400000000000000000e+01,5.799999999999999600e-01,9.378904400000000000e+09
3.500000000000000000e+01,1.040000000000000000e+02,3.980000000000000000e+02,6.400000000000000000e+01,3.000000000000000000e+01,2.000000000000000000e+01,2.800000000000000000e+01,5.700000000000000000e+01,5.799999999999999600e-01,9.397561300000000000e+09
3.900000000000000000e+01,1.100000000000000000e+02,4.180000000000000000e+02,5.300000000000000000e+01,2.900000000000000000e+01,2.300000000000000000e+01,2.800000000000000000e+01,6.000000000000000000e+01,5.799999999999999600e-01,9.416034300000000000e+09
4.200000000000000000e+01,1.130000000000000000e+02,4.260000000000000000e+02,6.000000000000000000e+01,2.800000000000000000e+01,2.300000000000000000e+01,2.300000000000000000e+01,5.600000000000000000e+01,5.799999999999999600e-01,9.438895800000000000e+09
4.300000000000000000e+01,1.000000000000000000e+02,4.330000000000000000e+02,7.300000000000000000e+01,2.900000000000000000e+01,2.600000000000000000e+01,2.400000000000000000e+01,5.200000000000000000e+01,5.799999999999999600e-01,9.461038500000000000e+09
4.300000000000000000e+01,9.700000000000000000e+01,4.580000000000000000e+02,6.900000000000000000e+01,2.700000000000000000e+01,2.700000000000000000e+01,2.400000000000000000e+01,4.800000000000000000e+01,5.699999999999999512e-01,9.479068300000000000e+09
4.100000000000000000e+01,9.000000000000000000e+01,4.770000000000000000e+02,7.500000000000000000e+01,2.600000000000000000e+01,2.900000000000000000e+01,2.300000000000000000e+01,4.800000000000000000e+01,5.699999999999999512e-01,9.500727800000000000e+09
3.900000000000000000e+01,8.800000000000000000e+01,4.300000000000000000e+02,7.800000000000000000e+01,2.700000000000000000e+01,2.600000000000000000e+01,2.300000000000000000e+01,4.100000000000000000e+01,5.699999999999999512e-01,9.520622100000000000e+09
4.100000000000000000e+01,9.800000000000000000e+01,4.090000000000000000e+02,8.200000000000000000e+01,2.900000000000000000e+01,2.800000000000000000e+01,2.400000000000000000e+01,4.300000000000000000e+01,5.699999999999999512e-01,9.537702700000000000e+09
4.300000000000000000e+01,1.050000000000000000e+02,4.120000000000000000e+02,7.000000000000000000e+01,2.700000000000000000e+01,2.600000000000000000e+01,2.300000000000000000e+01,5.600000000000000000e+01,5.699999999999999512e-01,9.558273200000000000e+09
4.900000000000000000e+01,1.040000000000000000e+02,4.120000000000000000e+02,9.000000000000000000e+01,2.900000000000000000e+01,2.300000000000000000e+01,2.400000000000000000e+01,6.300000000000000000e+01,5.699999999999999512e-01,9.581430200000000000e+09
5.100000000000000000e+01,1.180000000000000000e+02,4.120000000000000000e+02,9.200000000000000000e+01,3.200000000000000000e+01,2.300000000000000000e+01,2.400000000000000000e+01,6.300000000000000000e+01,5.799999999999999600e-01,9.599341100000000000e+09
5.100000000000000000e+01,1.210000000000000000e+02,4.070000000000000000e+02,9.700000000000000000e+01,3.300000000000000000e+01,2.400000000000000000e+01,2.400000000000000000e+01,6.300000000000000000e+01,5.799999999999999600e-01,9.619734100000000000e+09
4.800000000000000000e+01,1.070000000000000000e+02,3.940000000000000000e+02,9.200000000000000000e+01,3.100000000000000000e+01,2.200000000000000000e+01,2.200000000000000000e+01,6.000000000000000000e+01,5.799999999999999600e-01,9.642534400000000000e+09
5.300000000000000000e+01,1.020000000000000000e+02,4.280000000000000000e+02,1.070000000000000000e+02,3.400000000000000000e+01,2.300000000000000000e+01,2.600000000000000000e+01,5.800000000000000000e+01,5.799999999999999600e-01,9.660974200000000000e+09
4.800000000000000000e+01,1.080000000000000000e+02,4.660000000000000000e+02,9.600000000000000000e+01,3.400000000000000000e+01,2.300000000000000000e+01,2.400000000000000000e+01,5.200000000000000000e+01,5.899999999999999689e-01,9.679661900000000000e+09
4.400000000000000000e+01,8.200000000000000000e+01,4.650000000000000000e+02,9.200000000000000000e+01,2.900000000000000000e+01,2.100000000000000000e+01,2.300000000000000000e+01,4.800000000000000000e+01,5.899999999999999689e-01,9.701190100000000000e+09
4.200000000000000000e+01,7.600000000000000000e+01,4.620000000000000000e+02,8.800000000000000000e+01,2.800000000000000000e+01,2.100000000000000000e+01,2.200000000000000000e+01,4.700000000000000000e+01,5.899999999999999689e-01,9.719380700000000000e+09
4.300000000000000000e+01,9.900000000000000000e+01,4.920000000000000000e+02,8.400000000000000000e+01,2.700000000000000000e+01,2.200000000000000000e+01,2.300000000000000000e+01,4.800000000000000000e+01,5.999999999999999778e-01,9.740423300000000000e+09
3.300000000000000000e+01,9.700000000000000000e+01,4.500000000000000000e+02,6.800000000000000000e+01,2.500000000000000000e+01,2.000000000000000000e+01,2.000000000000000000e+01,3.200000000000000000e+01,5.899999999999999689e-01,9.761039200000000000e+09
3.000000000000000000e+01,9.300000000000000000e+01,3.620000000000000000e+02,6.100000000000000000e+01,2.300000000000000000e+01,2.100000000000000000e+01,1.900000000000000000e+01,2.900000000000000000e+01,5.899999999999999689e-01,9.777910600000000000e+09
3.500000000000000000e+01,1.010000000000000000e+02,4.380000000000000000e+02,5.900000000000000000e+01,2.300000000000000000e+01,2.000000000000000000e+01,2.000000000000000000e+01,3.600000000000000000e+01,5.899999999999999689e-01,9.805912700000000000e+09
3.600000000000000000e+01,1.030000000000000000e+02,4.330000000000000000e+02,5.400000000000000000e+01,2.500000000000000000e+01,2.000000000000000000e+01,2.100000000000000000e+01,3.700000000000000000e+01,5.899999999999999689e-01,9.823751000000000000e+09
3.600000000000000000e+01,7.900000000000000000e+01,4.260000000000000000e+02,6.000000000000000000e+01,2.600000000000000000e+01,2.000000000000000000e+01,2.100000000000000000e+01,3.300000000000000000e+01,5.899999999999999689e-01,9.842158800000000000e+09
3.800000000000000000e+01,7.800000000000000000e+01,4.290000000000000000e+02,6.200000000000000000e+01,2.500000000000000000e+01,2.000000000000000000e+01,2.200000000000000000e+01,4.000000000000000000e+01,5.899999999999999689e-01,9.859946100000000000e+09
4.000000000000000000e+01,7.800000000000000000e+01,4.850000000000000000e+02,6.700000000000000000e+01,2.600000000000000000e+01,2.000000000000000000e+01,2.300000000000000000e+01,4.700000000000000000e+01,5.899999999999999689e-01,9.880599500000000000e+09
3.600000000000000000e+01,8.400000000000000000e+01,4.040000000000000000e+02,6.400000000000000000e+01,2.800000000000000000e+01,2.100000000000000000e+01,2.300000000000000000e+01,4.100000000000000000e+01,5.799999999999999600e-01,9.898960000000000000e+09
3.500000000000000000e+01,9.100000000000000000e+01,4.360000000000000000e+02,7.200000000000000000e+01,2.700000000000000000e+01,2.000000000000000000e+01,2.200000000000000000e+01,4.100000000000000000e+01,5.799999999999999600e-01,9.918411700000000000e+09
3.300000000000000000e+01,9.500000000000000000e+01,4.540000000000000000e+02,7.300000000000000000e+01,2.800000000000000000e+01,2.200000000000000000e+01,2.200000000000000000e+01,4.200000000000000000e+01,5.799999999999999600e-01,9.941526500000000000e+09
4.500000000000000000e+01,1.050000000000000000e+02,4.230000000000000000e+02,7.300000000000000000e+01,3.000000000000000000e+01,2.400000000000000000e+01,2.400000000000000000e+01,5.200000000000000000e+01,5.799999999999999600e-01,9.959631800000000000e+09
4.700000000000000000e+01,1.240000000000000000e+02,3.550000000000000000e+02,6.800000000000000000e+01,3.100000000000000000e+01,2.500000000000000000e+01,2.400000000000000000e+01,4.900000000000000000e+01,5.699999999999999512e-01,9.994122800000000000e+09
4.900000000000000000e+01,1.120000000000000000e+02,3.510000000000000000e+02,8.200000000000000000e+01,3.200000000000000000e+01,2.700000000000000000e+01,2.200000000000000000e+01,7.000000000000000000e+01,5.699999999999999512e-01,1.001220160000000000e+10
4.900000000000000000e+01,1.060000000000000000e+02,3.150000000000000000e+02,7.700000000000000000e+01,3.200000000000000000e+01,2.600000000000000000e+01,2.400000000000000000e+01,7.000000000000000000e+01,5.699999999999999512e-01,1.003026960000000000e+10
5.200000000000000000e+01,1.150000000000000000e+02,2.860000000000000000e+02,8.300000000000000000e+01,3.200000000000000000e+01,2.700000000000000000e+01,2.400000000000000000e+01,7.100000000000000000e+01,5.699999999999999512e-01,1.004833290000000000e+10
4.900000000000000000e+01,1.060000000000000000e+02,3.170000000000000000e+02,9.800000000000000000e+01,3.300000000000000000e+01,2.500000000000000000e+01,2.200000000000000000e+01,6.800000000000000000e+01,5.699999999999999512e-01,1.006620500000000000e+10
4.600000000000000000e+01,8.100000000000000000e+01,3.410000000000000000e+02,1.010000000000000000e+02,3.300000000000000000e+01,2.500000000000000000e+01,2.300000000000000000e+01,6.800000000000000000e+01,5.699999999999999512e-01,1.008469710000000000e+10
