4.100000000000000000e+01,1.420000000000000000e+02,3.010000000000000000e+02,6.100000000000000000e+01,5.000000000000000000e+01,4.500000000000000000e+01,4.600000000000000000e+01,2.600000000000000000e+01,5.400000000000000355e-01,4.294725000000000000e+08
4.200000000000000000e+01,1.340000000000000000e+02,3.010000000000000000e+02,5.900000000000000000e+01,4.900000000000000000e+01,4.000000000000000000e+01,3.500000000000000000e+01,2.600000000000000000e+01,5.400000000000000355e-01,4.616294000000000000e+08
3.800000000000000000e+01,1.190000000000000000e+02,2.690000000000000000e+02,6.400000000000000000e+01,4.900000000000000000e+01,3.500000000000000000e+01,2.900000000000000000e+01,2.500000000000000000e+01,5.400000000000000355e-01,7.991273000000000000e+08
3.800000000000000000e+01,1.270000000000000000e+02,2.800000000000000000e+02,6.300000000000000000e+01,4.700000000000000000e+01,3.600000000000000000e+01,2.600000000000000000e+01,2.600000000000000000e+01,5.400000000000000355e-01,8.165606000000000000e+08
3.600000000000000000e+01,1.180000000000000000e+02,2.690000000000000000e+02,6.800000000000000000e+01,5.100000000000000000e+01,3.500000000000000000e+01,2.500000000000000000e+01,2.400000000000000000e+01,5.400000000000000355e-01,8.347120000000000000e+08
3.300000000000000000e+01,1.260000000000000000e+02,2.560000000000000000e+02,6.100000000000000000e+01,4.800000000000000000e+01,3.200000000000000000e+01,2.400000000000000000e+01,2.300000000000000000e+01,5.400000000000000355e-01,8.540760000000000000e+08
3.500000000000000000e+01,1.690000000000000000e+02,2.540000000000000000e+02,7.100000000000000000e+01,4.800000000000000000e+01,3.300000000000000000e+01,2.500000000000000000e+01,2.200000000000000000e+01,5.400000000000000355e-01,8.759388000000000000e+08
3.800000000000000000e+01,1.740000000000000000e+02,3.220000000000000000e+02,6.500000000000000000e+01,4.600000000000000000e+01,3.300000000000000000e+01,2.400000000000000000e+01,2.400000000000000000e+01,5.400000000000000355e-01,8.963407000000000000e+08
3.600000000000000000e+01,1.830000000000000000e+02,2.990000000000000000e+02,6.800000000000000000e+01,5.100000000000000000e+01,3.000000000000000000e+01,2.400000000000000000e+01,2.200000000000000000e+01,5.400000000000000355e-01,9.146880000000000000e+08
3.800000000000000000e+01,1.990000000000000000e+02,3.300000000000000000e+02,7.300000000000000000e+01,4.900000000000000000e+01,3.100000000000000000e+01,2.500000000000000000e+01,2.200000000000000000e+01,5.400000000000000355e-01,9.325093000000000000e+08
4.000000000000000000e+01,2.070000000000000000e+02,3.230000000000000000e+02,7.300000000000000000e+01,5.000000000000000000e+01,3.300000000000000000e+01,2.500000000000000000e+01,2.200000000000000000e+01,5.400000000000000355e-01,9.516479000000000000e+08
3.800000000000000000e+01,1.800000000000000000e+02,3.220000000000000000e+02,6.900000000000000000e+01,4.900000000000000000e+01,3.000000000000000000e+01,2.300000000000000000e+01,2.100000000000000000e+01,5.400000000000000355e-01,9.723024000000000000e+08
3.700000000000000000e+01,1.800000000000000000e+02,3.000000000000000000e+02,7.100000000000000000e+01,4.900000000000000000e+01,3.200000000000000000e+01,2.200000000000000000e+01,2.100000000000000000e+01,5.400000000000000355e-01,9.911441000000000000e+08
4.000000000000000000e+01,2.040000000000000000e+02,3.070000000000000000e+02,6.900000000000000000e+01,4.700000000000000000e+01,3.100000000000000000e+01,2.300000000000000000e+01,2.300000000000000000e+01,5.400000000000000355e-01,1.009106800000000000e+09
3.600000000000000000e+01,1.980000000000000000e+02,2.780000000000000000e+02,5.800000000000000000e+01,4.700000000000000000e+01,3.200000000000000000e+01,2.300000000000000000e+01,2.400000000000000000e+01,5.400000000000000355e-01,1.027092000000000000e+09
3.400000000000000000e+01,1.730000000000000000e+02,2.920000000000000000e+02,8.000000000000000000e+01,4.900000000000000000e+01,3.400000000000000000e+01,2.200000000000000000e+01,2.300000000000000000e+01,5.500000000000000444e-01,1.046612300000000000e+09
3.200000000000000000e+01,1.730000000000000000e+02,2.730000000000000000e+02,7.800000000000000000e+01,4.900000000000000000e+01,3.300000000000000000e+01,2.300000000000000000e+01,2.400000000000000000e+01,5.500000000000000444e-01,1.065763600000000000e+09
3.600000000000000000e+01,2.100000000000000000e+02,2.380000000000000000e+02,7.500000000000000000e+01,5.100000000000000000e+01,3.500000000000000000e+01,2.500000000000000000e+01,2.300000000000000000e+01,5.500000000000000444e-01,1.085675100000000000e+09
3.600000000000000000e+01,1.770000000000000000e+02,2.740000000000000000e+02,8.700000000000000000e+01,5.100000000000000000e+01,3.500000000000000000e+01,2.400000000000000000e+01,2.200000000000000000e+01,5.600000000000000533e-01,1.132866900000000000e+09
3.700000000000000000e+01,1.780000000000000000e+02,2.960000000000000000e+02,9.100000000000000000e+01,4.400000000000000000e+01,3.200000000000000000e+01,2.300000000000000000e+01,2.300000000000000000e+01,5.600000000000000533e-01,1.153151100000000000e+09
3.600000000000000000e+01,1.790000000000000000e+02,3.560000000000000000e+02,7.300000000000000000e+01,5.000000000000000000e+01,3.300000000000000000e+01,2.400000000000000000e+01,2.300000000000000000e+01,5.600000000000000533e-01,1.173001500000000000e+09
3.800000000000000000e+01,1.780000000000000000e+02,3.920000000000000000e+02,8.400000000000000000e+01,5.400000000000000000e+01,3.600000000000000000e+01,2.700000000000000000e+01,2.300000000000000000e+01,5.699999999999999512e-01,1.193485900000000000e+09
3.600000000000000000e+01,1.250000000000000000e+02,3.820000000000000000e+02,8.600000000000000000e+01,5.800000000000000000e+01,3.400000000000000000e+01,2.600000000000000000e+01,2.500000000000000000e+01,5.699999999999999512e-01,1.212575200000000000e+09
3.200000000000000000e+01,1.200000000000000000e+02,3.540000000000000000e+02,8.000000000000000000e+01,5.800000000000000000e+01,3.400000000000000000e+01,2.400000000000000000e+01,2.400000000000000000e+01,5.799999999999999600e-01,1.230689900000000000e+09
3.200000000000000000e+01,9.800000000000000000e+01,3.650000000000000000e+02,7.500000000000000000e+01,6.000000000000000000e+01,3.700000000000000000e+01,2.500000000000000000e+01,2.300000000000000000e+01,5.799999999999999600e-01,1.253029000000000000e+09
3.500000000000000000e+01,1.040000000000000000e+02,3.030000000000000000e+02,7.400000000000000000e+01,5.200000000000000000e+01,3.600000000000000000e+01,2.400000000000000000e+01,2.400000000000000000e+01,5.799999999999999600e-01,1.274593900000000000e+09
3.400000000000000000e+01,1.030000000000000000e+02,3.160000000000000000e+02,5.900000000000000000e+01,5.000000000000000000e+01,3.300000000000000000e+01,2.000000000000000000e+01,2.200000000000000000e+01,5.799999999999999600e-01,1.294579700000000000e+09
3.200000000000000000e+01,1.280000000000000000e+02,3.480000000000000000e+02,6.000000000000000000e+01,4.500000000000000000e+01,3.300000000000000000e+01,2.100000000000000000e+01,2.200000000000000000e+01,5.799999999999999600e-01,1.314330700000000000e+09
3.500000000000000000e+01,1.410000000000000000e+02,3.650000000000000000e+02,6.200000000000000000e+01,4.100000000000000000e+01,3.300000000000000000e+01,2.200000000000000000e+01,2.200000000000000000e+01,5.799999999999999600e-01,1.333115300000000000e+09
3.300000000000000000e+01,1.470000000000000000e+02,3.920000000000000000e+02,6.600000000000000000e+01,4.200000000000000000e+01,3.000000000000000000e+01,2.200000000000000000e+01,2.100000000000000000e+01,5.799999999999999600e-01,1.352644900000000000e+09
3.500000000000000000e+01,1.690000000000000000e+02,4.320000000000000000e+02,7.100000000000000000e+01,4.700000000000000000e+01,3.100000000000000000e+01,2.300000000000000000e+01,2.400000000000000000e+01,5.799999999999999600e-01,1.375388200000000000e+09
3.600000000000000000e+01,1.690000000000000000e+02,4.050000000000000000e+02,7.800000000000000000e+01,5.200000000000000000e+01,3.300000000000000000e+01,2.700000000000000000e+01,2.600000000000000000e+01,5.799999999999999600e-01,1.395100400000000000e+09
3.700000000000000000e+01,1.620000000000000000e+02,3.790000000000000000e+02,7.800000000000000000e+01,5.000000000000000000e+01,3.600000000000000000e+01,2.600000000000000000e+01,2.500000000000000000e+01,5.799999999999999600e-01,1.414278600000000000e+09
3.600000000000000000e+01,1.590000000000000000e+02,3.610000000000000000e+02,7.000000000000000000e+01,5.200000000000000000e+01,3.600000000000000000e+01,2.700000000000000000e+01,2.600000000000000000e+01,5.799999999999999600e-01,1.433635800000000000e+09
3.800000000000000000e+01,1.540000000000000000e+02,3.660000000000000000e+02,6.900000000000000000e+01,5.300000000000000000e+01,3.800000000000000000e+01,2.800000000000000000e+01,2.900000000000000000e+01,5.699999999999999512e-01,1.456570900000000000e+09
3.300000000000000000e+01,1.230000000000000000e+02,3.360000000000000000e+02,6.200000000000000000e+01,4.700000000000000000e+01,3.500000000000000000e+01,2.700000000000000000e+01,2.600000000000000000e+01,5.699999999999999512e-01,1.489205200000000000e+09
3.500000000000000000e+01,1.290000000000000000e+02,3.280000000000000000e+02,6.000000000000000000e+01,4.300000000000000000e+01,3.500000000000000000e+01,2.500000000000000000e+01,2.500000000000000000e+01,5.699999999999999512e-01,1.512594200000000000e+09
3.600000000000000000e+01,1.180000000000000000e+02,4.460000000000000000e+02,6.500000000000000000e+01,4.000000000000000000e+01,3.000000000000000000e+01,2.500000000000000000e+01,2.500000000000000000e+01,5.699999999999999512e-01,1.536592800000000000e+09
3.400000000000000000e+01,1.000000000000000000e+02,4.540000000000000000e+02,6.700000000000000000e+01,4.000000000000000000e+01,3.200000000000000000e+01,2.400000000000000000e+01,2.300000000000000000e+01,5.699999999999999512e-01,1.563983100000000000e+09
3.500000000000000000e+01,1.350000000000000000e+02,4.400000000000000000e+02,6.400000000000000000e+01,4.200000000000000000e+01,3.200000000000000000e+01,2.200000000000000000e+01,2.100000000000000000e+01,5.699999999999999512e-01,1.587631100000000000e+09
3.800000000000000000e+01,1.380000000000000000e+02,4.350000000000000000e+02,7.200000000000000000e+01,4.100000000000000000e+01,3.200000000000000000e+01,2.200000000000000000e+01,2.100000000000000000e+01,5.699999999999999512e-01,1.610969100000000000e+09
3.700000000000000000e+01,1.450000000000000000e+02,4.810000000000000000e+02,6.500000000000000000e+01,3.900000000000000000e+01,3.200000000000000000e+01,2.100000000000000000e+01,1.900000000000000000e+01,5.699999999999999512e-01,1.630859700000000000e+09
3.500000000000000000e+01,1.450000000000000000e+02,4.840000000000000000e+02,5.400000000000000000e+01,4.100000000000000000e+01,3.200000000000000000e+01,1.900000000000000000e+01,1.800000000000000000e+01,5.699999999999999512e-01,1.653231400000000000e+09
3.900000000000000000e+01,1.650000000000000000e+02,5.180000000000000000e+02,5.500000000000000000e+01,4.600000000000000000e+01,3.400000000000000000e+01,1.900000000000000000e+01,2.000000000000000000e+01,5.600000000000000533e-01,1.675426200000000000e+09
3.700000000000000000e+01,1.420000000000000000e+02,5.100000000000000000e+02,5.500000000000000000e+01,4.000000000000000000e+01,3.200000000000000000e+01,1.800000000000000000e+01,1.900000000000000000e+01,5.600000000000000533e-01,1.697393400000000000e+09
3.900000000000000000e+01,1.460000000000000000e+02,5.230000000000000000e+02,5.300000000000000000e+01,5.100000000000000000e+01,3.600000000000000000e+01,2.200000000000000000e+01,2.300000000000000000e+01,5.600000000000000533e-01,1.719372700000000000e+09
4.100000000000000000e+01,1.490000000000000000e+02,5.050000000000000000e+02,6.400000000000000000e+01,5.200000000000000000e+01,3.200000000000000000e+01,2.100000000000000000e+01,2.300000000000000000e+01,5.600000000000000533e-01,1.740116400000000000e+09
4.800000000000000000e+01,1.680000000000000000e+02,4.500000000000000000e+02,8.600000000000000000e+01,6.100000000000000000e+01,4.000000000000000000e+01,2.300000000000000000e+01,2.600000000000000000e+01,5.699999999999999512e-01,1.760829700000000000e+09
4.600000000000000000e+01,1.630000000000000000e+02,4.040000000000000000e+02,8.500000000000000000e+01,5.700000000000000000e+01,3.700000000000000000e+01,2.400000000000000000e+01,2.600000000000000000e+01,5.699999999999999512e-01,1.783244800000000000e+09
4.500000000000000000e+01,1.610000000000000000e+02,3.830000000000000000e+02,8.500000000000000000e+01,6.200000000000000000e+01,4.700000000000000000e+01,3.100000000000000000e+01,2.700000000000000000e+01,5.699999999999999512e-01,1.805233500000000000e+09
4.400000000000000000e+01,1.940000000000000000e+02,3.780000000000000000e+02,8.200000000000000000e+01,5.700000000000000000e+01,4.600000000000000000e+01,2.800000000000000000e+01,2.400000000000000000e+01,5.799999999999999600e-01,1.826413100000000000e+09
4.200000000000000000e+01,2.040000000000000000e+02,3.690000000000000000e+02,8.300000000000000000e+01,6.800000000000000000e+01,5.600000000000000000e+01,2.800000000000000000e+01,2.400000000000000000e+01,5.799999999999999600e-01,1.847192000000000000e+09
3.700000000000000000e+01,2.160000000000000000e+02,3.100000000000000000e+02,6.600000000000000000e+01,6.700000000000000000e+01,6.800000000000000000e+01,2.700000000000000000e+01,2.300000000000000000e+01,5.799999999999999600e-01,1.872678900000000000e+09
4.200000000000000000e+01,2.250000000000000000e+02,3.120000000000000000e+02,6.800000000000000000e+01,7.100000000000000000e+01,7.300000000000000000e+01,2.700000000000000000e+01,2.200000000000000000e+01,5.699999999999999512e-01,1.896759700000000000e+09
4.200000000000000000e+01,2.290000000000000000e+02,3.160000000000000000e+02,7.400000000000000000e+01,7.100000000000000000e+01,7.800000000000000000e+01,3.000000000000000000e+01,2.400000000000000000e+01,5.699999999999999512e-01,1.919437900000000000e+09
4.100000000000000000e+01,2.050000000000000000e+02,2.970000000000000000e+02,7.600000000000000000e+01,6.900000000000000000e+01,1.020000000000000000e+02,3.000000000000000000e+01,2.400000000000000000e+01,5.699999999999999512e-01,1.940052300000000000e+09
4.600000000000000000e+01,1.990000000000000000e+02,2.940000000000000000e+02,7.200000000000000000e+01,6.200000000000000000e+01,1.020000000000000000e+02,3.300000000000000000e+01,2.800000000000000000e+01,5.699999999999999512e-01,1.967557900000000000e+09
4.400000000000000000e+01,1.720000000000000000e+02,2.960000000000000000e+02,6.700000000000000000e+01,5.400000000000000000e+01,9.600000000000000000e+01,3.200000000000000000e+01,2.700000000000000000e+01,5.699999999999999512e-01,1.987929800000000000e+09
4.000000000000000000e+01,1.530000000000000000e+02,3.050000000000000000e+02,6.400000000000000000e+01,6.500000000000000000e+01,1.180000000000000000e+02,4.000000000000000000e+01,2.800000000000000000e+01,5.699999999999999512e-01,2.009854400000000000e+09
4.100000000000000000e+01,1.470000000000000000e+02,3.110000000000000000e+02,7.300000000000000000e+01,7.200000000000000000e+01,1.150000000000000000e+02,3.300000000000000000e+01,2.700000000000000000e+01,5.600000000000000533e-01,2.030743900000000000e+09
4.500000000000000000e+01,1.710000000000000000e+02,3.040000000000000000e+02,7.200000000000000000e+01,8.200000000000000000e+01,9.800000000000000000e+01,3.500000000000000000e+01,2.800000000000000000e+01,5.600000000000000533e-01,2.050742700000000000e+09
3.900000000000000000e+01,1.470000000000000000e+02,2.790000000000000000e+02,6.800000000000000000e+01,8.200000000000000000e+01,1.110000000000000000e+02,3.500000000000000000e+01,2.500000000000000000e+01,5.500000000000000444e-01,2.074214200000000000e+09
3.900000000000000000e+01,1.550000000000000000e+02,2.770000000000000000e+02,7.400000000000000000e+01,8.800000000000000000e+01,1.280000000000000000e+02,3.600000000000000000e+01,2.500000000000000000e+01,5.400000000000000355e-01,2.094678000000000000e+09
3.900000000000000000e+01,1.530000000000000000e+02,3.460000000000000000e+02,7.400000000000000000e+01,7.700000000000000000e+01,1.070000000000000000e+02,2.700000000000000000e+01,2.400000000000000000e+01,5.400000000000000355e-01,2.115144100000000000e+09
4.100000000000000000e+01,1.680000000000000000e+02,3.630000000000000000e+02,6.100000000000000000e+01,7.100000000000000000e+01,1.050000000000000000e+02,2.800000000000000000e+01,2.600000000000000000e+01,5.400000000000000355e-01,2.136896700000000000e+09
3.900000000000000000e+01,1.420000000000000000e+02,3.670000000000000000e+02,5.600000000000000000e+01,6.000000000000000000e+01,1.050000000000000000e+02,3.100000000000000000e+01,2.500000000000000000e+01,5.400000000000000355e-01,2.160023300000000000e+09
3.800000000000000000e+01,1.440000000000000000e+02,3.890000000000000000e+02,5.600000000000000000e+01,5.600000000000000000e+01,8.900000000000000000e+01,2.800000000000000000e+01,2.500000000000000000e+01,5.300000000000000266e-01,2.181505900000000000e+09
3.600000000000000000e+01,1.290000000000000000e+02,4.060000000000000000e+02,4.700000000000000000e+01,4.500000000000000000e+01,8.300000000000000000e+01,2.800000000000000000e+01,2.400000000000000000e+01,5.300000000000000266e-01,2.201900200000000000e+09
4.200000000000000000e+01,1.410000000000000000e+02,3.360000000000000000e+02,6.800000000000000000e+01,5.200000000000000000e+01,9.000000000000000000e+01,3.000000000000000000e+01,2.600000000000000000e+01,5.300000000000000266e-01,2.222761400000000000e+09
4.100000000000000000e+01,1.350000000000000000e+02,3.200000000000000000e+02,6.300000000000000000e+01,4.600000000000000000e+01,9.000000000000000000e+01,3.200000000000000000e+01,2.300000000000000000e+01,5.300000000000000266e-01,2.244613700000000000e+09
4.000000000000000000e+01,1.460000000000000000e+02,3.350000000000000000e+02,6.200000000000000000e+01,5.000000000000000000e+01,8.700000000000000000e+01,2.600000000000000000e+01,2.300000000000000000e+01,5.300000000000000266e-01,2.265967600000000000e+09
4.100000000000000000e+01,1.750000000000000000e+02,3.160000000000000000e+02,6.300000000000000000e+01,5.000000000000000000e+01,8.500000000000000000e+01,3.200000000000000000e+01,2.400000000000000000e+01,5.300000000000000266e-01,2.287760300000000000e+09
4.300000000000000000e+01,2.040000000000000000e+02,3.100000000000000000e+02,6.900000000000000000e+01,5.000000000000000000e+01,6.600000000000000000e+01,3.000000000000000000e+01,2.500000000000000000e+01,5.400000000000000355e-01,2.308293300000000000e+09
3.600000000000000000e+01,2.050000000000000000e+02,3.440000000000000000e+02,5.200000000000000000e+01,3.900000000000000000e+01,6.200000000000000000e+01,3.000000000000000000e+01,2.300000000000000000e+01,5.400000000000000355e-01,2.330148600000000000e+09
4.100000000000000000e+01,2.090000000000000000e+02,3.450000000000000000e+02,5.300000000000000000e+01,4.400000000000000000e+01,6.300000000000000000e+01,2.900000000000000000e+01,2.300000000000000000e+01,5.400000000000000355e-01,2.351559200000000000e+09
3.900000000000000000e+01,2.100000000000000000e+02,3.270000000000000000e+02,5.600000000000000000e+01,3.900000000000000000e+01,6.400000000000000000e+01,3.100000000000000000e+01,2.300000000000000000e+01,5.400000000000000355e-01,2.375255000000000000e+09
4.100000000000000000e+01,1.990000000000000000e+02,3.260000000000000000e+02,5.900000000000000000e+01,3.900000000000000000e+01,6.200000000000000000e+01,2.500000000000000000e+01,2.200000000000000000e+01,5.400000000000000355e-01,2.394752800000000000e+09
4.000000000000000000e+01,1.680000000000000000e+02,3.120000000000000000e+02,5.800000000000000000e+01,3.900000000000000000e+01,7.200000000000000000e+01,2.900000000000000000e+01,2.100000000000000000e+01,5.400000000000000355e-01,2.414349700000000000e+09
4.200000000000000000e+01,1.690000000000000000e+02,2.770000000000000000e+02,6.400000000000000000e+01,6.100000000000000000e+01,7.600000000000000000e+01,3.100000000000000000e+01,2.400000000000000000e+01,5.400000000000000355e-01,2.434071200000000000e+09
3.600000000000000000e+01,1.560000000000000000e+02,2.820000000000000000e+02,6.700000000000000000e+01,6.100000000000000000e+01,7.500000000000000000e+01,3.000000000000000000e+01,2.200000000000000000e+01,5.400000000000000355e-01,2.456403400000000000e+09
3.600000000000000000e+01,1.440000000000000000e+02,3.310000000000000000e+02,7.200000000000000000e+01,7.000000000000000000e+01,7.700000000000000000e+01,2.900000000000000000e+01,2.100000000000000000e+01,5.400000000000000355e-01,2.477411800000000000e+09
3.400000000000000000e+01,1.350000000000000000e+02,3.320000000000000000e+02,6.700000000000000000e+01,7.300000000000000000e+01,8.100000000000000000e+01,3.500000000000000000e+01,2.000000000000000000e+01,5.400000000000000355e-01,2.497073100000000000e+09
3.500000000000000000e+01,1.430000000000000000e+02,3.510000000000000000e+02,6.400000000000000000e+01,7.600000000000000000e+01,6.800000000000000000e+01,3.400000000000000000e+01,2.100000000000000000e+01,5.400000000000000355e-01,2.518174700000000000e+09
3.200000000000000000e+01,1.360000000000000000e+02,3.580000000000000000e+02,5.700000000000000000e+01,6.100000000000000000e+01,8.500000000000000000e+01,3.300000000000000000e+01,2.000000000000000000e+01,5.400000000000000355e-01,2.537405800000000000e+09
2.900000000000000000e+01,1.510000000000000000e+02,3.370000000000000000e+02,5.500000000000000000e+01,6.900000000000000000e+01,8.800000000000000000e+01,3.400000000000000000e+01,2.000000000000000000e+01,5.300000000000000266e-01,2.557689800000000000e+09
3.400000000000000000e+01,1.630000000000000000e+02,3.040000000000000000e+02,5.700000000000000000e+01,6.500000000000000000e+01,8.900000000000000000e+01,3.400000000000000000e+01,2.300000000000000000e+01,5.300000000000000266e-01,2.581075100000000000e+09
3.300000000000000000e+01,1.660000000000000000e+02,3.930000000000000000e+02,6.400000000000000000e+01,6.100000000000000000e+01,8.800000000000000000e+01,3.100000000000000000e+01,2.200000000000000000e+01,5.300000000000000266e-01,2.603039600000000000e+09
3.800000000000000000e+01,1.700000000000000000e+02,3.830000000000000000e+02,6.400000000000000000e+01,5.800000000000000000e+01,8.700000000000000000e+01,2.900000000000000000e+01,2.200000000000000000e+01,5.300000000000000266e-01,2.623485300000000000e+09
3.700000000000000000e+01,1.680000000000000000e+02,3.980000000000000000e+02,6.200000000000000000e+01,5.900000000000000000e+01,8.700000000000000000e+01,3.300000000000000000e+01,2.100000000000000000e+01,5.300000000000000266e-01,2.643323600000000000e+09
3.700000000000000000e+01,1.600000000000000000e+02,4.320000000000000000e+02,6.300000000000000000e+01,5.100000000000000000e+01,8.400000000000000000e+01,3.100000000000000000e+01,2.300000000000000000e+01,5.300000000000000266e-01,2.666986100000000000e+09
3.400000000000000000e+01,1.480000000000000000e+02,4.230000000000000000e+02,5.600000000000000000e+01,4.800000000000000000e+01,8.500000000000000000e+01,3.200000000000000000e+01,2.300000000000000000e+01,5.300000000000000266e-01,2.687167600000000000e+09
3.700000000000000000e+01,1.770000000000000000e+02,3.450000000000000000e+02,5.200000000000000000e+01,5.000000000000000000e+01,8.500000000000000000e+01,3.100000000000000000e+01,2.600000000000000000e+01,5.300000000000000266e-01,2.705746900000000000e+09
3.200000000000000000e+01,1.710000000000000000e+02,3.850000000000000000e+02,5.000000000000000000e+01,5.000000000000000000e+01,1.000000000000000000e+02,3.100000000000000000e+01,2.500000000000000000e+01,5.400000000000000355e-01,2.724593600000000000e+09
3.400000000000000000e+01,1.630000000000000000e+02,3.630000000000000000e+02,5.000000000000000000e+01,4.700000000000000000e+01,9.900000000000000000e+01,2.800000000000000000e+01,2.600000000000000000e+01,5.400000000000000355e-01,2.743376800000000000e+09
3.400000000000000000e+01,1.570000000000000000e+02,3.400000000000000000e+02,6.500000000000000000e+01,7.200000000000000000e+01,1.010000000000000000e+02,3.500000000000000000e+01,2.600000000000000000e+01,5.400000000000000355e-01,2.763771000000000000e+09
3.100000000000000000e+01,1.580000000000000000e+02,3.520000000000000000e+02,7.700000000000000000e+01,8.000000000000000000e+01,1.000000000000000000e+02,3.500000000000000000e+01,2.400000000000000000e+01,5.400000000000000355e-01,2.784303100000000000e+09
2.900000000000000000e+01,1.090000000000000000e+02,3.500000000000000000e+02,1.020000000000000000e+02,9.300000000000000000e+01,1.060000000000000000e+02,3.800000000000000000e+01,2.300000000000000000e+01,5.400000000000000355e-01,2.804991700000000000e+09
2.700000000000000000e+01,1.150000000000000000e+02,3.120000000000000000e+02,1.020000000000000000e+02,9.800000000000000000e+01,1.080000000000000000e+02,3.800000000000000000e+01,2.300000000000000000e+01,5.400000000000000355e-01,2.823622000000000000e+09
2.700000000000000000e+01,1.150000000000000000e+02,3.270000000000000000e+02,1.040000000000000000e+02,1.000000000000000000e+02,1.120000000000000000e+02,4.700000000000000000e+01,2.400000000000000000e+01,5.400000000000000355e-01,2.842366700000000000e+09
2.800000000000000000e+01,1.340000000000000000e+02,3.100000000000000000e+02,9.500000000000000000e+01,8.800000000000000000e+01,1.190000000000000000e+02,4.400000000000000000e+01,2.300000000000000000e+01,5.400000000000000355e-01,2.863678100000000000e+09
2.700000000000000000e+01,1.210000000000000000e+02,3.150000000000000000e+02,9.500000000000000000e+01,8.300000000000000000e+01,1.180000000000000000e+02,4.400000000000000000e+01,2.500000000000000000e+01,5.400000000000000355e-01,2.884182800000000000e+09
2.600000000000000000e+01,1.170000000000000000e+02,2.990000000000000000e+02,6.500000000000000000e+01,6.900000000000000000e+01,1.330000000000000000e+02,4.200000000000000000e+01,2.400000000000000000e+01,5.400000000000000355e-01,2.903858900000000000e+09
2.800000000000000000e+01,1.160000000000000000e+02,2.750000000000000000e+02,7.300000000000000000e+01,9.000000000000000000e+01,1.250000000000000000e+02,4.400000000000000000e+01,2.700000000000000000e+01,5.300000000000000266e-01,2.925615900000000000e+09
2.900000000000000000e+01,1.370000000000000000e+02,2.530000000000000000e+02,7.300000000000000000e+01,9.000000000000000000e+01,1.130000000000000000e+02,4.200000000000000000e+01,2.700000000000000000e+01,5.300000000000000266e-01,2.946233600000000000e+09
2.800000000000000000e+01,1.230000000000000000e+02,2.670000000000000000e+02,7.200000000000000000e+01,8.500000000000000000e+01,1.300000000000000000e+02,4.200000000000000000e+01,2.800000000000000000e+01,5.300000000000000266e-01,2.966199700000000000e+09
2.900000000000000000e+01,1.320000000000000000e+02,2.180000000000000000e+02,6.800000000000000000e+01,8.100000000000000000e+01,1.410000000000000000e+02,4.100000000000000000e+01,2.700000000000000000e+01,5.300000000000000266e-01,2.986850000000000000e+09
2.800000000000000000e+01,1.310000000000000000e+02,2.030000000000000000e+02,6.700000000000000000e+01,7.700000000000000000e+01,1.300000000000000000e+02,4.500000000000000000e+01,2.600000000000000000e+01,5.200000000000000178e-01,3.008136900000000000e+09
2.700000000000000000e+01,1.250000000000000000e+02,2.200000000000000000e+02,5.800000000000000000e+01,5.200000000000000000e+01,1.340000000000000000e+02,4.500000000000000000e+01,2.500000000000000000e+01,5.200000000000000178e-01,3.027214000000000000e+09
2.600000000000000000e+01,9.800000000000000000e+01,2.920000000000000000e+02,8.100000000000000000e+01,5.800000000000000000e+01,1.370000000000000000e+02,3.800000000000000000e+01,2.400000000000000000e+01,5.200000000000000178e-01,3.046417900000000000e+09
3.500000000000000000e+01,1.350000000000000000e+02,2.660000000000000000e+02,8.300000000000000000e+01,6.200000000000000000e+01,1.260000000000000000e+02,3.900000000000000000e+01,2.600000000000000000e+01,5.300000000000000266e-01,3.068910700000000000e+09
4.000000000000000000e+01,1.520000000000000000e+02,2.990000000000000000e+02,8.000000000000000000e+01,6.400000000000000000e+01,1.200000000000000000e+02,4.000000000000000000e+01,2.800000000000000000e+01,5.300000000000000266e-01,3.089775900000000000e+09
4.200000000000000000e+01,1.770000000000000000e+02,3.410000000000000000e+02,8.700000000000000000e+01,9.800000000000000000e+01,1.230000000000000000e+02,3.700000000000000000e+01,3.200000000000000000e+01,5.300000000000000266e-01,3.110773800000000000e+09
5.000000000000000000e+01,1.900000000000000000e+02,3.540000000000000000e+02,1.020000000000000000e+02,9.800000000000000000e+01,1.170000000000000000e+02,3.800000000000000000e+01,3.400000000000000000e+01,5.300000000000000266e-01,3.131713500000000000e+09
5.000000000000000000e+01,1.980000000000000000e+02,3.470000000000000000e+02,8.400000000000000000e+01,9.200000000000000000e+01,1.230000000000000000e+02,3.700000000000000000e+01,3.400000000000000000e+01,5.300000000000000266e-01,3.154302200000000000e+09
4.500000000000000000e+01,1.680000000000000000e+02,3.810000000000000000e+02,8.500000000000000000e+01,9.200000000000000000e+01,1.190000000000000000e+02,3.300000000000000000e+01,3.200000000000000000e+01,5.300000000000000266e-01,3.175509100000000000e+09
4.200000000000000000e+01,1.490000000000000000e+02,3.840000000000000000e+02,1.030000000000000000e+02,9.400000000000000000e+01,1.160000000000000000e+02,3.200000000000000000e+01,3.000000000000000000e+01,5.400000000000000355e-01,3.194459100000000000e+09
4.200000000000000000e+01,1.540000000000000000e+02,3.930000000000000000e+02,1.020000000000000000e+02,6.300000000000000000e+01,1.060000000000000000e+02,3.100000000000000000e+01,2.600000000000000000e+01,5.400000000000000355e-01,3.213044100000000000e+09
3.700000000000000000e+01,1.720000000000000000e+02,3.790000000000000000e+02,9.000000000000000000e+01,5.500000000000000000e+01,1.040000000000000000e+02,2.400000000000000000e+01,2.300000000000000000e+01,5.500000000000000444e-01,3.233046600000000000e+09
3.800000000000000000e+01,1.760000000000000000e+02,5.460000000000000000e+02,1.200000000000000000e+02,5.800000000000000000e+01,7.800000000000000000e+01,2.400000000000000000e+01,2.100000000000000000e+01,5.600000000000000533e-01,3.254948000000000000e+09
5.500000000000000000e+01,1.960000000000000000e+02,6.900000000000000000e+02,1.310000000000000000e+02,6.600000000000000000e+01,6.500000000000000000e+01,2.700000000000000000e+01,2.700000000000000000e+01,5.600000000000000533e-01,3.277289400000000000e+09
5.500000000000000000e+01,1.960000000000000000e+02,6.860000000000000000e+02,1.180000000000000000e+02,7.100000000000000000e+01,6.600000000000000000e+01,2.600000000000000000e+01,2.900000000000000000e+01,5.500000000000000444e-01,3.297194000000000000e+09
5.800000000000000000e+01,2.340000000000000000e+02,7.260000000000000000e+02,1.310000000000000000e+02,8.400000000000000000e+01,6.700000000000000000e+01,2.900000000000000000e+01,3.000000000000000000e+01,5.500000000000000444e-01,3.316144500000000000e+09
5.800000000000000000e+01,2.460000000000000000e+02,8.070000000000000000e+02,1.340000000000000000e+02,1.080000000000000000e+02,6.900000000000000000e+01,3.000000000000000000e+01,2.800000000000000000e+01,5.400000000000000355e-01,3.334527900000000000e+09
6.600000000000000000e+01,2.750000000000000000e+02,7.890000000000000000e+02,1.630000000000000000e+02,1.240000000000000000e+02,7.700000000000000000e+01,3.500000000000000000e+01,3.700000000000000000e+01,5.300000000000000266e-01,3.355004900000000000e+09
5.300000000000000000e+01,2.800000000000000000e+02,6.980000000000000000e+02,1.630000000000000000e+02,1.360000000000000000e+02,7.900000000000000000e+01,3.300000000000000000e+01,3.300000000000000000e+01,5.200000000000000178e-01,3.378573100000000000e+09
5.800000000000000000e+01,3.010000000000000000e+02,7.450000000000000000e+02,1.680000000000000000e+02,1.600000000000000000e+02,8.100000000000000000e+01,3.500000000000000000e+01,3.400000000000000000e+01,5.100000000000000089e-01,3.398094600000000000e+09
5.800000000000000000e+01,2.750000000000000000e+02,7.370000000000000000e+02,1.800000000000000000e+02,1.610000000000000000e+02,8.000000000000000000e+01,3.500000000000000000e+01,3.400000000000000000e+01,5.000000000000000000e-01,3.417064500000000000e+09
7.800000000000000000e+01,2.990000000000000000e+02,7.820000000000000000e+02,1.900000000000000000e+02,1.740000000000000000e+02,7.800000000000000000e+01,3.500000000000000000e+01,3.800000000000000000e+01,4.799999999999999822e-01,3.435576900000000000e+09
8.000000000000000000e+01,2.940000000000000000e+02,8.960000000000000000e+02,1.530000000000000000e+02,1.820000000000000000e+02,7.400000000000000000e+01,3.200000000000000000e+01,3.300000000000000000e+01,4.500000000000000111e-01,3.455930700000000000e+09
9.100000000000000000e+01,3.890000000000000000e+02,9.360000000000000000e+02,1.770000000000000000e+02,1.730000000000000000e+02,8.700000000000000000e+01,3.300000000000000000e+01,3.700000000000000000e+01,4.199999999999999845e-01,3.478492100000000000e+09
1.050000000000000000e+02,4.440000000000000000e+02,9.360000000000000000e+02,2.050000000000000000e+02,1.490000000000000000e+02,1.010000000000000000e+02,3.400000000000000000e+01,3.900000000000000000e+01,4.000000000000000222e-01,3.498388200000000000e+09
1.260000000000000000e+02,5.060000000000000000e+02,9.480000000000000000e+02,2.600000000000000000e+02,1.520000000000000000e+02,1.110000000000000000e+02,3.900000000000000000e+01,4.600000000000000000e+01,3.699999999999999956e-01,3.518733500000000000e+09
1.230000000000000000e+02,5.140000000000000000e+02,9.250000000000000000e+02,2.730000000000000000e+02,1.300000000000000000e+02,1.110000000000000000e+02,4.100000000000000000e+01,4.600000000000000000e+01,3.499999999999999778e-01,3.537466100000000000e+09
1.290000000000000000e+02,5.510000000000000000e+02,7.740000000000000000e+02,2.970000000000000000e+02,1.030000000000000000e+02,1.100000000000000000e+02,4.100000000000000000e+01,4.600000000000000000e+01,3.300000000000000155e-01,3.557523800000000000e+09
1.490000000000000000e+02,5.230000000000000000e+02,8.130000000000000000e+02,3.060000000000000000e+02,1.320000000000000000e+02,1.120000000000000000e+02,4.900000000000000000e+01,5.700000000000000000e+01,3.099999999999999978e-01,3.578591300000000000e+09
1.480000000000000000e+02,4.950000000000000000e+02,8.690000000000000000e+02,2.950000000000000000e+02,1.410000000000000000e+02,9.900000000000000000e+01,5.100000000000000000e+01,6.200000000000000000e+01,2.899999999999999800e-01,3.599427700000000000e+09
1.300000000000000000e+02,4.450000000000000000e+02,9.720000000000000000e+02,2.400000000000000000e+02,1.310000000000000000e+02,8.500000000000000000e+01,4.500000000000000000e+01,5.600000000000000000e+01,2.700000000000000178e-01,3.621194000000000000e+09
1.320000000000000000e+02,4.390000000000000000e+02,9.110000000000000000e+02,2.350000000000000000e+02,1.310000000000000000e+02,8.700000000000000000e+01,4.600000000000000000e+01,5.700000000000000000e+01,2.600000000000000089e-01,3.641150700000000000e+09
1.410000000000000000e+02,4.700000000000000000e+02,9.250000000000000000e+02,2.590000000000000000e+02,1.350000000000000000e+02,8.700000000000000000e+01,4.800000000000000000e+01,6.000000000000000000e+01,2.399999999999999911e-01,3.662527300000000000e+09
1.320000000000000000e+02,5.000000000000000000e+02,9.400000000000000000e+02,2.700000000000000000e+02,1.230000000000000000e+02,8.300000000000000000e+01,4.400000000000000000e+01,5.500000000000000000e+01,2.300000000000000100e-01,3.683090000000000000e+09
1.370000000000000000e+02,4.990000000000000000e+02,9.720000000000000000e+02,2.850000000000000000e+02,1.320000000000000000e+02,9.000000000000000000e+01,5.000000000000000000e+01,5.400000000000000000e+01,2.200000000000000011e-01,3.702255200000000000e+09
1.430000000000000000e+02,5.170000000000000000e+02,9.270000000000000000e+02,2.950000000000000000e+02,1.340000000000000000e+02,9.200000000000000000e+01,5.200000000000000000e+01,5.500000000000000000e+01,2.099999999999999922e-01,3.721841700000000000e+09
1.360000000000000000e+02,5.180000000000000000e+02,1.055000000000000000e+03,2.970000000000000000e+02,1.310000000000000000e+02,9.000000000000000000e+01,5.100000000000000000e+01,5.200000000000000000e+01,2.000000000000000111e-01,3.741492700000000000e+09
1.180000000000000000e+02,4.620000000000000000e+02,1.084000000000000000e+03,2.620000000000000000e+02,1.280000000000000000e+02,8.900000000000000000e+01,5.100000000000000000e+01,4.800000000000000000e+01,1.900000000000000022e-01,3.761610200000000000e+09
9.900000000000000000e+01,3.920000000000000000e+02,1.006000000000000000e+03,2.730000000000000000e+02,1.280000000000000000e+02,8.000000000000000000e+01,4.700000000000000000e+01,4.100000000000000000e+01,1.799999999999999933e-01,3.782957200000000000e+09
8.400000000000000000e+01,3.700000000000000000e+02,1.024000000000000000e+03,2.660000000000000000e+02,1.220000000000000000e+02,7.100000000000000000e+01,3.700000000000000000e+01,3.600000000000000000e+01,1.700000000000000122e-01,3.801710700000000000e+09
7.700000000000000000e+01,3.260000000000000000e+02,1.043000000000000000e+03,2.760000000000000000e+02,1.280000000000000000e+02,7.400000000000000000e+01,3.800000000000000000e+01,3.800000000000000000e+01,1.700000000000000122e-01,3.821592800000000000e+09
8.100000000000000000e+01,3.170000000000000000e+02,9.610000000000000000e+02,2.660000000000000000e+02,1.250000000000000000e+02,7.400000000000000000e+01,3.800000000000000000e+01,4.000000000000000000e+01,1.600000000000000033e-01,3.840950300000000000e+09
9.900000000000000000e+01,3.820000000000000000e+02,1.004000000000000000e+03,2.790000000000000000e+02,1.320000000000000000e+02,7.300000000000000000e+01,3.600000000000000000e+01,4.100000000000000000e+01,1.600000000000000033e-01,3.862968800000000000e+09
1.060000000000000000e+02,4.010000000000000000e+02,1.049000000000000000e+03,2.570000000000000000e+02,1.330000000000000000e+02,7.000000000000000000e+01,3.700000000000000000e+01,4.200000000000000000e+01,1.499999999999999944e-01,3.884013200000000000e+09
1.050000000000000000e+02,4.320000000000000000e+02,1.032000000000000000e+03,2.500000000000000000e+02,1.230000000000000000e+02,6.800000000000000000e+01,3.600000000000000000e+01,4.200000000000000000e+01,1.499999999999999944e-01,3.902755600000000000e+09
1.230000000000000000e+02,4.860000000000000000e+02,9.640000000000000000e+02,2.360000000000000000e+02,1.260000000000000000e+02,7.100000000000000000e+01,3.800000000000000000e+01,4.700000000000000000e+01,1.499999999999999944e-01,3.923769500000000000e+09
1.410000000000000000e+02,5.080000000000000000e+02,9.350000000000000000e+02,2.690000000000000000e+02,1.550000000000000000e+02,8.900000000000000000e+01,4.900000000000000000e+01,5.500000000000000000e+01,1.499999999999999944e-01,3.943170300000000000e+09
1.340000000000000000e+02,4.970000000000000000e+02,8.550000000000000000e+02,2.430000000000000000e+02,1.550000000000000000e+02,9.200000000000000000e+01,5.300000000000000000e+01,5.600000000000000000e+01,1.400000000000000133e-01,3.964502600000000000e+09
1.340000000000000000e+02,5.000000000000000000e+02,9.000000000000000000e+02,2.280000000000000000e+02,1.530000000000000000e+02,9.300000000000000000e+01,5.500000000000000000e+01,6.000000000000000000e+01,1.400000000000000133e-01,3.986849100000000000e+09
1.330000000000000000e+02,4.910000000000000000e+02,8.820000000000000000e+02,2.320000000000000000e+02,1.550000000000000000e+02,9.400000000000000000e+01,5.500000000000000000e+01,5.800000000000000000e+01,1.400000000000000133e-01,4.006563500000000000e+09
1.140000000000000000e+02,4.460000000000000000e+02,8.600000000000000000e+02,2.250000000000000000e+02,1.470000000000000000e+02,8.800000000000000000e+01,5.300000000000000000e+01,5.300000000000000000e+01,1.400000000000000133e-01,4.024893800000000000e+09
9.000000000000000000e+01,4.210000000000000000e+02,8.810000000000000000e+02,1.830000000000000000e+02,1.230000000000000000e+02,8.300000000000000000e+01,4.400000000000000000e+01,4.500000000000000000e+01,1.499999999999999944e-01,4.044358700000000000e+09
1.120000000000000000e+02,3.950000000000000000e+02,9.380000000000000000e+02,2.360000000000000000e+02,1.520000000000000000e+02,1.190000000000000000e+02,5.100000000000000000e+01,4.500000000000000000e+01,1.400000000000000133e-01,4.067113500000000000e+09
1.080000000000000000e+02,3.680000000000000000e+02,8.290000000000000000e+02,2.270000000000000000e+02,1.480000000000000000e+02,2.060000000000000000e+02,1.090000000000000000e+02,1.120000000000000000e+02,1.400000000000000133e-01,4.086277100000000000e+09
1.080000000000000000e+02,3.520000000000000000e+02,7.360000000000000000e+02,2.170000000000000000e+02,1.440000000000000000e+02,2.880000000000000000e+02,1.260000000000000000e+02,1.880000000000000000e+02,1.499999999999999944e-01,4.106345200000000000e+09
1.160000000000000000e+02,3.420000000000000000e+02,7.710000000000000000e+02,2.170000000000000000e+02,1.550000000000000000e+02,3.980000000000000000e+02,1.560000000000000000e+02,2.880000000000000000e+02,1.600000000000000033e-01,4.124728100000000000e+09
1.160000000000000000e+02,3.070000000000000000e+02,7.540000000000000000e+02,2.040000000000000000e+02,1.650000000000000000e+02,5.020000000000000000e+02,1.930000000000000000e+02,3.390000000000000000e+02,1.700000000000000122e-01,4.143724700000000000e+09
8.600000000000000000e+01,2.470000000000000000e+02,6.410000000000000000e+02,1.340000000000000000e+02,1.300000000000000000e+02,5.680000000000000000e+02,3.090000000000000000e+02,4.100000000000000000e+02,1.799999999999999933e-01,4.165686300000000000e+09
9.500000000000000000e+01,2.440000000000000000e+02,6.390000000000000000e+02,1.220000000000000000e+02,1.420000000000000000e+02,7.350000000000000000e+02,4.410000000000000000e+02,5.260000000000000000e+02,1.900000000000000022e-01,4.185563300000000000e+09
1.110000000000000000e+02,2.160000000000000000e+02,6.190000000000000000e+02,1.150000000000000000e+02,1.680000000000000000e+02,8.480000000000000000e+02,5.370000000000000000e+02,6.420000000000000000e+02,2.099999999999999922e-01,4.204392500000000000e+09
1.170000000000000000e+02,2.120000000000000000e+02,6.490000000000000000e+02,1.100000000000000000e+02,1.900000000000000000e+02,1.013000000000000000e+03,7.360000000000000000e+02,6.930000000000000000e+02,2.200000000000000011e-01,4.223241600000000000e+09
1.250000000000000000e+02,2.430000000000000000e+02,5.910000000000000000e+02,1.130000000000000000e+02,2.190000000000000000e+02,1.062000000000000000e+03,8.440000000000000000e+02,7.800000000000000000e+02,2.300000000000000100e-01,4.242907900000000000e+09
1.400000000000000000e+02,2.840000000000000000e+02,5.810000000000000000e+02,1.210000000000000000e+02,2.270000000000000000e+02,1.237000000000000000e+03,9.450000000000000000e+02,8.790000000000000000e+02,2.399999999999999911e-01,4.264635200000000000e+09
1.350000000000000000e+02,2.940000000000000000e+02,5.620000000000000000e+02,1.190000000000000000e+02,2.280000000000000000e+02,1.255000000000000000e+03,1.050000000000000000e+03,8.820000000000000000e+02,2.600000000000000089e-01,4.287205300000000000e+09
1.300000000000000000e+02,3.140000000000000000e+02,5.580000000000000000e+02,1.200000000000000000e+02,2.150000000000000000e+02,1.245000000000000000e+03,1.021000000000000000e+03,8.240000000000000000e+02,2.700000000000000178e-01,4.306152700000000000e+09
1.280000000000000000e+02,3.330000000000000000e+02,4.770000000000000000e+02,1.090000000000000000e+02,1.920000000000000000e+02,1.200000000000000000e+03,9.400000000000000000e+02,8.240000000000000000e+02,2.899999999999999800e-01,4.324442300000000000e+09
1.280000000000000000e+02,3.250000000000000000e+02,5.090000000000000000e+02,1.080000000000000000e+02,1.490000000000000000e+02,1.147000000000000000e+03,9.020000000000000000e+02,8.020000000000000000e+02,2.999999999999999889e-01,4.343034500000000000e+09
1.140000000000000000e+02,2.840000000000000000e+02,4.530000000000000000e+02,9.600000000000000000e+01,1.400000000000000000e+02,9.370000000000000000e+02,8.400000000000000000e+02,7.140000000000000000e+02,3.200000000000000067e-01,4.365817700000000000e+09
1.140000000000000000e+02,2.640000000000000000e+02,4.350000000000000000e+02,1.030000000000000000e+02,1.380000000000000000e+02,8.260000000000000000e+02,6.540000000000000000e+02,6.610000000000000000e+02,3.300000000000000155e-01,4.385672600000000000e+09
1.070000000000000000e+02,2.800000000000000000e+02,4.650000000000000000e+02,9.700000000000000000e+01,1.300000000000000000e+02,7.480000000000000000e+02,6.490000000000000000e+02,6.340000000000000000e+02,3.400000000000000244e-01,4.405585300000000000e+09
9.400000000000000000e+01,2.610000000000000000e+02,4.650000000000000000e+02,1.010000000000000000e+02,1.190000000000000000e+02,5.570000000000000000e+02,5.690000000000000000e+02,5.700000000000000000e+02,3.400000000000000244e-01,4.427959700000000000e+09
8.500000000000000000e+01,2.420000000000000000e+02,4.380000000000000000e+02,1.000000000000000000e+02,1.060000000000000000e+02,5.220000000000000000e+02,5.290000000000000000e+02,4.860000000000000000e+02,3.499999999999999778e-01,4.450515500000000000e+09
7.900000000000000000e+01,2.350000000000000000e+02,4.260000000000000000e+02,9.900000000000000000e+01,9.500000000000000000e+01,4.850000000000000000e+02,4.000000000000000000e+02,4.140000000000000000e+02,3.599999999999999867e-01,4.479630700000000000e+09
7.500000000000000000e+01,2.660000000000000000e+02,4.290000000000000000e+02,9.500000000000000000e+01,6.200000000000000000e+01,3.760000000000000000e+02,3.930000000000000000e+02,4.050000000000000000e+02,3.599999999999999867e-01,4.500275400000000000e+09
6.800000000000000000e+01,2.410000000000000000e+02,4.100000000000000000e+02,9.700000000000000000e+01,5.500000000000000000e+01,2.760000000000000000e+02,3.570000000000000000e+02,3.970000000000000000e+02,3.599999999999999867e-01,4.520377700000000000e+09
7.000000000000000000e+01,2.130000000000000000e+02,3.440000000000000000e+02,8.100000000000000000e+01,5.800000000000000000e+01,2.550000000000000000e+02,4.160000000000000000e+02,3.590000000000000000e+02,3.699999999999999956e-01,4.540141800000000000e+09
6.600000000000000000e+01,2.330000000000000000e+02,4.010000000000000000e+02,1.020000000000000000e+02,6.000000000000000000e+01,1.850000000000000000e+02,3.350000000000000000e+02,3.190000000000000000e+02,3.699999999999999956e-01,4.563297000000000000e+09
6.600000000000000000e+01,2.370000000000000000e+02,4.250000000000000000e+02,1.100000000000000000e+02,6.000000000000000000e+01,1.870000000000000000e+02,3.430000000000000000e+02,2.920000000000000000e+02,3.699999999999999956e-01,4.584520300000000000e+09
6.300000000000000000e+01,2.020000000000000000e+02,4.170000000000000000e+02,1.030000000000000000e+02,6.300000000000000000e+01,1.900000000000000000e+02,2.950000000000000000e+02,2.500000000000000000e+02,3.599999999999999867e-01,4.605620700000000000e+09
6.200000000000000000e+01,1.990000000000000000e+02,3.780000000000000000e+02,9.200000000000000000e+01,7.000000000000000000e+01,1.760000000000000000e+02,2.950000000000000000e+02,2.200000000000000000e+02,3.599999999999999867e-01,4.625004900000000000e+09
5.800000000000000000e+01,2.160000000000000000e+02,3.460000000000000000e+02,1.040000000000000000e+02,7.500000000000000000e+01,1.390000000000000000e+02,2.000000000000000000e+02,2.400000000000000000e+02,3.599999999999999867e-01,4.643552500000000000e+09
5.300000000000000000e+01,2.060000000000000000e+02,2.710000000000000000e+02,1.030000000000000000e+02,9.500000000000000000e+01,1.330000000000000000e+02,1.960000000000000000e+02,2.260000000000000000e+02,3.699999999999999956e-01,4.664172800000000000e+09
5.100000000000000000e+01,2.250000000000000000e+02,3.380000000000000000e+02,1.170000000000000000e+02,1.000000000000000000e+02,1.120000000000000000e+02,1.620000000000000000e+02,2.170000000000000000e+02,3.800000000000000044e-01,4.686777800000000000e+09
4.700000000000000000e+01,2.240000000000000000e+02,3.960000000000000000e+02,1.260000000000000000e+02,9.400000000000000000e+01,8.900000000000000000e+01,1.770000000000000000e+02,1.680000000000000000e+02,3.800000000000000044e-01,4.707931300000000000e+09
4.800000000000000000e+01,2.140000000000000000e+02,3.940000000000000000e+02,1.420000000000000000e+02,1.020000000000000000e+02,8.300000000000000000e+01,1.680000000000000000e+02,1.620000000000000000e+02,3.900000000000000133e-01,4.728419500000000000e+09
4.400000000000000000e+01,2.190000000000000000e+02,3.870000000000000000e+02,1.400000000000000000e+02,1.020000000000000000e+02,9.800000000000000000e+01,1.630000000000000000e+02,1.360000000000000000e+02,4.000000000000000222e-01,4.748817100000000000e+09
3.900000000000000000e+01,2.210000000000000000e+02,3.780000000000000000e+02,1.250000000000000000e+02,8.200000000000000000e+01,9.800000000000000000e+01,1.570000000000000000e+02,1.510000000000000000e+02,4.099999999999999756e-01,4.769971900000000000e+09
4.200000000000000000e+01,2.250000000000000000e+02,3.300000000000000000e+02,1.050000000000000000e+02,7.500000000000000000e+01,9.400000000000000000e+01,1.380000000000000000e+02,1.540000000000000000e+02,4.199999999999999845e-01,4.789712000000000000e+09
4.400000000000000000e+01,2.380000000000000000e+02,2.890000000000000000e+02,1.010000000000000000e+02,7.700000000000000000e+01,9.800000000000000000e+01,1.170000000000000000e+02,1.670000000000000000e+02,4.199999999999999845e-01,4.810107000000000000e+09
4.300000000000000000e+01,2.420000000000000000e+02,3.160000000000000000e+02,7.700000000000000000e+01,7.300000000000000000e+01,9.800000000000000000e+01,1.190000000000000000e+02,1.600000000000000000e+02,4.299999999999999933e-01,4.829781500000000000e+09
4.300000000000000000e+01,2.220000000000000000e+02,3.610000000000000000e+02,6.700000000000000000e+01,8.600000000000000000e+01,7.600000000000000000e+01,1.070000000000000000e+02,1.260000000000000000e+02,4.299999999999999933e-01,4.849093600000000000e+09
4.300000000000000000e+01,2.160000000000000000e+02,3.820000000000000000e+02,8.900000000000000000e+01,1.030000000000000000e+02,6.500000000000000000e+01,8.900000000000000000e+01,9.700000000000000000e+01,4.400000000000000022e-01,4.869329800000000000e+09
4.100000000000000000e+01,2.260000000000000000e+02,3.700000000000000000e+02,8.900000000000000000e+01,1.080000000000000000e+02,6.100000000000000000e+01,1.030000000000000000e+02,1.090000000000000000e+02,4.500000000000000111e-01,4.891165100000000000e+09
3.900000000000000000e+01,2.260000000000000000e+02,3.650000000000000000e+02,8.500000000000000000e+01,1.040000000000000000e+02,4.900000000000000000e+01,8.100000000000000000e+01,8.200000000000000000e+01,4.500000000000000111e-01,4.910292500000000000e+09
3.700000000000000000e+01,2.390000000000000000e+02,3.780000000000000000e+02,9.100000000000000000e+01,1.030000000000000000e+02,4.900000000000000000e+01,8.600000000000000000e+01,8.300000000000000000e+01,4.600000000000000200e-01,4.930262600000000000e+09
3.900000000000000000e+01,2.440000000000000000e+02,3.590000000000000000e+02,9.300000000000000000e+01,9.300000000000000000e+01,5.100000000000000000e+01,9.800000000000000000e+01,1.170000000000000000e+02,4.600000000000000200e-01,4.952903600000000000e+09
3.900000000000000000e+01,2.600000000000000000e+02,3.500000000000000000e+02,7.900000000000000000e+01,7.500000000000000000e+01,5.300000000000000000e+01,1.220000000000000000e+02,1.210000000000000000e+02,4.600000000000000200e-01,4.978785500000000000e+09
4.000000000000000000e+01,2.290000000000000000e+02,3.640000000000000000e+02,1.020000000000000000e+02,8.900000000000000000e+01,6.400000000000000000e+01,1.160000000000000000e+02,1.200000000000000000e+02,4.600000000000000200e-01,5.006956700000000000e+09
4.100000000000000000e+01,2.240000000000000000e+02,3.410000000000000000e+02,1.080000000000000000e+02,9.200000000000000000e+01,6.600000000000000000e+01,1.160000000000000000e+02,1.210000000000000000e+02,4.699999999999999734e-01,5.030437800000000000e+09
4.300000000000000000e+01,2.030000000000000000e+02,2.940000000000000000e+02,1.050000000000000000e+02,8.400000000000000000e+01,6.500000000000000000e+01,1.360000000000000000e+02,1.420000000000000000e+02,4.699999999999999734e-01,5.054263500000000000e+09
4.000000000000000000e+01,2.110000000000000000e+02,2.620000000000000000e+02,1.040000000000000000e+02,7.700000000000000000e+01,6.100000000000000000e+01,1.280000000000000000e+02,1.150000000000000000e+02,4.699999999999999734e-01,5.078229800000000000e+09
4.100000000000000000e+01,1.830000000000000000e+02,2.300000000000000000e+02,1.010000000000000000e+02,7.600000000000000000e+01,7.700000000000000000e+01,1.140000000000000000e+02,1.180000000000000000e+02,4.799999999999999822e-01,5.100390900000000000e+09
3.600000000000000000e+01,1.750000000000000000e+02,1.540000000000000000e+02,7.700000000000000000e+01,5.400000000000000000e+01,7.300000000000000000e+01,1.160000000000000000e+02,1.760000000000000000e+02,4.799999999999999822e-01,5.122749100000000000e+09
3.300000000000000000e+01,1.750000000000000000e+02,1.640000000000000000e+02,7.800000000000000000e+01,5.100000000000000000e+01,7.300000000000000000e+01,1.170000000000000000e+02,1.780000000000000000e+02,4.799999999999999822e-01,5.143578700000000000e+09
3.400000000000000000e+01,1.780000000000000000e+02,1.960000000000000000e+02,9.200000000000000000e+01,5.100000000000000000e+01,7.100000000000000000e+01,8.900000000000000000e+01,1.640000000000000000e+02,4.899999999999999911e-01,5.166148600000000000e+09
3.400000000000000000e+01,1.730000000000000000e+02,2.690000000000000000e+02,9.400000000000000000e+01,6.500000000000000000e+01,7.300000000000000000e+01,8.700000000000000000e+01,1.660000000000000000e+02,4.899999999999999911e-01,5.188430300000000000e+09
3.800000000000000000e+01,1.610000000000000000e+02,2.890000000000000000e+02,9.400000000000000000e+01,7.200000000000000000e+01,5.800000000000000000e+01,7.500000000000000000e+01,1.670000000000000000e+02,4.899999999999999911e-01,5.209548300000000000e+09
4.000000000000000000e+01,1.630000000000000000e+02,2.930000000000000000e+02,9.500000000000000000e+01,7.300000000000000000e+01,5.500000000000000000e+01,6.300000000000000000e+01,8.900000000000000000e+01,4.899999999999999911e-01,5.231070700000000000e+09
4.400000000000000000e+01,1.510000000000000000e+02,3.140000000000000000e+02,8.800000000000000000e+01,7.400000000000000000e+01,5.900000000000000000e+01,1.120000000000000000e+02,8.500000000000000000e+01,4.899999999999999911e-01,5.254122000000000000e+09
4.200000000000000000e+01,1.380000000000000000e+02,3.120000000000000000e+02,8.600000000000000000e+01,7.700000000000000000e+01,6.000000000000000000e+01,1.100000000000000000e+02,7.700000000000000000e+01,4.899999999999999911e-01,5.280171500000000000e+09
4.400000000000000000e+01,1.680000000000000000e+02,3.070000000000000000e+02,8.300000000000000000e+01,6.600000000000000000e+01,6.100000000000000000e+01,1.130000000000000000e+02,6.800000000000000000e+01,4.899999999999999911e-01,5.301900900000000000e+09
3.700000000000000000e+01,1.790000000000000000e+02,3.180000000000000000e+02,8.300000000000000000e+01,5.500000000000000000e+01,5.500000000000000000e+01,1.140000000000000000e+02,4.900000000000000000e+01,5.000000000000000000e-01,5.323212600000000000e+09
3.500000000000000000e+01,1.730000000000000000e+02,3.440000000000000000e+02,8.300000000000000000e+01,5.000000000000000000e+01,5.000000000000000000e+01,1.190000000000000000e+02,4.400000000000000000e+01,5.000000000000000000e-01,5.344896000000000000e+09
3.400000000000000000e+01,1.880000000000000000e+02,3.380000000000000000e+02,8.100000000000000000e+01,5.500000000000000000e+01,4.700000000000000000e+01,9.400000000000000000e+01,5.200000000000000000e+01,5.100000000000000089e-01,5.366486900000000000e+09
4.200000000000000000e+01,1.990000000000000000e+02,4.300000000000000000e+02,8.800000000000000000e+01,5.300000000000000000e+01,4.200000000000000000e+01,9.400000000000000000e+01,4.900000000000000000e+01,5.100000000000000089e-01,5.389285400000000000e+09
4.000000000000000000e+01,1.630000000000000000e+02,4.340000000000000000e+02,9.300000000000000000e+01,5.400000000000000000e+01,3.900000000000000000e+01,9.700000000000000000e+01,4.800000000000000000e+01,5.200000000000000178e-01,5.410789500000000000e+09
4.000000000000000000e+01,1.690000000000000000e+02,4.400000000000000000e+02,9.600000000000000000e+01,5.300000000000000000e+01,4.000000000000000000e+01,9.700000000000000000e+01,4.900000000000000000e+01,5.300000000000000266e-01,5.432722700000000000e+09
4.000000000000000000e+01,2.010000000000000000e+02,4.520000000000000000e+02,9.900000000000000000e+01,5.400000000000000000e+01,4.200000000000000000e+01,9.200000000000000000e+01,4.800000000000000000e+01,5.400000000000000355e-01,5.455711500000000000e+09
3.900000000000000000e+01,1.830000000000000000e+02,4.740000000000000000e+02,9.500000000000000000e+01,4.800000000000000000e+01,3.800000000000000000e+01,8.300000000000000000e+01,2.900000000000000000e+01,5.400000000000000355e-01,5.477230400000000000e+09
3.200000000000000000e+01,1.770000000000000000e+02,3.990000000000000000e+02,8.100000000000000000e+01,4.100000000000000000e+01,3.600000000000000000e+01,8.100000000000000000e+01,2.800000000000000000e+01,5.500000000000000444e-01,5.499625900000000000e+09
3.100000000000000000e+01,1.910000000000000000e+02,3.590000000000000000e+02,7.700000000000000000e+01,4.200000000000000000e+01,3.500000000000000000e+01,7.500000000000000000e+01,2.800000000000000000e+01,5.600000000000000533e-01,5.522611500000000000e+09
3.200000000000000000e+01,1.930000000000000000e+02,3.510000000000000000e+02,7.300000000000000000e+01,4.000000000000000000e+01,3.100000000000000000e+01,7.000000000000000000e+01,2.600000000000000000e+01,5.699999999999999512e-01,5.544242300000000000e+09
3.100000000000000000e+01,1.770000000000000000e+02,3.600000000000000000e+02,8.700000000000000000e+01,4.300000000000000000e+01,3.100000000000000000e+01,6.400000000000000000e+01,2.400000000000000000e+01,5.799999999999999600e-01,5.567427600000000000e+09
3.200000000000000000e+01,2.120000000000000000e+02,3.350000000000000000e+02,8.700000000000000000e+01,4.200000000000000000e+01,3.200000000000000000e+01,4.600000000000000000e+01,2.400000000000000000e+01,5.799999999999999600e-01,5.587768500000000000e+09
3.100000000000000000e+01,2.490000000000000000e+02,3.030000000000000000e+02,8.000000000000000000e+01,4.600000000000000000e+01,3.500000000000000000e+01,5.500000000000000000e+01,2.500000000000000000e+01,5.899999999999999689e-01,5.608164600000000000e+09
3.300000000000000000e+01,2.430000000000000000e+02,3.130000000000000000e+02,7.700000000000000000e+01,5.500000000000000000e+01,4.000000000000000000e+01,5.200000000000000000e+01,2.500000000000000000e+01,5.899999999999999689e-01,5.628063000000000000e+09
3.300000000000000000e+01,2.360000000000000000e+02,3.040000000000000000e+02,8.700000000000000000e+01,5.500000000000000000e+01,3.900000000000000000e+01,5.100000000000000000e+01,2.500000000000000000e+01,5.899999999999999689e-01,5.648310400000000000e+09
3.400000000000000000e+01,2.330000000000000000e+02,2.610000000000000000e+02,9.200000000000000000e+01,5.700000000000000000e+01,4.100000000000000000e+01,5.200000000000000000e+01,2.700000000000000000e+01,5.899999999999999689e-01,5.672841700000000000e+09
3.000000000000000000e+01,2.040000000000000000e+02,3.220000000000000000e+02,9.300000000000000000e+01,5.500000000000000000e+01,4.200000000000000000e+01,5.500000000000000000e+01,2.600000000000000000e+01,5.999999999999999778e-01,5.696500000000000000e+09
2.900000000000000000e+01,1.530000000000000000e+02,3.280000000000000000e+02,9.700000000000000000e+01,5.000000000000000000e+01,4.400000000000000000e+01,5.100000000000000000e+01,2.400000000000000000e+01,5.999999999999999778e-01,5.716396900000000000e+09
2.600000000000000000e+01,1.460000000000000000e+02,3.150000000000000000e+02,9.800000000000000000e+01,4.700000000000000000e+01,4.700000000000000000e+01,5.100000000000000000e+01,2.300000000000000000e+01,5.999999999999999778e-01,5.737624200000000000e+09
2.800000000000000000e+01,1.420000000000000000e+02,3.540000000000000000e+02,8.500000000000000000e+01,5.600000000000000000e+01,5.200000000000000000e+01,5.100000000000000000e+01,2.600000000000000000e+01,5.999999999999999778e-01,5.759868900000000000e+09
2.700000000000000000e+01,1.430000000000000000e+02,3.530000000000000000e+02,7.900000000000000000e+01,5.400000000000000000e+01,4.900000000000000000e+01,5.200000000000000000e+01,2.400000000000000000e+01,6.099999999999999867e-01,5.781657900000000000e+09
2.900000000000000000e+01,1.490000000000000000e+02,3.500000000000000000e+02,9.200000000000000000e+01,5.400000000000000000e+01,4.800000000000000000e+01,4.700000000000000000e+01,2.500000000000000000e+01,6.099999999999999867e-01,5.805094300000000000e+09
3.200000000000000000e+01,1.800000000000000000e+02,4.030000000000000000e+02,8.700000000000000000e+01,5.600000000000000000e+01,4.500000000000000000e+01,4.200000000000000000e+01,2.500000000000000000e+01,6.099999999999999867e-01,5.825799000000000000e+09
3.500000000000000000e+01,2.030000000000000000e+02,4.280000000000000000e+02,9.300000000000000000e+01,5.600000000000000000e+01,4.100000000000000000e+01,6.600000000000000000e+01,2.700000000000000000e+01,6.099999999999999867e-01,5.847145000000000000e+09
3.400000000000000000e+01,2.150000000000000000e+02,4.140000000000000000e+02,9.800000000000000000e+01,5.500000000000000000e+01,3.900000000000000000e+01,6.700000000000000000e+01,2.500000000000000000e+01,6.099999999999999867e-01,5.868392000000000000e+09
3.700000000000000000e+01,2.130000000000000000e+02,4.160000000000000000e+02,9.800000000000000000e+01,5.900000000000000000e+01,4.400000000000000000e+01,6.700000000000000000e+01,2.500000000000000000e+01,6.099999999999999867e-01,5.890434600000000000e+09
3.800000000000000000e+01,2.100000000000000000e+02,3.710000000000000000e+02,1.040000000000000000e+02,6.200000000000000000e+01,4.500000000000000000e+01,6.600000000000000000e+01,2.400000000000000000e+01,6.099999999999999867e-01,5.911158600000000000e+09
4.100000000000000000e+01,1.850000000000000000e+02,3.320000000000000000e+02,1.170000000000000000e+02,6.600000000000000000e+01,5.000000000000000000e+01,6.800000000000000000e+01,2.400000000000000000e+01,6.099999999999999867e-01,5.932200000000000000e+09
3.900000000000000000e+01,1.620000000000000000e+02,3.340000000000000000e+02,1.160000000000000000e+02,6.100000000000000000e+01,4.800000000000000000e+01,4.700000000000000000e+01,2.400000000000000000e+01,6.199999999999999956e-01,5.953175200000000000e+09
3.900000000000000000e+01,1.690000000000000000e+02,3.240000000000000000e+02,1.130000000000000000e+02,5.300000000000000000e+01,4.800000000000000000e+01,4.400000000000000000e+01,2.100000000000000000e+01,6.199999999999999956e-01,5.975447100000000000e+09
3.900000000000000000e+01,1.910000000000000000e+02,3.480000000000000000e+02,1.110000000000000000e+02,5.300000000000000000e+01,4.600000000000000000e+01,4.400000000000000000e+01,2.200000000000000000e+01,6.199999999999999956e-01,5.995895300000000000e+09
3.800000000000000000e+01,2.090000000000000000e+02,3.810000000000000000e+02,9.900000000000000000e+01,5.300000000000000000e+01,4.700000000000000000e+01,4.200000000000000000e+01,2.200000000000000000e+01,6.199999999999999956e-01,6.015843800000000000e+09
3.600000000000000000e+01,2.300000000000000000e+02,4.600000000000000000e+02,8.900000000000000000e+01,5.300000000000000000e+01,4.600000000000000000e+01,3.900000000000000000e+01,2.400000000000000000e+01,6.199999999999999956e-01,6.035462100000000000e+09
3.600000000000000000e+01,2.310000000000000000e+02,4.520000000000000000e+02,8.600000000000000000e+01,5.400000000000000000e+01,4.700000000000000000e+01,3.100000000000000000e+01,2.400000000000000000e+01,6.199999999999999956e-01,6.056395800000000000e+09
3.600000000000000000e+01,2.260000000000000000e+02,4.390000000000000000e+02,8.700000000000000000e+01,5.600000000000000000e+01,5.000000000000000000e+01,3.000000000000000000e+01,2.400000000000000000e+01,6.300000000000000044e-01,6.078430100000000000e+09
3.600000000000000000e+01,2.090000000000000000e+02,4.330000000000000000e+02,7.600000000000000000e+01,5.300000000000000000e+01,4.900000000000000000e+01,2.800000000000000000e+01,2.400000000000000000e+01,6.300000000000000044e-01,6.099330400000000000e+09
3.900000000000000000e+01,1.870000000000000000e+02,4.560000000000000000e+02,7.500000000000000000e+01,5.300000000000000000e+01,4.800000000000000000e+01,3.000000000000000000e+01,2.600000000000000000e+01,6.300000000000000044e-01,6.119619300000000000e+09
3.600000000000000000e+01,1.630000000000000000e+02,3.770000000000000000e+02,7.900000000000000000e+01,4.600000000000000000e+01,4.300000000000000000e+01,2.700000000000000000e+01,2.400000000000000000e+01,6.300000000000000044e-01,6.139521800000000000e+09
4.200000000000000000e+01,1.620000000000000000e+02,3.860000000000000000e+02,1.080000000000000000e+02,4.600000000000000000e+01,4.400000000000000000e+01,2.800000000000000000e+01,2.400000000000000000e+01,6.300000000000000044e-01,6.161599900000000000e+09
4.000000000000000000e+01,1.390000000000000000e+02,4.130000000000000000e+02,1.160000000000000000e+02,4.400000000000000000e+01,3.600000000000000000e+01,3.500000000000000000e+01,2.400000000000000000e+01,6.400000000000000133e-01,6.184427000000000000e+09
4.000000000000000000e+01,1.790000000000000000e+02,4.060000000000000000e+02,1.180000000000000000e+02,4.500000000000000000e+01,3.600000000000000000e+01,3.300000000000000000e+01,2.500000000000000000e+01,6.400000000000000133e-01,6.204070000000000000e+09
4.000000000000000000e+01,1.800000000000000000e+02,3.450000000000000000e+02,1.160000000000000000e+02,4.400000000000000000e+01,3.900000000000000000e+01,3.200000000000000000e+01,2.400000000000000000e+01,6.400000000000000133e-01,6.222907300000000000e+09
4.000000000000000000e+01,2.030000000000000000e+02,3.640000000000000000e+02,1.120000000000000000e+02,4.800000000000000000e+01,4.000000000000000000e+01,3.300000000000000000e+01,2.500000000000000000e+01,6.400000000000000133e-01,6.242859800000000000e+09
4.300000000000000000e+01,2.460000000000000000e+02,3.650000000000000000e+02,8.700000000000000000e+01,5.000000000000000000e+01,4.100000000000000000e+01,3.200000000000000000e+01,2.800000000000000000e+01,6.400000000000000133e-01,6.265152400000000000e+09
4.500000000000000000e+01,2.690000000000000000e+02,3.550000000000000000e+02,7.900000000000000000e+01,4.900000000000000000e+01,4.200000000000000000e+01,2.800000000000000000e+01,2.900000000000000000e+01,6.400000000000000133e-01,6.285681100000000000e+09
4.400000000000000000e+01,2.500000000000000000e+02,3.580000000000000000e+02,7.500000000000000000e+01,4.600000000000000000e+01,4.300000000000000000e+01,2.800000000000000000e+01,2.700000000000000000e+01,6.400000000000000133e-01,6.304588600000000000e+09
4.200000000000000000e+01,2.490000000000000000e+02,3.890000000000000000e+02,7.000000000000000000e+01,4.400000000000000000e+01,4.200000000000000000e+01,2.800000000000000000e+01,2.600000000000000000e+01,6.400000000000000133e-01,6.322624900000000000e+09
4.500000000000000000e+01,2.310000000000000000e+02,4.070000000000000000e+02,7.700000000000000000e+01,4.700000000000000000e+01,4.100000000000000000e+01,2.900000000000000000e+01,2.700000000000000000e+01,6.500000000000000222e-01,6.341869300000000000e+09
3.900000000000000000e+01,1.960000000000000000e+02,4.690000000000000000e+02,7.900000000000000000e+01,4.800000000000000000e+01,4.000000000000000000e+01,3.000000000000000000e+01,2.400000000000000000e+01,6.500000000000000222e-01,6.362377000000000000e+09
3.700000000000000000e+01,1.640000000000000000e+02,4.580000000000000000e+02,7.600000000000000000e+01,5.500000000000000000e+01,4.100000000000000000e+01,3.200000000000000000e+01,2.500000000000000000e+01,6.400000000000000133e-01,6.386363600000000000e+09
3.800000000000000000e+01,1.470000000000000000e+02,4.680000000000000000e+02,7.800000000000000000e+01,5.700000000000000000e+01,4.100000000000000000e+01,3.400000000000000000e+01,2.500000000000000000e+01,6.400000000000000133e-01,6.406087300000000000e+09
3.800000000000000000e+01,1.800000000000000000e+02,4.770000000000000000e+02,8.400000000000000000e+01,6.200000000000000000e+01,4.300000000000000000e+01,3.300000000000000000e+01,2.700000000000000000e+01,6.400000000000000133e-01,6.425640400000000000e+09
3.400000000000000000e+01,2.040000000000000000e+02,4.930000000000000000e+02,8.100000000000000000e+01,5.900000000000000000e+01,4.800000000000000000e+01,3.400000000000000000e+01,2.600000000000000000e+01,6.400000000000000133e-01,6.445019200000000000e+09
3.300000000000000000e+01,2.230000000000000000e+02,4.910000000000000000e+02,7.800000000000000000e+01,5.800000000000000000e+01,4.700000000000000000e+01,3.500000000000000000e+01,2.600000000000000000e+01,6.300000000000000044e-01,6.466498600000000000e+09
3.400000000000000000e+01,2.260000000000000000e+02,4.870000000000000000e+02,7.700000000000000000e+01,5.400000000000000000e+01,4.500000000000000000e+01,3.500000000000000000e+01,2.400000000000000000e+01,6.300000000000000044e-01,6.486658500000000000e+09
3.100000000000000000e+01,2.290000000000000000e+02,4.850000000000000000e+02,8.700000000000000000e+01,5.600000000000000000e+01,4.300000000000000000e+01,4.100000000000000000e+01,2.500000000000000000e+01,6.300000000000000044e-01,6.507615500000000000e+09
3.200000000000000000e+01,2.040000000000000000e+02,5.100000000000000000e+02,9.100000000000000000e+01,4.800000000000000000e+01,4.000000000000000000e+01,5.500000000000000000e+01,2.400000000000000000e+01,6.300000000000000044e-01,6.527789500000000000e+09
3.800000000000000000e+01,2.160000000000000000e+02,4.750000000000000000e+02,9.300000000000000000e+01,4.800000000000000000e+01,3.400000000000000000e+01,6.100000000000000000e+01,2.600000000000000000e+01,6.300000000000000044e-01,6.547072500000000000e+09
3.700000000000000000e+01,1.880000000000000000e+02,3.930000000000000000e+02,9.200000000000000000e+01,4.600000000000000000e+01,3.600000000000000000e+01,6.100000000000000000e+01,2.500000000000000000e+01,6.300000000000000044e-01,6.567098000000000000e+09
4.000000000000000000e+01,2.030000000000000000e+02,4.110000000000000000e+02,9.700000000000000000e+01,5.000000000000000000e+01,4.000000000000000000e+01,6.100000000000000000e+01,2.700000000000000000e+01,6.300000000000000044e-01,6.588558700000000000e+09
4.000000000000000000e+01,2.160000000000000000e+02,3.870000000000000000e+02,9.500000000000000000e+01,5.600000000000000000e+01,4.300000000000000000e+01,6.000000000000000000e+01,2.600000000000000000e+01,6.300000000000000044e-01,6.608013300000000000e+09
4.000000000000000000e+01,2.120000000000000000e+02,3.440000000000000000e+02,9.600000000000000000e+01,6.000000000000000000e+01,4.300000000000000000e+01,4.800000000000000000e+01,2.500000000000000000e+01,6.300000000000000044e-01,6.627115800000000000e+09
3.500000000000000000e+01,1.650000000000000000e+02,3.130000000000000000e+02,9.100000000000000000e+01,6.800000000000000000e+01,5.100000000000000000e+01,4.000000000000000000e+01,2.600000000000000000e+01,6.300000000000000044e-01,6.645854100000000000e+09
3.600000000000000000e+01,1.630000000000000000e+02,3.080000000000000000e+02,8.900000000000000000e+01,6.900000000000000000e+01,5.100000000000000000e+01,5.900000000000000000e+01,2.900000000000000000e+01,6.199999999999999956e-01,6.668172600000000000e+09
3.700000000000000000e+01,1.520000000000000000e+02,2.780000000000000000e+02,8.900000000000000000e+01,6.400000000000000000e+01,5.100000000000000000e+01,5.900000000000000000e+01,2.900000000000000000e+01,6.199999999999999956e-01,6.688227000000000000e+09
4.000000000000000000e+01,1.440000000000000000e+02,2.740000000000000000e+02,8.600000000000000000e+01,6.000000000000000000e+01,5.100000000000000000e+01,6.000000000000000000e+01,2.800000000000000000e+01,6.199999999999999956e-01,6.708099600000000000e+09
3.900000000000000000e+01,1.580000000000000000e+02,2.780000000000000000e+02,8.400000000000000000e+01,5.500000000000000000e+01,5.300000000000000000e+01,6.400000000000000000e+01,2.800000000000000000e+01,6.199999999999999956e-01,6.730228900000000000e+09
4.100000000000000000e+01,1.680000000000000000e+02,3.710000000000000000e+02,8.800000000000000000e+01,5.600000000000000000e+01,4.900000000000000000e+01,7.300000000000000000e+01,2.600000000000000000e+01,6.099999999999999867e-01,6.749623300000000000e+09
4.200000000000000000e+01,1.660000000000000000e+02,3.760000000000000000e+02,9.000000000000000000e+01,5.800000000000000000e+01,5.000000000000000000e+01,7.700000000000000000e+01,2.400000000000000000e+01,6.099999999999999867e-01,6.772176100000000000e+09
3.600000000000000000e+01,1.490000000000000000e+02,3.840000000000000000e+02,8.400000000000000000e+01,6.600000000000000000e+01,5.100000000000000000e+01,8.000000000000000000e+01,2.400000000000000000e+01,6.099999999999999867e-01,6.792674500000000000e+09
3.300000000000000000e+01,1.390000000000000000e+02,3.770000000000000000e+02,7.700000000000000000e+01,6.900000000000000000e+01,5.300000000000000000e+01,8.200000000000000000e+01,2.500000000000000000e+01,5.999999999999999778e-01,6.812103400000000000e+09
3.200000000000000000e+01,1.340000000000000000e+02,3.610000000000000000e+02,7.200000000000000000e+01,7.800000000000000000e+01,5.600000000000000000e+01,8.300000000000000000e+01,2.600000000000000000e+01,5.999999999999999778e-01,6.832023500000000000e+09
2.900000000000000000e+01,1.410000000000000000e+02,2.920000000000000000e+02,6.200000000000000000e+01,7.100000000000000000e+01,5.000000000000000000e+01,1.120000000000000000e+02,2.900000000000000000e+01,5.899999999999999689e-01,6.853053100000000000e+09
2.400000000000000000e+01,1.390000000000000000e+02,3.110000000000000000e+02,6.200000000000000000e+01,6.900000000000000000e+01,5.200000000000000000e+01,1.020000000000000000e+02,3.000000000000000000e+01,5.799999999999999600e-01,6.874256900000000000e+09
2.600000000000000000e+01,1.430000000000000000e+02,3.000000000000000000e+02,5.800000000000000000e+01,7.400000000000000000e+01,5.300000000000000000e+01,1.030000000000000000e+02,3.100000000000000000e+01,5.699999999999999512e-01,6.893546800000000000e+09
2.600000000000000000e+01,1.440000000000000000e+02,3.390000000000000000e+02,6.000000000000000000e+01,7.200000000000000000e+01,5.400000000000000000e+01,1.030000000000000000e+02,3.000000000000000000e+01,5.699999999999999512e-01,6.912547800000000000e+09
3.000000000000000000e+01,1.490000000000000000e+02,3.410000000000000000e+02,5.900000000000000000e+01,6.500000000000000000e+01,5.300000000000000000e+01,1.020000000000000000e+02,2.900000000000000000e+01,5.600000000000000533e-01,6.931341100000000000e+09
3.400000000000000000e+01,1.470000000000000000e+02,3.170000000000000000e+02,6.300000000000000000e+01,6.800000000000000000e+01,5.400000000000000000e+01,6.300000000000000000e+01,2.700000000000000000e+01,5.500000000000000444e-01,6.950867900000000000e+09
3.400000000000000000e+01,1.650000000000000000e+02,2.900000000000000000e+02,6.300000000000000000e+01,6.700000000000000000e+01,5.000000000000000000e+01,6.000000000000000000e+01,2.400000000000000000e+01,5.400000000000000355e-01,6.973724800000000000e+09
3.500000000000000000e+01,1.770000000000000000e+02,3.080000000000000000e+02,7.300000000000000000e+01,6.600000000000000000e+01,5.300000000000000000e+01,5.600000000000000000e+01,2.500000000000000000e+01,5.400000000000000355e-01,6.994367700000000000e+09
3.600000000000000000e+01,1.760000000000000000e+02,3.070000000000000000e+02,1.110000000000000000e+02,7.400000000000000000e+01,5.200000000000000000e+01,5.500000000000000000e+01,2.600000000000000000e+01,5.300000000000000266e-01,7.013726900000000000e+09
3.300000000000000000e+01,1.610000000000000000e+02,2.760000000000000000e+02,1.110000000000000000e+02,7.600000000000000000e+01,5.000000000000000000e+01,5.100000000000000000e+01,2.600000000000000000e+01,5.300000000000000266e-01,7.033440200000000000e+09
2.800000000000000000e+01,1.550000000000000000e+02,2.860000000000000000e+02,1.080000000000000000e+02,7.400000000000000000e+01,4.900000000000000000e+01,4.500000000000000000e+01,2.500000000000000000e+01,5.300000000000000266e-01,7.055868700000000000e+09
2.900000000000000000e+01,1.480000000000000000e+02,3.050000000000000000e+02,1.090000000000000000e+02,7.600000000000000000e+01,5.300000000000000000e+01,7.100000000000000000e+01,2.800000000000000000e+01,5.300000000000000266e-01,7.077907600000000000e+09
2.900000000000000000e+01,1.620000000000000000e+02,2.860000000000000000e+02,1.060000000000000000e+02,6.800000000000000000e+01,5.000000000000000000e+01,7.500000000000000000e+01,2.800000000000000000e+01,5.300000000000000266e-01,7.097268200000000000e+09
2.600000000000000000e+01,1.600000000000000000e+02,2.630000000000000000e+02,7.400000000000000000e+01,5.600000000000000000e+01,4.800000000000000000e+01,7.500000000000000000e+01,3.600000000000000000e+01,5.300000000000000266e-01,7.116475700000000000e+09
2.900000000000000000e+01,1.760000000000000000e+02,2.500000000000000000e+02,7.200000000000000000e+01,5.200000000000000000e+01,4.500000000000000000e+01,7.900000000000000000e+01,3.600000000000000000e+01,5.400000000000000355e-01,7.135400400000000000e+09
3.000000000000000000e+01,1.800000000000000000e+02,2.530000000000000000e+02,7.800000000000000000e+01,5.100000000000000000e+01,4.700000000000000000e+01,8.100000000000000000e+01,3.600000000000000000e+01,5.400000000000000355e-01,7.155795800000000000e+09
2.900000000000000000e+01,1.980000000000000000e+02,2.400000000000000000e+02,7.600000000000000000e+01,5.000000000000000000e+01,4.300000000000000000e+01,6.300000000000000000e+01,3.400000000000000000e+01,5.400000000000000355e-01,7.179336800000000000e+09
3.100000000000000000e+01,2.090000000000000000e+02,2.720000000000000000e+02,7.300000000000000000e+01,4.500000000000000000e+01,3.800000000000000000e+01,6.200000000000000000e+01,3.300000000000000000e+01,5.500000000000000444e-01,7.198406200000000000e+09
3.100000000000000000e+01,2.030000000000000000e+02,2.690000000000000000e+02,7.000000000000000000e+01,4.200000000000000000e+01,3.500000000000000000e+01,8.300000000000000000e+01,2.500000000000000000e+01,5.500000000000000444e-01,7.217407200000000000e+09
2.900000000000000000e+01,2.050000000000000000e+02,2.960000000000000000e+02,7.000000000000000000e+01,4.800000000000000000e+01,3.900000000000000000e+01,8.200000000000000000e+01,2.600000000000000000e+01,5.500000000000000444e-01,7.236170100000000000e+09
3.000000000000000000e+01,2.010000000000000000e+02,3.170000000000000000e+02,6.600000000000000000e+01,6.000000000000000000e+01,4.200000000000000000e+01,8.300000000000000000e+01,2.600000000000000000e+01,5.500000000000000444e-01,7.255737400000000000e+09
3.000000000000000000e+01,1.710000000000000000e+02,3.540000000000000000e+02,6.600000000000000000e+01,5.600000000000000000e+01,4.200000000000000000e+01,8.000000000000000000e+01,2.600000000000000000e+01,5.500000000000000444e-01,7.279124000000000000e+09
3.200000000000000000e+01,1.430000000000000000e+02,3.360000000000000000e+02,6.400000000000000000e+01,6.000000000000000000e+01,4.300000000000000000e+01,7.500000000000000000e+01,2.800000000000000000e+01,5.500000000000000444e-01,7.299340600000000000e+09
3.100000000000000000e+01,1.440000000000000000e+02,3.240000000000000000e+02,5.600000000000000000e+01,5.800000000000000000e+01,4.200000000000000000e+01,4.600000000000000000e+01,2.700000000000000000e+01,5.500000000000000444e-01,7.318061100000000000e+09
3.300000000000000000e+01,1.380000000000000000e+02,3.320000000000000000e+02,6.500000000000000000e+01,6.100000000000000000e+01,4.600000000000000000e+01,4.500000000000000000e+01,2.800000000000000000e+01,5.500000000000000444e-01,7.337578600000000000e+09
3.900000000000000000e+01,1.420000000000000000e+02,3.350000000000000000e+02,7.300000000000000000e+01,5.300000000000000000e+01,4.100000000000000000e+01,4.300000000000000000e+01,2.900000000000000000e+01,5.500000000000000444e-01,7.360162400000000000e+09
3.900000000000000000e+01,1.500000000000000000e+02,2.940000000000000000e+02,7.100000000000000000e+01,5.500000000000000000e+01,4.200000000000000000e+01,4.200000000000000000e+01,2.900000000000000000e+01,5.400000000000000355e-01,7.383566900000000000e+09
3.900000000000000000e+01,1.430000000000000000e+02,3.120000000000000000e+02,7.600000000000000000e+01,5.400000000000000000e+01,3.900000000000000000e+01,4.000000000000000000e+01,2.700000000000000000e+01,5.400000000000000355e-01,7.404530100000000000e+09
4.500000000000000000e+01,1.700000000000000000e+02,3.750000000000000000e+02,9.700000000000000000e+01,6.000000000000000000e+01,4.100000000000000000e+01,4.100000000000000000e+01,2.900000000000000000e+01,5.500000000000000444e-01,7.423638400000000000e+09
4.400000000000000000e+01,1.870000000000000000e+02,3.630000000000000000e+02,9.200000000000000000e+01,5.500000000000000000e+01,3.800000000000000000e+01,3.700000000000000000e+01,2.900000000000000000e+01,5.500000000000000444e-01,7.442746000000000000e+09
4.200000000000000000e+01,1.850000000000000000e+02,3.350000000000000000e+02,9.100000000000000000e+01,5.600000000000000000e+01,4.000000000000000000e+01,3.500000000000000000e+01,2.700000000000000000e+01,5.500000000000000444e-01,7.466136500000000000e+09
4.100000000000000000e+01,1.950000000000000000e+02,3.580000000000000000e+02,1.000000000000000000e+02,6.000000000000000000e+01,3.900000000000000000e+01,3.400000000000000000e+01,2.600000000000000000e+01,5.600000000000000533e-01,7.488336600000000000e+09
3.800000000000000000e+01,2.000000000000000000e+02,3.970000000000000000e+02,1.050000000000000000e+02,6.100000000000000000e+01,4.100000000000000000e+01,4.400000000000000000e+01,2.600000000000000000e+01,5.600000000000000533e-01,7.510612600000000000e+09
3.500000000000000000e+01,1.890000000000000000e+02,3.630000000000000000e+02,9.000000000000000000e+01,5.900000000000000000e+01,4.200000000000000000e+01,5.800000000000000000e+01,3.500000000000000000e+01,5.699999999999999512e-01,7.531134200000000000e+09
3.300000000000000000e+01,1.620000000000000000e+02,3.510000000000000000e+02,8.800000000000000000e+01,5.900000000000000000e+01,4.000000000000000000e+01,6.300000000000000000e+01,3.500000000000000000e+01,5.699999999999999512e-01,7.550400500000000000e+09
3.300000000000000000e+01,1.650000000000000000e+02,3.430000000000000000e+02,8.700000000000000000e+01,7.200000000000000000e+01,5.000000000000000000e+01,7.000000000000000000e+01,3.600000000000000000e+01,5.799999999999999600e-01,7.572829100000000000e+09
3.200000000000000000e+01,1.560000000000000000e+02,3.060000000000000000e+02,8.000000000000000000e+01,7.600000000000000000e+01,5.600000000000000000e+01,7.600000000000000000e+01,3.800000000000000000e+01,5.799999999999999600e-01,7.592008700000000000e+09
3.300000000000000000e+01,1.530000000000000000e+02,2.070000000000000000e+02,6.900000000000000000e+01,7.300000000000000000e+01,5.500000000000000000e+01,9.000000000000000000e+01,3.700000000000000000e+01,5.799999999999999600e-01,7.610776000000000000e+09
3.000000000000000000e+01,1.340000000000000000e+02,1.350000000000000000e+02,6.500000000000000000e+01,7.500000000000000000e+01,5.500000000000000000e+01,8.400000000000000000e+01,3.100000000000000000e+01,5.699999999999999512e-01,7.629559600000000000e+09
3.000000000000000000e+01,1.430000000000000000e+02,1.340000000000000000e+02,7.500000000000000000e+01,7.300000000000000000e+01,5.300000000000000000e+01,8.200000000000000000e+01,2.900000000000000000e+01,5.699999999999999512e-01,7.648400500000000000e+09
2.900000000000000000e+01,1.290000000000000000e+02,2.040000000000000000e+02,7.700000000000000000e+01,6.100000000000000000e+01,4.300000000000000000e+01,7.800000000000000000e+01,2.900000000000000000e+01,5.699999999999999512e-01,7.668925800000000000e+09
2.900000000000000000e+01,1.170000000000000000e+02,2.180000000000000000e+02,7.200000000000000000e+01,5.300000000000000000e+01,3.700000000000000000e+01,7.400000000000000000e+01,2.700000000000000000e+01,5.600000000000000533e-01,7.690151600000000000e+09
2.800000000000000000e+01,1.180000000000000000e+02,2.420000000000000000e+02,8.100000000000000000e+01,5.400000000000000000e+01,3.600000000000000000e+01,4.900000000000000000e+01,2.600000000000000000e+01,5.600000000000000533e-01,7.709829300000000000e+09
3.100000000000000000e+01,1.400000000000000000e+02,2.710000000000000000e+02,8.500000000000000000e+01,5.100000000000000000e+01,3.700000000000000000e+01,5.100000000000000000e+01,2.400000000000000000e+01,5.600000000000000533e-01,7.730798400000000000e+09
3.200000000000000000e+01,1.400000000000000000e+02,2.970000000000000000e+02,8.300000000000000000e+01,4.800000000000000000e+01,3.700000000000000000e+01,4.800000000000000000e+01,2.400000000000000000e+01,5.600000000000000533e-01,7.753172100000000000e+09
3.200000000000000000e+01,1.540000000000000000e+02,2.710000000000000000e+02,9.000000000000000000e+01,4.900000000000000000e+01,3.600000000000000000e+01,4.300000000000000000e+01,2.200000000000000000e+01,5.600000000000000533e-01,7.775288500000000000e+09
3.300000000000000000e+01,1.600000000000000000e+02,2.720000000000000000e+02,1.000000000000000000e+02,6.800000000000000000e+01,5.000000000000000000e+01,4.400000000000000000e+01,2.400000000000000000e+01,5.600000000000000533e-01,7.794691300000000000e+09
3.200000000000000000e+01,1.500000000000000000e+02,3.150000000000000000e+02,9.300000000000000000e+01,6.800000000000000000e+01,5.200000000000000000e+01,4.200000000000000000e+01,2.400000000000000000e+01,5.600000000000000533e-01,7.813225800000000000e+09
3.200000000000000000e+01,1.710000000000000000e+02,3.150000000000000000e+02,9.100000000000000000e+01,6.900000000000000000e+01,5.100000000000000000e+01,3.500000000000000000e+01,2.300000000000000000e+01,5.600000000000000533e-01,7.831895200000000000e+09
3.000000000000000000e+01,1.680000000000000000e+02,3.030000000000000000e+02,8.400000000000000000e+01,7.200000000000000000e+01,5.300000000000000000e+01,3.300000000000000000e+01,2.200000000000000000e+01,5.699999999999999512e-01,7.853234100000000000e+09
3.700000000000000000e+01,1.830000000000000000e+02,3.170000000000000000e+02,6.900000000000000000e+01,7.900000000000000000e+01,5.800000000000000000e+01,3.400000000000000000e+01,2.300000000000000000e+01,5.600000000000000533e-01,7.874925700000000000e+09
3.600000000000000000e+01,2.020000000000000000e+02,3.250000000000000000e+02,5.500000000000000000e+01,6.300000000000000000e+01,4.600000000000000000e+01,3.100000000000000000e+01,2.200000000000000000e+01,5.600000000000000533e-01,7.894657300000000000e+09
3.900000000000000000e+01,2.070000000000000000e+02,3.240000000000000000e+02,7.200000000000000000e+01,6.700000000000000000e+01,4.800000000000000000e+01,3.100000000000000000e+01,2.600000000000000000e+01,5.600000000000000533e-01,7.914430400000000000e+09
3.800000000000000000e+01,1.890000000000000000e+02,3.380000000000000000e+02,7.900000000000000000e+01,6.900000000000000000e+01,4.900000000000000000e+01,2.700000000000000000e+01,2.500000000000000000e+01,5.600000000000000533e-01,7.933338000000000000e+09
4.000000000000000000e+01,1.920000000000000000e+02,3.440000000000000000e+02,8.100000000000000000e+01,6.700000000000000000e+01,4.800000000000000000e+01,2.600000000000000000e+01,2.700000000000000000e+01,5.600000000000000533e-01,7.951975600000000000e+09
3.500000000000000000e+01,1.720000000000000000e+02,3.740000000000000000e+02,8.700000000000000000e+01,6.300000000000000000e+01,4.900000000000000000e+01,2.600000000000000000e+01,2.800000000000000000e+01,5.600000000000000533e-01,7.975360600000000000e+09
3.400000000000000000e+01,1.580000000000000000e+02,3.830000000000000000e+02,9.200000000000000000e+01,6.300000000000000000e+01,5.100000000000000000e+01,2.500000000000000000e+01,2.800000000000000000e+01,5.600000000000000533e-01,7.994827000000000000e+09
3.800000000000000000e+01,1.590000000000000000e+02,4.740000000000000000e+02,1.000000000000000000e+02,6.000000000000000000e+01,4.800000000000000000e+01,2.500000000000000000e+01,2.500000000000000000e+01,5.600000000000000533e-01,8.013915700000000000e+09
4.000000000000000000e+01,1.580000000000000000e+02,4.880000000000000000e+02,1.040000000000000000e+02,5.700000000000000000e+01,4.400000000000000000e+01,2.500000000000000000e+01,2.500000000000000000e+01,5.699999999999999512e-01,8.032989700000000000e+09
4.000000000000000000e+01,1.720000000000000000e+02,4.990000000000000000e+02,1.050000000000000000e+02,6.200000000000000000e+01,4.700000000000000000e+01,2.500000000000000000e+01,2.300000000000000000e+01,5.699999999999999512e-01,8.055738800000000000e+09
3.800000000000000000e+01,2.120000000000000000e+02,4.950000000000000000e+02,1.200000000000000000e+02,5.700000000000000000e+01,4.000000000000000000e+01,2.600000000000000000e+01,2.000000000000000000e+01,5.799999999999999600e-01,8.077821500000000000e+09
4.200000000000000000e+01,2.090000000000000000e+02,5.880000000000000000e+02,1.240000000000000000e+02,5.800000000000000000e+01,3.900000000000000000e+01,2.900000000000000000e+01,2.300000000000000000e+01,5.799999999999999600e-01,8.097633100000000000e+09
3.700000000000000000e+01,2.060000000000000000e+02,5.640000000000000000e+02,1.110000000000000000e+02,5.500000000000000000e+01,3.600000000000000000e+01,2.700000000000000000e+01,2.300000000000000000e+01,5.899999999999999689e-01,8.118035600000000000e+09
3.500000000000000000e+01,2.250000000000000000e+02,5.470000000000000000e+02,1.150000000000000000e+02,5.100000000000000000e+01,3.600000000000000000e+01,2.800000000000000000e+01,2.300000000000000000e+01,5.999999999999999778e-01,8.137944300000000000e+09
3.600000000000000000e+01,2.350000000000000000e+02,5.380000000000000000e+02,1.170000000000000000e+02,4.500000000000000000e+01,3.300000000000000000e+01,2.700000000000000000e+01,2.700000000000000000e+01,5.999999999999999778e-01,8.158379400000000000e+09
3.800000000000000000e+01,2.130000000000000000e+02,6.140000000000000000e+02,1.090000000000000000e+02,4.700000000000000000e+01,3.200000000000000000e+01,2.300000000000000000e+01,2.900000000000000000e+01,5.999999999999999778e-01,8.179860400000000000e+09
4.200000000000000000e+01,2.360000000000000000e+02,6.200000000000000000e+02,1.240000000000000000e+02,5.400000000000000000e+01,4.900000000000000000e+01,2.300000000000000000e+01,2.900000000000000000e+01,6.099999999999999867e-01,8.199405900000000000e+09
4.700000000000000000e+01,2.790000000000000000e+02,5.640000000000000000e+02,1.270000000000000000e+02,5.600000000000000000e+01,7.700000000000000000e+01,2.700000000000000000e+01,3.100000000000000000e+01,6.099999999999999867e-01,8.219266100000000000e+09
4.800000000000000000e+01,2.670000000000000000e+02,6.220000000000000000e+02,1.290000000000000000e+02,6.000000000000000000e+01,1.110000000000000000e+02,3.100000000000000000e+01,3.200000000000000000e+01,6.099999999999999867e-01,8.238100900000000000e+09
5.100000000000000000e+01,2.630000000000000000e+02,6.680000000000000000e+02,1.470000000000000000e+02,6.100000000000000000e+01,1.170000000000000000e+02,3.300000000000000000e+01,3.000000000000000000e+01,6.099999999999999867e-01,8.258333300000000000e+09
5.200000000000000000e+01,2.640000000000000000e+02,6.290000000000000000e+02,1.470000000000000000e+02,7.300000000000000000e+01,1.210000000000000000e+02,3.400000000000000000e+01,3.200000000000000000e+01,6.099999999999999867e-01,8.280285800000000000e+09
4.900000000000000000e+01,2.740000000000000000e+02,6.650000000000000000e+02,1.350000000000000000e+02,7.200000000000000000e+01,1.200000000000000000e+02,4.100000000000000000e+01,2.900000000000000000e+01,5.999999999999999778e-01,8.299725500000000000e+09
4.600000000000000000e+01,2.360000000000000000e+02,6.980000000000000000e+02,1.340000000000000000e+02,7.400000000000000000e+01,1.160000000000000000e+02,4.000000000000000000e+01,2.800000000000000000e+01,5.999999999999999778e-01,8.318974100000000000e+09
4.700000000000000000e+01,2.330000000000000000e+02,7.310000000000000000e+02,1.410000000000000000e+02,7.700000000000000000e+01,8.900000000000000000e+01,3.600000000000000000e+01,2.800000000000000000e+01,5.899999999999999689e-01,8.337789900000000000e+09
4.400000000000000000e+01,2.250000000000000000e+02,7.050000000000000000e+02,1.330000000000000000e+02,9.700000000000000000e+01,8.100000000000000000e+01,3.600000000000000000e+01,2.800000000000000000e+01,5.799999999999999600e-01,8.359711200000000000e+09
5.600000000000000000e+01,2.230000000000000000e+02,7.410000000000000000e+02,1.550000000000000000e+02,9.300000000000000000e+01,8.400000000000000000e+01,3.700000000000000000e+01,2.700000000000000000e+01,5.600000000000000533e-01,8.382335900000000000e+09
6.200000000000000000e+01,2.070000000000000000e+02,6.670000000000000000e+02,1.620000000000000000e+02,9.500000000000000000e+01,9.200000000000000000e+01,3.100000000000000000e+01,2.900000000000000000e+01,5.500000000000000444e-01,8.402769300000000000e+09
6.100000000000000000e+01,2.460000000000000000e+02,7.440000000000000000e+02,1.660000000000000000e+02,1.000000000000000000e+02,1.060000000000000000e+02,4.300000000000000000e+01,3.000000000000000000e+01,5.400000000000000355e-01,8.421889600000000000e+09
6.400000000000000000e+01,3.050000000000000000e+02,7.830000000000000000e+02,1.670000000000000000e+02,1.000000000000000000e+02,1.180000000000000000e+02,4.600000000000000000e+01,3.200000000000000000e+01,5.200000000000000178e-01,8.441813900000000000e+09
7.300000000000000000e+01,3.380000000000000000e+02,8.410000000000000000e+02,1.700000000000000000e+02,8.700000000000000000e+01,1.210000000000000000e+02,4.700000000000000000e+01,3.400000000000000000e+01,5.100000000000000089e-01,8.463210000000000000e+09
7.000000000000000000e+01,3.900000000000000000e+02,8.530000000000000000e+02,1.710000000000000000e+02,8.700000000000000000e+01,1.280000000000000000e+02,4.900000000000000000e+01,3.500000000000000000e+01,4.899999999999999911e-01,8.485209700000000000e+09
6.900000000000000000e+01,4.060000000000000000e+02,8.660000000000000000e+02,1.630000000000000000e+02,8.300000000000000000e+01,1.210000000000000000e+02,5.000000000000000000e+01,3.500000000000000000e+01,4.699999999999999734e-01,8.505963300000000000e+09
7.000000000000000000e+01,3.860000000000000000e+02,8.160000000000000000e+02,1.650000000000000000e+02,8.200000000000000000e+01,1.000000000000000000e+02,4.100000000000000000e+01,3.600000000000000000e+01,4.600000000000000200e-01,8.526597200000000000e+09
7.000000000000000000e+01,3.500000000000000000e+02,7.670000000000000000e+02,1.560000000000000000e+02,8.200000000000000000e+01,1.020000000000000000e+02,4.600000000000000000e+01,3.500000000000000000e+01,4.500000000000000111e-01,8.546669300000000000e+09
6.600000000000000000e+01,3.300000000000000000e+02,7.370000000000000000e+02,1.590000000000000000e+02,9.800000000000000000e+01,1.090000000000000000e+02,4.700000000000000000e+01,3.300000000000000000e+01,4.400000000000000022e-01,8.569456100000000000e+09
6.900000000000000000e+01,2.890000000000000000e+02,7.260000000000000000e+02,1.490000000000000000e+02,1.000000000000000000e+02,1.030000000000000000e+02,4.800000000000000000e+01,3.300000000000000000e+01,4.299999999999999933e-01,8.589019900000000000e+09
8.100000000000000000e+01,2.650000000000000000e+02,7.480000000000000000e+02,1.550000000000000000e+02,1.020000000000000000e+02,1.030000000000000000e+02,5.100000000000000000e+01,3.800000000000000000e+01,4.299999999999999933e-01,8.610425500000000000e+09
8.900000000000000000e+01,2.620000000000000000e+02,7.520000000000000000e+02,1.640000000000000000e+02,1.050000000000000000e+02,1.060000000000000000e+02,5.200000000000000000e+01,4.300000000000000000e+01,4.199999999999999845e-01,8.630914900000000000e+09
9.100000000000000000e+01,3.030000000000000000e+02,8.470000000000000000e+02,1.790000000000000000e+02,1.190000000000000000e+02,1.020000000000000000e+02,5.100000000000000000e+01,4.400000000000000000e+01,4.099999999999999756e-01,8.649812300000000000e+09
9.400000000000000000e+01,3.370000000000000000e+02,8.660000000000000000e+02,1.740000000000000000e+02,1.120000000000000000e+02,1.000000000000000000e+02,5.600000000000000000e+01,4.500000000000000000e+01,4.000000000000000222e-01,8.670478100000000000e+09
9.400000000000000000e+01,3.490000000000000000e+02,9.120000000000000000e+02,1.760000000000000000e+02,1.110000000000000000e+02,9.700000000000000000e+01,5.800000000000000000e+01,4.400000000000000000e+01,3.900000000000000133e-01,8.692225700000000000e+09
8.400000000000000000e+01,3.760000000000000000e+02,9.130000000000000000e+02,1.910000000000000000e+02,1.110000000000000000e+02,9.500000000000000000e+01,5.600000000000000000e+01,4.200000000000000000e+01,3.800000000000000044e-01,8.711921900000000000e+09
8.100000000000000000e+01,4.130000000000000000e+02,1.001000000000000000e+03,1.890000000000000000e+02,1.080000000000000000e+02,9.100000000000000000e+01,5.400000000000000000e+01,3.900000000000000000e+01,3.699999999999999956e-01,8.733994800000000000e+09
1.000000000000000000e+02,4.260000000000000000e+02,9.530000000000000000e+02,2.190000000000000000e+02,1.120000000000000000e+02,8.400000000000000000e+01,5.400000000000000000e+01,4.700000000000000000e+01,3.599999999999999867e-01,8.754938600000000000e+09
1.070000000000000000e+02,4.030000000000000000e+02,9.330000000000000000e+02,2.520000000000000000e+02,1.080000000000000000e+02,7.700000000000000000e+01,4.800000000000000000e+01,5.100000000000000000e+01,3.400000000000000244e-01,8.776326800000000000e+09
1.100000000000000000e+02,4.180000000000000000e+02,8.940000000000000000e+02,2.560000000000000000e+02,1.110000000000000000e+02,7.400000000000000000e+01,4.400000000000000000e+01,5.100000000000000000e+01,3.300000000000000155e-01,8.795751900000000000e+09
1.130000000000000000e+02,4.150000000000000000e+02,9.120000000000000000e+02,2.480000000000000000e+02,1.160000000000000000e+02,7.200000000000000000e+01,4.400000000000000000e+01,5.200000000000000000e+01,3.099999999999999978e-01,8.814998400000000000e+09
1.150000000000000000e+02,4.030000000000000000e+02,8.370000000000000000e+02,2.630000000000000000e+02,1.160000000000000000e+02,7.000000000000000000e+01,4.600000000000000000e+01,5.300000000000000000e+01,2.999999999999999889e-01,8.834606400000000000e+09
1.100000000000000000e+02,3.510000000000000000e+02,8.700000000000000000e+02,2.380000000000000000e+02,1.100000000000000000e+02,6.500000000000000000e+01,4.500000000000000000e+01,5.000000000000000000e+01,2.899999999999999800e-01,8.856863700000000000e+09
1.090000000000000000e+02,3.690000000000000000e+02,8.900000000000000000e+02,2.040000000000000000e+02,1.180000000000000000e+02,6.800000000000000000e+01,4.700000000000000000e+01,5.100000000000000000e+01,2.800000000000000266e-01,8.877607200000000000e+09
1.110000000000000000e+02,4.340000000000000000e+02,1.036000000000000000e+03,2.050000000000000000e+02,1.310000000000000000e+02,7.500000000000000000e+01,4.500000000000000000e+01,5.000000000000000000e+01,2.700000000000000178e-01,8.897235900000000000e+09
1.210000000000000000e+02,4.620000000000000000e+02,1.065000000000000000e+03,2.310000000000000000e+02,1.350000000000000000e+02,7.800000000000000000e+01,4.700000000000000000e+01,5.500000000000000000e+01,2.600000000000000089e-01,8.916935700000000000e+09
1.330000000000000000e+02,4.700000000000000000e+02,1.135000000000000000e+03,2.460000000000000000e+02,1.390000000000000000e+02,8.500000000000000000e+01,4.900000000000000000e+01,6.000000000000000000e+01,2.399999999999999911e-01,8.936278500000000000e+09
1.570000000000000000e+02,4.970000000000000000e+02,1.224000000000000000e+03,3.830000000000000000e+02,1.700000000000000000e+02,1.100000000000000000e+02,5.700000000000000000e+01,7.200000000000000000e+01,2.300000000000000100e-01,8.956015200000000000e+09
1.510000000000000000e+02,4.910000000000000000e+02,1.330000000000000000e+03,4.170000000000000000e+02,1.700000000000000000e+02,1.120000000000000000e+02,5.400000000000000000e+01,6.900000000000000000e+01,2.200000000000000011e-01,8.978937500000000000e+09
1.550000000000000000e+02,4.240000000000000000e+02,1.304000000000000000e+03,4.260000000000000000e+02,1.750000000000000000e+02,1.130000000000000000e+02,5.600000000000000000e+01,7.200000000000000000e+01,2.000000000000000111e-01,8.999100000000000000e+09
1.510000000000000000e+02,4.600000000000000000e+02,1.354000000000000000e+03,4.340000000000000000e+02,1.750000000000000000e+02,1.170000000000000000e+02,5.800000000000000000e+01,7.100000000000000000e+01,1.900000000000000022e-01,9.017859000000000000e+09
1.480000000000000000e+02,4.790000000000000000e+02,1.347000000000000000e+03,4.570000000000000000e+02,1.760000000000000000e+02,1.200000000000000000e+02,6.000000000000000000e+01,7.100000000000000000e+01,1.799999999999999933e-01,9.037449500000000000e+09
1.190000000000000000e+02,4.670000000000000000e+02,1.247000000000000000e+03,3.850000000000000000e+02,1.460000000000000000e+02,9.600000000000000000e+01,5.300000000000000000e+01,5.600000000000000000e+01,1.700000000000000122e-01,9.057626100000000000e+09
1.270000000000000000e+02,4.670000000000000000e+02,1.164000000000000000e+03,3.830000000000000000e+02,1.520000000000000000e+02,9.500000000000000000e+01,5.700000000000000000e+01,6.200000000000000000e+01,1.600000000000000033e-01,9.081133600000000000e+09
1.250000000000000000e+02,4.890000000000000000e+02,1.103000000000000000e+03,3.820000000000000000e+02,1.380000000000000000e+02,9.300000000000000000e+01,5.900000000000000000e+01,6.200000000000000000e+01,1.499999999999999944e-01,9.100826000000000000e+09
1.370000000000000000e+02,4.820000000000000000e+02,1.046000000000000000e+03,4.230000000000000000e+02,1.660000000000000000e+02,1.100000000000000000e+02,6.200000000000000000e+01,6.900000000000000000e+01,1.400000000000000133e-01,9.119187400000000000e+09
1.510000000000000000e+02,5.790000000000000000e+02,1.007000000000000000e+03,4.610000000000000000e+02,2.010000000000000000e+02,1.310000000000000000e+02,6.500000000000000000e+01,7.500000000000000000e+01,1.199999999999999956e-01,9.138489000000000000e+09
1.690000000000000000e+02,5.860000000000000000e+02,1.029000000000000000e+03,4.830000000000000000e+02,2.120000000000000000e+02,1.390000000000000000e+02,6.900000000000000000e+01,8.100000000000000000e+01,1.100000000000000006e-01,9.157799100000000000e+09
1.680000000000000000e+02,6.220000000000000000e+02,1.093000000000000000e+03,4.780000000000000000e+02,2.070000000000000000e+02,1.390000000000000000e+02,6.700000000000000000e+01,7.800000000000000000e+01,1.000000000000000056e-01,9.180212400000000000e+09
1.720000000000000000e+02,6.490000000000000000e+02,1.117000000000000000e+03,5.120000000000000000e+02,2.120000000000000000e+02,1.550000000000000000e+02,6.700000000000000000e+01,7.800000000000000000e+01,8.999999999999999667e-02,9.200184300000000000e+09
1.650000000000000000e+02,6.030000000000000000e+02,1.069000000000000000e+03,4.750000000000000000e+02,1.970000000000000000e+02,1.410000000000000000e+02,6.200000000000000000e+01,7.000000000000000000e+01,8.000000000000000167e-02,9.219846900000000000e+09
1.540000000000000000e+02,5.050000000000000000e+02,1.057000000000000000e+03,4.460000000000000000e+02,1.630000000000000000e+02,1.190000000000000000e+02,5.500000000000000000e+01,6.000000000000000000e+01,7.000000000000000666e-02,9.238665500000000000e+09
1.450000000000000000e+02,5.310000000000000000e+02,1.055000000000000000e+03,4.200000000000000000e+02,1.470000000000000000e+02,1.090000000000000000e+02,5.000000000000000000e+01,5.700000000000000000e+01,7.000000000000000666e-02,9.259272800000000000e+09
1.540000000000000000e+02,5.340000000000000000e+02,9.970000000000000000e+02,4.210000000000000000e+02,1.560000000000000000e+02,1.120000000000000000e+02,5.800000000000000000e+01,6.400000000000000000e+01,5.999999999999999778e-02,9.281425100000000000e+09
1.800000000000000000e+02,5.200000000000000000e+02,9.850000000000000000e+02,3.830000000000000000e+02,1.750000000000000000e+02,1.100000000000000000e+02,6.700000000000000000e+01,7.400000000000000000e+01,5.999999999999999778e-02,9.300724100000000000e+09
1.810000000000000000e+02,5.500000000000000000e+02,1.097000000000000000e+03,4.020000000000000000e+02,1.760000000000000000e+02,1.260000000000000000e+02,6.800000000000000000e+01,7.800000000000000000e+01,5.000000000000000278e-02,9.319527900000000000e+09
1.730000000000000000e+02,5.600000000000000000e+02,1.095000000000000000e+03,3.640000000000000000e+02,1.690000000000000000e+02,1.230000000000000000e+02,6.800000000000000000e+01,7.700000000000000000e+01,5.000000000000000278e-02,9.338563200000000000e+09
1.690000000000000000e+02,5.260000000000000000e+02,1.163000000000000000e+03,3.570000000000000000e+02,1.780000000000000000e+02,1.360000000000000000e+02,7.200000000000000000e+01,7.700000000000000000e+01,5.000000000000000278e-02,9.357401300000000000e+09
1.560000000000000000e+02,5.230000000000000000e+02,1.196000000000000000e+03,3.480000000000000000e+02,1.640000000000000000e+02,1.300000000000000000e+02,6.500000000000000000e+01,7.200000000000000000e+01,5.000000000000000278e-02,9.384237000000000000e+09
1.170000000000000000e+02,4.920000000000000000e+02,1.182000000000000000e+03,3.410000000000000000e+02,1.410000000000000000e+02,1.150000000000000000e+02,5.300000000000000000e+01,6.000000000000000000e+01,5.000000000000000278e-02,9.403641900000000000e+09
1.300000000000000000e+02,5.170000000000000000e+02,1.079000000000000000e+03,3.360000000000000000e+02,1.400000000000000000e+02,9.700000000000000000e+01,5.500000000000000000e+01,6.000000000000000000e+01,5.000000000000000278e-02,9.424292500000000000e+09
1.520000000000000000e+02,5.040000000000000000e+02,1.147000000000000000e+03,3.680000000000000000e+02,1.730000000000000000e+02,1.290000000000000000e+02,5.600000000000000000e+01,7.000000000000000000e+01,5.000000000000000278e-02,9.443834500000000000e+09
1.450000000000000000e+02,5.470000000000000000e+02,1.071000000000000000e+03,3.610000000000000000e+02,1.640000000000000000e+02,1.210000000000000000e+02,4.800000000000000000e+01,6.600000000000000000e+01,5.000000000000000278e-02,9.465236700000000000e+09
1.550000000000000000e+02,5.700000000000000000e+02,1.021000000000000000e+03,3.780000000000000000e+02,1.770000000000000000e+02,1.250000000000000000e+02,5.100000000000000000e+01,7.200000000000000000e+01,5.000000000000000278e-02,9.487471400000000000e+09
1.620000000000000000e+02,6.740000000000000000e+02,1.102000000000000000e+03,4.570000000000000000e+02,1.760000000000000000e+02,1.210000000000000000e+02,5.300000000000000000e+01,7.300000000000000000e+01,4.000000000000000083e-02,9.509167300000000000e+09
1.470000000000000000e+02,6.550000000000000000e+02,1.172000000000000000e+03,4.460000000000000000e+02,1.740000000000000000e+02,1.370000000000000000e+02,5.100000000000000000e+01,7.000000000000000000e+01,4.000000000000000083e-02,9.529127200000000000e+09
1.620000000000000000e+02,6.660000000000000000e+02,1.105000000000000000e+03,4.110000000000000000e+02,1.630000000000000000e+02,1.210000000000000000e+02,6.000000000000000000e+01,7.500000000000000000e+01,4.000000000000000083e-02,9.549615300000000000e+09
1.720000000000000000e+02,6.360000000000000000e+02,1.133000000000000000e+03,4.410000000000000000e+02,1.780000000000000000e+02,1.210000000000000000e+02,6.300000000000000000e+01,7.900000000000000000e+01,4.000000000000000083e-02,9.571506400000000000e+09
1.770000000000000000e+02,6.620000000000000000e+02,1.175000000000000000e+03,4.970000000000000000e+02,1.750000000000000000e+02,1.360000000000000000e+02,6.400000000000000000e+01,8.000000000000000000e+01,4.000000000000000083e-02,9.591510200000000000e+09
1.740000000000000000e+02,5.580000000000000000e+02,1.136000000000000000e+03,4.400000000000000000e+02,1.730000000000000000e+02,1.430000000000000000e+02,6.200000000000000000e+01,7.800000000000000000e+01,4.000000000000000083e-02,9.610155000000000000e+09
1.820000000000000000e+02,5.440000000000000000e+02,1.116000000000000000e+03,5.350000000000000000e+02,1.710000000000000000e+02,1.250000000000000000e+02,6.400000000000000000e+01,7.900000000000000000e+01,4.000000000000000083e-02,9.630129600000000000e+09
1.640000000000000000e+02,5.750000000000000000e+02,1.108000000000000000e+03,5.410000000000000000e+02,1.620000000000000000e+02,1.150000000000000000e+02,5.700000000000000000e+01,6.900000000000000000e+01,4.000000000000000083e-02,9.649880700000000000e+09
1.620000000000000000e+02,5.890000000000000000e+02,1.000000000000000000e+03,5.460000000000000000e+02,1.640000000000000000e+02,1.320000000000000000e+02,5.400000000000000000e+01,6.500000000000000000e+01,2.999999999999999889e-02,9.671658200000000000e+09
1.610000000000000000e+02,5.350000000000000000e+02,8.930000000000000000e+02,4.830000000000000000e+02,1.640000000000000000e+02,1.200000000000000000e+02,5.700000000000000000e+01,6.900000000000000000e+01,2.999999999999999889e-02,9.692320300000000000e+09
1.760000000000000000e+02,5.560000000000000000e+02,8.530000000000000000e+02,4.760000000000000000e+02,1.760000000000000000e+02,1.220000000000000000e+02,6.000000000000000000e+01,7.700000000000000000e+01,4.000000000000000083e-02,9.712231700000000000e+09
1.960000000000000000e+02,6.220000000000000000e+02,9.160000000000000000e+02,4.270000000000000000e+02,1.980000000000000000e+02,1.310000000000000000e+02,6.600000000000000000e+01,8.600000000000000000e+01,4.000000000000000083e-02,9.731655300000000000e+09
1.980000000000000000e+02,6.440000000000000000e+02,9.070000000000000000e+02,4.450000000000000000e+02,2.130000000000000000e+02,1.540000000000000000e+02,6.600000000000000000e+01,8.800000000000000000e+01,2.999999999999999889e-02,9.754056200000000000e+09
1.980000000000000000e+02,6.400000000000000000e+02,9.910000000000000000e+02,4.260000000000000000e+02,2.100000000000000000e+02,1.440000000000000000e+02,7.000000000000000000e+01,9.300000000000000000e+01,2.999999999999999889e-02,9.775610700000000000e+09
2.170000000000000000e+02,6.300000000000000000e+02,1.066000000000000000e+03,5.190000000000000000e+02,2.170000000000000000e+02,1.450000000000000000e+02,7.700000000000000000e+01,9.700000000000000000e+01,2.999999999999999889e-02,9.795418200000000000e+09
2.120000000000000000e+02,6.160000000000000000e+02,1.082000000000000000e+03,5.330000000000000000e+02,2.130000000000000000e+02,1.470000000000000000e+02,7.800000000000000000e+01,9.500000000000000000e+01,2.999999999999999889e-02,9.815547800000000000e+09
1.940000000000000000e+02,5.780000000000000000e+02,1.121000000000000000e+03,5.050000000000000000e+02,2.070000000000000000e+02,1.520000000000000000e+02,7.500000000000000000e+01,8.800000000000000000e+01,2.999999999999999889e-02,9.835540700000000000e+09
1.940000000000000000e+02,6.190000000000000000e+02,1.156000000000000000e+03,5.000000000000000000e+02,1.980000000000000000e+02,1.400000000000000000e+02,7.900000000000000000e+01,8.900000000000000000e+01,2.999999999999999889e-02,9.855626800000000000e+09
2.020000000000000000e+02,6.650000000000000000e+02,1.165000000000000000e+03,5.410000000000000000e+02,2.060000000000000000e+02,1.440000000000000000e+02,7.900000000000000000e+01,8.700000000000000000e+01,2.999999999999999889e-02,9.878798200000000000e+09
1.780000000000000000e+02,6.720000000000000000e+02,1.187000000000000000e+03,4.690000000000000000e+02,1.930000000000000000e+02,1.420000000000000000e+02,6.900000000000000000e+01,7.800000000000000000e+01,2.999999999999999889e-02,9.898901300000000000e+09
1.600000000000000000e+02,6.600000000000000000e+02,1.181000000000000000e+03,4.650000000000000000e+02,1.810000000000000000e+02,1.290000000000000000e+02,6.200000000000000000e+01,7.000000000000000000e+01,2.000000000000000042e-02,9.918798600000000000e+09
1.570000000000000000e+02,6.590000000000000000e+02,1.054000000000000000e+03,5.080000000000000000e+02,1.740000000000000000e+02,1.230000000000000000e+02,5.900000000000000000e+01,6.900000000000000000e+01,2.000000000000000042e-02,9.938097400000000000e+09
1.470000000000000000e+02,5.720000000000000000e+02,1.006000000000000000e+03,5.520000000000000000e+02,1.660000000000000000e+02,1.150000000000000000e+02,5.300000000000000000e+01,6.800000000000000000e+01,2.000000000000000042e-02,9.958780000000000000e+09
1.240000000000000000e+02,5.270000000000000000e+02,1.024000000000000000e+03,5.080000000000000000e+02,1.630000000000000000e+02,1.050000000000000000e+02,5.100000000000000000e+01,6.300000000000000000e+01,2.000000000000000042e-02,9.979792000000000000e+09
1.440000000000000000e+02,5.500000000000000000e+02,1.004000000000000000e+03,5.400000000000000000e+02,1.790000000000000000e+02,1.190000000000000000e+02,6.100000000000000000e+01,7.000000000000000000e+01,2.000000000000000042e-02,1.000020280000000000e+10
1.690000000000000000e+02,6.150000000000000000e+02,9.750000000000000000e+02,5.480000000000000000e+02,1.960000000000000000e+02,1.340000000000000000e+02,6.800000000000000000e+01,7.900000000000000000e+01,2.000000000000000042e-02,1.001950110000000000e+10
1.740000000000000000e+02,5.980000000000000000e+02,1.059000000000000000e+03,5.670000000000000000e+02,2.060000000000000000e+02,1.380000000000000000e+02,6.900000000000000000e+01,7.900000000000000000e+01,2.000000000000000042e-02,1.003802980000000000e+10
1.810000000000000000e+02,6.570000000000000000e+02,1.082000000000000000e+03,5.520000000000000000e+02,2.110000000000000000e+02,1.380000000000000000e+02,6.900000000000000000e+01,7.900000000000000000e+01,2.000000000000000042e-02,1.006053020000000000e+10
2.090000000000000000e+02,7.020000000000000000e+02,1.031000000000000000e+03,5.740000000000000000e+02,2.180000000000000000e+02,1.540000000000000000e+02,7.700000000000000000e+01,8.900000000000000000e+01,2.000000000000000042e-02,1.008080150000000000e+10
2.070000000000000000e+02,7.060000000000000000e+02,9.820000000000000000e+02,5.500000000000000000e+02,2.230000000000000000e+02,1.490000000000000000e+02,7.400000000000000000e+01,8.500000000000000000e+01,1.000000000000000021e-02,1.010167860000000000e+10
2.040000000000000000e+02,6.480000000000000000e+02,1.033000000000000000e+03,5.800000000000000000e+02,2.350000000000000000e+02,1.490000000000000000e+02,7.900000000000000000e+01,8.500000000000000000e+01,1.000000000000000021e-02,1.012144230000000000e+10
1.930000000000000000e+02,6.570000000000000000e+02,1.033000000000000000e+03,4.920000000000000000e+02,2.160000000000000000e+02,1.410000000000000000e+02,7.700000000000000000e+01,8.200000000000000000e+01,1.000000000000000021e-02,1.014096820000000000e+10
1.890000000000000000e+02,6.110000000000000000e+02,1.083000000000000000e+03,4.680000000000000000e+02,2.070000000000000000e+02,1.320000000000000000e+02,7.600000000000000000e+01,8.100000000000000000e+01,1.000000000000000021e-02,1.016133540000000000e+10
1.600000000000000000e+02,5.870000000000000000e+02,1.161000000000000000e+03,4.290000000000000000e+02,1.970000000000000000e+02,1.150000000000000000e+02,7.100000000000000000e+01,7.200000000000000000e+01,1.000000000000000021e-02,1.018254210000000000e+10
1.540000000000000000e+02,5.470000000000000000e+02,1.161000000000000000e+03,4.280000000000000000e+02,1.780000000000000000e+02,1.140000000000000000e+02,7.100000000000000000e+01,7.300000000000000000e+01,1.000000000000000021e-02,1.020223340000000000e+10
1.440000000000000000e+02,5.500000000000000000e+02,1.140000000000000000e+03,3.640000000000000000e+02,1.580000000000000000e+02,1.090000000000000000e+02,6.100000000000000000e+01,6.900000000000000000e+01,1.000000000000000021e-02,1.022218450000000000e+10
1.400000000000000000e+02,5.200000000000000000e+02,1.078000000000000000e+03,4.030000000000000000e+02,1.550000000000000000e+02,1.030000000000000000e+02,5.800000000000000000e+01,6.900000000000000000e+01,1.000000000000000021e-02,1.024233170000000000e+10
1.370000000000000000e+02,4.960000000000000000e+02,1.121000000000000000e+03,3.810000000000000000e+02,1.630000000000000000e+02,1.070000000000000000e+02,5.800000000000000000e+01,6.700000000000000000e+01,1.000000000000000021e-02,1.026632150000000000e+10
1.500000000000000000e+02,5.730000000000000000e+02,1.154000000000000000e+03,3.880000000000000000e+02,1.540000000000000000e+02,1.130000000000000000e+02,5.300000000000000000e+01,7.100000000000000000e+01,1.000000000000000021e-02,1.028632300000000000e+10
1.370000000000000000e+02,6.210000000000000000e+02,1.198000000000000000e+03,4.140000000000000000e+02,1.500000000000000000e+02,1.020000000000000000e+02,4.200000000000000000e+01,6.000000000000000000e+01,2.000000000000000042e-02,1.030581320000000000e+10
1.390000000000000000e+02,6.180000000000000000e+02,1.229000000000000000e+03,4.300000000000000000e+02,1.560000000000000000e+02,1.010000000000000000e+02,4.800000000000000000e+01,6.300000000000000000e+01,2.000000000000000042e-02,1.032571730000000000e+10
1.550000000000000000e+02,6.430000000000000000e+02,1.206000000000000000e+03,4.770000000000000000e+02,1.750000000000000000e+02,1.170000000000000000e+02,5.200000000000000000e+01,7.200000000000000000e+01,2.000000000000000042e-02,1.034389220000000000e+10
1.480000000000000000e+02,6.500000000000000000e+02,1.139000000000000000e+03,4.690000000000000000e+02,1.630000000000000000e+02,1.180000000000000000e+02,5.000000000000000000e+01,7.100000000000000000e+01,2.000000000000000042e-02,1.036368150000000000e+10
1.280000000000000000e+02,5.230000000000000000e+02,9.810000000000000000e+02,4.580000000000000000e+02,1.540000000000000000e+02,1.120000000000000000e+02,4.600000000000000000e+01,8.400000000000000000e+01,2.000000000000000042e-02,1.038541900000000000e+10
1.340000000000000000e+02,4.420000000000000000e+02,9.550000000000000000e+02,4.110000000000000000e+02,1.550000000000000000e+02,1.200000000000000000e+02,5.100000000000000000e+01,8.700000000000000000e+01,2.999999999999999889e-02,1.040530020000000000e+10
1.520000000000000000e+02,4.240000000000000000e+02,8.510000000000000000e+02,4.250000000000000000e+02,1.550000000000000000e+02,1.330000000000000000e+02,5.300000000000000000e+01,9.100000000000000000e+01,4.000000000000000083e-02,1.042715270000000000e+10
1.430000000000000000e+02,3.770000000000000000e+02,9.200000000000000000e+02,3.420000000000000000e+02,1.330000000000000000e+02,1.260000000000000000e+02,4.900000000000000000e+01,8.400000000000000000e+01,4.000000000000000083e-02,1.044726790000000000e+10
1.480000000000000000e+02,3.460000000000000000e+02,8.770000000000000000e+02,3.440000000000000000e+02,1.330000000000000000e+02,1.230000000000000000e+02,5.100000000000000000e+01,8.400000000000000000e+01,5.000000000000000278e-02,1.046841540000000000e+10
1.450000000000000000e+02,3.480000000000000000e+02,8.560000000000000000e+02,3.300000000000000000e+02,1.250000000000000000e+02,1.560000000000000000e+02,8.200000000000000000e+01,1.260000000000000000e+02,5.999999999999999778e-02,1.048835390000000000e+10
1.390000000000000000e+02,3.230000000000000000e+02,7.600000000000000000e+02,3.120000000000000000e+02,1.370000000000000000e+02,2.740000000000000000e+02,1.570000000000000000e+02,2.610000000000000000e+02,7.000000000000000666e-02,1.050979310000000000e+10
1.010000000000000000e+02,3.070000000000000000e+02,7.570000000000000000e+02,2.300000000000000000e+02,1.140000000000000000e+02,2.850000000000000000e+02,1.670000000000000000e+02,3.050000000000000000e+02,8.999999999999999667e-02,1.053128130000000000e+10
1.050000000000000000e+02,3.820000000000000000e+02,6.720000000000000000e+02,2.180000000000000000e+02,1.120000000000000000e+02,2.840000000000000000e+02,1.700000000000000000e+02,3.190000000000000000e+02,1.000000000000000056e-01,1.055093910000000000e+10
1.000000000000000000e+02,3.420000000000000000e+02,7.900000000000000000e+02,2.050000000000000000e+02,1.070000000000000000e+02,2.960000000000000000e+02,1.720000000000000000e+02,3.240000000000000000e+02,1.199999999999999956e-01,1.057366190000000000e+10
1.080000000000000000e+02,3.330000000000000000e+02,8.020000000000000000e+02,1.940000000000000000e+02,1.060000000000000000e+02,3.720000000000000000e+02,1.820000000000000000e+02,3.410000000000000000e+02,1.400000000000000133e-01,1.059441260000000000e+10
9.600000000000000000e+01,3.230000000000000000e+02,7.950000000000000000e+02,1.730000000000000000e+02,1.120000000000000000e+02,3.890000000000000000e+02,3.490000000000000000e+02,4.650000000000000000e+02,1.499999999999999944e-01,1.061452470000000000e+10
1.470000000000000000e+02,3.210000000000000000e+02,7.170000000000000000e+02,1.670000000000000000e+02,1.530000000000000000e+02,6.360000000000000000e+02,4.470000000000000000e+02,5.880000000000000000e+02,1.600000000000000033e-01,1.063390420000000000e+10
1.370000000000000000e+02,2.320000000000000000e+02,6.600000000000000000e+02,1.250000000000000000e+02,1.510000000000000000e+02,7.060000000000000000e+02,4.750000000000000000e+02,6.310000000000000000e+02,1.700000000000000122e-01,1.065371450000000000e+10
1.350000000000000000e+02,2.330000000000000000e+02,4.050000000000000000e+02,1.000000000000000000e+02,1.540000000000000000e+02,7.080000000000000000e+02,4.870000000000000000e+02,6.860000000000000000e+02,1.799999999999999933e-01,1.067540620000000000e+10
