3.300000000000000000e+01,8.200000000000000000e+01,2.720000000000000000e+02,5.000000000000000000e+01,3.300000000000000000e+01,2.900000000000000000e+01,2.400000000000000000e+01,2.400000000000000000e+01,5.100000000000000089e-01,4.290913000000000000e+08
3.000000000000000000e+01,8.000000000000000000e+01,2.760000000000000000e+02,5.200000000000000000e+01,3.900000000000000000e+01,2.800000000000000000e+01,2.300000000000000000e+01,2.400000000000000000e+01,5.100000000000000089e-01,4.602166000000000000e+08
3.400000000000000000e+01,1.050000000000000000e+02,2.800000000000000000e+02,6.200000000000000000e+01,3.900000000000000000e+01,3.100000000000000000e+01,2.600000000000000000e+01,2.600000000000000000e+01,5.100000000000000089e-01,8.171700000000000000e+08
3.300000000000000000e+01,1.040000000000000000e+02,2.390000000000000000e+02,5.500000000000000000e+01,3.800000000000000000e+01,2.900000000000000000e+01,2.400000000000000000e+01,2.500000000000000000e+01,5.100000000000000089e-01,8.342186000000000000e+08
3.400000000000000000e+01,1.010000000000000000e+02,2.380000000000000000e+02,5.800000000000000000e+01,3.800000000000000000e+01,2.800000000000000000e+01,2.300000000000000000e+01,2.300000000000000000e+01,5.100000000000000089e-01,8.512257000000000000e+08
3.400000000000000000e+01,9.900000000000000000e+01,2.590000000000000000e+02,5.800000000000000000e+01,3.400000000000000000e+01,2.800000000000000000e+01,2.100000000000000000e+01,2.400000000000000000e+01,5.100000000000000089e-01,8.703321000000000000e+08
3.400000000000000000e+01,1.110000000000000000e+02,2.990000000000000000e+02,5.800000000000000000e+01,2.800000000000000000e+01,2.800000000000000000e+01,2.200000000000000000e+01,2.300000000000000000e+01,5.100000000000000089e-01,8.873832000000000000e+08
3.100000000000000000e+01,9.600000000000000000e+01,2.920000000000000000e+02,4.900000000000000000e+01,2.900000000000000000e+01,2.400000000000000000e+01,2.000000000000000000e+01,2.400000000000000000e+01,5.200000000000000178e-01,9.078104000000000000e+08
3.200000000000000000e+01,9.300000000000000000e+01,3.080000000000000000e+02,4.900000000000000000e+01,3.000000000000000000e+01,2.700000000000000000e+01,2.200000000000000000e+01,2.500000000000000000e+01,5.200000000000000178e-01,9.260673000000000000e+08
3.200000000000000000e+01,9.600000000000000000e+01,3.110000000000000000e+02,4.600000000000000000e+01,3.100000000000000000e+01,2.500000000000000000e+01,2.400000000000000000e+01,2.700000000000000000e+01,5.100000000000000089e-01,9.435552000000000000e+08
2.600000000000000000e+01,9.500000000000000000e+01,2.990000000000000000e+02,4.800000000000000000e+01,3.200000000000000000e+01,2.400000000000000000e+01,2.600000000000000000e+01,2.400000000000000000e+01,5.100000000000000089e-01,9.621708000000000000e+08
2.700000000000000000e+01,7.700000000000000000e+01,2.610000000000000000e+02,4.300000000000000000e+01,3.100000000000000000e+01,2.200000000000000000e+01,2.400000000000000000e+01,2.500000000000000000e+01,5.100000000000000089e-01,9.799903000000000000e+08
2.700000000000000000e+01,6.600000000000000000e+01,2.470000000000000000e+02,4.600000000000000000e+01,2.900000000000000000e+01,2.400000000000000000e+01,2.400000000000000000e+01,2.300000000000000000e+01,5.100000000000000089e-01,9.979681000000000000e+08
2.800000000000000000e+01,8.100000000000000000e+01,2.440000000000000000e+02,4.900000000000000000e+01,3.500000000000000000e+01,2.800000000000000000e+01,2.500000000000000000e+01,2.500000000000000000e+01,5.100000000000000089e-01,1.016736300000000000e+09
2.600000000000000000e+01,7.900000000000000000e+01,2.660000000000000000e+02,5.400000000000000000e+01,3.700000000000000000e+01,2.700000000000000000e+01,2.300000000000000000e+01,2.300000000000000000e+01,5.100000000000000089e-01,1.033252100000000000e+09
2.800000000000000000e+01,7.700000000000000000e+01,2.540000000000000000e+02,5.600000000000000000e+01,4.000000000000000000e+01,2.600000000000000000e+01,2.200000000000000000e+01,2.500000000000000000e+01,5.100000000000000089e-01,1.049606500000000000e+09
2.700000000000000000e+01,8.200000000000000000e+01,2.270000000000000000e+02,5.800000000000000000e+01,3.900000000000000000e+01,2.700000000000000000e+01,2.300000000000000000e+01,2.500000000000000000e+01,5.100000000000000089e-01,1.065907200000000000e+09
2.600000000000000000e+01,8.500000000000000000e+01,2.140000000000000000e+02,5.400000000000000000e+01,4.200000000000000000e+01,2.700000000000000000e+01,2.400000000000000000e+01,2.400000000000000000e+01,5.100000000000000089e-01,1.082723300000000000e+09
2.600000000000000000e+01,8.000000000000000000e+01,2.760000000000000000e+02,5.800000000000000000e+01,3.700000000000000000e+01,2.400000000000000000e+01,2.200000000000000000e+01,2.300000000000000000e+01,5.100000000000000089e-01,1.125899400000000000e+09
3.000000000000000000e+01,7.700000000000000000e+01,2.730000000000000000e+02,5.400000000000000000e+01,3.700000000000000000e+01,2.600000000000000000e+01,2.400000000000000000e+01,2.500000000000000000e+01,5.100000000000000089e-01,1.144706500000000000e+09
3.000000000000000000e+01,7.300000000000000000e+01,2.840000000000000000e+02,4.800000000000000000e+01,3.200000000000000000e+01,2.600000000000000000e+01,2.200000000000000000e+01,2.300000000000000000e+01,5.100000000000000089e-01,1.161575200000000000e+09
3.000000000000000000e+01,7.100000000000000000e+01,3.070000000000000000e+02,4.800000000000000000e+01,3.800000000000000000e+01,2.700000000000000000e+01,2.400000000000000000e+01,2.300000000000000000e+01,5.100000000000000089e-01,1.178490100000000000e+09
3.200000000000000000e+01,7.100000000000000000e+01,3.130000000000000000e+02,5.700000000000000000e+01,3.500000000000000000e+01,2.500000000000000000e+01,2.200000000000000000e+01,2.300000000000000000e+01,5.100000000000000089e-01,1.196886700000000000e+09
3.000000000000000000e+01,7.100000000000000000e+01,3.500000000000000000e+02,5.100000000000000000e+01,3.600000000000000000e+01,2.400000000000000000e+01,2.200000000000000000e+01,2.200000000000000000e+01,5.100000000000000089e-01,1.215714800000000000e+09
2.700000000000000000e+01,8.500000000000000000e+01,3.430000000000000000e+02,5.200000000000000000e+01,3.800000000000000000e+01,2.500000000000000000e+01,2.400000000000000000e+01,1.900000000000000000e+01,5.100000000000000089e-01,1.234786500000000000e+09
2.700000000000000000e+01,8.900000000000000000e+01,3.490000000000000000e+02,5.100000000000000000e+01,3.900000000000000000e+01,2.500000000000000000e+01,2.300000000000000000e+01,2.300000000000000000e+01,5.100000000000000089e-01,1.257714800000000000e+09
2.800000000000000000e+01,9.100000000000000000e+01,3.420000000000000000e+02,5.300000000000000000e+01,3.600000000000000000e+01,2.300000000000000000e+01,2.100000000000000000e+01,2.300000000000000000e+01,5.100000000000000089e-01,1.285254400000000000e+09
2.800000000000000000e+01,9.100000000000000000e+01,3.510000000000000000e+02,4.900000000000000000e+01,3.600000000000000000e+01,2.400000000000000000e+01,2.300000000000000000e+01,2.300000000000000000e+01,5.100000000000000089e-01,1.310326000000000000e+09
3.000000000000000000e+01,8.500000000000000000e+01,2.440000000000000000e+02,4.800000000000000000e+01,4.100000000000000000e+01,2.600000000000000000e+01,2.300000000000000000e+01,2.400000000000000000e+01,5.100000000000000089e-01,1.334322600000000000e+09
3.300000000000000000e+01,8.100000000000000000e+01,2.640000000000000000e+02,4.900000000000000000e+01,3.600000000000000000e+01,2.500000000000000000e+01,2.000000000000000000e+01,2.500000000000000000e+01,5.100000000000000089e-01,1.355230500000000000e+09
3.500000000000000000e+01,7.800000000000000000e+01,2.640000000000000000e+02,6.000000000000000000e+01,3.700000000000000000e+01,2.500000000000000000e+01,2.200000000000000000e+01,2.300000000000000000e+01,5.100000000000000089e-01,1.373748900000000000e+09
3.500000000000000000e+01,7.800000000000000000e+01,2.660000000000000000e+02,5.600000000000000000e+01,3.600000000000000000e+01,2.700000000000000000e+01,2.300000000000000000e+01,2.300000000000000000e+01,5.100000000000000089e-01,1.392712000000000000e+09
3.400000000000000000e+01,7.300000000000000000e+01,2.440000000000000000e+02,5.400000000000000000e+01,3.500000000000000000e+01,2.700000000000000000e+01,2.300000000000000000e+01,2.400000000000000000e+01,5.200000000000000178e-01,1.412298200000000000e+09
3.300000000000000000e+01,8.000000000000000000e+01,3.000000000000000000e+02,5.900000000000000000e+01,3.000000000000000000e+01,2.300000000000000000e+01,2.200000000000000000e+01,2.400000000000000000e+01,5.200000000000000178e-01,1.432645700000000000e+09
3.300000000000000000e+01,1.200000000000000000e+02,2.810000000000000000e+02,6.100000000000000000e+01,3.300000000000000000e+01,2.100000000000000000e+01,2.300000000000000000e+01,2.500000000000000000e+01,5.200000000000000178e-01,1.452913000000000000e+09
3.100000000000000000e+01,1.260000000000000000e+02,2.940000000000000000e+02,5.200000000000000000e+01,3.100000000000000000e+01,2.300000000000000000e+01,2.300000000000000000e+01,2.400000000000000000e+01,5.200000000000000178e-01,1.472148300000000000e+09
3.300000000000000000e+01,1.270000000000000000e+02,2.870000000000000000e+02,5.100000000000000000e+01,3.100000000000000000e+01,1.900000000000000000e+01,2.100000000000000000e+01,2.400000000000000000e+01,5.200000000000000178e-01,1.492596600000000000e+09
3.400000000000000000e+01,1.290000000000000000e+02,3.490000000000000000e+02,5.700000000000000000e+01,3.200000000000000000e+01,2.100000000000000000e+01,2.100000000000000000e+01,2.500000000000000000e+01,5.200000000000000178e-01,1.513015000000000000e+09
3.400000000000000000e+01,1.290000000000000000e+02,3.060000000000000000e+02,5.500000000000000000e+01,2.900000000000000000e+01,2.200000000000000000e+01,2.100000000000000000e+01,2.500000000000000000e+01,5.200000000000000178e-01,1.532242900000000000e+09
3.500000000000000000e+01,9.800000000000000000e+01,2.890000000000000000e+02,5.200000000000000000e+01,3.300000000000000000e+01,2.700000000000000000e+01,2.200000000000000000e+01,2.500000000000000000e+01,5.200000000000000178e-01,1.550825700000000000e+09
3.400000000000000000e+01,1.010000000000000000e+02,2.990000000000000000e+02,5.200000000000000000e+01,3.200000000000000000e+01,2.500000000000000000e+01,2.400000000000000000e+01,2.500000000000000000e+01,5.200000000000000178e-01,1.570647900000000000e+09
3.500000000000000000e+01,1.090000000000000000e+02,3.030000000000000000e+02,5.400000000000000000e+01,3.800000000000000000e+01,2.900000000000000000e+01,2.400000000000000000e+01,2.500000000000000000e+01,5.200000000000000178e-01,1.590003800000000000e+09
3.400000000000000000e+01,1.120000000000000000e+02,2.400000000000000000e+02,4.900000000000000000e+01,3.500000000000000000e+01,2.800000000000000000e+01,2.200000000000000000e+01,2.400000000000000000e+01,5.200000000000000178e-01,1.608939600000000000e+09
3.400000000000000000e+01,1.160000000000000000e+02,2.570000000000000000e+02,4.700000000000000000e+01,4.100000000000000000e+01,3.000000000000000000e+01,2.500000000000000000e+01,2.300000000000000000e+01,5.200000000000000178e-01,1.630180000000000000e+09
3.200000000000000000e+01,1.170000000000000000e+02,2.890000000000000000e+02,5.500000000000000000e+01,3.800000000000000000e+01,2.600000000000000000e+01,2.400000000000000000e+01,2.300000000000000000e+01,5.200000000000000178e-01,1.647879700000000000e+09
3.200000000000000000e+01,1.130000000000000000e+02,2.440000000000000000e+02,5.400000000000000000e+01,4.000000000000000000e+01,2.800000000000000000e+01,2.500000000000000000e+01,2.500000000000000000e+01,5.200000000000000178e-01,1.667003200000000000e+09
2.800000000000000000e+01,1.180000000000000000e+02,2.520000000000000000e+02,5.400000000000000000e+01,3.600000000000000000e+01,2.500000000000000000e+01,2.500000000000000000e+01,2.400000000000000000e+01,5.200000000000000178e-01,1.685508600000000000e+09
3.000000000000000000e+01,1.220000000000000000e+02,2.430000000000000000e+02,5.500000000000000000e+01,4.100000000000000000e+01,3.000000000000000000e+01,2.600000000000000000e+01,2.500000000000000000e+01,5.200000000000000178e-01,1.706429300000000000e+09
2.800000000000000000e+01,1.130000000000000000e+02,2.330000000000000000e+02,5.600000000000000000e+01,3.800000000000000000e+01,2.800000000000000000e+01,2.400000000000000000e+01,2.500000000000000000e+01,5.200000000000000178e-01,1.725364000000000000e+09
2.700000000000000000e+01,1.050000000000000000e+02,2.360000000000000000e+02,4.900000000000000000e+01,3.700000000000000000e+01,2.800000000000000000e+01,2.400000000000000000e+01,2.400000000000000000e+01,5.200000000000000178e-01,1.746065400000000000e+09
2.800000000000000000e+01,1.200000000000000000e+02,2.700000000000000000e+02,4.700000000000000000e+01,3.600000000000000000e+01,2.700000000000000000e+01,2.200000000000000000e+01,2.100000000000000000e+01,5.200000000000000178e-01,1.766150500000000000e+09
2.900000000000000000e+01,1.140000000000000000e+02,2.730000000000000000e+02,5.700000000000000000e+01,4.000000000000000000e+01,2.900000000000000000e+01,2.500000000000000000e+01,2.000000000000000000e+01,5.200000000000000178e-01,1.784140700000000000e+09
2.600000000000000000e+01,1.070000000000000000e+02,3.020000000000000000e+02,5.400000000000000000e+01,3.600000000000000000e+01,2.400000000000000000e+01,2.500000000000000000e+01,1.900000000000000000e+01,5.200000000000000178e-01,1.803496900000000000e+09
2.700000000000000000e+01,1.130000000000000000e+02,2.960000000000000000e+02,5.200000000000000000e+01,3.500000000000000000e+01,2.500000000000000000e+01,2.500000000000000000e+01,2.000000000000000000e+01,5.200000000000000178e-01,1.823340900000000000e+09
2.900000000000000000e+01,1.250000000000000000e+02,2.810000000000000000e+02,5.100000000000000000e+01,3.600000000000000000e+01,2.600000000000000000e+01,2.400000000000000000e+01,1.800000000000000000e+01,5.200000000000000178e-01,1.842284900000000000e+09
3.400000000000000000e+01,1.060000000000000000e+02,3.290000000000000000e+02,5.800000000000000000e+01,4.100000000000000000e+01,2.700000000000000000e+01,2.500000000000000000e+01,2.000000000000000000e+01,5.200000000000000178e-01,1.861432900000000000e+09
3.200000000000000000e+01,9.600000000000000000e+01,3.120000000000000000e+02,4.800000000000000000e+01,3.800000000000000000e+01,2.700000000000000000e+01,2.200000000000000000e+01,1.800000000000000000e+01,5.200000000000000178e-01,1.883066000000000000e+09
3.600000000000000000e+01,1.070000000000000000e+02,3.010000000000000000e+02,4.500000000000000000e+01,3.800000000000000000e+01,2.600000000000000000e+01,2.300000000000000000e+01,1.900000000000000000e+01,5.200000000000000178e-01,1.901712600000000000e+09
3.400000000000000000e+01,9.900000000000000000e+01,3.140000000000000000e+02,4.700000000000000000e+01,3.800000000000000000e+01,2.700000000000000000e+01,2.400000000000000000e+01,1.700000000000000000e+01,5.200000000000000178e-01,1.922563000000000000e+09
3.300000000000000000e+01,8.700000000000000000e+01,3.040000000000000000e+02,4.900000000000000000e+01,3.600000000000000000e+01,2.600000000000000000e+01,2.400000000000000000e+01,1.800000000000000000e+01,5.200000000000000178e-01,1.942439100000000000e+09
2.800000000000000000e+01,9.200000000000000000e+01,2.800000000000000000e+02,4.600000000000000000e+01,3.300000000000000000e+01,2.800000000000000000e+01,2.300000000000000000e+01,1.700000000000000000e+01,5.200000000000000178e-01,1.961411400000000000e+09
3.100000000000000000e+01,1.010000000000000000e+02,3.380000000000000000e+02,5.000000000000000000e+01,3.000000000000000000e+01,2.800000000000000000e+01,2.300000000000000000e+01,1.900000000000000000e+01,5.200000000000000178e-01,1.980149800000000000e+09
2.800000000000000000e+01,9.500000000000000000e+01,3.440000000000000000e+02,5.500000000000000000e+01,2.900000000000000000e+01,2.800000000000000000e+01,2.100000000000000000e+01,2.100000000000000000e+01,5.200000000000000178e-01,1.999576700000000000e+09
3.000000000000000000e+01,1.030000000000000000e+02,3.450000000000000000e+02,6.500000000000000000e+01,3.400000000000000000e+01,2.900000000000000000e+01,2.000000000000000000e+01,2.300000000000000000e+01,5.200000000000000178e-01,2.020108100000000000e+09
2.900000000000000000e+01,1.070000000000000000e+02,3.720000000000000000e+02,6.400000000000000000e+01,3.400000000000000000e+01,2.800000000000000000e+01,2.100000000000000000e+01,2.300000000000000000e+01,5.200000000000000178e-01,2.039393400000000000e+09
2.900000000000000000e+01,1.030000000000000000e+02,3.670000000000000000e+02,5.900000000000000000e+01,3.000000000000000000e+01,2.500000000000000000e+01,1.900000000000000000e+01,2.400000000000000000e+01,5.200000000000000178e-01,2.059282800000000000e+09
2.600000000000000000e+01,1.030000000000000000e+02,3.280000000000000000e+02,5.800000000000000000e+01,3.300000000000000000e+01,2.500000000000000000e+01,1.900000000000000000e+01,2.400000000000000000e+01,5.200000000000000178e-01,2.077286500000000000e+09
3.000000000000000000e+01,9.700000000000000000e+01,3.350000000000000000e+02,5.800000000000000000e+01,3.200000000000000000e+01,2.500000000000000000e+01,2.000000000000000000e+01,2.400000000000000000e+01,5.200000000000000178e-01,2.096528100000000000e+09
2.900000000000000000e+01,8.800000000000000000e+01,3.280000000000000000e+02,4.500000000000000000e+01,3.100000000000000000e+01,2.300000000000000000e+01,1.800000000000000000e+01,2.400000000000000000e+01,5.200000000000000178e-01,2.116979200000000000e+09
2.800000000000000000e+01,7.800000000000000000e+01,3.150000000000000000e+02,4.400000000000000000e+01,2.900000000000000000e+01,2.500000000000000000e+01,1.800000000000000000e+01,2.300000000000000000e+01,5.200000000000000178e-01,2.135240400000000000e+09
2.600000000000000000e+01,7.400000000000000000e+01,2.970000000000000000e+02,4.500000000000000000e+01,3.200000000000000000e+01,2.400000000000000000e+01,1.800000000000000000e+01,2.100000000000000000e+01,5.200000000000000178e-01,2.154658400000000000e+09
2.700000000000000000e+01,7.900000000000000000e+01,3.330000000000000000e+02,4.500000000000000000e+01,2.900000000000000000e+01,2.500000000000000000e+01,2.000000000000000000e+01,2.100000000000000000e+01,5.300000000000000266e-01,2.174740700000000000e+09
2.500000000000000000e+01,9.300000000000000000e+01,3.270000000000000000e+02,4.400000000000000000e+01,3.900000000000000000e+01,2.700000000000000000e+01,2.000000000000000000e+01,2.300000000000000000e+01,5.200000000000000178e-01,2.194347700000000000e+09
2.500000000000000000e+01,8.900000000000000000e+01,3.200000000000000000e+02,4.200000000000000000e+01,3.800000000000000000e+01,2.700000000000000000e+01,2.100000000000000000e+01,2.200000000000000000e+01,5.200000000000000178e-01,2.213728400000000000e+09
2.600000000000000000e+01,1.040000000000000000e+02,3.120000000000000000e+02,4.300000000000000000e+01,4.300000000000000000e+01,2.600000000000000000e+01,2.100000000000000000e+01,2.100000000000000000e+01,5.200000000000000178e-01,2.231859300000000000e+09
2.900000000000000000e+01,1.140000000000000000e+02,3.070000000000000000e+02,5.400000000000000000e+01,4.400000000000000000e+01,2.800000000000000000e+01,2.400000000000000000e+01,2.100000000000000000e+01,5.200000000000000178e-01,2.250855100000000000e+09
3.000000000000000000e+01,1.050000000000000000e+02,2.840000000000000000e+02,5.400000000000000000e+01,4.500000000000000000e+01,2.700000000000000000e+01,2.200000000000000000e+01,2.200000000000000000e+01,5.200000000000000178e-01,2.268980800000000000e+09
2.800000000000000000e+01,9.200000000000000000e+01,2.980000000000000000e+02,5.400000000000000000e+01,3.800000000000000000e+01,2.400000000000000000e+01,2.100000000000000000e+01,1.900000000000000000e+01,5.200000000000000178e-01,2.288332300000000000e+09
2.900000000000000000e+01,9.500000000000000000e+01,3.290000000000000000e+02,6.100000000000000000e+01,3.600000000000000000e+01,2.400000000000000000e+01,2.200000000000000000e+01,1.800000000000000000e+01,5.200000000000000178e-01,2.310448400000000000e+09
3.000000000000000000e+01,8.500000000000000000e+01,3.150000000000000000e+02,6.200000000000000000e+01,3.300000000000000000e+01,2.600000000000000000e+01,2.500000000000000000e+01,2.000000000000000000e+01,5.200000000000000178e-01,2.432111000000000000e+09
3.000000000000000000e+01,8.700000000000000000e+01,3.320000000000000000e+02,5.700000000000000000e+01,3.100000000000000000e+01,2.400000000000000000e+01,2.400000000000000000e+01,2.200000000000000000e+01,5.200000000000000178e-01,2.451033700000000000e+09
2.900000000000000000e+01,8.800000000000000000e+01,3.150000000000000000e+02,5.600000000000000000e+01,3.100000000000000000e+01,2.600000000000000000e+01,2.500000000000000000e+01,2.100000000000000000e+01,5.200000000000000178e-01,2.468006000000000000e+09
3.000000000000000000e+01,9.500000000000000000e+01,2.990000000000000000e+02,5.300000000000000000e+01,2.900000000000000000e+01,2.600000000000000000e+01,2.600000000000000000e+01,2.100000000000000000e+01,5.200000000000000178e-01,2.484665900000000000e+09
3.200000000000000000e+01,1.050000000000000000e+02,3.020000000000000000e+02,5.100000000000000000e+01,3.100000000000000000e+01,2.700000000000000000e+01,2.700000000000000000e+01,2.300000000000000000e+01,5.200000000000000178e-01,2.503065400000000000e+09
3.200000000000000000e+01,1.080000000000000000e+02,3.450000000000000000e+02,6.200000000000000000e+01,3.200000000000000000e+01,2.700000000000000000e+01,2.600000000000000000e+01,2.300000000000000000e+01,5.200000000000000178e-01,2.523193600000000000e+09
3.500000000000000000e+01,9.800000000000000000e+01,3.480000000000000000e+02,5.900000000000000000e+01,3.400000000000000000e+01,2.700000000000000000e+01,2.600000000000000000e+01,2.200000000000000000e+01,5.200000000000000178e-01,2.541174100000000000e+09
3.400000000000000000e+01,9.200000000000000000e+01,3.580000000000000000e+02,5.900000000000000000e+01,3.400000000000000000e+01,2.600000000000000000e+01,2.600000000000000000e+01,2.100000000000000000e+01,5.200000000000000178e-01,2.558189000000000000e+09
3.800000000000000000e+01,8.900000000000000000e+01,4.160000000000000000e+02,6.700000000000000000e+01,3.600000000000000000e+01,2.600000000000000000e+01,2.800000000000000000e+01,2.600000000000000000e+01,5.200000000000000178e-01,2.576279000000000000e+09
3.600000000000000000e+01,7.800000000000000000e+01,3.940000000000000000e+02,7.100000000000000000e+01,3.500000000000000000e+01,2.700000000000000000e+01,2.400000000000000000e+01,2.500000000000000000e+01,5.200000000000000178e-01,2.593774100000000000e+09
3.600000000000000000e+01,8.000000000000000000e+01,3.880000000000000000e+02,5.900000000000000000e+01,3.100000000000000000e+01,2.500000000000000000e+01,2.300000000000000000e+01,2.500000000000000000e+01,5.300000000000000266e-01,2.612985500000000000e+09
3.700000000000000000e+01,8.400000000000000000e+01,3.840000000000000000e+02,6.500000000000000000e+01,3.100000000000000000e+01,2.500000000000000000e+01,2.200000000000000000e+01,2.600000000000000000e+01,5.300000000000000266e-01,2.629987900000000000e+09
3.700000000000000000e+01,8.900000000000000000e+01,3.810000000000000000e+02,6.400000000000000000e+01,3.400000000000000000e+01,2.500000000000000000e+01,2.200000000000000000e+01,2.600000000000000000e+01,5.300000000000000266e-01,2.647667000000000000e+09
3.200000000000000000e+01,8.500000000000000000e+01,3.270000000000000000e+02,5.700000000000000000e+01,3.100000000000000000e+01,2.500000000000000000e+01,2.000000000000000000e+01,2.300000000000000000e+01,5.300000000000000266e-01,2.664304400000000000e+09
3.300000000000000000e+01,8.600000000000000000e+01,3.340000000000000000e+02,5.600000000000000000e+01,3.600000000000000000e+01,2.200000000000000000e+01,2.000000000000000000e+01,2.100000000000000000e+01,5.300000000000000266e-01,2.681037200000000000e+09
3.400000000000000000e+01,8.900000000000000000e+01,3.130000000000000000e+02,5.800000000000000000e+01,4.800000000000000000e+01,2.700000000000000000e+01,2.400000000000000000e+01,2.300000000000000000e+01,5.300000000000000266e-01,2.701783400000000000e+09
3.000000000000000000e+01,8.400000000000000000e+01,3.370000000000000000e+02,5.300000000000000000e+01,4.700000000000000000e+01,2.600000000000000000e+01,2.400000000000000000e+01,2.100000000000000000e+01,5.300000000000000266e-01,2.722656200000000000e+09
3.200000000000000000e+01,8.100000000000000000e+01,3.350000000000000000e+02,5.500000000000000000e+01,4.500000000000000000e+01,2.600000000000000000e+01,2.300000000000000000e+01,2.100000000000000000e+01,5.300000000000000266e-01,2.741251100000000000e+09
3.500000000000000000e+01,8.700000000000000000e+01,3.200000000000000000e+02,5.600000000000000000e+01,5.200000000000000000e+01,3.100000000000000000e+01,2.500000000000000000e+01,2.200000000000000000e+01,5.300000000000000266e-01,2.758622600000000000e+09
3.700000000000000000e+01,8.400000000000000000e+01,3.180000000000000000e+02,4.900000000000000000e+01,5.400000000000000000e+01,3.100000000000000000e+01,2.500000000000000000e+01,2.400000000000000000e+01,5.300000000000000266e-01,2.775847700000000000e+09
3.700000000000000000e+01,6.800000000000000000e+01,3.770000000000000000e+02,6.200000000000000000e+01,4.300000000000000000e+01,2.800000000000000000e+01,2.200000000000000000e+01,2.200000000000000000e+01,5.300000000000000266e-01,2.793449000000000000e+09
4.000000000000000000e+01,6.600000000000000000e+01,3.660000000000000000e+02,7.400000000000000000e+01,4.700000000000000000e+01,2.900000000000000000e+01,2.400000000000000000e+01,2.300000000000000000e+01,5.300000000000000266e-01,2.815703500000000000e+09
3.900000000000000000e+01,7.700000000000000000e+01,3.620000000000000000e+02,7.300000000000000000e+01,5.100000000000000000e+01,3.100000000000000000e+01,2.500000000000000000e+01,2.400000000000000000e+01,5.300000000000000266e-01,2.833937500000000000e+09
3.900000000000000000e+01,8.100000000000000000e+01,3.600000000000000000e+02,7.300000000000000000e+01,4.900000000000000000e+01,2.700000000000000000e+01,2.500000000000000000e+01,2.200000000000000000e+01,5.300000000000000266e-01,2.852966000000000000e+09
3.500000000000000000e+01,7.900000000000000000e+01,3.730000000000000000e+02,7.600000000000000000e+01,4.600000000000000000e+01,3.000000000000000000e+01,2.500000000000000000e+01,2.100000000000000000e+01,5.400000000000000355e-01,2.871650800000000000e+09
3.800000000000000000e+01,8.700000000000000000e+01,3.180000000000000000e+02,6.600000000000000000e+01,4.700000000000000000e+01,3.000000000000000000e+01,2.600000000000000000e+01,2.400000000000000000e+01,5.400000000000000355e-01,2.891572800000000000e+09
3.400000000000000000e+01,9.300000000000000000e+01,2.850000000000000000e+02,4.900000000000000000e+01,4.600000000000000000e+01,2.900000000000000000e+01,2.600000000000000000e+01,2.400000000000000000e+01,5.300000000000000266e-01,2.911070400000000000e+09
3.200000000000000000e+01,9.200000000000000000e+01,2.780000000000000000e+02,5.000000000000000000e+01,4.400000000000000000e+01,2.700000000000000000e+01,2.300000000000000000e+01,2.500000000000000000e+01,5.300000000000000266e-01,2.928952200000000000e+09
2.900000000000000000e+01,8.500000000000000000e+01,3.050000000000000000e+02,5.600000000000000000e+01,4.000000000000000000e+01,2.900000000000000000e+01,2.100000000000000000e+01,2.600000000000000000e+01,5.300000000000000266e-01,2.947294400000000000e+09
3.200000000000000000e+01,8.700000000000000000e+01,2.750000000000000000e+02,5.100000000000000000e+01,3.900000000000000000e+01,2.900000000000000000e+01,2.300000000000000000e+01,2.500000000000000000e+01,5.300000000000000266e-01,2.966892400000000000e+09
2.500000000000000000e+01,8.700000000000000000e+01,2.460000000000000000e+02,5.000000000000000000e+01,4.300000000000000000e+01,3.000000000000000000e+01,2.100000000000000000e+01,2.100000000000000000e+01,5.300000000000000266e-01,2.989233800000000000e+09
2.600000000000000000e+01,9.100000000000000000e+01,2.990000000000000000e+02,4.900000000000000000e+01,4.300000000000000000e+01,3.000000000000000000e+01,2.400000000000000000e+01,2.300000000000000000e+01,5.300000000000000266e-01,3.008201400000000000e+09
2.500000000000000000e+01,8.000000000000000000e+01,3.410000000000000000e+02,5.500000000000000000e+01,4.200000000000000000e+01,3.000000000000000000e+01,2.500000000000000000e+01,2.000000000000000000e+01,5.300000000000000266e-01,3.028341200000000000e+09
2.700000000000000000e+01,7.900000000000000000e+01,3.210000000000000000e+02,4.700000000000000000e+01,4.200000000000000000e+01,2.900000000000000000e+01,2.700000000000000000e+01,2.100000000000000000e+01,5.300000000000000266e-01,3.046240400000000000e+09
2.400000000000000000e+01,8.500000000000000000e+01,3.190000000000000000e+02,4.500000000000000000e+01,4.400000000000000000e+01,2.500000000000000000e+01,2.500000000000000000e+01,2.100000000000000000e+01,5.300000000000000266e-01,3.062944400000000000e+09
3.100000000000000000e+01,9.300000000000000000e+01,3.630000000000000000e+02,4.900000000000000000e+01,4.100000000000000000e+01,2.600000000000000000e+01,2.700000000000000000e+01,2.500000000000000000e+01,5.200000000000000178e-01,3.081432600000000000e+09
3.100000000000000000e+01,9.300000000000000000e+01,3.230000000000000000e+02,4.800000000000000000e+01,3.600000000000000000e+01,2.500000000000000000e+01,2.300000000000000000e+01,2.400000000000000000e+01,5.200000000000000178e-01,3.099648300000000000e+09
3.300000000000000000e+01,9.500000000000000000e+01,2.920000000000000000e+02,4.100000000000000000e+01,3.900000000000000000e+01,2.700000000000000000e+01,2.300000000000000000e+01,2.500000000000000000e+01,5.200000000000000178e-01,3.119397500000000000e+09
3.200000000000000000e+01,9.300000000000000000e+01,2.860000000000000000e+02,4.600000000000000000e+01,4.200000000000000000e+01,2.400000000000000000e+01,2.100000000000000000e+01,2.300000000000000000e+01,5.200000000000000178e-01,3.137347500000000000e+09
3.700000000000000000e+01,9.500000000000000000e+01,2.850000000000000000e+02,5.300000000000000000e+01,4.500000000000000000e+01,2.800000000000000000e+01,2.300000000000000000e+01,2.500000000000000000e+01,5.200000000000000178e-01,3.154743000000000000e+09
3.100000000000000000e+01,7.900000000000000000e+01,2.350000000000000000e+02,4.700000000000000000e+01,4.300000000000000000e+01,2.600000000000000000e+01,2.100000000000000000e+01,2.100000000000000000e+01,5.200000000000000178e-01,3.171442900000000000e+09
3.100000000000000000e+01,6.600000000000000000e+01,2.240000000000000000e+02,4.900000000000000000e+01,4.500000000000000000e+01,2.700000000000000000e+01,2.300000000000000000e+01,2.100000000000000000e+01,5.200000000000000178e-01,3.188899800000000000e+09
2.900000000000000000e+01,6.200000000000000000e+01,2.160000000000000000e+02,5.500000000000000000e+01,4.300000000000000000e+01,2.500000000000000000e+01,2.400000000000000000e+01,2.000000000000000000e+01,5.100000000000000089e-01,3.210159900000000000e+09
3.100000000000000000e+01,7.100000000000000000e+01,2.430000000000000000e+02,5.000000000000000000e+01,4.200000000000000000e+01,2.700000000000000000e+01,2.300000000000000000e+01,2.300000000000000000e+01,5.100000000000000089e-01,3.229379400000000000e+09
2.800000000000000000e+01,6.800000000000000000e+01,3.060000000000000000e+02,4.700000000000000000e+01,4.000000000000000000e+01,2.600000000000000000e+01,2.500000000000000000e+01,2.400000000000000000e+01,5.100000000000000089e-01,3.248319100000000000e+09
2.800000000000000000e+01,6.900000000000000000e+01,3.070000000000000000e+02,4.900000000000000000e+01,4.100000000000000000e+01,2.900000000000000000e+01,2.600000000000000000e+01,2.400000000000000000e+01,5.100000000000000089e-01,3.266020700000000000e+09
2.800000000000000000e+01,6.900000000000000000e+01,3.170000000000000000e+02,5.100000000000000000e+01,4.100000000000000000e+01,3.000000000000000000e+01,2.600000000000000000e+01,2.400000000000000000e+01,5.100000000000000089e-01,3.284153200000000000e+09
2.800000000000000000e+01,7.500000000000000000e+01,2.980000000000000000e+02,4.400000000000000000e+01,4.100000000000000000e+01,3.200000000000000000e+01,2.500000000000000000e+01,2.400000000000000000e+01,5.100000000000000089e-01,3.303292600000000000e+09
2.700000000000000000e+01,8.500000000000000000e+01,2.680000000000000000e+02,4.400000000000000000e+01,3.700000000000000000e+01,3.200000000000000000e+01,2.500000000000000000e+01,2.200000000000000000e+01,5.100000000000000089e-01,3.322516900000000000e+09
2.700000000000000000e+01,8.500000000000000000e+01,2.140000000000000000e+02,4.300000000000000000e+01,3.800000000000000000e+01,3.300000000000000000e+01,2.100000000000000000e+01,2.000000000000000000e+01,5.100000000000000089e-01,3.340801400000000000e+09
2.800000000000000000e+01,8.700000000000000000e+01,2.110000000000000000e+02,4.800000000000000000e+01,3.700000000000000000e+01,3.300000000000000000e+01,2.100000000000000000e+01,2.100000000000000000e+01,5.100000000000000089e-01,3.359577800000000000e+09
3.400000000000000000e+01,1.060000000000000000e+02,2.090000000000000000e+02,4.600000000000000000e+01,4.100000000000000000e+01,3.300000000000000000e+01,2.400000000000000000e+01,2.200000000000000000e+01,5.100000000000000089e-01,3.377335600000000000e+09
3.600000000000000000e+01,1.030000000000000000e+02,2.500000000000000000e+02,5.200000000000000000e+01,4.100000000000000000e+01,3.000000000000000000e+01,2.700000000000000000e+01,2.200000000000000000e+01,5.100000000000000089e-01,3.395725900000000000e+09
3.500000000000000000e+01,9.300000000000000000e+01,2.590000000000000000e+02,5.400000000000000000e+01,4.200000000000000000e+01,3.100000000000000000e+01,2.800000000000000000e+01,2.200000000000000000e+01,5.100000000000000089e-01,3.415492500000000000e+09
3.400000000000000000e+01,8.900000000000000000e+01,2.440000000000000000e+02,5.200000000000000000e+01,3.900000000000000000e+01,3.000000000000000000e+01,2.800000000000000000e+01,2.400000000000000000e+01,5.100000000000000089e-01,3.432770500000000000e+09
3.400000000000000000e+01,1.060000000000000000e+02,2.570000000000000000e+02,5.000000000000000000e+01,3.900000000000000000e+01,2.600000000000000000e+01,2.700000000000000000e+01,2.400000000000000000e+01,5.100000000000000089e-01,3.450277400000000000e+09
2.700000000000000000e+01,8.600000000000000000e+01,2.710000000000000000e+02,4.700000000000000000e+01,3.600000000000000000e+01,2.400000000000000000e+01,2.300000000000000000e+01,2.300000000000000000e+01,5.100000000000000089e-01,3.469685100000000000e+09
2.700000000000000000e+01,9.000000000000000000e+01,2.440000000000000000e+02,4.700000000000000000e+01,3.300000000000000000e+01,2.500000000000000000e+01,2.200000000000000000e+01,2.500000000000000000e+01,5.100000000000000089e-01,3.488143900000000000e+09
2.700000000000000000e+01,8.500000000000000000e+01,2.290000000000000000e+02,4.500000000000000000e+01,3.200000000000000000e+01,2.400000000000000000e+01,2.100000000000000000e+01,2.500000000000000000e+01,5.100000000000000089e-01,3.506892400000000000e+09
2.900000000000000000e+01,8.900000000000000000e+01,2.390000000000000000e+02,4.900000000000000000e+01,3.500000000000000000e+01,2.600000000000000000e+01,2.300000000000000000e+01,2.400000000000000000e+01,5.100000000000000089e-01,3.526792700000000000e+09
2.700000000000000000e+01,7.100000000000000000e+01,2.240000000000000000e+02,4.500000000000000000e+01,3.600000000000000000e+01,2.700000000000000000e+01,2.400000000000000000e+01,2.300000000000000000e+01,5.100000000000000089e-01,3.543675900000000000e+09
2.900000000000000000e+01,8.100000000000000000e+01,2.150000000000000000e+02,5.700000000000000000e+01,4.000000000000000000e+01,2.800000000000000000e+01,2.500000000000000000e+01,2.300000000000000000e+01,5.100000000000000089e-01,3.560745000000000000e+09
2.600000000000000000e+01,7.700000000000000000e+01,2.270000000000000000e+02,5.500000000000000000e+01,4.200000000000000000e+01,2.900000000000000000e+01,2.600000000000000000e+01,2.400000000000000000e+01,5.100000000000000089e-01,3.579741600000000000e+09
2.600000000000000000e+01,8.400000000000000000e+01,2.320000000000000000e+02,5.600000000000000000e+01,4.300000000000000000e+01,2.900000000000000000e+01,2.500000000000000000e+01,2.400000000000000000e+01,5.100000000000000089e-01,3.599005600000000000e+09
2.500000000000000000e+01,8.600000000000000000e+01,2.530000000000000000e+02,5.700000000000000000e+01,4.300000000000000000e+01,2.700000000000000000e+01,2.300000000000000000e+01,2.400000000000000000e+01,5.100000000000000089e-01,3.618425600000000000e+09
2.600000000000000000e+01,8.100000000000000000e+01,2.620000000000000000e+02,6.100000000000000000e+01,4.200000000000000000e+01,2.800000000000000000e+01,2.600000000000000000e+01,2.500000000000000000e+01,5.100000000000000089e-01,3.637332800000000000e+09
2.400000000000000000e+01,7.200000000000000000e+01,2.310000000000000000e+02,5.100000000000000000e+01,3.800000000000000000e+01,2.600000000000000000e+01,2.600000000000000000e+01,2.600000000000000000e+01,5.100000000000000089e-01,3.655985200000000000e+09
2.300000000000000000e+01,7.700000000000000000e+01,2.280000000000000000e+02,5.100000000000000000e+01,3.600000000000000000e+01,2.600000000000000000e+01,2.400000000000000000e+01,2.500000000000000000e+01,5.200000000000000178e-01,3.674546000000000000e+09
2.700000000000000000e+01,7.000000000000000000e+01,2.410000000000000000e+02,5.000000000000000000e+01,3.700000000000000000e+01,2.700000000000000000e+01,2.500000000000000000e+01,2.400000000000000000e+01,5.100000000000000089e-01,3.692277800000000000e+09
2.500000000000000000e+01,6.500000000000000000e+01,2.390000000000000000e+02,5.200000000000000000e+01,3.600000000000000000e+01,2.800000000000000000e+01,2.500000000000000000e+01,2.400000000000000000e+01,5.100000000000000089e-01,3.711502900000000000e+09
2.900000000000000000e+01,7.300000000000000000e+01,2.220000000000000000e+02,5.000000000000000000e+01,3.700000000000000000e+01,2.700000000000000000e+01,2.200000000000000000e+01,2.500000000000000000e+01,5.100000000000000089e-01,3.731740500000000000e+09
3.000000000000000000e+01,8.000000000000000000e+01,2.550000000000000000e+02,5.300000000000000000e+01,3.600000000000000000e+01,2.800000000000000000e+01,2.200000000000000000e+01,2.400000000000000000e+01,5.200000000000000178e-01,3.748687200000000000e+09
3.100000000000000000e+01,7.500000000000000000e+01,2.440000000000000000e+02,5.100000000000000000e+01,3.700000000000000000e+01,2.800000000000000000e+01,2.200000000000000000e+01,2.300000000000000000e+01,5.200000000000000178e-01,3.765816700000000000e+09
2.800000000000000000e+01,7.800000000000000000e+01,2.440000000000000000e+02,5.800000000000000000e+01,3.500000000000000000e+01,2.700000000000000000e+01,2.300000000000000000e+01,2.300000000000000000e+01,5.200000000000000178e-01,3.784922000000000000e+09
2.900000000000000000e+01,7.600000000000000000e+01,2.330000000000000000e+02,5.600000000000000000e+01,3.400000000000000000e+01,2.800000000000000000e+01,2.300000000000000000e+01,2.200000000000000000e+01,5.200000000000000178e-01,3.802656500000000000e+09
2.500000000000000000e+01,7.800000000000000000e+01,2.460000000000000000e+02,5.800000000000000000e+01,3.700000000000000000e+01,2.900000000000000000e+01,2.200000000000000000e+01,2.200000000000000000e+01,5.200000000000000178e-01,3.821727500000000000e+09
2.300000000000000000e+01,6.800000000000000000e+01,2.260000000000000000e+02,5.600000000000000000e+01,3.800000000000000000e+01,2.900000000000000000e+01,2.300000000000000000e+01,2.300000000000000000e+01,5.100000000000000089e-01,3.839870400000000000e+09
2.500000000000000000e+01,6.800000000000000000e+01,2.350000000000000000e+02,5.700000000000000000e+01,3.600000000000000000e+01,2.800000000000000000e+01,2.300000000000000000e+01,2.400000000000000000e+01,5.100000000000000089e-01,3.859960400000000000e+09
2.600000000000000000e+01,8.700000000000000000e+01,2.600000000000000000e+02,5.200000000000000000e+01,4.600000000000000000e+01,3.000000000000000000e+01,2.400000000000000000e+01,2.400000000000000000e+01,5.100000000000000089e-01,3.878674100000000000e+09
2.500000000000000000e+01,8.700000000000000000e+01,2.550000000000000000e+02,5.200000000000000000e+01,5.700000000000000000e+01,3.200000000000000000e+01,2.600000000000000000e+01,2.300000000000000000e+01,5.100000000000000089e-01,3.896548900000000000e+09
2.800000000000000000e+01,8.500000000000000000e+01,3.320000000000000000e+02,5.000000000000000000e+01,5.500000000000000000e+01,3.200000000000000000e+01,2.600000000000000000e+01,2.400000000000000000e+01,5.100000000000000089e-01,3.917174100000000000e+09
2.900000000000000000e+01,8.500000000000000000e+01,3.530000000000000000e+02,5.600000000000000000e+01,5.400000000000000000e+01,3.100000000000000000e+01,2.400000000000000000e+01,2.400000000000000000e+01,5.100000000000000089e-01,3.935753000000000000e+09
3.100000000000000000e+01,9.100000000000000000e+01,3.670000000000000000e+02,5.700000000000000000e+01,5.600000000000000000e+01,3.100000000000000000e+01,2.400000000000000000e+01,2.300000000000000000e+01,5.200000000000000178e-01,3.952590900000000000e+09
2.900000000000000000e+01,7.200000000000000000e+01,3.450000000000000000e+02,5.400000000000000000e+01,4.700000000000000000e+01,2.800000000000000000e+01,2.200000000000000000e+01,2.300000000000000000e+01,5.200000000000000178e-01,3.969925500000000000e+09
3.000000000000000000e+01,7.400000000000000000e+01,3.810000000000000000e+02,5.200000000000000000e+01,3.800000000000000000e+01,2.700000000000000000e+01,2.200000000000000000e+01,2.400000000000000000e+01,5.200000000000000178e-01,3.989177100000000000e+09
2.900000000000000000e+01,6.900000000000000000e+01,3.100000000000000000e+02,5.200000000000000000e+01,3.400000000000000000e+01,2.400000000000000000e+01,2.200000000000000000e+01,2.200000000000000000e+01,5.200000000000000178e-01,4.007853600000000000e+09
3.000000000000000000e+01,7.800000000000000000e+01,2.900000000000000000e+02,4.800000000000000000e+01,3.800000000000000000e+01,2.600000000000000000e+01,2.400000000000000000e+01,2.100000000000000000e+01,5.100000000000000089e-01,4.028034200000000000e+09
2.900000000000000000e+01,7.600000000000000000e+01,2.720000000000000000e+02,4.500000000000000000e+01,3.600000000000000000e+01,2.500000000000000000e+01,2.500000000000000000e+01,2.300000000000000000e+01,5.100000000000000089e-01,4.046120200000000000e+09
3.200000000000000000e+01,7.600000000000000000e+01,2.590000000000000000e+02,4.300000000000000000e+01,4.000000000000000000e+01,3.000000000000000000e+01,2.700000000000000000e+01,2.200000000000000000e+01,5.100000000000000089e-01,4.064036400000000000e+09
3.100000000000000000e+01,7.100000000000000000e+01,1.970000000000000000e+02,4.200000000000000000e+01,3.400000000000000000e+01,2.800000000000000000e+01,2.600000000000000000e+01,2.100000000000000000e+01,5.100000000000000089e-01,4.082033500000000000e+09
3.300000000000000000e+01,8.500000000000000000e+01,2.130000000000000000e+02,5.200000000000000000e+01,3.500000000000000000e+01,2.800000000000000000e+01,2.600000000000000000e+01,2.200000000000000000e+01,5.100000000000000089e-01,4.104276400000000000e+09
3.100000000000000000e+01,8.000000000000000000e+01,2.210000000000000000e+02,5.500000000000000000e+01,3.500000000000000000e+01,2.600000000000000000e+01,2.400000000000000000e+01,2.200000000000000000e+01,5.100000000000000089e-01,4.123228300000000000e+09
2.900000000000000000e+01,7.500000000000000000e+01,2.170000000000000000e+02,5.500000000000000000e+01,3.400000000000000000e+01,2.700000000000000000e+01,2.300000000000000000e+01,2.100000000000000000e+01,5.100000000000000089e-01,4.141382800000000000e+09
2.700000000000000000e+01,7.700000000000000000e+01,2.340000000000000000e+02,6.300000000000000000e+01,3.300000000000000000e+01,2.200000000000000000e+01,2.200000000000000000e+01,2.300000000000000000e+01,5.100000000000000089e-01,4.159153000000000000e+09
3.000000000000000000e+01,1.140000000000000000e+02,2.390000000000000000e+02,6.600000000000000000e+01,4.400000000000000000e+01,2.900000000000000000e+01,2.200000000000000000e+01,2.200000000000000000e+01,5.100000000000000089e-01,4.179534200000000000e+09
2.600000000000000000e+01,1.070000000000000000e+02,2.260000000000000000e+02,5.900000000000000000e+01,4.800000000000000000e+01,3.100000000000000000e+01,2.300000000000000000e+01,2.200000000000000000e+01,5.100000000000000089e-01,4.197734600000000000e+09
3.000000000000000000e+01,1.070000000000000000e+02,2.680000000000000000e+02,6.800000000000000000e+01,5.600000000000000000e+01,3.600000000000000000e+01,2.400000000000000000e+01,2.300000000000000000e+01,5.100000000000000089e-01,4.218263300000000000e+09
3.000000000000000000e+01,1.100000000000000000e+02,2.690000000000000000e+02,7.300000000000000000e+01,5.800000000000000000e+01,3.500000000000000000e+01,2.200000000000000000e+01,2.200000000000000000e+01,5.100000000000000089e-01,4.239418700000000000e+09
3.100000000000000000e+01,1.150000000000000000e+02,3.140000000000000000e+02,6.600000000000000000e+01,5.800000000000000000e+01,3.600000000000000000e+01,2.200000000000000000e+01,2.300000000000000000e+01,5.200000000000000178e-01,4.257500700000000000e+09
2.900000000000000000e+01,8.000000000000000000e+01,3.260000000000000000e+02,6.300000000000000000e+01,5.800000000000000000e+01,3.400000000000000000e+01,2.200000000000000000e+01,2.200000000000000000e+01,5.200000000000000178e-01,4.275846300000000000e+09
3.100000000000000000e+01,7.500000000000000000e+01,3.350000000000000000e+02,6.100000000000000000e+01,5.500000000000000000e+01,3.700000000000000000e+01,2.200000000000000000e+01,2.400000000000000000e+01,5.200000000000000178e-01,4.294063700000000000e+09
2.700000000000000000e+01,7.800000000000000000e+01,2.990000000000000000e+02,5.500000000000000000e+01,4.500000000000000000e+01,3.100000000000000000e+01,2.200000000000000000e+01,2.200000000000000000e+01,5.200000000000000178e-01,4.314253600000000000e+09
2.700000000000000000e+01,7.700000000000000000e+01,3.080000000000000000e+02,5.500000000000000000e+01,4.400000000000000000e+01,3.200000000000000000e+01,2.300000000000000000e+01,2.300000000000000000e+01,5.200000000000000178e-01,4.332921400000000000e+09
3.000000000000000000e+01,7.600000000000000000e+01,3.040000000000000000e+02,5.400000000000000000e+01,4.500000000000000000e+01,3.000000000000000000e+01,2.300000000000000000e+01,2.200000000000000000e+01,5.100000000000000089e-01,4.352393900000000000e+09
2.800000000000000000e+01,7.100000000000000000e+01,2.950000000000000000e+02,5.200000000000000000e+01,3.700000000000000000e+01,2.700000000000000000e+01,2.200000000000000000e+01,2.300000000000000000e+01,5.100000000000000089e-01,4.369875000000000000e+09
2.900000000000000000e+01,8.100000000000000000e+01,3.010000000000000000e+02,5.800000000000000000e+01,4.200000000000000000e+01,2.300000000000000000e+01,2.300000000000000000e+01,2.000000000000000000e+01,5.100000000000000089e-01,4.388601500000000000e+09
3.200000000000000000e+01,8.600000000000000000e+01,3.300000000000000000e+02,4.800000000000000000e+01,4.100000000000000000e+01,2.400000000000000000e+01,2.400000000000000000e+01,2.400000000000000000e+01,5.100000000000000089e-01,4.409359200000000000e+09
3.100000000000000000e+01,8.700000000000000000e+01,3.290000000000000000e+02,4.100000000000000000e+01,3.900000000000000000e+01,2.300000000000000000e+01,2.500000000000000000e+01,2.200000000000000000e+01,5.100000000000000089e-01,4.427715500000000000e+09
2.600000000000000000e+01,9.400000000000000000e+01,2.970000000000000000e+02,5.700000000000000000e+01,4.300000000000000000e+01,2.400000000000000000e+01,2.300000000000000000e+01,2.100000000000000000e+01,5.100000000000000089e-01,4.444836500000000000e+09
3.200000000000000000e+01,1.050000000000000000e+02,3.110000000000000000e+02,6.300000000000000000e+01,4.300000000000000000e+01,3.000000000000000000e+01,2.500000000000000000e+01,2.100000000000000000e+01,5.100000000000000089e-01,4.462818200000000000e+09
3.100000000000000000e+01,1.150000000000000000e+02,3.440000000000000000e+02,5.800000000000000000e+01,4.100000000000000000e+01,3.100000000000000000e+01,2.400000000000000000e+01,2.400000000000000000e+01,5.100000000000000089e-01,4.480317700000000000e+09
2.900000000000000000e+01,1.120000000000000000e+02,3.450000000000000000e+02,6.000000000000000000e+01,4.100000000000000000e+01,3.000000000000000000e+01,2.400000000000000000e+01,2.100000000000000000e+01,5.100000000000000089e-01,4.499102900000000000e+09
3.100000000000000000e+01,1.120000000000000000e+02,3.600000000000000000e+02,6.700000000000000000e+01,4.300000000000000000e+01,3.100000000000000000e+01,2.400000000000000000e+01,2.600000000000000000e+01,5.100000000000000089e-01,4.519437700000000000e+09
3.100000000000000000e+01,1.010000000000000000e+02,3.510000000000000000e+02,6.600000000000000000e+01,3.600000000000000000e+01,3.000000000000000000e+01,2.400000000000000000e+01,2.600000000000000000e+01,5.200000000000000178e-01,4.537275400000000000e+09
3.100000000000000000e+01,9.100000000000000000e+01,3.680000000000000000e+02,7.500000000000000000e+01,3.800000000000000000e+01,2.600000000000000000e+01,2.500000000000000000e+01,2.800000000000000000e+01,5.200000000000000178e-01,4.555804000000000000e+09
2.900000000000000000e+01,7.000000000000000000e+01,3.640000000000000000e+02,7.300000000000000000e+01,3.900000000000000000e+01,2.600000000000000000e+01,2.600000000000000000e+01,2.600000000000000000e+01,5.200000000000000178e-01,4.574285200000000000e+09
2.800000000000000000e+01,7.000000000000000000e+01,3.390000000000000000e+02,7.300000000000000000e+01,4.100000000000000000e+01,2.600000000000000000e+01,2.600000000000000000e+01,2.600000000000000000e+01,5.300000000000000266e-01,4.593032800000000000e+09
2.700000000000000000e+01,6.500000000000000000e+01,3.470000000000000000e+02,7.400000000000000000e+01,4.000000000000000000e+01,2.700000000000000000e+01,2.500000000000000000e+01,2.300000000000000000e+01,5.300000000000000266e-01,4.613311600000000000e+09
3.000000000000000000e+01,6.500000000000000000e+01,3.640000000000000000e+02,6.600000000000000000e+01,4.400000000000000000e+01,2.500000000000000000e+01,2.600000000000000000e+01,2.300000000000000000e+01,5.300000000000000266e-01,4.631417900000000000e+09
2.500000000000000000e+01,6.200000000000000000e+01,3.240000000000000000e+02,5.600000000000000000e+01,4.200000000000000000e+01,2.400000000000000000e+01,2.500000000000000000e+01,2.400000000000000000e+01,5.300000000000000266e-01,4.649562800000000000e+09
2.800000000000000000e+01,6.600000000000000000e+01,2.700000000000000000e+02,6.000000000000000000e+01,4.200000000000000000e+01,2.200000000000000000e+01,2.600000000000000000e+01,2.800000000000000000e+01,5.300000000000000266e-01,4.666664800000000000e+09
2.700000000000000000e+01,5.900000000000000000e+01,2.620000000000000000e+02,6.300000000000000000e+01,4.300000000000000000e+01,2.600000000000000000e+01,2.600000000000000000e+01,2.600000000000000000e+01,5.300000000000000266e-01,4.685815700000000000e+09
2.800000000000000000e+01,6.700000000000000000e+01,2.200000000000000000e+02,5.800000000000000000e+01,4.200000000000000000e+01,2.600000000000000000e+01,2.400000000000000000e+01,2.600000000000000000e+01,5.300000000000000266e-01,4.705193900000000000e+09
2.800000000000000000e+01,8.100000000000000000e+01,1.930000000000000000e+02,5.700000000000000000e+01,3.900000000000000000e+01,2.700000000000000000e+01,2.300000000000000000e+01,2.700000000000000000e+01,5.300000000000000266e-01,4.725326100000000000e+09
2.800000000000000000e+01,9.100000000000000000e+01,2.000000000000000000e+02,5.400000000000000000e+01,3.800000000000000000e+01,2.800000000000000000e+01,2.200000000000000000e+01,2.500000000000000000e+01,5.300000000000000266e-01,4.742686100000000000e+09
3.000000000000000000e+01,9.100000000000000000e+01,2.560000000000000000e+02,5.600000000000000000e+01,4.500000000000000000e+01,3.400000000000000000e+01,2.300000000000000000e+01,2.100000000000000000e+01,5.300000000000000266e-01,4.760807600000000000e+09
3.100000000000000000e+01,1.010000000000000000e+02,2.740000000000000000e+02,5.300000000000000000e+01,4.400000000000000000e+01,3.300000000000000000e+01,2.300000000000000000e+01,2.200000000000000000e+01,5.300000000000000266e-01,4.778463800000000000e+09
3.100000000000000000e+01,1.100000000000000000e+02,2.740000000000000000e+02,5.000000000000000000e+01,4.700000000000000000e+01,3.400000000000000000e+01,2.600000000000000000e+01,2.400000000000000000e+01,5.300000000000000266e-01,4.797637900000000000e+09
3.200000000000000000e+01,1.020000000000000000e+02,2.860000000000000000e+02,4.900000000000000000e+01,4.900000000000000000e+01,3.300000000000000000e+01,2.700000000000000000e+01,2.600000000000000000e+01,5.200000000000000178e-01,4.818345600000000000e+09
3.100000000000000000e+01,9.800000000000000000e+01,2.870000000000000000e+02,5.400000000000000000e+01,5.600000000000000000e+01,3.400000000000000000e+01,2.800000000000000000e+01,2.600000000000000000e+01,5.200000000000000178e-01,4.839726000000000000e+09
2.800000000000000000e+01,9.400000000000000000e+01,2.430000000000000000e+02,4.800000000000000000e+01,4.700000000000000000e+01,2.700000000000000000e+01,2.600000000000000000e+01,2.500000000000000000e+01,5.200000000000000178e-01,4.858605700000000000e+09
2.800000000000000000e+01,8.700000000000000000e+01,2.530000000000000000e+02,4.500000000000000000e+01,4.900000000000000000e+01,3.000000000000000000e+01,2.400000000000000000e+01,2.600000000000000000e+01,5.200000000000000178e-01,4.876391500000000000e+09
2.700000000000000000e+01,7.800000000000000000e+01,2.630000000000000000e+02,4.500000000000000000e+01,4.600000000000000000e+01,2.900000000000000000e+01,2.200000000000000000e+01,2.400000000000000000e+01,5.200000000000000178e-01,4.893940200000000000e+09
2.800000000000000000e+01,7.500000000000000000e+01,2.690000000000000000e+02,4.600000000000000000e+01,4.700000000000000000e+01,3.100000000000000000e+01,2.200000000000000000e+01,2.000000000000000000e+01,5.100000000000000089e-01,4.915015100000000000e+09
2.700000000000000000e+01,7.300000000000000000e+01,2.750000000000000000e+02,3.800000000000000000e+01,3.700000000000000000e+01,2.900000000000000000e+01,2.100000000000000000e+01,1.800000000000000000e+01,5.100000000000000089e-01,4.934610500000000000e+09
3.000000000000000000e+01,7.700000000000000000e+01,3.140000000000000000e+02,3.900000000000000000e+01,4.000000000000000000e+01,3.100000000000000000e+01,2.300000000000000000e+01,2.100000000000000000e+01,5.100000000000000089e-01,4.952879900000000000e+09
3.100000000000000000e+01,8.400000000000000000e+01,2.930000000000000000e+02,4.300000000000000000e+01,3.500000000000000000e+01,2.800000000000000000e+01,2.400000000000000000e+01,2.000000000000000000e+01,5.100000000000000089e-01,4.973026800000000000e+09
3.400000000000000000e+01,8.500000000000000000e+01,3.110000000000000000e+02,4.800000000000000000e+01,3.700000000000000000e+01,2.900000000000000000e+01,2.500000000000000000e+01,2.200000000000000000e+01,5.100000000000000089e-01,4.991342900000000000e+09
3.100000000000000000e+01,9.100000000000000000e+01,3.200000000000000000e+02,4.400000000000000000e+01,3.800000000000000000e+01,2.700000000000000000e+01,2.400000000000000000e+01,2.200000000000000000e+01,5.100000000000000089e-01,5.011184100000000000e+09
3.600000000000000000e+01,9.000000000000000000e+01,3.230000000000000000e+02,4.600000000000000000e+01,4.000000000000000000e+01,3.200000000000000000e+01,2.500000000000000000e+01,2.600000000000000000e+01,5.100000000000000089e-01,5.029781800000000000e+09
3.400000000000000000e+01,8.700000000000000000e+01,3.040000000000000000e+02,4.700000000000000000e+01,3.800000000000000000e+01,3.000000000000000000e+01,2.300000000000000000e+01,2.500000000000000000e+01,5.100000000000000089e-01,5.047393900000000000e+09
3.600000000000000000e+01,8.700000000000000000e+01,2.980000000000000000e+02,5.100000000000000000e+01,4.000000000000000000e+01,3.000000000000000000e+01,2.400000000000000000e+01,2.600000000000000000e+01,5.000000000000000000e-01,5.064689100000000000e+09
3.200000000000000000e+01,8.600000000000000000e+01,2.970000000000000000e+02,4.500000000000000000e+01,3.800000000000000000e+01,2.800000000000000000e+01,2.300000000000000000e+01,2.500000000000000000e+01,5.000000000000000000e-01,5.084431000000000000e+09
3.300000000000000000e+01,8.200000000000000000e+01,2.850000000000000000e+02,4.600000000000000000e+01,3.200000000000000000e+01,2.800000000000000000e+01,2.300000000000000000e+01,2.600000000000000000e+01,5.000000000000000000e-01,5.107444900000000000e+09
2.900000000000000000e+01,8.600000000000000000e+01,2.850000000000000000e+02,4.600000000000000000e+01,3.300000000000000000e+01,2.300000000000000000e+01,2.200000000000000000e+01,2.200000000000000000e+01,5.000000000000000000e-01,5.126970300000000000e+09
2.900000000000000000e+01,8.500000000000000000e+01,2.720000000000000000e+02,5.300000000000000000e+01,3.800000000000000000e+01,2.300000000000000000e+01,2.200000000000000000e+01,2.200000000000000000e+01,5.000000000000000000e-01,5.144326100000000000e+09
2.500000000000000000e+01,8.200000000000000000e+01,2.670000000000000000e+02,4.700000000000000000e+01,3.800000000000000000e+01,2.300000000000000000e+01,2.100000000000000000e+01,2.100000000000000000e+01,5.000000000000000000e-01,5.162073200000000000e+09
2.600000000000000000e+01,8.800000000000000000e+01,2.150000000000000000e+02,4.800000000000000000e+01,3.800000000000000000e+01,2.500000000000000000e+01,2.000000000000000000e+01,2.200000000000000000e+01,5.000000000000000000e-01,5.179162000000000000e+09
3.000000000000000000e+01,8.900000000000000000e+01,1.900000000000000000e+02,4.900000000000000000e+01,4.400000000000000000e+01,2.600000000000000000e+01,2.200000000000000000e+01,2.400000000000000000e+01,5.000000000000000000e-01,5.197787000000000000e+09
3.000000000000000000e+01,8.700000000000000000e+01,1.960000000000000000e+02,4.900000000000000000e+01,4.400000000000000000e+01,2.500000000000000000e+01,2.100000000000000000e+01,2.300000000000000000e+01,5.000000000000000000e-01,5.217530500000000000e+09
3.100000000000000000e+01,9.000000000000000000e+01,2.010000000000000000e+02,3.800000000000000000e+01,4.000000000000000000e+01,2.600000000000000000e+01,2.500000000000000000e+01,2.200000000000000000e+01,5.000000000000000000e-01,5.236233500000000000e+09
3.200000000000000000e+01,8.600000000000000000e+01,2.350000000000000000e+02,3.500000000000000000e+01,3.900000000000000000e+01,2.600000000000000000e+01,2.500000000000000000e+01,2.200000000000000000e+01,5.000000000000000000e-01,5.253418600000000000e+09
3.200000000000000000e+01,6.900000000000000000e+01,2.890000000000000000e+02,4.000000000000000000e+01,4.000000000000000000e+01,2.500000000000000000e+01,2.500000000000000000e+01,2.100000000000000000e+01,5.000000000000000000e-01,5.271125400000000000e+09
3.000000000000000000e+01,7.200000000000000000e+01,3.040000000000000000e+02,4.300000000000000000e+01,3.500000000000000000e+01,2.400000000000000000e+01,2.600000000000000000e+01,2.000000000000000000e+01,5.000000000000000000e-01,5.289440500000000000e+09
3.000000000000000000e+01,7.600000000000000000e+01,2.870000000000000000e+02,4.400000000000000000e+01,3.600000000000000000e+01,2.600000000000000000e+01,2.400000000000000000e+01,2.100000000000000000e+01,5.000000000000000000e-01,5.309971100000000000e+09
2.900000000000000000e+01,8.200000000000000000e+01,3.190000000000000000e+02,4.600000000000000000e+01,3.600000000000000000e+01,2.600000000000000000e+01,2.000000000000000000e+01,2.200000000000000000e+01,5.000000000000000000e-01,5.328681600000000000e+09
2.900000000000000000e+01,8.000000000000000000e+01,3.060000000000000000e+02,4.700000000000000000e+01,3.500000000000000000e+01,2.800000000000000000e+01,2.100000000000000000e+01,2.200000000000000000e+01,5.000000000000000000e-01,5.347356800000000000e+09
3.100000000000000000e+01,8.600000000000000000e+01,2.700000000000000000e+02,5.400000000000000000e+01,3.700000000000000000e+01,2.700000000000000000e+01,2.100000000000000000e+01,2.200000000000000000e+01,5.000000000000000000e-01,5.364526400000000000e+09
3.000000000000000000e+01,7.800000000000000000e+01,2.740000000000000000e+02,5.100000000000000000e+01,3.600000000000000000e+01,2.700000000000000000e+01,1.600000000000000000e+01,2.000000000000000000e+01,5.000000000000000000e-01,5.381506100000000000e+09
3.000000000000000000e+01,7.400000000000000000e+01,2.800000000000000000e+02,4.800000000000000000e+01,3.300000000000000000e+01,2.600000000000000000e+01,1.800000000000000000e+01,1.900000000000000000e+01,5.000000000000000000e-01,5.400651000000000000e+09
3.000000000000000000e+01,6.300000000000000000e+01,2.310000000000000000e+02,4.600000000000000000e+01,3.300000000000000000e+01,2.700000000000000000e+01,2.000000000000000000e+01,1.800000000000000000e+01,5.000000000000000000e-01,5.421168400000000000e+09
3.200000000000000000e+01,7.600000000000000000e+01,2.230000000000000000e+02,4.900000000000000000e+01,3.400000000000000000e+01,2.300000000000000000e+01,2.000000000000000000e+01,2.000000000000000000e+01,5.000000000000000000e-01,5.439735000000000000e+09
3.000000000000000000e+01,9.200000000000000000e+01,2.790000000000000000e+02,4.100000000000000000e+01,3.000000000000000000e+01,2.600000000000000000e+01,2.000000000000000000e+01,2.300000000000000000e+01,5.000000000000000000e-01,5.457470000000000000e+09
3.200000000000000000e+01,9.300000000000000000e+01,2.580000000000000000e+02,4.300000000000000000e+01,3.900000000000000000e+01,3.100000000000000000e+01,2.300000000000000000e+01,2.400000000000000000e+01,5.000000000000000000e-01,5.474946100000000000e+09
3.300000000000000000e+01,9.900000000000000000e+01,2.630000000000000000e+02,4.600000000000000000e+01,4.400000000000000000e+01,3.300000000000000000e+01,2.600000000000000000e+01,2.500000000000000000e+01,5.100000000000000089e-01,5.493225300000000000e+09
3.200000000000000000e+01,9.700000000000000000e+01,2.690000000000000000e+02,4.700000000000000000e+01,4.900000000000000000e+01,3.200000000000000000e+01,2.600000000000000000e+01,2.500000000000000000e+01,5.100000000000000089e-01,5.513648700000000000e+09
2.900000000000000000e+01,9.100000000000000000e+01,2.960000000000000000e+02,4.600000000000000000e+01,5.200000000000000000e+01,3.300000000000000000e+01,2.600000000000000000e+01,2.300000000000000000e+01,5.100000000000000089e-01,5.531157100000000000e+09
3.400000000000000000e+01,7.200000000000000000e+01,2.580000000000000000e+02,5.100000000000000000e+01,5.300000000000000000e+01,3.500000000000000000e+01,2.700000000000000000e+01,2.300000000000000000e+01,5.100000000000000089e-01,5.549408000000000000e+09
3.200000000000000000e+01,8.400000000000000000e+01,3.270000000000000000e+02,4.800000000000000000e+01,4.700000000000000000e+01,3.000000000000000000e+01,2.700000000000000000e+01,2.400000000000000000e+01,5.100000000000000089e-01,5.567542600000000000e+09
3.200000000000000000e+01,7.300000000000000000e+01,3.440000000000000000e+02,4.600000000000000000e+01,4.700000000000000000e+01,2.800000000000000000e+01,2.400000000000000000e+01,2.600000000000000000e+01,5.100000000000000089e-01,5.585995600000000000e+09
3.300000000000000000e+01,7.600000000000000000e+01,3.410000000000000000e+02,5.100000000000000000e+01,4.000000000000000000e+01,2.700000000000000000e+01,2.500000000000000000e+01,2.500000000000000000e+01,5.100000000000000089e-01,5.608003600000000000e+09
3.300000000000000000e+01,7.700000000000000000e+01,3.580000000000000000e+02,5.300000000000000000e+01,3.800000000000000000e+01,2.700000000000000000e+01,2.500000000000000000e+01,2.600000000000000000e+01,5.100000000000000089e-01,5.626293500000000000e+09
2.900000000000000000e+01,7.600000000000000000e+01,3.430000000000000000e+02,4.300000000000000000e+01,3.700000000000000000e+01,2.400000000000000000e+01,2.400000000000000000e+01,2.400000000000000000e+01,5.100000000000000089e-01,5.644246300000000000e+09
3.100000000000000000e+01,6.700000000000000000e+01,2.710000000000000000e+02,4.600000000000000000e+01,3.500000000000000000e+01,2.500000000000000000e+01,2.400000000000000000e+01,2.200000000000000000e+01,5.100000000000000089e-01,5.662704000000000000e+09
3.200000000000000000e+01,7.000000000000000000e+01,2.450000000000000000e+02,5.600000000000000000e+01,3.900000000000000000e+01,2.600000000000000000e+01,2.300000000000000000e+01,2.000000000000000000e+01,5.100000000000000089e-01,5.680513100000000000e+09
3.000000000000000000e+01,6.800000000000000000e+01,2.840000000000000000e+02,6.000000000000000000e+01,4.300000000000000000e+01,2.700000000000000000e+01,2.200000000000000000e+01,2.100000000000000000e+01,5.100000000000000089e-01,5.698576800000000000e+09
3.300000000000000000e+01,6.900000000000000000e+01,2.480000000000000000e+02,5.700000000000000000e+01,4.200000000000000000e+01,2.700000000000000000e+01,2.200000000000000000e+01,2.200000000000000000e+01,5.100000000000000089e-01,5.718292100000000000e+09
3.000000000000000000e+01,6.700000000000000000e+01,2.740000000000000000e+02,5.800000000000000000e+01,4.300000000000000000e+01,2.500000000000000000e+01,2.000000000000000000e+01,2.200000000000000000e+01,5.100000000000000089e-01,5.737272000000000000e+09
3.200000000000000000e+01,6.900000000000000000e+01,3.000000000000000000e+02,6.500000000000000000e+01,4.900000000000000000e+01,3.000000000000000000e+01,2.300000000000000000e+01,2.100000000000000000e+01,5.100000000000000089e-01,5.755595300000000000e+09
3.400000000000000000e+01,7.100000000000000000e+01,3.320000000000000000e+02,6.200000000000000000e+01,4.700000000000000000e+01,2.800000000000000000e+01,2.400000000000000000e+01,2.400000000000000000e+01,5.100000000000000089e-01,5.773643300000000000e+09
3.400000000000000000e+01,7.300000000000000000e+01,3.090000000000000000e+02,5.300000000000000000e+01,4.700000000000000000e+01,2.800000000000000000e+01,2.500000000000000000e+01,2.400000000000000000e+01,5.100000000000000089e-01,5.791949700000000000e+09
3.200000000000000000e+01,6.300000000000000000e+01,3.070000000000000000e+02,5.600000000000000000e+01,4.600000000000000000e+01,2.700000000000000000e+01,2.400000000000000000e+01,2.200000000000000000e+01,5.100000000000000089e-01,5.812986100000000000e+09
3.500000000000000000e+01,6.500000000000000000e+01,3.110000000000000000e+02,5.800000000000000000e+01,4.500000000000000000e+01,2.700000000000000000e+01,2.600000000000000000e+01,2.200000000000000000e+01,5.100000000000000089e-01,5.831041900000000000e+09
3.300000000000000000e+01,6.300000000000000000e+01,3.120000000000000000e+02,4.900000000000000000e+01,4.200000000000000000e+01,2.700000000000000000e+01,2.200000000000000000e+01,2.300000000000000000e+01,5.100000000000000089e-01,5.849352000000000000e+09
3.200000000000000000e+01,6.500000000000000000e+01,2.840000000000000000e+02,5.000000000000000000e+01,3.900000000000000000e+01,2.800000000000000000e+01,2.100000000000000000e+01,2.100000000000000000e+01,5.000000000000000000e-01,5.868627700000000000e+09
3.100000000000000000e+01,6.400000000000000000e+01,3.010000000000000000e+02,4.800000000000000000e+01,3.700000000000000000e+01,3.100000000000000000e+01,2.000000000000000000e+01,2.300000000000000000e+01,5.000000000000000000e-01,5.886415000000000000e+09
3.200000000000000000e+01,7.900000000000000000e+01,3.170000000000000000e+02,4.700000000000000000e+01,3.900000000000000000e+01,3.000000000000000000e+01,2.100000000000000000e+01,2.300000000000000000e+01,5.000000000000000000e-01,5.907646500000000000e+09
3.000000000000000000e+01,8.300000000000000000e+01,3.190000000000000000e+02,5.300000000000000000e+01,4.900000000000000000e+01,3.300000000000000000e+01,2.100000000000000000e+01,2.400000000000000000e+01,5.000000000000000000e-01,5.926839100000000000e+09
2.900000000000000000e+01,7.800000000000000000e+01,3.090000000000000000e+02,5.100000000000000000e+01,4.900000000000000000e+01,3.000000000000000000e+01,2.200000000000000000e+01,2.200000000000000000e+01,5.000000000000000000e-01,5.945488900000000000e+09
3.100000000000000000e+01,8.000000000000000000e+01,3.390000000000000000e+02,5.300000000000000000e+01,4.900000000000000000e+01,3.100000000000000000e+01,2.400000000000000000e+01,2.300000000000000000e+01,5.000000000000000000e-01,5.964034000000000000e+09
3.000000000000000000e+01,8.500000000000000000e+01,3.370000000000000000e+02,5.600000000000000000e+01,4.800000000000000000e+01,2.900000000000000000e+01,2.400000000000000000e+01,2.300000000000000000e+01,5.000000000000000000e-01,5.982567800000000000e+09
2.900000000000000000e+01,8.100000000000000000e+01,3.240000000000000000e+02,5.300000000000000000e+01,4.900000000000000000e+01,3.000000000000000000e+01,2.400000000000000000e+01,2.300000000000000000e+01,5.000000000000000000e-01,6.001376200000000000e+09
3.000000000000000000e+01,8.500000000000000000e+01,2.960000000000000000e+02,5.000000000000000000e+01,4.600000000000000000e+01,2.900000000000000000e+01,2.200000000000000000e+01,2.400000000000000000e+01,5.000000000000000000e-01,6.020388700000000000e+09
3.100000000000000000e+01,9.300000000000000000e+01,2.980000000000000000e+02,6.400000000000000000e+01,4.600000000000000000e+01,3.100000000000000000e+01,2.200000000000000000e+01,2.600000000000000000e+01,5.000000000000000000e-01,6.040725400000000000e+09
2.600000000000000000e+01,8.600000000000000000e+01,2.610000000000000000e+02,5.900000000000000000e+01,4.300000000000000000e+01,2.800000000000000000e+01,1.900000000000000000e+01,2.500000000000000000e+01,5.000000000000000000e-01,6.059378200000000000e+09
2.900000000000000000e+01,9.500000000000000000e+01,2.410000000000000000e+02,5.900000000000000000e+01,4.000000000000000000e+01,2.800000000000000000e+01,2.000000000000000000e+01,2.400000000000000000e+01,5.100000000000000089e-01,6.077131900000000000e+09
3.200000000000000000e+01,9.800000000000000000e+01,2.350000000000000000e+02,5.900000000000000000e+01,4.300000000000000000e+01,2.800000000000000000e+01,1.900000000000000000e+01,2.400000000000000000e+01,5.100000000000000089e-01,6.096226900000000000e+09
3.100000000000000000e+01,9.400000000000000000e+01,2.470000000000000000e+02,6.100000000000000000e+01,3.800000000000000000e+01,2.600000000000000000e+01,2.000000000000000000e+01,2.300000000000000000e+01,5.100000000000000089e-01,6.117054500000000000e+09
3.100000000000000000e+01,9.900000000000000000e+01,2.490000000000000000e+02,5.000000000000000000e+01,3.400000000000000000e+01,2.300000000000000000e+01,2.000000000000000000e+01,2.200000000000000000e+01,5.100000000000000089e-01,6.135383700000000000e+09
3.400000000000000000e+01,9.900000000000000000e+01,2.570000000000000000e+02,4.800000000000000000e+01,3.400000000000000000e+01,2.500000000000000000e+01,2.200000000000000000e+01,2.200000000000000000e+01,5.100000000000000089e-01,6.154626100000000000e+09
3.300000000000000000e+01,8.500000000000000000e+01,2.450000000000000000e+02,4.400000000000000000e+01,3.500000000000000000e+01,2.300000000000000000e+01,1.900000000000000000e+01,2.100000000000000000e+01,5.100000000000000089e-01,6.172524600000000000e+09
3.200000000000000000e+01,7.700000000000000000e+01,2.430000000000000000e+02,4.600000000000000000e+01,3.000000000000000000e+01,2.300000000000000000e+01,2.000000000000000000e+01,2.100000000000000000e+01,5.100000000000000089e-01,6.190770000000000000e+09
3.200000000000000000e+01,7.900000000000000000e+01,2.670000000000000000e+02,4.000000000000000000e+01,4.000000000000000000e+01,3.000000000000000000e+01,2.000000000000000000e+01,2.400000000000000000e+01,5.100000000000000089e-01,6.213177100000000000e+09
3.300000000000000000e+01,6.600000000000000000e+01,3.120000000000000000e+02,3.900000000000000000e+01,4.400000000000000000e+01,3.600000000000000000e+01,2.000000000000000000e+01,2.400000000000000000e+01,5.100000000000000089e-01,6.232344800000000000e+09
3.300000000000000000e+01,6.800000000000000000e+01,3.110000000000000000e+02,4.500000000000000000e+01,4.400000000000000000e+01,3.500000000000000000e+01,1.900000000000000000e+01,2.200000000000000000e+01,5.100000000000000089e-01,6.250188000000000000e+09
3.400000000000000000e+01,7.300000000000000000e+01,3.220000000000000000e+02,5.000000000000000000e+01,4.400000000000000000e+01,3.500000000000000000e+01,2.000000000000000000e+01,2.500000000000000000e+01,5.100000000000000089e-01,6.268965500000000000e+09
3.400000000000000000e+01,8.200000000000000000e+01,3.260000000000000000e+02,5.400000000000000000e+01,4.500000000000000000e+01,3.600000000000000000e+01,2.100000000000000000e+01,2.400000000000000000e+01,5.100000000000000089e-01,6.287842700000000000e+09
3.400000000000000000e+01,8.600000000000000000e+01,3.330000000000000000e+02,5.200000000000000000e+01,3.600000000000000000e+01,3.100000000000000000e+01,2.000000000000000000e+01,2.100000000000000000e+01,5.100000000000000089e-01,6.307711800000000000e+09
3.300000000000000000e+01,9.500000000000000000e+01,3.200000000000000000e+02,5.300000000000000000e+01,3.500000000000000000e+01,2.400000000000000000e+01,2.000000000000000000e+01,1.900000000000000000e+01,5.100000000000000089e-01,6.327650100000000000e+09
3.000000000000000000e+01,9.700000000000000000e+01,3.250000000000000000e+02,5.100000000000000000e+01,3.600000000000000000e+01,2.400000000000000000e+01,2.000000000000000000e+01,2.400000000000000000e+01,5.100000000000000089e-01,6.345910900000000000e+09
2.900000000000000000e+01,9.500000000000000000e+01,3.200000000000000000e+02,4.800000000000000000e+01,3.600000000000000000e+01,2.400000000000000000e+01,2.100000000000000000e+01,2.300000000000000000e+01,5.100000000000000089e-01,6.364901600000000000e+09
2.700000000000000000e+01,8.600000000000000000e+01,3.100000000000000000e+02,4.100000000000000000e+01,3.500000000000000000e+01,2.200000000000000000e+01,2.200000000000000000e+01,2.400000000000000000e+01,5.100000000000000089e-01,6.383378200000000000e+09
3.100000000000000000e+01,1.060000000000000000e+02,2.880000000000000000e+02,4.800000000000000000e+01,3.400000000000000000e+01,2.100000000000000000e+01,2.200000000000000000e+01,2.400000000000000000e+01,5.100000000000000089e-01,6.402851200000000000e+09
3.300000000000000000e+01,1.000000000000000000e+02,2.830000000000000000e+02,4.300000000000000000e+01,3.400000000000000000e+01,2.100000000000000000e+01,2.300000000000000000e+01,2.700000000000000000e+01,5.100000000000000089e-01,6.422983300000000000e+09
3.300000000000000000e+01,9.700000000000000000e+01,2.650000000000000000e+02,3.800000000000000000e+01,3.400000000000000000e+01,2.200000000000000000e+01,2.300000000000000000e+01,2.500000000000000000e+01,5.100000000000000089e-01,6.441245300000000000e+09
3.200000000000000000e+01,9.700000000000000000e+01,2.540000000000000000e+02,3.600000000000000000e+01,3.400000000000000000e+01,2.400000000000000000e+01,2.400000000000000000e+01,2.300000000000000000e+01,5.100000000000000089e-01,6.460703500000000000e+09
3.200000000000000000e+01,9.900000000000000000e+01,2.390000000000000000e+02,3.600000000000000000e+01,3.600000000000000000e+01,2.700000000000000000e+01,2.300000000000000000e+01,2.100000000000000000e+01,5.100000000000000089e-01,6.479423500000000000e+09
3.000000000000000000e+01,7.000000000000000000e+01,2.320000000000000000e+02,3.200000000000000000e+01,3.900000000000000000e+01,2.800000000000000000e+01,2.200000000000000000e+01,2.300000000000000000e+01,5.100000000000000089e-01,6.497268000000000000e+09
2.700000000000000000e+01,6.700000000000000000e+01,1.930000000000000000e+02,3.400000000000000000e+01,4.400000000000000000e+01,2.900000000000000000e+01,2.300000000000000000e+01,2.100000000000000000e+01,5.100000000000000089e-01,6.518612800000000000e+09
3.100000000000000000e+01,6.700000000000000000e+01,1.980000000000000000e+02,3.500000000000000000e+01,4.400000000000000000e+01,3.000000000000000000e+01,2.400000000000000000e+01,2.400000000000000000e+01,5.100000000000000089e-01,6.537105900000000000e+09
3.000000000000000000e+01,6.500000000000000000e+01,2.230000000000000000e+02,3.600000000000000000e+01,4.500000000000000000e+01,2.900000000000000000e+01,2.400000000000000000e+01,2.400000000000000000e+01,5.100000000000000089e-01,6.556379100000000000e+09
3.000000000000000000e+01,6.700000000000000000e+01,3.020000000000000000e+02,3.900000000000000000e+01,4.900000000000000000e+01,2.900000000000000000e+01,2.600000000000000000e+01,2.500000000000000000e+01,5.100000000000000089e-01,6.575620200000000000e+09
2.800000000000000000e+01,6.500000000000000000e+01,2.940000000000000000e+02,3.900000000000000000e+01,4.500000000000000000e+01,3.000000000000000000e+01,2.700000000000000000e+01,2.500000000000000000e+01,5.100000000000000089e-01,6.595029600000000000e+09
3.100000000000000000e+01,6.700000000000000000e+01,2.870000000000000000e+02,4.400000000000000000e+01,4.100000000000000000e+01,3.000000000000000000e+01,2.500000000000000000e+01,2.700000000000000000e+01,5.100000000000000089e-01,6.614129900000000000e+09
2.600000000000000000e+01,6.200000000000000000e+01,2.800000000000000000e+02,4.200000000000000000e+01,3.900000000000000000e+01,2.800000000000000000e+01,2.500000000000000000e+01,2.400000000000000000e+01,5.000000000000000000e-01,6.633997800000000000e+09
3.000000000000000000e+01,6.600000000000000000e+01,2.810000000000000000e+02,4.200000000000000000e+01,3.900000000000000000e+01,3.000000000000000000e+01,2.400000000000000000e+01,2.500000000000000000e+01,5.000000000000000000e-01,6.652785200000000000e+09
2.900000000000000000e+01,8.000000000000000000e+01,2.340000000000000000e+02,3.900000000000000000e+01,3.500000000000000000e+01,2.900000000000000000e+01,2.300000000000000000e+01,2.500000000000000000e+01,5.000000000000000000e-01,6.671613800000000000e+09
3.200000000000000000e+01,7.800000000000000000e+01,3.530000000000000000e+02,5.000000000000000000e+01,3.700000000000000000e+01,2.700000000000000000e+01,2.200000000000000000e+01,2.600000000000000000e+01,5.000000000000000000e-01,6.691653100000000000e+09
3.200000000000000000e+01,7.900000000000000000e+01,3.630000000000000000e+02,5.000000000000000000e+01,3.200000000000000000e+01,2.600000000000000000e+01,2.300000000000000000e+01,2.400000000000000000e+01,5.000000000000000000e-01,6.713239400000000000e+09
3.200000000000000000e+01,8.100000000000000000e+01,3.600000000000000000e+02,5.000000000000000000e+01,3.400000000000000000e+01,2.700000000000000000e+01,2.200000000000000000e+01,2.300000000000000000e+01,5.000000000000000000e-01,6.734005000000000000e+09
3.400000000000000000e+01,1.090000000000000000e+02,3.620000000000000000e+02,5.500000000000000000e+01,4.400000000000000000e+01,2.700000000000000000e+01,2.400000000000000000e+01,2.200000000000000000e+01,5.100000000000000089e-01,6.752502000000000000e+09
3.600000000000000000e+01,9.800000000000000000e+01,3.410000000000000000e+02,6.500000000000000000e+01,5.000000000000000000e+01,2.800000000000000000e+01,2.400000000000000000e+01,2.200000000000000000e+01,5.100000000000000089e-01,6.770994300000000000e+09
3.200000000000000000e+01,1.030000000000000000e+02,2.170000000000000000e+02,5.500000000000000000e+01,5.000000000000000000e+01,2.800000000000000000e+01,2.400000000000000000e+01,1.900000000000000000e+01,5.100000000000000089e-01,6.790722500000000000e+09
3.200000000000000000e+01,1.130000000000000000e+02,2.170000000000000000e+02,5.200000000000000000e+01,5.100000000000000000e+01,2.900000000000000000e+01,2.600000000000000000e+01,2.000000000000000000e+01,5.100000000000000089e-01,6.812360300000000000e+09
3.400000000000000000e+01,1.170000000000000000e+02,2.150000000000000000e+02,5.500000000000000000e+01,5.700000000000000000e+01,3.000000000000000000e+01,2.700000000000000000e+01,2.300000000000000000e+01,5.100000000000000089e-01,6.831115900000000000e+09
3.100000000000000000e+01,9.400000000000000000e+01,2.070000000000000000e+02,5.200000000000000000e+01,5.300000000000000000e+01,2.900000000000000000e+01,2.500000000000000000e+01,2.100000000000000000e+01,5.100000000000000089e-01,6.849867900000000000e+09
3.100000000000000000e+01,9.600000000000000000e+01,2.340000000000000000e+02,4.200000000000000000e+01,4.400000000000000000e+01,2.700000000000000000e+01,2.500000000000000000e+01,2.200000000000000000e+01,5.200000000000000178e-01,6.869450200000000000e+09
3.100000000000000000e+01,9.500000000000000000e+01,2.370000000000000000e+02,4.200000000000000000e+01,4.500000000000000000e+01,2.600000000000000000e+01,2.500000000000000000e+01,2.200000000000000000e+01,5.200000000000000178e-01,6.888709700000000000e+09
2.900000000000000000e+01,8.000000000000000000e+01,2.260000000000000000e+02,4.700000000000000000e+01,4.700000000000000000e+01,2.600000000000000000e+01,2.200000000000000000e+01,2.200000000000000000e+01,5.200000000000000178e-01,6.912318600000000000e+09
2.900000000000000000e+01,7.800000000000000000e+01,2.660000000000000000e+02,4.600000000000000000e+01,4.700000000000000000e+01,2.700000000000000000e+01,2.200000000000000000e+01,2.000000000000000000e+01,5.100000000000000089e-01,6.930593500000000000e+09
2.800000000000000000e+01,8.500000000000000000e+01,3.070000000000000000e+02,4.700000000000000000e+01,4.400000000000000000e+01,2.600000000000000000e+01,2.100000000000000000e+01,2.200000000000000000e+01,5.100000000000000089e-01,6.950872600000000000e+09
2.600000000000000000e+01,7.800000000000000000e+01,3.060000000000000000e+02,5.400000000000000000e+01,4.300000000000000000e+01,2.700000000000000000e+01,2.000000000000000000e+01,2.100000000000000000e+01,5.100000000000000089e-01,6.970000000000000000e+09
2.600000000000000000e+01,7.800000000000000000e+01,3.270000000000000000e+02,5.800000000000000000e+01,4.400000000000000000e+01,2.700000000000000000e+01,2.100000000000000000e+01,2.300000000000000000e+01,5.100000000000000089e-01,6.990988100000000000e+09
2.700000000000000000e+01,8.800000000000000000e+01,3.480000000000000000e+02,5.700000000000000000e+01,4.500000000000000000e+01,2.800000000000000000e+01,2.200000000000000000e+01,2.300000000000000000e+01,5.100000000000000089e-01,7.013490700000000000e+09
2.600000000000000000e+01,9.200000000000000000e+01,3.410000000000000000e+02,5.600000000000000000e+01,4.100000000000000000e+01,2.800000000000000000e+01,2.100000000000000000e+01,2.500000000000000000e+01,5.100000000000000089e-01,7.033425800000000000e+09
2.300000000000000000e+01,8.200000000000000000e+01,3.180000000000000000e+02,5.900000000000000000e+01,3.900000000000000000e+01,2.700000000000000000e+01,2.300000000000000000e+01,2.400000000000000000e+01,5.100000000000000089e-01,7.053926900000000000e+09
2.300000000000000000e+01,8.700000000000000000e+01,3.640000000000000000e+02,5.200000000000000000e+01,3.900000000000000000e+01,2.500000000000000000e+01,2.300000000000000000e+01,2.400000000000000000e+01,5.100000000000000089e-01,7.074971500000000000e+09
2.700000000000000000e+01,9.100000000000000000e+01,3.540000000000000000e+02,5.100000000000000000e+01,3.700000000000000000e+01,2.800000000000000000e+01,2.500000000000000000e+01,2.500000000000000000e+01,5.100000000000000089e-01,7.093989900000000000e+09
2.500000000000000000e+01,8.100000000000000000e+01,3.300000000000000000e+02,4.700000000000000000e+01,3.300000000000000000e+01,2.500000000000000000e+01,2.600000000000000000e+01,2.300000000000000000e+01,5.100000000000000089e-01,7.116587700000000000e+09
2.400000000000000000e+01,7.400000000000000000e+01,3.310000000000000000e+02,5.500000000000000000e+01,3.400000000000000000e+01,2.900000000000000000e+01,2.600000000000000000e+01,2.300000000000000000e+01,5.100000000000000089e-01,7.136172400000000000e+09
2.700000000000000000e+01,7.900000000000000000e+01,3.070000000000000000e+02,4.900000000000000000e+01,3.400000000000000000e+01,3.000000000000000000e+01,2.500000000000000000e+01,2.300000000000000000e+01,5.100000000000000089e-01,7.155115100000000000e+09
3.000000000000000000e+01,8.300000000000000000e+01,2.370000000000000000e+02,4.900000000000000000e+01,3.600000000000000000e+01,3.100000000000000000e+01,2.500000000000000000e+01,2.400000000000000000e+01,5.200000000000000178e-01,7.173642600000000000e+09
3.100000000000000000e+01,7.100000000000000000e+01,2.490000000000000000e+02,4.600000000000000000e+01,3.300000000000000000e+01,2.700000000000000000e+01,2.400000000000000000e+01,2.300000000000000000e+01,5.200000000000000178e-01,7.192454700000000000e+09
3.200000000000000000e+01,6.900000000000000000e+01,2.520000000000000000e+02,4.600000000000000000e+01,3.700000000000000000e+01,3.100000000000000000e+01,2.200000000000000000e+01,2.600000000000000000e+01,5.200000000000000178e-01,7.212549900000000000e+09
3.200000000000000000e+01,7.100000000000000000e+01,2.230000000000000000e+02,3.900000000000000000e+01,3.700000000000000000e+01,2.800000000000000000e+01,2.200000000000000000e+01,2.400000000000000000e+01,5.100000000000000089e-01,7.232832100000000000e+09
3.000000000000000000e+01,6.400000000000000000e+01,2.390000000000000000e+02,4.200000000000000000e+01,3.900000000000000000e+01,2.700000000000000000e+01,2.000000000000000000e+01,2.500000000000000000e+01,5.100000000000000089e-01,7.251054100000000000e+09
3.100000000000000000e+01,5.600000000000000000e+01,2.340000000000000000e+02,4.000000000000000000e+01,4.500000000000000000e+01,2.900000000000000000e+01,1.800000000000000000e+01,2.500000000000000000e+01,5.100000000000000089e-01,7.269772300000000000e+09
3.200000000000000000e+01,7.200000000000000000e+01,2.210000000000000000e+02,5.000000000000000000e+01,4.600000000000000000e+01,3.100000000000000000e+01,1.800000000000000000e+01,2.600000000000000000e+01,5.100000000000000089e-01,7.289206100000000000e+09
3.300000000000000000e+01,7.900000000000000000e+01,2.210000000000000000e+02,5.100000000000000000e+01,4.400000000000000000e+01,3.100000000000000000e+01,1.700000000000000000e+01,2.400000000000000000e+01,5.100000000000000089e-01,7.310677900000000000e+09
3.400000000000000000e+01,7.900000000000000000e+01,2.170000000000000000e+02,4.700000000000000000e+01,4.100000000000000000e+01,3.100000000000000000e+01,1.900000000000000000e+01,2.400000000000000000e+01,5.100000000000000089e-01,7.329722600000000000e+09
3.700000000000000000e+01,8.000000000000000000e+01,3.110000000000000000e+02,4.300000000000000000e+01,4.000000000000000000e+01,3.000000000000000000e+01,1.800000000000000000e+01,2.400000000000000000e+01,5.100000000000000089e-01,7.349818600000000000e+09
3.800000000000000000e+01,8.200000000000000000e+01,3.200000000000000000e+02,4.700000000000000000e+01,3.500000000000000000e+01,3.100000000000000000e+01,2.100000000000000000e+01,2.300000000000000000e+01,5.100000000000000089e-01,7.370133500000000000e+09
3.500000000000000000e+01,7.600000000000000000e+01,3.110000000000000000e+02,3.700000000000000000e+01,3.400000000000000000e+01,3.000000000000000000e+01,2.000000000000000000e+01,2.300000000000000000e+01,5.100000000000000089e-01,7.389201000000000000e+09
3.300000000000000000e+01,7.400000000000000000e+01,3.020000000000000000e+02,3.500000000000000000e+01,3.000000000000000000e+01,2.700000000000000000e+01,2.000000000000000000e+01,2.100000000000000000e+01,5.100000000000000089e-01,7.410688600000000000e+09
3.300000000000000000e+01,7.200000000000000000e+01,3.510000000000000000e+02,4.200000000000000000e+01,3.000000000000000000e+01,2.700000000000000000e+01,2.100000000000000000e+01,2.000000000000000000e+01,5.100000000000000089e-01,7.429530300000000000e+09
3.100000000000000000e+01,7.400000000000000000e+01,2.780000000000000000e+02,5.200000000000000000e+01,3.400000000000000000e+01,2.900000000000000000e+01,2.200000000000000000e+01,2.000000000000000000e+01,5.100000000000000089e-01,7.447983100000000000e+09
2.700000000000000000e+01,7.400000000000000000e+01,2.860000000000000000e+02,4.900000000000000000e+01,3.200000000000000000e+01,2.400000000000000000e+01,2.000000000000000000e+01,2.000000000000000000e+01,5.100000000000000089e-01,7.468184600000000000e+09
2.600000000000000000e+01,6.600000000000000000e+01,2.910000000000000000e+02,4.700000000000000000e+01,3.100000000000000000e+01,2.500000000000000000e+01,2.100000000000000000e+01,1.900000000000000000e+01,5.100000000000000089e-01,7.486757200000000000e+09
2.900000000000000000e+01,7.000000000000000000e+01,2.900000000000000000e+02,5.400000000000000000e+01,3.300000000000000000e+01,2.600000000000000000e+01,2.200000000000000000e+01,2.100000000000000000e+01,5.100000000000000089e-01,7.506450300000000000e+09
2.800000000000000000e+01,6.700000000000000000e+01,2.480000000000000000e+02,5.600000000000000000e+01,3.200000000000000000e+01,2.600000000000000000e+01,2.100000000000000000e+01,2.200000000000000000e+01,5.100000000000000089e-01,7.527591600000000000e+09
2.800000000000000000e+01,6.200000000000000000e+01,2.470000000000000000e+02,5.000000000000000000e+01,3.700000000000000000e+01,2.500000000000000000e+01,2.200000000000000000e+01,2.200000000000000000e+01,5.100000000000000089e-01,7.547198800000000000e+09
2.800000000000000000e+01,5.700000000000000000e+01,2.370000000000000000e+02,5.600000000000000000e+01,4.000000000000000000e+01,2.900000000000000000e+01,2.300000000000000000e+01,2.200000000000000000e+01,5.100000000000000089e-01,7.566432500000000000e+09
3.100000000000000000e+01,7.200000000000000000e+01,2.290000000000000000e+02,5.800000000000000000e+01,4.000000000000000000e+01,2.800000000000000000e+01,2.300000000000000000e+01,2.200000000000000000e+01,5.100000000000000089e-01,7.585457500000000000e+09
3.000000000000000000e+01,6.500000000000000000e+01,2.420000000000000000e+02,5.700000000000000000e+01,4.300000000000000000e+01,2.700000000000000000e+01,2.300000000000000000e+01,2.100000000000000000e+01,5.100000000000000089e-01,7.607180700000000000e+09
3.100000000000000000e+01,6.600000000000000000e+01,2.960000000000000000e+02,5.500000000000000000e+01,4.400000000000000000e+01,2.700000000000000000e+01,2.400000000000000000e+01,2.300000000000000000e+01,5.100000000000000089e-01,7.627201200000000000e+09
3.200000000000000000e+01,7.100000000000000000e+01,2.910000000000000000e+02,5.600000000000000000e+01,3.900000000000000000e+01,2.400000000000000000e+01,2.500000000000000000e+01,2.400000000000000000e+01,5.100000000000000089e-01,7.647361800000000000e+09
3.100000000000000000e+01,7.900000000000000000e+01,2.940000000000000000e+02,5.200000000000000000e+01,3.700000000000000000e+01,2.300000000000000000e+01,2.400000000000000000e+01,2.300000000000000000e+01,5.000000000000000000e-01,7.665740400000000000e+09
2.900000000000000000e+01,6.600000000000000000e+01,3.120000000000000000e+02,5.400000000000000000e+01,3.500000000000000000e+01,2.300000000000000000e+01,2.500000000000000000e+01,2.200000000000000000e+01,5.000000000000000000e-01,7.684773100000000000e+09
3.200000000000000000e+01,6.300000000000000000e+01,3.170000000000000000e+02,5.300000000000000000e+01,3.800000000000000000e+01,2.600000000000000000e+01,2.700000000000000000e+01,2.400000000000000000e+01,5.000000000000000000e-01,7.704827400000000000e+09
3.300000000000000000e+01,7.800000000000000000e+01,2.530000000000000000e+02,4.900000000000000000e+01,3.600000000000000000e+01,2.400000000000000000e+01,2.500000000000000000e+01,2.200000000000000000e+01,5.100000000000000089e-01,7.726282700000000000e+09
3.200000000000000000e+01,8.500000000000000000e+01,2.690000000000000000e+02,4.600000000000000000e+01,3.400000000000000000e+01,2.500000000000000000e+01,2.500000000000000000e+01,2.100000000000000000e+01,5.000000000000000000e-01,7.744818900000000000e+09
3.400000000000000000e+01,8.800000000000000000e+01,2.990000000000000000e+02,4.700000000000000000e+01,3.500000000000000000e+01,2.400000000000000000e+01,2.500000000000000000e+01,2.300000000000000000e+01,5.000000000000000000e-01,7.763568200000000000e+09
3.400000000000000000e+01,8.900000000000000000e+01,3.000000000000000000e+02,4.600000000000000000e+01,3.700000000000000000e+01,2.500000000000000000e+01,2.400000000000000000e+01,2.300000000000000000e+01,5.000000000000000000e-01,7.782179300000000000e+09
3.000000000000000000e+01,9.300000000000000000e+01,2.940000000000000000e+02,4.100000000000000000e+01,3.000000000000000000e+01,2.300000000000000000e+01,2.100000000000000000e+01,2.000000000000000000e+01,5.000000000000000000e-01,7.803701300000000000e+09
3.100000000000000000e+01,8.700000000000000000e+01,3.090000000000000000e+02,4.700000000000000000e+01,3.400000000000000000e+01,2.600000000000000000e+01,2.100000000000000000e+01,2.000000000000000000e+01,5.000000000000000000e-01,7.826799200000000000e+09
3.000000000000000000e+01,7.700000000000000000e+01,3.210000000000000000e+02,4.900000000000000000e+01,3.700000000000000000e+01,2.800000000000000000e+01,2.100000000000000000e+01,2.100000000000000000e+01,5.000000000000000000e-01,7.846052300000000000e+09
2.900000000000000000e+01,6.200000000000000000e+01,2.990000000000000000e+02,5.900000000000000000e+01,4.000000000000000000e+01,2.800000000000000000e+01,2.000000000000000000e+01,2.200000000000000000e+01,5.000000000000000000e-01,7.864010500000000000e+09
2.600000000000000000e+01,6.200000000000000000e+01,2.690000000000000000e+02,5.800000000000000000e+01,4.000000000000000000e+01,2.700000000000000000e+01,2.000000000000000000e+01,2.100000000000000000e+01,5.000000000000000000e-01,7.882800900000000000e+09
2.600000000000000000e+01,6.200000000000000000e+01,2.750000000000000000e+02,5.900000000000000000e+01,4.300000000000000000e+01,2.800000000000000000e+01,2.100000000000000000e+01,2.200000000000000000e+01,5.000000000000000000e-01,7.904562200000000000e+09
2.500000000000000000e+01,6.700000000000000000e+01,3.070000000000000000e+02,5.700000000000000000e+01,3.800000000000000000e+01,2.700000000000000000e+01,2.100000000000000000e+01,2.300000000000000000e+01,5.000000000000000000e-01,7.926272800000000000e+09
2.300000000000000000e+01,7.200000000000000000e+01,3.310000000000000000e+02,5.600000000000000000e+01,4.100000000000000000e+01,2.600000000000000000e+01,2.000000000000000000e+01,2.200000000000000000e+01,5.000000000000000000e-01,7.945302200000000000e+09
2.600000000000000000e+01,7.600000000000000000e+01,3.300000000000000000e+02,4.500000000000000000e+01,3.800000000000000000e+01,2.600000000000000000e+01,2.200000000000000000e+01,2.100000000000000000e+01,5.000000000000000000e-01,7.965236300000000000e+09
2.700000000000000000e+01,7.400000000000000000e+01,3.310000000000000000e+02,4.700000000000000000e+01,4.400000000000000000e+01,2.800000000000000000e+01,2.300000000000000000e+01,2.200000000000000000e+01,5.000000000000000000e-01,7.987039300000000000e+09
3.000000000000000000e+01,6.800000000000000000e+01,3.250000000000000000e+02,4.700000000000000000e+01,4.100000000000000000e+01,2.700000000000000000e+01,2.300000000000000000e+01,2.200000000000000000e+01,5.000000000000000000e-01,8.006811000000000000e+09
2.900000000000000000e+01,6.200000000000000000e+01,2.960000000000000000e+02,5.300000000000000000e+01,4.800000000000000000e+01,2.700000000000000000e+01,2.200000000000000000e+01,2.200000000000000000e+01,5.000000000000000000e-01,8.027943500000000000e+09
2.900000000000000000e+01,6.100000000000000000e+01,2.350000000000000000e+02,5.400000000000000000e+01,4.600000000000000000e+01,2.400000000000000000e+01,2.300000000000000000e+01,2.200000000000000000e+01,5.000000000000000000e-01,8.047541600000000000e+09
3.100000000000000000e+01,6.900000000000000000e+01,2.450000000000000000e+02,5.600000000000000000e+01,4.400000000000000000e+01,2.600000000000000000e+01,2.300000000000000000e+01,2.200000000000000000e+01,5.000000000000000000e-01,8.066359700000000000e+09
3.200000000000000000e+01,7.000000000000000000e+01,2.640000000000000000e+02,5.800000000000000000e+01,3.900000000000000000e+01,2.300000000000000000e+01,2.200000000000000000e+01,2.100000000000000000e+01,5.000000000000000000e-01,8.085735200000000000e+09
3.000000000000000000e+01,7.100000000000000000e+01,2.680000000000000000e+02,5.700000000000000000e+01,4.800000000000000000e+01,2.600000000000000000e+01,2.400000000000000000e+01,2.200000000000000000e+01,5.000000000000000000e-01,8.107277800000000000e+09
3.200000000000000000e+01,6.800000000000000000e+01,2.700000000000000000e+02,7.000000000000000000e+01,4.400000000000000000e+01,2.700000000000000000e+01,2.500000000000000000e+01,2.200000000000000000e+01,5.000000000000000000e-01,8.126525900000000000e+09
3.300000000000000000e+01,6.900000000000000000e+01,2.680000000000000000e+02,7.000000000000000000e+01,4.400000000000000000e+01,2.700000000000000000e+01,2.500000000000000000e+01,2.400000000000000000e+01,5.100000000000000089e-01,8.146459800000000000e+09
3.200000000000000000e+01,6.000000000000000000e+01,2.520000000000000000e+02,6.600000000000000000e+01,4.400000000000000000e+01,2.600000000000000000e+01,2.400000000000000000e+01,2.500000000000000000e+01,5.100000000000000089e-01,8.165162800000000000e+09
3.100000000000000000e+01,6.300000000000000000e+01,2.360000000000000000e+02,6.500000000000000000e+01,4.800000000000000000e+01,2.900000000000000000e+01,2.500000000000000000e+01,2.500000000000000000e+01,5.100000000000000089e-01,8.183743600000000000e+09
3.200000000000000000e+01,6.700000000000000000e+01,2.440000000000000000e+02,6.700000000000000000e+01,4.000000000000000000e+01,2.800000000000000000e+01,2.400000000000000000e+01,2.400000000000000000e+01,5.100000000000000089e-01,8.204782200000000000e+09
3.100000000000000000e+01,6.800000000000000000e+01,2.250000000000000000e+02,4.500000000000000000e+01,4.000000000000000000e+01,2.800000000000000000e+01,2.400000000000000000e+01,2.300000000000000000e+01,5.100000000000000089e-01,8.227124900000000000e+09
3.200000000000000000e+01,8.300000000000000000e+01,2.130000000000000000e+02,4.200000000000000000e+01,3.700000000000000000e+01,2.700000000000000000e+01,2.400000000000000000e+01,2.200000000000000000e+01,5.100000000000000089e-01,8.247067800000000000e+09
3.100000000000000000e+01,8.600000000000000000e+01,2.090000000000000000e+02,4.300000000000000000e+01,4.000000000000000000e+01,2.900000000000000000e+01,2.400000000000000000e+01,2.100000000000000000e+01,5.100000000000000089e-01,8.266362700000000000e+09
3.100000000000000000e+01,8.700000000000000000e+01,2.610000000000000000e+02,4.900000000000000000e+01,4.300000000000000000e+01,2.800000000000000000e+01,2.200000000000000000e+01,2.100000000000000000e+01,5.100000000000000089e-01,8.285718300000000000e+09
3.200000000000000000e+01,9.400000000000000000e+01,2.520000000000000000e+02,4.600000000000000000e+01,4.400000000000000000e+01,2.900000000000000000e+01,2.200000000000000000e+01,2.100000000000000000e+01,5.100000000000000089e-01,8.305146800000000000e+09
3.300000000000000000e+01,9.000000000000000000e+01,2.720000000000000000e+02,4.700000000000000000e+01,4.600000000000000000e+01,2.700000000000000000e+01,2.300000000000000000e+01,2.100000000000000000e+01,5.100000000000000089e-01,8.327429100000000000e+09
3.000000000000000000e+01,7.600000000000000000e+01,2.820000000000000000e+02,5.300000000000000000e+01,5.600000000000000000e+01,2.900000000000000000e+01,2.200000000000000000e+01,2.100000000000000000e+01,5.100000000000000089e-01,8.346521600000000000e+09
3.000000000000000000e+01,7.000000000000000000e+01,2.740000000000000000e+02,5.900000000000000000e+01,5.700000000000000000e+01,2.800000000000000000e+01,2.200000000000000000e+01,2.100000000000000000e+01,5.100000000000000089e-01,8.368134800000000000e+09
3.400000000000000000e+01,6.500000000000000000e+01,2.400000000000000000e+02,5.800000000000000000e+01,5.400000000000000000e+01,3.200000000000000000e+01,2.500000000000000000e+01,2.200000000000000000e+01,5.100000000000000089e-01,8.388125000000000000e+09
3.200000000000000000e+01,7.400000000000000000e+01,2.530000000000000000e+02,5.800000000000000000e+01,5.300000000000000000e+01,3.200000000000000000e+01,2.700000000000000000e+01,2.300000000000000000e+01,5.100000000000000089e-01,8.410133400000000000e+09
3.200000000000000000e+01,8.000000000000000000e+01,2.860000000000000000e+02,6.000000000000000000e+01,5.700000000000000000e+01,3.300000000000000000e+01,2.500000000000000000e+01,2.400000000000000000e+01,5.000000000000000000e-01,8.429763500000000000e+09
3.800000000000000000e+01,8.200000000000000000e+01,3.210000000000000000e+02,5.700000000000000000e+01,4.700000000000000000e+01,3.100000000000000000e+01,2.700000000000000000e+01,2.400000000000000000e+01,5.000000000000000000e-01,8.448162000000000000e+09
4.000000000000000000e+01,1.120000000000000000e+02,3.320000000000000000e+02,5.100000000000000000e+01,4.400000000000000000e+01,3.000000000000000000e+01,2.800000000000000000e+01,2.500000000000000000e+01,5.100000000000000089e-01,8.467967000000000000e+09
3.800000000000000000e+01,1.130000000000000000e+02,3.400000000000000000e+02,5.600000000000000000e+01,4.400000000000000000e+01,2.400000000000000000e+01,2.300000000000000000e+01,2.500000000000000000e+01,5.100000000000000089e-01,8.486597500000000000e+09
3.900000000000000000e+01,1.020000000000000000e+02,3.590000000000000000e+02,5.700000000000000000e+01,4.400000000000000000e+01,2.400000000000000000e+01,2.600000000000000000e+01,2.500000000000000000e+01,5.100000000000000089e-01,8.508553000000000000e+09
3.600000000000000000e+01,1.000000000000000000e+02,3.280000000000000000e+02,5.600000000000000000e+01,3.600000000000000000e+01,2.300000000000000000e+01,2.600000000000000000e+01,2.300000000000000000e+01,5.100000000000000089e-01,8.529118000000000000e+09
3.500000000000000000e+01,1.070000000000000000e+02,3.020000000000000000e+02,6.500000000000000000e+01,4.100000000000000000e+01,2.300000000000000000e+01,2.500000000000000000e+01,2.500000000000000000e+01,5.100000000000000089e-01,8.549837700000000000e+09
3.100000000000000000e+01,7.700000000000000000e+01,3.190000000000000000e+02,6.500000000000000000e+01,4.100000000000000000e+01,2.200000000000000000e+01,2.800000000000000000e+01,2.400000000000000000e+01,5.100000000000000089e-01,8.569906600000000000e+09
3.000000000000000000e+01,8.200000000000000000e+01,2.970000000000000000e+02,5.500000000000000000e+01,3.700000000000000000e+01,2.500000000000000000e+01,2.900000000000000000e+01,2.400000000000000000e+01,5.100000000000000089e-01,8.588753600000000000e+09
2.800000000000000000e+01,8.300000000000000000e+01,2.960000000000000000e+02,5.800000000000000000e+01,3.700000000000000000e+01,2.600000000000000000e+01,2.500000000000000000e+01,2.300000000000000000e+01,5.100000000000000089e-01,8.611139700000000000e+09
2.800000000000000000e+01,8.600000000000000000e+01,3.050000000000000000e+02,5.700000000000000000e+01,4.400000000000000000e+01,2.700000000000000000e+01,2.600000000000000000e+01,2.500000000000000000e+01,5.100000000000000089e-01,8.631926100000000000e+09
2.500000000000000000e+01,8.100000000000000000e+01,2.970000000000000000e+02,5.600000000000000000e+01,4.000000000000000000e+01,2.600000000000000000e+01,2.400000000000000000e+01,2.200000000000000000e+01,5.100000000000000089e-01,8.652097900000000000e+09
2.700000000000000000e+01,9.400000000000000000e+01,2.630000000000000000e+02,5.400000000000000000e+01,3.700000000000000000e+01,2.700000000000000000e+01,2.100000000000000000e+01,2.200000000000000000e+01,5.100000000000000089e-01,8.670987500000000000e+09
2.600000000000000000e+01,9.000000000000000000e+01,2.770000000000000000e+02,5.300000000000000000e+01,3.800000000000000000e+01,2.400000000000000000e+01,2.000000000000000000e+01,2.200000000000000000e+01,5.100000000000000089e-01,8.690366100000000000e+09
2.700000000000000000e+01,9.000000000000000000e+01,2.490000000000000000e+02,4.900000000000000000e+01,4.000000000000000000e+01,2.300000000000000000e+01,2.000000000000000000e+01,2.300000000000000000e+01,5.100000000000000089e-01,8.710351400000000000e+09
2.800000000000000000e+01,8.900000000000000000e+01,2.330000000000000000e+02,5.600000000000000000e+01,3.700000000000000000e+01,2.300000000000000000e+01,2.100000000000000000e+01,2.200000000000000000e+01,5.100000000000000089e-01,8.731576500000000000e+09
2.500000000000000000e+01,9.500000000000000000e+01,2.470000000000000000e+02,4.900000000000000000e+01,3.700000000000000000e+01,2.300000000000000000e+01,1.900000000000000000e+01,2.000000000000000000e+01,5.100000000000000089e-01,8.750311100000000000e+09
2.800000000000000000e+01,8.900000000000000000e+01,3.010000000000000000e+02,5.200000000000000000e+01,4.400000000000000000e+01,2.600000000000000000e+01,1.900000000000000000e+01,2.100000000000000000e+01,5.100000000000000089e-01,8.769697700000000000e+09
2.800000000000000000e+01,9.400000000000000000e+01,2.850000000000000000e+02,5.100000000000000000e+01,4.500000000000000000e+01,2.700000000000000000e+01,1.900000000000000000e+01,2.100000000000000000e+01,5.100000000000000089e-01,8.788840400000000000e+09
2.800000000000000000e+01,9.500000000000000000e+01,2.750000000000000000e+02,5.200000000000000000e+01,4.800000000000000000e+01,2.900000000000000000e+01,2.000000000000000000e+01,2.200000000000000000e+01,5.100000000000000089e-01,8.810022500000000000e+09
2.700000000000000000e+01,9.100000000000000000e+01,2.960000000000000000e+02,4.100000000000000000e+01,4.800000000000000000e+01,2.700000000000000000e+01,1.800000000000000000e+01,2.300000000000000000e+01,5.100000000000000089e-01,8.829607900000000000e+09
2.600000000000000000e+01,8.100000000000000000e+01,2.690000000000000000e+02,4.100000000000000000e+01,4.800000000000000000e+01,2.700000000000000000e+01,1.900000000000000000e+01,2.400000000000000000e+01,5.100000000000000089e-01,8.849145500000000000e+09
2.400000000000000000e+01,7.200000000000000000e+01,2.180000000000000000e+02,4.200000000000000000e+01,4.500000000000000000e+01,2.600000000000000000e+01,2.200000000000000000e+01,2.400000000000000000e+01,5.100000000000000089e-01,8.869253100000000000e+09
2.200000000000000000e+01,6.800000000000000000e+01,2.190000000000000000e+02,4.300000000000000000e+01,4.800000000000000000e+01,2.800000000000000000e+01,2.400000000000000000e+01,2.500000000000000000e+01,5.100000000000000089e-01,8.889313800000000000e+09
2.300000000000000000e+01,6.600000000000000000e+01,2.130000000000000000e+02,4.500000000000000000e+01,5.200000000000000000e+01,2.600000000000000000e+01,2.400000000000000000e+01,2.500000000000000000e+01,5.100000000000000089e-01,8.911475200000000000e+09
2.900000000000000000e+01,6.900000000000000000e+01,2.670000000000000000e+02,5.600000000000000000e+01,5.000000000000000000e+01,2.600000000000000000e+01,2.600000000000000000e+01,2.500000000000000000e+01,5.000000000000000000e-01,8.930119700000000000e+09
3.400000000000000000e+01,8.100000000000000000e+01,2.750000000000000000e+02,5.200000000000000000e+01,4.900000000000000000e+01,2.800000000000000000e+01,2.700000000000000000e+01,2.400000000000000000e+01,5.000000000000000000e-01,8.950623500000000000e+09
3.500000000000000000e+01,8.700000000000000000e+01,3.020000000000000000e+02,5.200000000000000000e+01,5.000000000000000000e+01,2.800000000000000000e+01,2.500000000000000000e+01,2.600000000000000000e+01,5.000000000000000000e-01,8.970730200000000000e+09
3.900000000000000000e+01,9.000000000000000000e+01,3.220000000000000000e+02,5.300000000000000000e+01,4.900000000000000000e+01,2.600000000000000000e+01,2.400000000000000000e+01,2.400000000000000000e+01,5.000000000000000000e-01,8.991332100000000000e+09
3.800000000000000000e+01,9.000000000000000000e+01,3.290000000000000000e+02,5.200000000000000000e+01,4.000000000000000000e+01,2.400000000000000000e+01,2.400000000000000000e+01,2.200000000000000000e+01,5.000000000000000000e-01,9.013390000000000000e+09
3.700000000000000000e+01,1.010000000000000000e+02,2.900000000000000000e+02,5.300000000000000000e+01,4.100000000000000000e+01,2.600000000000000000e+01,2.500000000000000000e+01,2.300000000000000000e+01,5.000000000000000000e-01,9.033898500000000000e+09
3.500000000000000000e+01,8.700000000000000000e+01,2.980000000000000000e+02,5.600000000000000000e+01,4.900000000000000000e+01,2.600000000000000000e+01,2.500000000000000000e+01,2.400000000000000000e+01,5.000000000000000000e-01,9.052290400000000000e+09
3.400000000000000000e+01,9.100000000000000000e+01,3.030000000000000000e+02,5.600000000000000000e+01,4.800000000000000000e+01,2.400000000000000000e+01,2.700000000000000000e+01,2.200000000000000000e+01,5.000000000000000000e-01,9.071957100000000000e+09
3.000000000000000000e+01,8.500000000000000000e+01,3.260000000000000000e+02,5.800000000000000000e+01,4.600000000000000000e+01,2.400000000000000000e+01,2.700000000000000000e+01,2.300000000000000000e+01,5.000000000000000000e-01,9.091998300000000000e+09
3.000000000000000000e+01,8.300000000000000000e+01,3.350000000000000000e+02,6.000000000000000000e+01,4.400000000000000000e+01,2.400000000000000000e+01,2.600000000000000000e+01,2.200000000000000000e+01,5.000000000000000000e-01,9.115051500000000000e+09
3.100000000000000000e+01,7.100000000000000000e+01,3.470000000000000000e+02,5.300000000000000000e+01,4.400000000000000000e+01,2.500000000000000000e+01,2.500000000000000000e+01,2.400000000000000000e+01,5.100000000000000089e-01,9.135865700000000000e+09
2.900000000000000000e+01,7.100000000000000000e+01,3.820000000000000000e+02,5.700000000000000000e+01,4.600000000000000000e+01,2.400000000000000000e+01,2.400000000000000000e+01,2.200000000000000000e+01,5.100000000000000089e-01,9.153507200000000000e+09
3.200000000000000000e+01,7.800000000000000000e+01,3.790000000000000000e+02,5.500000000000000000e+01,4.500000000000000000e+01,2.600000000000000000e+01,2.100000000000000000e+01,2.500000000000000000e+01,5.100000000000000089e-01,9.172191900000000000e+09
3.100000000000000000e+01,7.700000000000000000e+01,3.450000000000000000e+02,5.900000000000000000e+01,4.400000000000000000e+01,2.800000000000000000e+01,2.100000000000000000e+01,2.400000000000000000e+01,5.100000000000000089e-01,9.192844900000000000e+09
3.300000000000000000e+01,8.200000000000000000e+01,3.300000000000000000e+02,5.600000000000000000e+01,4.500000000000000000e+01,2.700000000000000000e+01,2.100000000000000000e+01,2.500000000000000000e+01,5.100000000000000089e-01,9.216428500000000000e+09
2.900000000000000000e+01,7.900000000000000000e+01,3.000000000000000000e+02,5.300000000000000000e+01,4.700000000000000000e+01,2.500000000000000000e+01,2.100000000000000000e+01,2.300000000000000000e+01,5.100000000000000089e-01,9.236225700000000000e+09
2.900000000000000000e+01,8.200000000000000000e+01,2.370000000000000000e+02,4.600000000000000000e+01,4.100000000000000000e+01,2.400000000000000000e+01,2.000000000000000000e+01,2.400000000000000000e+01,5.100000000000000089e-01,9.255146800000000000e+09
2.400000000000000000e+01,7.500000000000000000e+01,2.210000000000000000e+02,4.900000000000000000e+01,3.800000000000000000e+01,2.500000000000000000e+01,2.000000000000000000e+01,2.100000000000000000e+01,5.100000000000000089e-01,9.274024500000000000e+09
2.700000000000000000e+01,8.000000000000000000e+01,2.470000000000000000e+02,4.400000000000000000e+01,4.000000000000000000e+01,2.300000000000000000e+01,2.000000000000000000e+01,2.100000000000000000e+01,5.100000000000000089e-01,9.294706500000000000e+09
2.400000000000000000e+01,7.300000000000000000e+01,2.500000000000000000e+02,4.300000000000000000e+01,3.900000000000000000e+01,2.400000000000000000e+01,1.900000000000000000e+01,1.800000000000000000e+01,5.100000000000000089e-01,9.314956900000000000e+09
3.000000000000000000e+01,7.500000000000000000e+01,2.340000000000000000e+02,4.400000000000000000e+01,3.400000000000000000e+01,2.600000000000000000e+01,2.000000000000000000e+01,1.900000000000000000e+01,5.100000000000000089e-01,9.333962000000000000e+09
2.900000000000000000e+01,8.300000000000000000e+01,3.080000000000000000e+02,4.600000000000000000e+01,3.000000000000000000e+01,2.700000000000000000e+01,1.900000000000000000e+01,1.900000000000000000e+01,5.100000000000000089e-01,9.352608900000000000e+09
3.000000000000000000e+01,7.300000000000000000e+01,2.920000000000000000e+02,4.500000000000000000e+01,3.300000000000000000e+01,2.400000000000000000e+01,2.000000000000000000e+01,1.900000000000000000e+01,5.100000000000000089e-01,9.370873100000000000e+09
2.700000000000000000e+01,6.900000000000000000e+01,2.690000000000000000e+02,4.300000000000000000e+01,3.300000000000000000e+01,2.700000000000000000e+01,2.000000000000000000e+01,2.000000000000000000e+01,5.100000000000000089e-01,9.391553000000000000e+09
3.100000000000000000e+01,8.200000000000000000e+01,3.250000000000000000e+02,4.400000000000000000e+01,3.400000000000000000e+01,2.700000000000000000e+01,2.100000000000000000e+01,2.000000000000000000e+01,5.100000000000000089e-01,9.414094800000000000e+09
2.500000000000000000e+01,8.200000000000000000e+01,3.270000000000000000e+02,4.200000000000000000e+01,3.600000000000000000e+01,2.500000000000000000e+01,2.000000000000000000e+01,1.900000000000000000e+01,5.100000000000000089e-01,9.433847100000000000e+09
2.600000000000000000e+01,8.700000000000000000e+01,2.690000000000000000e+02,4.600000000000000000e+01,3.500000000000000000e+01,2.400000000000000000e+01,2.000000000000000000e+01,2.000000000000000000e+01,5.100000000000000089e-01,9.452299400000000000e+09
2.600000000000000000e+01,8.500000000000000000e+01,2.910000000000000000e+02,4.700000000000000000e+01,4.100000000000000000e+01,2.400000000000000000e+01,2.200000000000000000e+01,2.000000000000000000e+01,5.100000000000000089e-01,9.470713300000000000e+09
2.700000000000000000e+01,9.100000000000000000e+01,2.890000000000000000e+02,4.900000000000000000e+01,4.100000000000000000e+01,2.400000000000000000e+01,2.100000000000000000e+01,2.200000000000000000e+01,5.100000000000000089e-01,9.489642600000000000e+09
2.700000000000000000e+01,9.100000000000000000e+01,2.530000000000000000e+02,4.900000000000000000e+01,4.500000000000000000e+01,2.200000000000000000e+01,2.200000000000000000e+01,2.300000000000000000e+01,5.100000000000000089e-01,9.512395300000000000e+09
3.000000000000000000e+01,9.500000000000000000e+01,2.570000000000000000e+02,5.300000000000000000e+01,4.400000000000000000e+01,2.900000000000000000e+01,2.500000000000000000e+01,2.300000000000000000e+01,5.100000000000000089e-01,9.530882800000000000e+09
2.800000000000000000e+01,8.200000000000000000e+01,2.570000000000000000e+02,5.200000000000000000e+01,4.700000000000000000e+01,3.200000000000000000e+01,2.500000000000000000e+01,2.200000000000000000e+01,5.100000000000000089e-01,9.549590800000000000e+09
2.800000000000000000e+01,9.400000000000000000e+01,2.450000000000000000e+02,4.900000000000000000e+01,4.300000000000000000e+01,3.100000000000000000e+01,2.300000000000000000e+01,2.200000000000000000e+01,5.100000000000000089e-01,9.568566500000000000e+09
2.900000000000000000e+01,9.300000000000000000e+01,3.180000000000000000e+02,4.900000000000000000e+01,4.000000000000000000e+01,3.400000000000000000e+01,2.400000000000000000e+01,2.000000000000000000e+01,5.100000000000000089e-01,9.587597200000000000e+09
2.900000000000000000e+01,8.200000000000000000e+01,3.170000000000000000e+02,4.900000000000000000e+01,3.600000000000000000e+01,3.500000000000000000e+01,2.400000000000000000e+01,2.300000000000000000e+01,5.100000000000000089e-01,9.606288000000000000e+09
2.700000000000000000e+01,7.600000000000000000e+01,3.170000000000000000e+02,4.600000000000000000e+01,4.300000000000000000e+01,3.200000000000000000e+01,2.300000000000000000e+01,2.200000000000000000e+01,5.100000000000000089e-01,9.629164000000000000e+09
3.000000000000000000e+01,8.300000000000000000e+01,3.310000000000000000e+02,4.300000000000000000e+01,4.100000000000000000e+01,2.900000000000000000e+01,2.300000000000000000e+01,2.400000000000000000e+01,5.100000000000000089e-01,9.648526600000000000e+09
3.000000000000000000e+01,7.100000000000000000e+01,3.420000000000000000e+02,4.500000000000000000e+01,3.700000000000000000e+01,2.900000000000000000e+01,2.200000000000000000e+01,2.500000000000000000e+01,5.100000000000000089e-01,9.669820100000000000e+09
3.300000000000000000e+01,7.200000000000000000e+01,2.770000000000000000e+02,4.300000000000000000e+01,3.900000000000000000e+01,2.400000000000000000e+01,2.400000000000000000e+01,2.500000000000000000e+01,5.100000000000000089e-01,9.688936000000000000e+09
3.100000000000000000e+01,8.100000000000000000e+01,2.630000000000000000e+02,4.400000000000000000e+01,4.000000000000000000e+01,2.600000000000000000e+01,2.500000000000000000e+01,2.100000000000000000e+01,5.100000000000000089e-01,9.711294700000000000e+09
3.300000000000000000e+01,8.200000000000000000e+01,2.580000000000000000e+02,4.700000000000000000e+01,3.200000000000000000e+01,2.400000000000000000e+01,2.600000000000000000e+01,2.200000000000000000e+01,5.100000000000000089e-01,9.730041900000000000e+09
3.300000000000000000e+01,7.900000000000000000e+01,2.710000000000000000e+02,4.700000000000000000e+01,3.100000000000000000e+01,2.500000000000000000e+01,2.800000000000000000e+01,2.100000000000000000e+01,5.100000000000000089e-01,9.748981600000000000e+09
3.200000000000000000e+01,8.100000000000000000e+01,2.440000000000000000e+02,4.300000000000000000e+01,3.200000000000000000e+01,2.500000000000000000e+01,2.700000000000000000e+01,2.000000000000000000e+01,5.100000000000000089e-01,9.768774100000000000e+09
3.000000000000000000e+01,7.500000000000000000e+01,2.400000000000000000e+02,4.700000000000000000e+01,2.900000000000000000e+01,2.500000000000000000e+01,2.600000000000000000e+01,2.100000000000000000e+01,5.100000000000000089e-01,9.787903800000000000e+09
3.000000000000000000e+01,6.900000000000000000e+01,2.320000000000000000e+02,5.000000000000000000e+01,3.700000000000000000e+01,2.400000000000000000e+01,2.500000000000000000e+01,2.200000000000000000e+01,5.100000000000000089e-01,9.808210500000000000e+09
2.800000000000000000e+01,6.700000000000000000e+01,2.810000000000000000e+02,5.000000000000000000e+01,4.000000000000000000e+01,2.400000000000000000e+01,2.300000000000000000e+01,2.200000000000000000e+01,5.100000000000000089e-01,9.826295300000000000e+09
2.700000000000000000e+01,6.700000000000000000e+01,2.550000000000000000e+02,4.800000000000000000e+01,4.300000000000000000e+01,2.300000000000000000e+01,2.200000000000000000e+01,2.200000000000000000e+01,5.100000000000000089e-01,9.845326100000000000e+09
2.800000000000000000e+01,6.400000000000000000e+01,2.650000000000000000e+02,4.700000000000000000e+01,4.500000000000000000e+01,2.300000000000000000e+01,2.300000000000000000e+01,2.300000000000000000e+01,5.100000000000000089e-01,9.864660600000000000e+09
2.800000000000000000e+01,7.200000000000000000e+01,2.880000000000000000e+02,4.100000000000000000e+01,4.500000000000000000e+01,2.300000000000000000e+01,2.300000000000000000e+01,2.300000000000000000e+01,5.100000000000000089e-01,9.883643700000000000e+09
2.600000000000000000e+01,7.300000000000000000e+01,2.920000000000000000e+02,3.500000000000000000e+01,4.300000000000000000e+01,2.700000000000000000e+01,2.200000000000000000e+01,2.200000000000000000e+01,5.100000000000000089e-01,9.903848700000000000e+09
2.800000000000000000e+01,7.500000000000000000e+01,2.710000000000000000e+02,4.300000000000000000e+01,4.000000000000000000e+01,2.700000000000000000e+01,2.100000000000000000e+01,2.200000000000000000e+01,5.100000000000000089e-01,9.925327700000000000e+09
2.900000000000000000e+01,7.600000000000000000e+01,2.540000000000000000e+02,4.500000000000000000e+01,3.600000000000000000e+01,2.800000000000000000e+01,1.900000000000000000e+01,2.100000000000000000e+01,5.100000000000000089e-01,9.945625800000000000e+09
3.000000000000000000e+01,7.200000000000000000e+01,2.540000000000000000e+02,4.800000000000000000e+01,3.900000000000000000e+01,2.900000000000000000e+01,2.000000000000000000e+01,2.100000000000000000e+01,5.100000000000000089e-01,9.965990300000000000e+09
2.900000000000000000e+01,7.200000000000000000e+01,2.390000000000000000e+02,5.200000000000000000e+01,4.600000000000000000e+01,3.000000000000000000e+01,2.000000000000000000e+01,2.200000000000000000e+01,5.100000000000000089e-01,9.985412900000000000e+09
3.000000000000000000e+01,6.600000000000000000e+01,2.250000000000000000e+02,6.300000000000000000e+01,4.700000000000000000e+01,2.800000000000000000e+01,2.000000000000000000e+01,2.100000000000000000e+01,5.000000000000000000e-01,1.000934240000000000e+10
3.000000000000000000e+01,7.100000000000000000e+01,1.900000000000000000e+02,5.800000000000000000e+01,5.000000000000000000e+01,3.100000000000000000e+01,2.200000000000000000e+01,2.200000000000000000e+01,5.000000000000000000e-01,1.002839230000000000e+10
3.000000000000000000e+01,7.000000000000000000e+01,2.110000000000000000e+02,5.600000000000000000e+01,5.100000000000000000e+01,2.900000000000000000e+01,2.400000000000000000e+01,2.400000000000000000e+01,5.000000000000000000e-01,1.004785350000000000e+10
3.000000000000000000e+01,7.500000000000000000e+01,2.370000000000000000e+02,5.500000000000000000e+01,5.300000000000000000e+01,2.900000000000000000e+01,2.200000000000000000e+01,2.400000000000000000e+01,5.000000000000000000e-01,1.006705340000000000e+10
2.800000000000000000e+01,7.600000000000000000e+01,2.910000000000000000e+02,5.500000000000000000e+01,4.700000000000000000e+01,2.700000000000000000e+01,2.300000000000000000e+01,2.200000000000000000e+01,5.000000000000000000e-01,1.008566150000000000e+10
3.500000000000000000e+01,8.200000000000000000e+01,3.060000000000000000e+02,5.400000000000000000e+01,4.400000000000000000e+01,2.700000000000000000e+01,2.300000000000000000e+01,2.300000000000000000e+01,5.000000000000000000e-01,1.010548530000000000e+10
3.400000000000000000e+01,7.600000000000000000e+01,3.110000000000000000e+02,5.300000000000000000e+01,4.400000000000000000e+01,2.500000000000000000e+01,2.200000000000000000e+01,2.400000000000000000e+01,5.000000000000000000e-01,1.012730210000000000e+10
3.300000000000000000e+01,7.300000000000000000e+01,3.270000000000000000e+02,5.500000000000000000e+01,4.400000000000000000e+01,2.500000000000000000e+01,2.000000000000000000e+01,2.300000000000000000e+01,5.000000000000000000e-01,1.014649970000000000e+10
