87,296,673,159,59,280,109,225,18,329511700
86,342,765,169,61,249,91,229,20,361685800
82,344,779,170,53,210,89,209,21,382115800
73,371,801,182,59,269,101,215,22,402628900
77,385,718,192,62,320,97,197,23,424170300
80,374,736,175,56,347,108,233,24,438901500
84,347,622,165,57,361,123,251,25,460843000
79,326,574,145,54,371,129,242,26,479784900
82,295,503,124,55,362,272,270,27,500409300
92,267,540,109,58,370,474,481,28,521671500
92,259,445,109,62,375,632,614,29,538140100
110,215,374,91,71,495,789,698,30,558749500
159,394,376,94,73,507,850,853,31,579023200
166,395,457,143,77,509,870,922,32,597419500
174,407,420,148,83,603,807,881,33,617853200
198,537,587,218,97,676,840,869,34,637328100
210,585,601,233,94,645,862,870,35,657042900
184,486,604,236,101,769,888,839,36,677114700
180,496,577,218,101,861,917,778,37,697225000
176,504,628,226,93,842,936,879,38,717562000
152,415,482,166,81,796,938,870,39,737440300
127,355,473,142,81,886,855,814,40,758171700
122,371,467,139,71,784,868,733,41,778516800
122,374,525,149,64,684,820,728,42,799067700
113,373,614,161,66,616,801,592,43,819270500
118,322,639,177,66,652,817,552,44,837006900
141,311,654,177,68,644,866,571,45,859428300
145,290,640,175,74,695,837,577,46,876950500
144,331,627,162,76,688,868,569,47,898550800
150,331,508,146,85,735,875,568,48,918815300
153,336,502,118,83,697,905,596,49,939012900
138,383,495,124,87,762,834,615,50,959038000
136,400,488,126,89,752,897,650,51,979405500
154,357,456,120,89,753,876,703,52,998433600
153,366,535,124,87,698,882,698,53,1018940400
154,410,537,126,87,811,749,683,54,1039379500
154,398,528,120,93,821,833,734,55,1059328700
172,390,588,119,104,867,797,723,56,1077184400
172,459,549,120,109,908,920,722,57,1097263700
163,485,537,120,104,944,923,714,58,1117152700
154,439,512,121,105,908,915,696,59,1137143400
145,461,543,129,98,858,853,693,60,1159370600
137,495,565,131,93,964,816,703,61,1178737900
163,560,641,130,86,947,734,797,62,1198133300
202,579,656,113,88,976,737,837,63,1218453600
201,699,745,123,90,957,799,882,64,1238058100
203,691,715,115,83,835,845,824,65,1262385500
214,665,647,111,76,647,821,826,66,1280302400
181,585,694,126,77,673,810,711,67,1301109800
156,628,645,126,73,614,803,773,68,1320347300
168,536,523,110,76,712,755,771,69,1338599900
166,548,566,110,74,829,751,824,70,1359280200
159,552,570,113,75,838,811,808,71,1379749100
161,580,402,94,77,860,771,875,72,1397801600
185,475,449,93,89,895,807,915,73,1418586000
185,435,459,92,89,904,886,937,74,1439403500
203,409,459,100,100,892,864,966,75,1457490500
204,528,520,108,112,1015,906,1014,76,1478449600
220,500,582,111,112,1005,935,1026,77,1498401900
205,529,511,110,108,1048,973,965,78,1518586800
226,613,533,109,112,1063,963,972,79,1537902700
249,731,515,105,134,1171,1014,907,80,1559453900
270,727,460,95,137,1119,966,896,81,1577089900
286,732,370,82,143,1218,1008,913,82,1598309300
316,714,428,111,184,1297,993,920,83,1619114800
341,706,418,118,187,1371,946,887,84,1639386600
355,627,386,118,191,1369,955,958,85,1657749900
358,581,483,125,189,1362,992,972,86,1678591000
371,682,498,133,195,1361,960,1010,87,1698713100
351,725,431,105,180,1355,955,1067,88,1719247500
352,722,507,106,188,1316,945,1120,89,1739287500
363,730,591,134,209,1282,940,1106,90,1759100800
390,788,602,132,210,1261,860,1137,91,1778892800
471,784,679,142,226,1231,905,1083,92,1799365200
541,789,704,184,263,1207,934,1085,93,1816941900
545,857,679,191,269,1268,968,1050,94,1838803600
618,872,687,187,255,1298,892,1051,95,1859230000
610,881,669,190,256,1369,1007,971,96,1877430500
539,864,604,185,236,1427,953,959,98,1917815800
490,904,705,160,191,1392,948,871,98,1917829800
550,964,698,159,188,1302,954,944,99,1937781200
489,983,664,153,186,1280,984,960,98,1957850700
502,981,646,147,199,1235,941,1060,97,1977432800
538,955,649,152,206,1127,991,1042,96,1997830300
537,927,559,136,192,1063,914,1022,95,2017704600
453,822,630,131,179,1056,823,877,94,2037555900
391,729,657,137,167,1001,761,787,93,2057804500
351,687,626,139,140,1075,674,637,92,2078071700
282,651,645,143,125,1051,657,625,91,2098150400
242,596,611,145,121,1074,641,564,90,2118285700
219,503,603,198,105,969,626,556,89,2138471900
220,510,669,201,75,949,593,519,88,2158861500
188,433,780,200,68,801,531,510,86,2198508400
192,429,763,190,57,726,323,421,86,2198589100
179,419,781,219,68,669,278,403,85,2219150000
180,407,764,223,72,697,281,371,84,2239158700
172,416,642,214,75,611,290,350,83,2258985700
167,408,532,215,73,592,284,234,82,2278673400
130,382,549,220,75,602,252,175,81,2303004700
134,391,557,202,65,561,239,152,80,2318580000
133,398,559,152,62,510,221,149,79,2338715100
130,440,590,146,62,542,233,146,78,2358932700
135,426,598,149,67,503,233,113,77,2378834000
147,420,561,152,71,485,214,103,76,2399463100
143,408,635,154,86,483,210,105,75,2417178100
133,374,663,147,87,469,232,85,74,2437109300
143,344,647,142,88,354,184,173,72,2477991800
168,356,619,139,83,283,210,175,72,2478005300
181,392,691,132,79,279,213,179,71,2497708200
177,376,642,136,61,420,223,177,70,2517728700
176,390,523,134,54,433,209,179,69,2538926300
161,375,574,138,49,402,188,96,68,2557746000
153,393,619,145,51,402,136,83,67,2577979600
138,363,572,146,48,407,133,75,66,2598281100
132,357,622,130,54,320,115,73,65,2618074000
137,362,725,149,55,292,85,63,64,2637824300
146,391,706,154,53,280,83,55,63,2657979300
122,354,711,155,52,275,83,52,62,2677741100
106,357,790,170,56,275,82,49,61,2697480100
103,349,763,162,51,170,69,42,60,2717135400
130,324,734,146,48,162,61,36,59,2739313600
125,254,854,143,49,162,65,39,58,2759089800
123,255,940,195,59,166,68,42,57,2779199500
125,261,886,196,59,220,58,40,56,2799197600
133,266,888,194,56,234,90,48,55,2818690000
96,249,925,194,55,251,95,46,54,2838233100
108,259,825,203,57,251,92,48,53,2857531100
122,253,746,142,46,255,90,46,51,2898263200
126,232,769,120,43,217,96,47,51,2898278200
122,238,792,122,50,303,95,50,50,2917758700
132,253,708,121,53,318,95,50,48,2957859100
126,249,711,95,47,320,94,47,48,2957871600
138,291,799,103,49,315,95,49,46,2998671800
165,297,834,110,53,327,102,50,46,2998686200
178,292,819,104,49,257,80,41,45,3018893700
230,316,843,102,55,333,103,49,43,3058511400
228,337,901,113,56,347,110,53,43,3058526400
225,317,803,111,54,352,110,50,42,3078727300
217,403,806,134,57,329,96,50,41,3099132700
205,401,804,134,55,302,94,48,40,3118822400
138,388,817,142,64,407,79,51,39,3138284800
141,388,810,143,64,417,70,46,38,3158309200
129,399,803,174,75,415,76,52,36,3198022100
107,330,806,173,76,419,83,50,36,3198040200
116,374,880,189,84,453,97,57,35,3218568100
115,397,897,193,77,388,105,49,34,3238762600
119,383,860,196,77,388,110,49,33,3257109300
113,365,937,179,74,398,107,45,32,3277637700
110,352,905,176,71,397,105,43,30,3317726300
105,315,892,164,67,463,314,40,30,3317739300
106,297,930,158,65,461,389,80,29,3338158400
107,335,1037,170,65,466,421,83,28,3358517300
137,367,1015,179,79,475,450,89,27,3378596000
152,433,979,175,83,519,453,92,26,3398233300
155,431,933,182,80,501,354,94,24,3438833600
164,419,889,200,83,424,270,70,24,3438871300
163,409,789,199,82,413,236,67,23,3459038700
165,527,764,187,65,399,189,62,22,3478667700
159,519,851,202,65,342,184,63,21,3498532900
161,569,870,214,85,232,160,62,20,3518820100
173,648,970,205,85,280,166,68,18,3557415500
173,730,992,205,100,284,134,73,18,3557429600
184,719,993,332,138,289,126,88,17,3577805200
202,754,1060,384,143,280,121,95,15,3618037100
209,785,1091,440,148,278,116,100,15,3618050400
207,780,1249,482,158,215,92,101,14,3638132500
217,749,1287,505,165,191,95,102,13,3659198600
195,746,1303,501,168,174,76,92,11,3699058300
202,723,1247,528,174,180,82,96,11,3699073700
232,767,1269,571,181,172,156,98,10,3718767400
250,807,1086,623,179,187,404,118,8,3759068400
238,809,1183,636,196,205,523,138,8,3759081400
258,895,1190,611,178,211,558,151,7,3778859700
295,969,1213,638,200,236,566,170,5,3819261500
325,990,1227,612,232,243,562,188,5,3819276500
320,991,1226,565,238,274,440,177,4,3839063100
323,985,1120,568,221,343,343,165,2,3877198500
336,936,1126,589,229,350,287,169,2,3877211800
323,852,1140,671,246,338,290,154,1,3898936700
280,767,1114,635,214,338,282,140,1,3938490600
276,742,1056,613,207,336,286,155,1,3938506000
276,741,1032,609,221,287,233,155,3,3977708600
243,682,1043,602,226,370,243,147,4,3998279300
202,685,1090,417,182,382,233,224,4,3998292600
218,698,1052,443,193,442,282,271,6,4038381100
206,653,1029,435,195,706,586,475,7,4058989500
215,602,1050,391,174,788,676,556,7,4059002000
218,613,1055,361,167,899,709,653,8,4078530900
211,578,896,343,164,966,776,675,10,4118603200
204,507,820,275,136,1015,902,840,10,4118616600
225,521,853,263,144,1038,918,861,11,4138658500
242,566,768,254,148,1104,983,864,13,4178349300
238,529,668,194,124,1020,1053,863,13,4178361900
257,565,718,176,136,1096,1117,934,14,4198671600
276,548,701,166,142,1115,1195,871,16,4238623300
279,551,638,144,136,1109,1130,817,16,4238636400
259,525,627,189,137,1066,1063,843,17,4258679200
270,484,634,200,144,1126,1024,877,19,4299164400
247,437,595,190,130,1057,962,870,19,4299181800
205,458,582,187,119,992,762,841,20,4318782800
185,427,698,197,105,824,727,789,22,4358445000
193,469,708,163,93,761,762,756,22,4358458500
197,500,741,159,87,698,706,779,24,4397926000
210,483,693,153,79,640,712,765,25,4418109400
213,508,685,151,80,664,789,726,25,4418123400
222,560,627,180,79,651,758,733,27,4458116200
222,536,654,164,74,588,686,803,28,4478525100
206,571,575,150,67,540,780,776,28,4478537400
235,583,581,153,68,523,762,702,30,4518538400
224,550,596,155,60,444,696,707,31,4537063800
208,461,596,125,55,406,664,717,31,4537077200
206,427,591,133,61,395,635,665,33,4577425600
222,316,661,131,67,438,539,694,34,4597560700
191,304,669,131,71,442,590,692,34,4597578600
198,325,719,141,73,426,539,663,36,4638278400
197,321,669,112,71,444,578,668,37,4658174000
210,383,582,99,69,482,597,637,38,4678368700
187,375,453,96,65,439,637,563,39,4698238700
195,376,435,94,62,392,544,552,40,4718137000
182,401,387,80,61,457,658,583,41,4738402700
194,452,434,107,69,464,651,665,42,4758142100
166,425,501,116,68,456,666,625,43,4778287000
168,438,509,119,62,433,653,620,44,4798730300
143,436,514,119,65,507,716,666,44,4798742000
144,436,521,115,62,482,648,651,46,4838867700
138,379,557,106,54,477,689,593,47,4859098800
132,354,590,116,51,484,671,588,47,4859112000
165,357,601,109,51,504,698,583,49,4897176300
192,375,633,111,47,425,667,530,50,4917040900
215,387,631,117,51,422,670,563,51,4937508900
209,419,556,102,49,439,605,547,52,4957347800
210,403,462,77,54,454,603,544,53,4977321800
197,437,468,80,56,473,654,513,54,4998258400
182,429,458,85,60,471,660,522,55,5018237800
164,412,389,73,58,488,618,550,56,5040132500
178,437,363,75,61,532,643,549,56,5040147000
176,428,368,85,66,572,641,650,58,5078239800
166,392,344,82,64,584,538,666,59,5098289800
175,386,299,73,60,607,467,668,60,5118909600
178,379,340,81,71,634,524,625,61,5139023300
167,336,390,74,70,623,508,621,62,5158918500
172,360,376,59,65,595,568,588,62,5158929900
193,384,388,61,63,564,571,588,64,5198642200
197,433,400,69,69,682,604,586,65,5219027900
187,464,367,58,57,691,593,589,65,5219039700
196,487,295,61,65,761,631,681,67,5258997100
201,465,272,60,64,739,587,673,68,5278846200
177,538,285,58,73,837,566,717,68,5278858600
169,519,260,45,82,900,585,726,70,5319207400
184,597,264,47,85,952,551,725,71,5339055200
173,593,268,49,86,973,573,667,71,5339067900
181,651,253,52,106,1069,608,760,73,5378556300
209,669,234,53,103,1077,693,713,74,5398653700
217,659,257,58,96,1003,655,772,74,5398675100
209,577,250,57,101,1060,694,785,76,5438458000
203,637,244,53,103,1161,704,789,77,5458192800
200,638,365,56,81,1155,687,693,78,5478278400
178,563,365,59,89,1176,613,744,79,5498379700
174,589,355,63,97,1272,713,711,80,5518881700
169,599,376,64,93,1214,741,742,80,5518895900
195,540,368,64,86,1109,734,729,82,5559411100
189,475,251,57,88,1069,728,721,83,5577395300
187,487,207,55,81,1061,733,667,84,5597078300
168,452,230,51,83,1072,661,653,85,5618906200
194,521,248,51,78,1083,688,767,86,5638882000
189,657,249,53,84,1167,703,840,87,5658862800
187,701,248,56,87,1220,770,912,88,5678688300
215,741,246,60,96,1177,861,955,89,5698757200
266,805,228,78,107,1200,904,1008,90,5718721700
277,817,231,96,170,1261,925,980,91,5738923500
290,739,252,106,182,1273,1003,926,92,5758982400
369,800,264,114,191,1421,1035,873,93,5779083300
458,826,329,135,216,1571,1059,923,94,5797057500
576,834,352,139,216,1537,1125,954,95,5819060700
592,893,340,141,215,1542,1149,954,96,5838986900
623,884,368,146,218,1515,1116,1032,97,5859193100
667,833,412,159,224,1395,1102,1057,98,5878942100
661,788,387,150,212,1270,1110,1081,99,5898743500
575,776,370,153,235,1288,1064,1071,98,5918503800
570,681,367,159,217,1375,1080,1093,97,5938805100
539,694,384,157,225,1443,1090,1064,96,5958857100
465,720,338,147,225,1422,1084,1150,95,5978991800
428,766,324,149,234,1434,995,1085,94,5999133100
403,777,337,141,208,1318,973,1054,93,6018929700
378,854,326,130,200,1182,946,1046,92,6038733500
366,842,295,122,177,1034,848,1025,91,6058581000
324,896,381,117,162,1054,804,962,90,6079100700
247,857,587,108,127,933,753,887,89,6098992400
205,789,720,125,118,914,649,813,88,6118816500
179,619,741,129,94,845,425,642,87,6138326400
164,589,780,137,92,872,353,526,86,6158294200
139,387,797,158,81,885,225,250,85,6178392700
126,339,711,183,78,881,183,202,84,6198322100
135,375,602,175,69,871,170,131,83,6218172300
128,383,597,186,66,821,159,121,82,6238086800
107,370,682,185,56,734,162,139,81,6258456900
104,396,675,179,54,482,121,138,80,6278210900
143,385,667,160,46,447,113,137,79,6298202800
122,355,648,155,49,457,112,134,78,6317908000
123,341,675,141,56,571,139,118,77,6337399700
121,308,582,139,53,499,123,76,76,6357403900
150,279,576,121,54,499,126,68,75,6377475100
147,249,572,112,55,488,126,59,74,6397637700
151,220,703,107,52,460,121,56,73,6417619300
151,222,692,92,41,245,73,51,72,6437528400
151,225,704,115,46,189,58,43,71,6457402400
120,203,694,118,46,175,42,36,70,6477316000
81,167,684,125,43,141,33,32,69,6497150600
71,155,608,138,41,115,25,30,68,6519774400
71,156,588,146,41,83,24,31,67,6539514400
69,177,577,136,39,101,50,32,66,6557284500
77,244,638,151,41,95,50,38,65,6577287500
88,268,609,153,41,94,52,39,64,6597360200
91,275,619,139,41,91,54,39,63,6617362900
92,284,718,139,42,92,58,40,62,6637698300
102,276,794,145,44,57,36,38,61,6657504600
97,219,776,129,41,54,52,35,60,6679138000
78,205,795,116,43,55,53,33,59,6697115200
79,229,814,123,43,50,53,33,58,6719241000
77,227,765,115,45,152,51,32,57,6739020300
69,220,717,99,42,176,57,32,56,6759038500
67,220,679,94,46,224,54,30,55,6778961700
66,204,778,90,46,236,53,30,54,6798838800
71,178,728,93,46,241,52,33,53,6819014500
70,198,702,101,47,205,49,34,52,6839256800
65,212,697,100,46,190,50,34,51,6858836300
65,251,701,115,44,140,47,34,50,6879273100
63,260,723,120,47,124,46,34,49,6899063900
65,273,763,113,52,316,48,33,48,6918825600
77,249,785,109,53,324,49,35,47,6939315300
82,260,736,122,58,324,52,40,46,6958828900
84,250,789,120,60,356,61,41,45,6979057600
86,251,674,118,60,359,63,41,44,6997304800
94,318,704,150,63,212,66,48,43,7017753300
83,324,720,150,58,188,66,44,42,7037788700
89,343,788,166,63,195,70,45,41,7057420700
89,334,761,164,62,221,69,45,40,7077683500
91,362,846,166,67,304,78,47,39,7097639200
85,322,802,154,58,314,76,39,38,7117545500
91,330,831,158,64,315,77,44,37,7138630700
82,296,864,142,57,319,77,39,36,7158655100
82,320,859,141,62,324,79,40,35,7178654800
77,302,837,138,55,263,71,38,34,7198532500
70,315,848,129,55,246,70,40,33,7218378100
63,300,830,156,55,248,70,37,32,7238269000
58,312,777,148,50,235,65,35,31,7258156800
57,310,825,149,46,182,62,35,30,7278374900
78,391,869,199,60,228,68,43,29,7298388500
83,425,818,205,64,242,67,57,28,7318583400
86,447,858,201,64,239,67,68,27,7338817900
92,470,849,230,70,269,72,95,26,7359100900
101,495,843,243,78,264,78,99,25,7379196900
95,481,757,227,74,207,75,107,24,7399170400
96,439,838,234,73,194,77,101,23,7419139100
99,431,784,245,75,204,82,97,22,7439366000
99,411,825,233,70,162,79,77,21,7459017200
97,376,812,260,75,134,74,77,20,7479251500
108,344,942,318,90,136,75,69,19,7498995400
109,388,1033,331,99,131,78,71,18,7519909700
117,469,1055,331,104,129,74,77,17,7538253700
148,521,1031,383,127,127,81,85,16,7557672000
155,583,1095,384,127,109,72,85,15,7577795800
153,594,1092,337,125,100,71,83,14,7598487100
162,611,1170,353,125,105,69,89,13,7618393900
160,620,1302,406,134,91,70,85,12,7638284500
131,591,1333,368,115,86,57,73,11,7658215700
153,619,1307,382,121,91,61,80,10,7678339500
185,650,1278,453,136,92,68,96,9,7698414500
206,716,1188,495,155,95,72,97,8,7718205200
224,738,1015,489,171,120,85,104,7,7738030400
297,898,979,614,232,176,102,135,6,7757864100
301,973,1051,631,253,185,103,137,5,7777619900
320,1013,1166,635,256,186,105,141,4,7798006900
358,1081,1105,707,293,210,117,159,3,7818285400
356,1095,1167,730,288,195,111,158,2,7838209800
334,1025,1202,668,264,155,104,146,1,7857930300
336,969,1170,669,259,155,106,149,0,7877461400
322,967,1021,640,258,158,99,146,1,7897678700
281,866,1124,559,214,147,93,127,2,7917870200
278,807,1161,529,223,166,94,173,3,7937576900
284,899,1154,491,217,324,157,207,4,7957056700
269,837,1066,440,194,418,168,276,5,7977466700
254,761,1035,424,183,447,195,356,6,7997624300
236,750,899,344,171,520,240,481,7,8017725500
245,721,747,271,153,769,424,565,8,8037628000
188,528,705,213,125,877,470,737,9,8058121800
196,492,670,201,131,940,608,768,10,8078271500
215,518,629,154,122,1043,696,864,11,8098078500
207,465,611,138,110,1055,731,861,12,8117756200
206,482,603,140,90,1030,666,847,13,8137726100
213,505,512,161,95,995,684,763,14,8157416800
239,566,492,164,91,958,600,914,15,8177746500
211,527,467,160,87,871,514,851,16,8197667500
215,536,410,163,98,822,459,824,17,8217617100
204,530,380,152,99,735,437,850,18,8238453600
198,475,391,123,93,693,485,848,19,8258406100
159,435,413,107,80,684,509,708,20,8278594400
168,458,491,124,84,655,555,674,21,8298942500
169,451,515,110,70,664,551,657,22,8318002200
163,455,517,103,62,579,605,662,23,8338634600
159,440,494,100,57,589,629,656,24,8358450600
150,429,465,111,50,516,596,633,25,8378379500
167,434,411,121,56,498,546,644,26,8398395400
156,403,415,127,58,524,542,637,27,8418268100
145,366,393,130,64,594,529,596,28,8438720400
171,373,385,131,62,566,502,674,29,8458876500
178,404,397,122,63,578,515,635,30,8478961200
146,405,457,90,59,583,550,631,31,8498728900
165,396,406,158,81,562,564,632,32,8518286900
173,399,388,174,92,499,554,740,33,8540275300
159,401,382,179,98,401,615,636,34,8557941900
154,387,420,186,103,381,642,633,35,8577863100
159,384,502,197,99,366,613,602,36,8597527100
143,377,501,144,79,366,652,644,37,8617360600
152,373,510,123,64,362,694,497,38,8637466300
153,380,511,114,52,359,584,501,39,8657790400
152,336,475,105,45,371,536,483,40,8678047200
143,266,284,73,47,387,566,533,41,8697890000
146,252,347,77,53,515,558,621,42,8717614700
152,255,344,75,51,512,599,609,43,8737250900
159,285,343,73,53,503,569,634,44,8757108200
157,306,358,79,52,535,585,689,45,8777134100
162,415,467,75,49,540,577,728,46,8797066000
160,461,453,75,47,421,561,648,47,8819237600
136,457,443,74,44,386,472,689,49,8858856600
122,495,444,74,44,394,584,687,49,8858874100
150,505,431,66,41,326,589,665,50,8878319200
155,475,376,77,49,376,564,666,51,8898642100
161,438,328,67,43,361,546,642,52,8918785300
169,449,329,66,42,357,520,610,53,8938884500
177,402,324,66,40,373,457,593,54,8958699700
150,438,318,66,45,395,477,637,55,8978682500
171,429,208,43,39,395,578,585,56,8997408000
167,438,226,41,48,472,566,588,57,9016938500
154,475,221,39,49,505,557,665,58,9037316000
152,483,222,38,54,526,549,669,59,9057473200
202,461,287,54,56,537,584,750,60,9077452900
180,430,439,63,58,512,550,781,61,9096997500
198,414,436,65,51,486,569,827,62,9117527800
219,401,437,65,52,457,597,803,63,9137805400
236,354,437,67,51,489,574,839,64,9157683700
273,375,403,54,48,486,492,718,65,9177750700
409,396,265,53,53,488,458,726,66,9197525500
433,441,234,54,57,519,446,702,67,9217516700
428,418,231,54,65,648,493,718,68,9237074800
433,478,269,53,64,629,552,650,69,9259444100
398,482,273,55,63,655,583,705,70,9277074400
274,462,220,47,60,683,603,791,71,9299102500
233,532,212,43,56,709,665,805,72,9319112100
249,559,237,49,62,806,677,857,73,9339079200
228,541,215,54,60,796,638,894,74,9359126900
223,575,199,50,63,928,634,889,75,9379080900
242,610,213,56,66,950,661,865,76,9398684100
240,543,221,59,71,979,668,853,77,9418201900
223,504,191,57,64,907,669,840,78,9438132200
232,487,174,56,74,958,664,860,79,9458148300
234,422,188,63,81,906,717,902,80,9478218300
206,489,175,61,84,970,700,832,81,9498122400
220,546,169,61,85,961,657,849,82,9518316100
244,639,169,61,93,1020,627,811,83,9539587600
259,682,155,61,90,1092,738,818,84,9557229900
287,772,126,59,91,1213,833,807,85,9577485300
328,787,128,65,108,1295,881,889,86,9597420800
368,766,125,68,116,1299,949,908,87,9617563800
451,834,131,76,111,1247,981,884,88,9637346400
545,866,138,83,124,1235,940,936,89,9657480900
572,839,143,86,143,1166,853,912,90,9677496900
641,870,174,99,143,1080,859,898,92,9718297200
648,865,179,97,149,1110,883,898,92,9718311900
594,892,176,98,164,1140,988,991,93,9739166500
531,860,182,97,158,1141,999,1050,94,9759180400
512,882,216,111,158,1162,1055,1081,95,9777005100
443,887,196,101,162,1270,1026,1035,96,9799106700
425,1004,199,109,159,1212,979,1079,97,9818843200
439,955,210,112,153,1234,882,1024,98,9838531900
452,997,209,115,163,1236,983,974,99,9858302700
497,1046,209,117,181,1325,964,994,98,9878195300
553,1016,209,122,201,1284,958,1063,97,9898289800
557,905,251,117,196,1357,951,1026,95,9938098100
545,832,470,142,189,1273,883,963,95,9938112000
502,772,688,171,182,1237,694,843,94,9961962300
454,767,703,167,151,1057,622,738,93,9977414400
341,717,711,166,102,874,564,569,92,9998033000
284,707,706,172,98,715,476,431,91,10017757700
257,681,615,175,97,826,457,399,90,10037946100
257,653,468,174,86,766,431,353,89,10057820300
200,445,618,178,76,794,324,265,88,10077890800
162,418,712,180,70,797,268,215,87,10097652200
154,395,787,196,75,791,230,166,86,10117511800
150,399,818,187,75,646,206,149,85,10137441700
129,374,827,185,87,667,203,126,84,10157050800
119,360,757,176,79,545,214,107,83,10176976500
109,307,706,180,79,495,211,72,81,10216965300
97,269,624,178,74,474,221,63,81,10216977800
108,268,590,181,74,471,218,58,80,10239170100
98,285,568,158,54,401,197,52,78,10280899900
99,298,597,160,57,311,120,45,78,10280913600
106,290,602,154,55,310,110,43,77,10297722300
129,328,687,165,60,291,76,40,75,10338963700
130,342,715,193,65,259,81,47,75,10338976400
130,323,714,198,74,429,85,47,74,10358944100
133,303,645,196,70,449,89,44,72,10399013400
120,299,628,193,72,450,86,44,72,10399029200
91,259,653,181,69,457,85,42,71,10419064200
81,235,637,142,60,459,86,36,69,10458907700
81,263,634,135,48,295,90,32,69,10458923900
89,273,658,136,48,244,82,34,68,10479005400
93,276,659,135,46,240,80,36,66,10518987600
91,287,580,112,38,224,79,37,66,10519001400
82,272,637,104,40,207,66,34,65,10539408300
81,259,599,99,37,119,59,33,63,10577747400
71,280,761,115,46,192,55,34,63,10577769800
61,291,748,109,43,213,56,31,62,10597775700
61,283,774,107,45,214,59,30,60,10637820700
59,281,762,102,40,222,57,28,60,10637861900
67,312,870,115,47,279,57,31,59,10657483400
60,293,739,105,53,334,62,30,57,10697672300
70,340,770,119,60,342,62,33,57,10697685000
85,356,805,158,69,343,64,42,55,10737578600
87,356,767,163,70,344,68,45,54,10757516300
82,339,742,157,66,334,68,44,54,10757529400
83,342,788,155,75,381,92,48,53,10777655300
76,300,784,145,70,382,94,47,51,10817911000
67,286,768,110,62,387,92,42,51,10817923500
67,312,860,112,62,389,90,42,50,10837580700
66,355,858,125,65,370,104,41,48,10877041000
69,357,860,144,52,271,91,37,48,10877053900
70,351,870,173,53,268,97,40,47,10899107000
64,348,861,173,54,263,98,37,45,10938775800
68,337,811,175,56,270,101,43,45,10938788900
83,346,780,201,61,360,81,49,44,10959072400
80,347,841,188,55,338,75,49,42,10999539000
85,342,839,174,67,330,109,51,42,10999551900
88,343,874,194,75,340,114,54,41,11019062700
87,388,926,196,79,384,114,48,39,11058570500
73,348,880,157,71,338,115,43,38,11078329700
71,366,793,160,72,400,133,47,38,11078342500
67,365,808,148,61,395,101,42,36,11117831100
71,397,910,148,60,390,96,42,36,11117843400
68,380,861,157,54,343,94,42,35,11137778300
74,359,951,198,65,315,96,48,33,11178668600
95,407,932,209,71,259,87,54,33,11178716100
114,441,995,234,79,264,91,63,32,11198336500
111,415,868,220,74,253,90,62,30,11238112900
118,395,891,216,78,243,92,65,30,11238129400
117,442,831,213,79,331,90,61,29,11257812100
112,440,892,213,74,315,69,53,27,11297991100
91,427,813,209,67,314,105,45,26,11318074800
94,433,823,218,78,318,108,47,26,11318087500
90,451,852,223,79,317,107,46,24,11357677100
127,560,910,215,81,201,105,57,23,11377380500
130,554,953,240,86,266,121,60,23,11377392400
140,580,978,250,87,318,91,60,21,11419069300
164,658,972,315,108,336,90,72,20,11438676200
166,690,1042,308,112,341,91,74,20,11438689800
141,611,1077,346,113,409,93,67,18,11478626200
142,621,987,326,119,423,77,79,17,11498489900
146,620,1051,340,138,401,99,86,17,11498502500
139,634,1110,282,123,385,99,81,15,11539582500
158,674,1027,345,129,386,99,87,14,11557693200
179,716,1122,357,166,316,100,97,14,11557707100
210,811,1158,482,214,255,105,103,12,11597289600
243,961,1147,543,229,222,88,112,11,11617469800
297,1061,1212,656,249,229,94,133,11,11617481800
310,1059,1275,759,259,220,102,140,9,11657735900
331,1124,1209,796,248,200,105,145,8,11678133700
342,1075,1250,793,236,163,106,155,8,11678147000
402,1014,1212,853,261,172,122,187,6,11718113400
400,918,1195,858,299,178,132,193,5,11738508000
414,1056,1161,807,335,210,138,197,5,11738520400
401,1020,1168,781,340,223,135,193,3,11778169100
410,1039,1240,764,335,205,147,201,2,11798122600
354,1098,1248,685,316,214,138,173,2,11798135000
324,1058,1187,626,266,213,124,155,0,11838659200
306,964,1164,568,210,304,121,217,1,11858882500
314,920,1119,590,212,369,136,285,1,11858894800
268,899,1020,528,185,373,114,291,3,11898197800
234,717,996,476,162,440,181,311,4,11918280200
213,682,965,400,163,542,263,399,4,11918293100
197,585,916,367,159,588,313,459,6,11958280600
167,573,879,246,123,776,393,587,7,11977935600
196,542,802,248,121,878,568,744,7,11977947700
199,543,732,210,108,956,622,868,9,12018225600
196,535,632,206,123,1026,611,902,10,12037834700
181,497,662,213,112,1004,609,918,10,12037847700
210,560,667,218,109,850,578,876,12,12077513700
189,535,715,228,115,848,431,805,13,12097289700
185,519,721,227,112,855,457,762,13,12097303100
190,519,718,217,81,770,682,834,15,12137117200
207,597,665,197,85,740,713,806,16,12161085400
180,488,593,216,101,738,702,779,16,12161099400
174,495,503,187,95,635,711,763,18,12198695300
177,494,486,187,114,559,737,787,19,12218954000
168,507,561,186,110,533,575,663,20,12238872400
156,415,582,190,104,525,546,681,21,12258771800
144,494,574,145,87,542,573,685,22,12279033900
137,456,552,129,85,600,561,675,23,12299021100
135,456,549,122,51,542,604,570,24,12319135700
146,454,542,127,52,473,579,559,25,12338969500
148,563,560,144,59,474,551,509,26,12359155400
146,505,573,136,60,477,525,515,26,12359167400
143,506,574,138,66,476,564,485,28,12399017000
135,501,637,138,69,525,383,443,29,12419027600
133,534,625,168,72,528,380,403,30,12438879400
122,398,554,129,63,530,391,429,31,12458961200
129,407,491,119,62,568,404,468,32,12478792900
130,403,483,116,61,521,355,506,33,12498703100
132,401,404,114,55,453,369,560,34,12518740300
119,409,431,82,51,440,338,574,35,12539588300
120,409,425,87,51,510,327,610,35,12539601300
117,355,416,85,53,495,343,610,37,12577414300
133,391,404,84,45,510,520,675,38,12597221900
137,416,391,84,47,516,528,736,39,12617481700
140,386,374,57,42,564,548,732,40,12637657800
144,389,437,63,44,524,575,762,41,12657693100
144,437,440,63,46,525,563,724,42,12677805600
123,402,472,62,47,532,443,658,43,12697591100
128,401,489,67,59,567,514,675,44,12717242200
131,416,487,68,63,555,538,692,45,12737597200
133,453,409,53,64,550,546,602,46,12758008700
128,407,399,50,61,515,584,595,47,12778303700
152,411,365,50,60,504,583,619,48,12798139600
137,435,359,48,49,435,497,495,49,12818168000
137,396,299,45,44,429,506,537,50,12837862400
123,320,286,48,46,476,481,559,51,12857582800
133,336,280,50,50,482,526,660,52,12877270500
120,325,277,53,52,494,494,618,53,12897473500
122,270,251,50,52,503,482,637,54,12917183100
117,272,179,57,51,484,431,601,55,12937427700
127,315,314,73,54,421,462,613,56,12957221800
140,330,330,77,47,447,341,554,57,12977193400
128,360,334,75,47,496,358,563,58,12998154800
134,381,341,76,52,536,383,609,59,13018407200
148,381,352,69,51,575,386,620,60,13038014700
158,385,233,51,54,718,446,659,61,13057798600
144,356,232,61,62,800,473,707,62,13077745500
146,331,267,61,60,776,551,724,63,13097831600
153,320,268,60,56,741,569,702,64,13117687700
141,433,265,66,61,785,574,715,65,13137539600
148,498,473,96,72,729,581,706,66,13157365000
152,559,488,96,69,659,664,645,67,13177595000
159,594,466,97,71,692,625,716,68,13197366000
166,604,469,98,73,743,683,726,69,13218179900
177,540,461,95,70,757,775,697,70,13238307300
163,449,276,62,55,759,746,744,71,13257736300
174,415,236,48,53,754,712,732,72,13278077400
183,379,257,53,55,756,797,669,73,13298118600
173,367,250,51,70,850,755,649,74,13318383700
165,400,244,50,72,790,657,675,75,13338568100
174,482,275,61,71,756,680,653,76,13358427000
164,512,277,64,76,844,706,641,77,13378129100
167,548,259,59,73,868,654,704,78,13398678300
167,534,252,63,68,828,766,758,79,13418794200
192,538,278,61,73,872,777,781,80,13438773500
190,474,218,54,75,882,767,842,81,13458719600
222,462,259,55,85,899,818,878,82,13478669900
228,485,280,59,89,939,856,874,83,13498853100
245,538,284,59,93,984,842,843,84,13518702600
231,530,263,58,93,1030,858,969,85,13537293900
228,558,293,59,101,1067,884,888,86,13559000400
206,636,412,73,95,1083,888,904,87,13579063600
191,692,465,87,95,1166,873,851,88,13599070100
194,778,467,91,119,1194,849,888,89,13619427100
201,837,465,95,125,1204,874,752,90,13637439800
217,897,449,96,121,1201,906,792,91,13657521300
232,856,298,94,139,1147,874,920,92,13677584900
285,805,280,97,148,1071,834,994,93,13697727100
288,757,293,100,133,1050,889,988,94,13717551900
319,779,307,102,133,1058,919,1024,95,13738071900
362,828,342,123,167,1183,918,1041,96,13758335100
352,854,360,120,164,1232,903,976,97,13778467800
393,917,327,126,186,1327,946,956,98,13798140700
410,908,329,140,206,1323,900,941,99,13818253000
448,886,348,148,218,1373,905,905,98,13838106100
472,873,389,139,201,1349,900,874,97,13858737900
473,861,381,137,195,1328,875,864,96,13878841200
442,796,358,122,169,1220,810,843,95,13898818700
428,795,400,103,138,1135,761,819,94,13919184500
359,726,383,93,122,1107,686,831,93,13939050100
266,655,545,83,106,996,598,775,92,13957061400
255,604,623,103,95,907,554,653,91,13979179500
174,549,672,123,86,786,509,568,90,13997577300
133,501,864,140,79,789,425,492,89,14017869900
118,478,887,141,71,648,343,338,88,14038335800
122,369,813,144,74,705,251,281,87,14058673600
118,333,758,131,77,693,181,235,86,14078866700
123,360,835,186,77,729,153,161,85,14098606700
114,336,606,183,76,681,139,128,84,14118995100
112,356,631,187,63,693,128,101,83,14139067900
86,355,670,194,62,545,140,75,82,14158950600
114,360,698,196,57,531,125,71,81,14178741400
106,369,602,130,55,472,122,61,80,14198371800
110,345,684,120,53,464,113,60,79,14218350800
121,332,728,129,52,279,98,46,78,14238357000
125,342,736,131,47,348,60,42,77,14258839100
95,336,756,128,46,346,54,39,76,14278492700
98,328,747,134,49,337,55,36,75,14298396700
95,354,676,158,52,329,54,37,74,14318415100
82,361,617,151,51,327,47,36,73,14338370900
87,334,512,141,46,182,42,33,72,14357948600
94,317,491,140,46,140,51,32,71,14377771600
91,293,523,133,45,136,49,31,70,14397906900
92,260,594,103,42,122,48,32,69,14418110800
88,242,570,95,45,108,48,35,68,14438242300
79,256,675,100,44,84,49,36,67,14458663000
71,294,655,112,42,58,38,36,66,14478572300
69,282,623,107,46,54,38,35,65,14498222900
68,276,580,123,54,60,54,34,64,14517997200
66,274,629,117,54,59,53,32,63,14539052900
73,292,562,110,57,61,52,31,62,14557931200
76,294,638,115,60,59,53,35,61,14577626400
76,309,664,126,57,92,63,38,60,14597654200
74,312,686,107,48,89,48,36,59,14618203400
74,329,745,116,46,96,49,36,58,14637587500
66,317,743,112,40,91,48,34,57,14657960200
70,304,734,102,39,101,48,35,56,14678286100
69,275,745,103,34,71,36,30,55,14698157600
69,279,759,103,32,78,46,31,54,14718147400
70,262,664,106,31,69,47,30,53,14738258700
71,242,635,115,32,70,47,32,52,14758404100
70,283,659,143,47,55,56,37,51,14778175300
69,295,679,142,48,66,54,37,50,14798560000
70,282,682,150,50,283,65,36,49,14818496700
68,273,655,143,50,306,67,36,48,14838162300
78,308,720,152,55,309,69,41,47,14858391800
76,315,763,138,47,315,63,35,46,14878404300
82,351,763,160,56,319,64,38,45,14902774800
85,386,752,167,59,301,78,38,44,14917875200
83,384,768,169,65,308,79,41,43,14937693400
74,401,787,169,62,306,78,38,42,14958040100
66,362,773,153,59,304,79,37,41,14977821900
59,328,821,129,54,344,100,38,40,14998562000
62,304,857,115,62,356,100,47,39,15018625300
82,326,1012,134,67,349,105,52,38,15038454200
92,366,1019,137,67,355,106,53,37,15059057500
91,364,978,149,69,383,110,53,36,15079162300
101,394,961,152,71,368,108,58,35,15098921700
101,409,949,153,61,267,89,53,34,15119094200
97,485,826,137,49,257,85,47,33,15138952000
101,531,912,125,52,257,90,48,32,15159209800
105,528,954,155,54,212,85,52,31,15177288700
102,542,931,174,57,201,66,48,30,15197263200
115,562,925,192,63,205,63,52,29,15217354100
113,500,972,206,77,245,66,60,28,15237489800
100,388,848,212,78,267,57,58,27,15257324800
111,410,833,219,91,265,56,61,26,15277202800
116,455,842,215,94,252,61,62,25,15297084600
99,416,838,215,90,231,57,56,24,15317049800
98,439,864,212,84,175,50,49,23,15337405700
119,508,983,265,106,148,59,58,22,15357291700
128,587,1067,286,100,157,91,58,21,15377309700
132,573,1107,292,102,186,109,61,20,15397283500
133,599,1122,288,102,193,111,63,19,15417659500
138,583,1121,294,105,187,112,66,18,15437450500
178,666,1127,342,121,182,116,82,17,15459410200
185,646,1070,359,137,183,97,86,16,15479297700
192,663,1065,385,146,134,80,88,15,15499020300
214,742,1117,443,155,133,85,97,14,15519098500
219,779,1117,488,170,150,87,102,13,15537926000
217,761,1009,527,186,148,86,108,12,15558425200
227,810,1053,522,193,146,90,115,11,15578668200
245,824,1128,605,212,152,91,125,10,15598453900
239,778,1059,628,229,149,90,126,9,15618483900
265,943,1140,656,242,138,94,129,8,15639254500
256,922,1249,592,233,142,86,119,7,15657454300
293,1019,1234,611,264,150,91,132,6,15677399300
276,1018,1186,570,247,139,83,122,5,15697447100
290,1069,1229,592,263,149,93,133,4,15719275700
288,1037,1144,565,255,152,93,141,3,15738986400
279,1147,1079,577,245,133,95,141,2,15759170100
227,1029,1091,559,197,118,83,123,1,15779250800
227,1029,1108,499,195,120,85,130,0,15798766900
203,959,1073,392,141,187,90,156,1,15818551700
161,827,1037,321,113,257,250,318,2,15838239900
174,628,996,336,129,407,267,423,3,15858645500
157,584,884,283,120,588,289,569,4,15878636300
151,514,711,270,116,648,548,760,5,15898737800
164,526,633,257,124,767,634,866,6,15918655800
189,515,648,287,146,826,705,886,7,15938234400
179,530,584,218,117,838,723,896,8,15958357500
181,496,570,211,118,823,757,920,9,15978772600
178,468,566,202,119,888,687,841,10,15998837300
163,446,585,195,109,811,626,799,11,16018880900
140,419,545,161,79,764,503,756,12,16038849800
128,361,545,135,74,733,488,701,13,16059003000
127,377,517,131,72,656,472,686,14,16079346300
136,396,504,124,62,544,429,789,15,16099063800
134,421,516,142,70,507,419,762,16,16118940800
133,510,567,124,65,460,416,776,17,16138651200
122,503,578,124,68,401,412,831,18,16158173700
129,504,557,127,76,411,471,752,19,16178166300
124,494,558,137,78,359,405,620,20,16198314200
151,530,526,185,84,329,390,592,21,16217892200
149,440,398,188,87,424,387,619,22,16237735500
147,414,326,190,89,508,386,553,23,16257554200
142,390,333,187,78,513,372,592,24,16277849700
142,389,340,182,75,511,461,599,25,16297984300
123,362,441,141,73,521,500,615,26,16318165500
120,383,397,132,67,460,514,547,27,16338047100
119,393,410,127,61,366,517,619,28,16358165700
109,395,407,127,64,366,477,617,29,16378137500
113,423,397,126,64,359,411,564,30,16398279300
99,336,350,95,45,344,368,534,31,16418477000
96,333,416,99,46,320,356,546,32,16438370500
102,331,411,104,48,361,399,564,33,16458150400
106,342,415,102,45,272,365,553,34,16478809900
95,301,416,98,43,270,348,538,35,16498973800
90,404,421,83,44,273,401,532,36,16519159900
90,399,411,82,41,271,416,540,37,16542457000
88,404,406,85,40,227,366,537,38,16557870400
109,392,399,86,46,401,353,626,39,16577714600
114,483,406,87,48,421,395,661,40,16597869200
121,426,507,127,53,425,341,681,41,16618123900
121,460,519,129,55,425,347,677,42,16638268700
121,467,523,125,54,409,345,605,43,16658232700
108,496,526,124,45,240,352,541,44,16678158500
119,414,533,124,43,206,327,520,45,16698173100
124,417,376,83,37,205,358,502,46,16717842500
134,441,366,74,41,225,390,511,47,16737770300
146,434,361,79,42,236,445,533,48,16757563900
149,432,367,79,43,237,441,463,49,16777525500
152,458,339,77,45,268,448,603,50,16797647300
149,471,328,85,47,267,452,658,51,16817368600
143,393,213,70,41,283,437,642,52,16837586000
122,461,176,61,39,244,441,640,53,16857237400
118,460,163,63,40,237,470,669,54,16877856400
96,462,166,66,40,267,517,549,55,16897272000
100,435,196,76,42,286,501,565,56,16917339500
103,460,199,74,39,260,497,610,57,16937633400
115,428,202,76,42,369,496,652,58,16957811500
141,464,227,86,45,420,494,636,59,16977623800
144,458,231,85,45,408,451,634,60,16998289700
139,484,196,69,41,422,466,621,61,17018245600
152,478,211,66,43,454,484,657,62,17038324200
143,446,303,71,45,407,470,612,63,17059290600
131,413,321,63,41,398,445,721,64,17077202800
152,423,344,63,43,402,461,760,65,17099172000
156,399,347,64,54,543,488,790,66,17119007200
137,462,353,64,53,521,494,782,67,17139568600
158,501,312,59,51,507,486,804,68,17159327100
159,516,327,58,58,573,544,734,69,17178838500
146,550,308,54,56,590,600,780,70,17197367400
150,592,307,51,49,507,613,738,71,17217629800
168,618,294,53,63,581,665,723,72,17237741500
151,668,318,74,69,622,715,760,73,17257487300
151,721,296,102,83,595,702,770,74,17277638900
153,680,324,117,93,588,648,712,75,17297507500
171,714,344,120,98,608,687,717,76,17317190500
173,726,340,121,95,622,700,699,77,17337253200
223,664,307,142,102,658,676,731,78,17357204400
243,630,296,130,99,714,797,727,79,17377742300
243,710,273,123,92,761,820,707,80,17397684400
257,737,288,121,89,750,791,748,81,17417639700
254,716,313,122,88,772,793,819,83,17457458100
238,816,295,83,84,851,857,798,83,17457470700
252,857,277,75,78,898,786,825,84,17477808900
292,821,271,78,89,947,793,906,85,17498264900
301,831,225,80,104,1009,801,983,86,17518206300
318,817,308,98,127,1167,816,1060,87,17537277700
311,803,355,101,132,1141,862,1017,88,17557594600
351,768,379,128,173,1201,957,1051,89,17577764300
347,765,431,135,189,1227,1013,1021,90,17598001300
330,740,479,149,199,1208,1091,924,91,17617658400
336,728,419,145,218,1221,1117,836,92,17637353900
368,728,404,148,231,1267,1082,899,93,17657908300
399,884,408,131,239,1300,1065,931,94,17677563800
433,942,375,134,240,1327,1081,937,95,17697652000
470,964,333,124,246,1388,1034,1079,96,17717415800
502,1081,387,148,247,1310,1041,1111,97,17737485600
519,1167,380,142,240,1318,1008,1060,98,17757432100
468,1110,387,149,207,1291,936,993,99,17777365100
436,1099,412,144,192,1221,905,1027,98,17797348400
397,1082,405,142,179,1207,867,972,97,17817412900
336,995,409,125,138,1144,792,884,96,17837703800
264,826,462,150,127,1025,727,860,95,17857375300
226,739,499,142,114,848,678,796,93,17897148500
190,671,564,140,106,829,538,662,93,17897162500
159,582,622,144,87,746,464,409,92,17917517800
152,488,614,129,78,739,327,300,90,17957627800
141,463,606,110,75,784,356,302,90,17957640600
144,391,622,115,74,820,305,324,89,17977183300
133,347,628,136,74,741,276,308,87,18017876800
132,364,601,145,63,639,259,301,87,18017890000
123,369,700,164,65,520,248,293,86,18037639900
118,361,700,160,66,586,179,244,84,18077399000
114,356,689,152,66,520,209,196,84,18077412400
92,401,668,130,57,526,230,178,83,18098149800
94,393,670,120,56,516,235,163,81,18138208000
106,378,610,101,51,525,232,157,81,18138220600
104,360,621,102,43,413,224,141,80,18158256100
103,366,595,101,40,384,162,73,79,18182254600
103,335,540,100,42,375,111,64,78,18197812800
91,323,493,87,40,375,94,56,77,18218051100
67,334,581,98,40,350,84,43,76,18238470100
63,339,632,100,40,181,67,43,75,18258437100
56,346,672,101,41,126,44,40,74,18278408500
59,330,778,127,38,126,39,38,73,18298590200
59,276,794,137,42,107,35,36,72,18318502500
64,285,704,125,41,86,33,36,71,18338774500
64,321,646,122,36,52,30,32,69,18378610100
66,313,836,135,42,49,31,32,69,18378636100
62,284,746,121,51,44,32,32,68,18398699100
63,293,804,128,51,42,32,32,67,18419190300
56,260,797,129,52,42,30,32,66,18439248600
50,192,828,130,52,39,29,33,65,18457489800
45,190,582,123,47,33,29,31,63,18497961200
40,219,737,118,41,29,25,28,63,18497976400
35,227,694,101,38,29,24,27,62,18517873500
35,227,674,96,37,42,26,26,60,18557395400
41,236,655,103,38,44,26,26,60,18557408100
42,219,678,106,39,43,27,29,58,18597912400
54,245,678,128,48,45,31,34,57,18617949200
62,244,803,141,49,52,35,38,57,18617962400
61,237,808,141,49,45,36,39,56,18638252500
58,226,808,138,47,47,34,37,55,18659088200
59,227,808,129,44,47,35,36,54,18679115500
50,184,791,124,33,44,31,29,53,18698689700
48,220,665,115,32,42,31,24,52,18719100200
53,238,781,118,34,43,29,23,51,18738343500
58,249,769,119,37,42,32,28,50,18758223900
61,262,840,135,38,43,32,31,48,18797920800
62,261,884,119,42,48,34,32,48,18797942000
62,236,922,128,52,51,32,34,47,18818385900
59,235,820,127,51,49,32,34,45,18858085600
63,251,906,141,54,50,31,33,44,18878394900
58,238,851,130,55,51,29,30,44,18878407300
60,242,763,129,52,56,28,29,43,18898639800
60,234,776,116,43,55,28,28,41,18938623100
68,287,860,119,46,58,30,34,41,18938636100
62,280,896,93,41,56,28,31,40,18958489800
63,273,937,94,39,55,29,32,38,18997099000
69,270,964,113,49,84,33,38,38,18997115200
75,272,921,128,53,85,37,42,36,19039572900
71,239,917,139,52,88,46,40,35,19058800100
77,234,874,161,55,89,47,45,35,19058812500
79,292,887,158,58,92,48,45,34,19079227300
78,292,805,153,53,99,51,40,32,19117208300
71,298,891,141,54,113,69,40,32,19117220500
76,315,852,139,56,117,71,41,30,19157252500
76,338,827,165,57,123,73,39,29,19177509100
74,309,843,184,59,126,76,39,29,19177545000
66,326,887,175,55,131,74,38,27,19217781400
78,363,919,198,60,152,77,40,26,19237960900
76,378,962,200,60,151,70,41,26,19237973800
75,386,1000,171,56,150,69,40,24,19278234600
98,440,979,226,66,150,67,48,23,19297871400
101,426,988,231,67,119,64,48,23,19297883100
94,405,893,232,63,73,44,46,21,19337763900
93,408,912,243,62,66,46,45,20,19357872900
101,436,836,256,66,57,45,47,20,19357887500
88,391,865,234,62,47,46,42,18,19397412100
96,438,909,242,68,49,48,49,17,19417622200
101,476,962,242,66,48,48,51,17,19417635300
105,466,970,239,67,44,46,51,15,19457386800
119,486,992,255,74,51,48,58,14,19477451100
120,511,1098,252,70,52,45,58,14,19477463900
133,501,1088,303,92,69,54,62,12,19517329200
156,577,1070,344,112,80,53,70,11,19538415000
174,620,1075,405,129,89,59,80,11,19538428100
173,597,1129,460,131,86,60,81,10,19558478700
195,650,1069,553,170,102,71,94,8,19598171500
237,691,1039,596,195,108,79,114,8,19598183800
273,788,1066,678,232,121,94,134,6,19637567800
302,848,1082,683,254,140,102,146,5,19657529200
321,898,1136,715,275,150,109,157,5,19657542300
322,944,1106,687,276,153,110,160,4,19678696200
325,980,1135,711,287,158,112,163,2,19718511000
297,928,1158,654,267,148,102,150,2,19718523400
276,948,1130,636,246,130,97,138,1,19738604100
281,974,1089,579,233,130,96,141,1,19778934100
294,928,1090,602,235,131,98,150,1,19778954700
262,850,1137,520,199,215,95,135,2,19798785200
256,783,1069,477,186,254,103,262,4,19838252700
235,642,1047,438,175,318,170,413,5,19858548500
193,535,934,399,158,364,234,549,5,19858560900
161,530,873,276,122,396,237,581,7,19898509300
146,581,692,237,116,475,266,647,8,19918270100
169,573,738,213,112,588,332,767,9,19938126300
182,612,657,215,115,697,466,878,10,19958330700
224,584,638,202,110,708,473,860,11,19978433900
255,555,600,169,96,692,487,852,12,19999123500
317,519,592,166,97,803,487,842,13,20018866000
314,478,477,145,87,828,502,729,14,20038916400
313,428,473,137,80,752,390,561,14,20038931000
285,488,568,131,78,730,423,504,16,20079241200
263,494,581,126,81,750,432,489,17,20098842500
191,488,609,104,67,550,437,612,17,20098855300
193,475,596,94,62,529,443,659,19,20139012500
194,499,595,92,62,490,430,690,20,20158547300
220,523,743,114,67,491,375,715,20,20158559700
218,477,741,115,60,472,373,814,22,20198625400
214,454,712,109,65,514,361,757,23,20218335200
192,474,701,111,63,522,340,836,24,20238673300
214,437,705,111,60,516,419,853,25,20258549500
221,387,543,111,62,514,412,823,26,20278715500
210,413,514,124,63,586,399,807,26,20278727800
209,395,514,125,58,555,408,813,28,20318442300
232,366,512,125,52,419,390,733,29,20338696700
220,372,497,122,51,419,349,748,29,20338709700
197,366,462,105,48,401,362,761,31,20378167000
209,335,454,126,55,308,360,742,32,20400600200
209,379,454,134,59,324,391,695,32,20400613400
187,423,449,135,59,290,406,676,34,20438041400
162,465,444,134,58,279,359,567,35,20457710100
153,475,477,147,57,279,358,595,36,20478048100
137,487,493,105,47,280,355,551,37,20498093800
140,461,492,95,42,253,300,631,38,20517762000
132,430,482,92,43,320,247,613,39,20539276200
132,395,479,95,44,326,267,690,40,20557208000
165,366,511,65,39,328,245,709,41,20577178800
190,340,491,85,42,282,281,808,42,20597333400
183,378,512,89,40,276,291,777,43,20617440700
184,391,520,91,40,238,324,778,44,20637848300
209,421,520,88,38,228,316,772,45,20657729600
188,428,352,86,39,238,325,730,46,20677527000
155,491,373,60,34,240,291,602,47,20697371400
163,562,415,93,39,230,297,599,48,20717063100
181,574,408,99,38,156,293,606,49,20739260200
167,552,409,100,40,147,282,558,50,20758952100
173,546,401,102,41,126,302,649,51,20779013300
181,606,360,104,40,108,387,730,52,20799220100
169,521,279,75,39,105,385,705,53,20818996800
154,528,318,70,36,78,348,698,54,20839172600
174,532,322,71,36,59,369,691,55,20859041000
165,573,353,68,37,221,403,695,56,20879202900
166,456,309,61,35,247,347,604,57,20898825300
184,497,281,51,31,247,352,571,58,20918817100
179,464,250,60,37,251,355,525,59,20938267200
154,462,276,61,38,271,365,482,60,20958383400
156,429,240,61,37,256,375,341,61,20977852800
154,510,253,64,40,246,369,355,62,20998539400
134,469,250,64,41,256,367,340,63,21019163100
163,564,235,49,38,261,441,428,64,21038899500
157,556,192,50,39,255,427,494,65,21058966400
148,525,188,70,38,169,449,504,66,21078897700
147,510,221,69,37,207,455,545,67,21098703700
155,513,246,71,38,342,540,584,68,21118826600
136,483,238,76,54,389,521,609,69,21138616700
153,532,271,80,55,404,558,641,70,21158626000
161,563,267,61,54,424,505,657,71,21178693200
163,573,279,83,62,417,611,611,72,21198671900
160,575,362,91,62,383,584,647,73,21219122900
176,547,376,93,52,450,654,659,74,21239345500
182,514,357,89,52,502,634,602,75,21259307000
175,482,365,90,55,525,702,611,76,21277030500
175,380,332,71,47,540,616,664,77,21297049600
183,390,215,58,47,494,649,592,78,21319176500
158,363,187,47,41,414,592,503,79,21339071300
126,334,165,43,43,350,603,470,80,21359170600
129,336,134,38,45,382,584,405,81,21379103100
147,509,233,50,50,416,636,445,82,21398902300
146,539,251,51,57,524,641,520,83,21418406400
165,631,250,52,58,571,705,540,84,21438537200
180,641,250,53,56,603,724,629,85,21458649400
201,655,270,56,59,661,713,690,86,21482930900
196,578,188,46,58,645,701,674,87,21498246900
186,545,268,52,62,652,671,710,88,21518376400
184,496,275,52,64,698,575,718,89,21536991800
179,654,391,55,70,724,692,723,90,21557478000
173,677,410,59,69,748,731,796,91,21577518900
185,700,412,58,92,921,735,784,92,21597243600
194,731,420,54,89,1014,754,820,93,21617723000
189,700,416,56,102,1092,795,837,94,21637472300
225,687,319,58,105,1221,761,870,95,21657441000
260,728,279,57,117,1305,756,797,96,21677353600
279,733,280,64,110,1328,886,866,97,21697478300
291,782,189,66,117,1308,894,862,98,21717137800
338,836,211,75,120,1264,932,899,99,21737081800
379,754,207,88,147,1249,907,1011,98,21757131900
421,790,246,103,162,1210,997,1065,97,21777574500
425,770,242,108,181,1212,923,1053,96,21797487400
426,731,278,117,184,1227,963,1033,95,21817691700
427,708,328,140,214,1347,978,1020,94,21837746400
448,785,356,142,207,1294,1028,994,93,21858164000
417,728,393,132,195,1245,932,950,92,21878207300
404,700,407,131,173,1147,914,933,91,21897983300
411,776,403,137,176,1087,903,916,90,21918150900
397,756,425,109,134,1010,820,909,89,21938076500
314,660,487,104,115,938,690,711,88,21957930800
262,582,446,107,105,877,615,637,87,21977827300
243,574,524,125,102,839,512,510,86,21997781700
208,390,544,144,87,811,315,391,85,22017923600
156,350,615,161,79,622,242,217,84,22037400500
135,306,572,156,77,621,252,181,83,22057573300
127,326,652,183,74,612,244,124,82,22078179900
122,417,664,171,73,540,245,109,81,22098174800
132,434,647,144,62,487,244,90,80,22118256200
122,403,564,133,52,472,232,78,79,22138382100
126,414,565,150,48,432,166,69,78,22158454500
127,419,497,125,44,386,159,59,77,22178688800
114,307,398,132,47,379,148,53,76,22198375200
86,322,485,142,50,384,121,46,75,22218490400
78,322,517,134,54,400,212,40,74,22238413300
56,303,538,128,53,358,217,37,73,22258417900
90,295,530,124,52,364,221,36,72,22278545000
89,310,577,131,47,360,226,35,71,22298379200
93,246,559,139,45,295,221,35,70,22318167800
99,249,541,138,35,171,124,34,69,22338116800
101,253,542,126,36,152,104,35,68,22358221600
68,277,577,126,36,123,84,34,67,22378671900
79,278,610,104,34,105,63,33,66,22398473300
76,291,564,87,35,86,56,33,65,22418869500
76,274,533,92,38,64,48,36,64,22438739400
74,268,553,94,36,52,48,35,63,22458282300
75,215,581,94,40,50,47,36,62,22478261300
63,183,555,102,42,47,49,40,61,22498293600
62,153,557,101,44,51,56,64,60,22518310500
58,171,614,132,50,44,54,73,59,22539326900
58,191,573,138,55,51,54,74,58,22557093400
54,184,569,134,51,50,53,72,57,22579144800
53,233,584,145,55,51,56,76,56,22599308000
47,238,645,138,51,42,47,56,55,22619189300
40,223,704,125,44,41,40,44,54,22639154500
51,261,719,135,44,52,40,47,53,22658884400
57,278,690,143,46,61,44,52,52,22678319500
58,233,713,135,43,63,38,50,51,22698119400
59,260,715,151,43,65,43,50,50,22718207600
59,271,654,139,43,125,54,54,49,22738213900
52,218,723,135,41,122,53,49,48,22758389000
51,216,783,146,43,120,52,46,47,22778071100
47,222,751,152,41,121,52,39,46,22798094100
51,212,743,138,43,140,58,40,45,22817898900
50,197,749,138,43,105,63,32,44,22837717100
52,207,738,156,44,101,65,34,43,22857756700
50,196,684,152,39,100,63,32,42,22878041800
56,212,675,157,45,140,66,35,41,22898239500
49,194,693,154,45,162,60,35,40,22918064900
62,227,816,166,50,161,57,38,39,22938169600
62,264,903,138,49,171,63,46,38,22958265700
68,305,966,135,56,172,73,56,37,22978295300
68,324,948,118,52,183,76,60,36,22998849700
81,328,941,137,67,206,80,73,35,23019028000
78,334,899,134,63,209,71,72,34,23038674300
82,314,806,149,66,222,82,70,33,23058941800
78,272,766,134,61,230,77,66,32,23078956300
77,302,781,140,60,246,73,61,31,23096920400
68,291,774,147,47,212,71,46,30,23120843600
65,288,660,147,52,209,74,43,29,23138020200
57,284,680,158,53,245,71,38,28,23157885700
61,321,664,159,55,240,67,36,27,23177691400
57,303,701,158,55,191,69,36,26,23197564900
60,353,792,159,54,187,67,36,25,23217670100
61,334,818,167,55,228,77,38,24,23238537500
63,342,806,144,53,200,71,36,23,23258869300
61,336,905,154,52,213,72,34,22,23278725500
69,372,991,161,57,228,74,35,21,23299107300
67,329,952,157,56,225,73,34,20,23317470400
71,368,975,155,56,182,65,36,19,23337380000
70,354,933,179,57,217,90,39,18,23357180800
68,325,863,173,55,215,94,38,17,23377339700
79,295,775,218,65,203,91,45,16,23397515000
80,354,800,249,78,202,93,46,15,23418176000
75,327,780,244,76,198,93,44,14,23437733200
91,337,861,257,92,277,82,46,13,23457366800
92,350,881,261,94,292,81,48,12,23477513400
87,362,872,228,88,294,81,42,11,23497771800
124,456,822,240,87,298,82,54,10,23517652300
129,472,883,269,92,299,78,58,9,23538300100
126,513,921,283,90,175,61,58,8,23557360700
130,515,965,291,89,127,56,58,7,23577464900
136,500,1033,321,91,123,71,63,6,23597290800
114,424,1060,304,90,106,72,59,5,23617803600
158,464,1029,341,126,115,86,77,4,23637799700
171,463,1062,414,140,89,89,85,3,23657672000
179,576,1056,439,146,100,91,89,2,23677096700
202,583,1008,483,163,102,87,102,1,23697615700
228,617,1111,539,180,110,91,113,0,23717589100
215,697,1216,577,183,104,80,110,1,23737217800
246,752,1215,687,197,118,83,121,2,23757601500
267,737,1379,715,206,119,82,129,3,23777619100
292,885,1409,760,236,130,87,141,4,23797513200
348,1026,1381,801,272,153,105,165,5,23817428500
365,1052,1397,805,266,160,108,171,6,23837330500
346,1046,1335,704,256,153,100,160,7,23857286100
360,1048,1208,706,278,157,114,172,8,23877393900
388,1102,1164,735,304,169,123,188,9,23897367700
323,985,1092,654,262,147,104,162,10,23917332400
345,918,1039,655,281,160,128,182,11,23937343600
357,890,1010,629,282,406,198,436,12,23957533000
329,867,888,578,257,493,217,485,13,23977133400
250,618,840,413,191,641,447,578,14,23997791200
247,571,758,386,198,809,620,692,15,24017939200
210,577,663,269,167,855,729,802,16,24037754300
196,570,661,211,158,974,751,823,17,24057464200
209,552,650,187,150,974,910,877,18,24077444700
220,547,625,169,132,958,858,907,19,24097605100
241,499,644,163,119,875,776,956,20,24117755600
230,420,562,123,100,849,703,918,21,24137523700
220,451,590,144,79,678,683,876,22,24158341900
216,430,534,145,82,694,510,879,23,24178407400
208,432,528,143,78,609,504,798,24,24198423700
186,457,517,146,71,565,512,758,25,24217730100
173,467,484,186,74,549,535,793,26,24237686600
170,404,417,163,74,467,537,729,27,24257448500
148,363,374,158,63,442,489,656,28,24277127700
146,361,372,162,65,423,609,718,29,24297100600
149,361,406,155,66,387,597,650,30,24319110700
130,335,494,124,61,421,562,578,31,24338537200
128,346,477,131,58,518,575,696,32,24358418700
135,345,477,129,59,513,618,769,33,24378385500
135,361,474,125,58,528,481,770,34,24397728100
122,351,432,122,58,527,543,838,35,24417616100
123,384,319,94,49,481,527,834,36,24437704500
129,452,307,99,49,423,501,794,37,24457708800
128,474,310,100,48,416,472,738,38,24477775800
136,459,312,100,48,396,456,685,39,24497567200
146,468,308,96,47,387,381,633,40,24517635900
147,437,334,90,49,389,396,627,41,24538703100
146,332,396,78,43,343,460,599,42,24558848300
168,355,394,82,41,254,486,670,43,24578852000
172,358,396,80,42,324,518,687,44,24598842300
166,329,391,81,41,337,547,691,45,24618699700
196,443,419,88,36,343,551,721,46,24639378700
191,473,451,90,45,352,545,697,47,24657350300
164,469,466,87,46,370,530,608,48,24677287000
163,512,469,89,42,341,538,665,49,24697304900
170,523,471,88,41,341,523,576,50,24717514600
136,444,410,75,40,344,527,614,51,24737357000
137,403,268,50,30,327,491,678,52,24759216900
139,402,329,51,30,354,520,713,53,24779038300
151,438,405,55,37,349,474,635,54,24799109800
145,443,414,57,40,408,461,713,55,24819062500
157,438,386,54,41,407,575,655,56,24839037200
156,541,388,56,43,432,608,619,57,24859138000
157,544,367,57,45,421,599,557,58,24879198700
143,521,299,54,41,403,647,630,59,24898834600
146,530,303,53,44,422,690,587,60,24918915700
132,558,306,52,49,478,611,609,61,24938622700
143,493,315,56,56,482,764,574,62,24958846200
164,602,274,56,56,448,775,634,63,24978855000
181,654,343,78,58,526,769,656,64,24999555800
173,657,363,80,55,480,787,623,65,25017245500
186,666,393,84,54,460,787,660,66,25037438500
174,695,415,85,49,496,610,682,67,25057969800
171,654,409,81,50,561,669,648,68,25077827100
146,594,327,56,50,498,670,570,69,25097356300
160,569,362,65,57,557,597,588,70,25117186200
157,586,349,67,59,642,662,496,71,25137261400
165,600,359,66,60,604,710,459,72,25157411000
150,581,361,69,61,591,625,507,73,25177321500
174,619,375,70,62,615,643,491,74,25197181500
180,692,295,58,56,599,713,604,75,25217483400
172,692,276,60,62,600,668,623,76,25237656400
196,725,199,62,73,731,635,687,77,25258091200
211,719,156,61,71,726,748,733,78,25278623500
193,689,129,60,70,736,750,756,79,25298887500
203,715,201,64,78,732,712,731,80,25318900500
226,673,198,56,69,695,813,752,81,25338355500
231,603,303,54,74,793,870,752,82,25358472700
228,642,323,58,83,801,895,747,83,25378762100
256,626,323,71,108,938,927,823,84,25399170600
256,616,316,73,112,999,980,867,85,25419283800
291,628,348,78,119,1094,991,929,86,25438868100
300,645,298,78,121,1036,1044,951,87,25458998600
305,600,282,80,126,1126,1020,942,88,25478760900
309,632,371,73,109,1058,1076,892,89,25498550800
335,683,369,77,115,1106,1047,877,91,25539039000
338,697,337,81,137,1143,1080,885,91,25539065400
336,699,307,80,129,1151,1048,948,92,25559163800
352,698,306,76,126,1086,998,964,93,25579100900
361,716,255,78,128,1075,993,955,94,25596922600
362,671,267,83,140,1081,1019,945,96,25637232400
339,744,279,83,123,1117,941,921,96,25637245000
391,723,299,90,163,1253,968,927,97,25657132200
436,725,328,104,175,1332,993,996,99,25697571600
453,694,294,113,197,1462,936,1048,99,25697598700
511,735,263,123,217,1490,896,1096,98,25717784100
597,795,261,132,229,1436,888,1074,96,25757450300
614,896,306,142,224,1398,862,1060,96,25757464500
654,944,310,149,243,1434,896,1002,95,25777405600
646,1011,330,140,229,1392,860,971,93,25817174500
594,993,386,130,197,1280,825,841,93,25817187100
493,880,583,137,179,1185,742,786,92,25837059100
416,791,601,128,149,1052,627,618,91,25859217500
264,750,592,108,92,911,446,528,90,25879110000
204,646,656,116,74,728,345,421,89,25899245900
146,525,790,144,72,681,291,386,88,25919012800
137,501,762,133,68,654,268,351,87,25938971100
109,427,863,153,69,595,186,338,85,25977169300
86,332,910,160,60,528,197,206,84,25997620500
79,304,889,158,60,505,179,155,84,25997634100
96,350,757,191,55,497,171,141,83,26017633800
93,330,751,215,61,501,163,103,81,26057584600
100,348,659,219,57,554,166,96,81,26057598400
105,323,659,223,56,534,111,66,80,26077550600
101,334,658,222,58,500,116,63,78,26118288700
87,338,642,169,52,505,113,61,78,26118303200
84,345,586,142,41,487,112,52,77,26138834100
79,340,546,149,47,320,101,53,76,26158910900
70,382,609,165,48,277,102,49,75,26178818100
72,362,604,172,54,263,87,42,74,26198715100
64,324,655,174,55,255,139,39,73,26218886300
74,421,625,181,60,237,182,43,72,26238950200
78,443,765,174,65,237,188,39,70,26278571200
77,418,664,149,65,207,185,38,70,26278583200
84,404,640,143,59,195,182,34,69,26298687100
86,391,616,151,61,209,147,31,68,26318905800
83,276,638,162,59,210,85,30,67,26338558100
86,285,487,191,55,199,69,35,66,26358312900
91,326,664,219,65,206,83,39,65,26378075200
93,340,714,223,75,270,93,43,63,26417582100
106,411,777,237,76,261,95,51,63,26417596900
109,440,846,223,75,266,96,50,62,26437080500
107,419,874,201,71,275,107,49,60,26477206000
102,395,789,169,61,291,94,47,59,26496963200
98,402,767,164,53,208,79,45,59,26496975700
86,324,718,141,51,222,79,39,57,26538243700
77,280,716,132,48,214,95,37,56,26559262000
77,255,737,104,50,249,92,43,56,26559302000
82,234,809,123,57,215,101,47,55,26578649800
83,235,880,173,58,209,104,47,53,26618474400
90,267,920,176,60,234,101,48,53,26618486900
100,321,926,178,65,306,113,52,51,26658071700
97,322,870,170,61,301,109,47,50,26677721500
95,319,774,160,55,297,101,43,50,26677734300
95,314,791,118,54,300,97,46,48,26717484000
88,319,887,112,51,290,103,45,47,26737202400
85,274,868,107,45,297,89,40,47,26737214600
83,273,875,113,43,271,81,40,45,26779316100
84,282,897,129,46,280,81,140,44,26799162600
78,297,852,121,43,282,80,146,44,26799174500
92,318,789,210,57,256,72,154,42,26838683600
94,341,791,242,62,276,60,166,41,26858899500
91,340,855,245,65,282,63,168,41,26858920600
93,333,930,252,65,280,66,105,40,26879272400
90,308,931,250,65,277,67,94,38,26918774100
82,231,904,190,53,301,80,83,38,26918788500
67,193,893,151,66,368,102,70,36,26958309900
72,253,895,152,63,373,104,63,35,26978175500
80,328,864,164,66,376,102,59,35,26978189100
87,328,897,166,67,385,104,59,33,27018848600
80,332,898,154,67,411,113,59,32,27038613600
82,328,860,161,58,292,91,43,32,27038650100
109,332,870,212,77,277,92,53,30,27078662600
134,444,880,221,94,270,112,65,29,27098660500
133,477,870,225,98,283,115,69,29,27098672800
136,503,856,242,107,302,115,73,27,27138935300
137,501,881,242,103,315,110,71,26,27157062300
124,493,900,231,101,313,112,66,26,27157074700
97,376,1076,242,84,312,89,53,24,27199150500
111,427,1041,269,95,307,94,57,23,27218925200
110,429,1080,268,91,267,135,55,23,27218937700
132,472,1156,314,108,228,141,64,21,27258350300
147,516,1158,370,123,227,141,76,20,27278922100
141,565,1034,363,122,228,143,76,20,27278935400
142,604,1141,379,122,259,153,75,18,27319070300
161,634,1166,403,125,231,113,86,17,27339340200
180,661,1158,458,146,227,118,87,17,27339353000
178,669,1142,430,145,230,115,78,15,27379019300
197,732,1124,423,153,228,115,89,14,27399292200
206,746,1098,523,177,168,96,94,13,27419085700
288,894,1058,636,236,141,108,118,12,27438971800
331,945,1163,687,268,154,112,141,11,27459018200
371,954,1187,751,304,164,126,167,10,27482972200
388,925,1155,817,321,163,134,174,10,27482984900
471,1056,1149,912,380,193,157,213,8,27517712200
506,1051,1125,970,421,222,169,247,7,27539190400
499,1114,976,974,410,211,166,247,7,27539204300
488,1193,980,958,393,204,160,236,5,27577023000
479,1187,1027,943,392,212,157,235,4,27597058800
410,1067,1076,805,341,183,136,206,3,27617550500
355,1084,1132,694,270,144,111,164,2,27637402800
407,1061,1214,751,327,180,125,186,1,27657433500
405,963,1305,722,327,178,129,190,0,27677283200
409,988,1240,694,314,164,124,184,1,27697187800
392,946,1190,676,298,207,122,175,2,27717356200
360,764,1151,623,286,370,197,253,3,27737552500
261,594,1051,425,202,399,196,294,4,27757418700
224,594,832,362,171,444,222,420,5,27778306100
194,483,897,299,161,507,338,499,6,27798185300
186,431,793,272,150,614,485,686,7,27818022100
148,444,755,211,121,719,567,714,8,27837916900
171,518,718,165,91,737,624,795,9,27857906500
183,507,717,170,93,741,621,784,10,27878099200
206,555,686,180,105,772,579,782,11,27898142600
208,561,649,160,98,769,510,706,12,27917755300
212,583,624,167,94,648,514,764,13,27937261100
219,566,608,145,83,634,453,789,14,27957475500
213,605,626,156,78,601,499,830,15,27977490000
204,536,570,148,58,555,495,854,16,27997554100
206,526,622,147,55,454,475,852,17,28017686500
215,491,634,139,50,506,353,847,18,28037390800
173,446,692,131,51,505,382,794,19,28057341800
165,365,660,105,52,587,345,783,20,28077341500
148,376,637,89,53,608,356,784,21,28097534300
141,395,577,87,56,617,395,727,22,28117687400
116,407,517,86,56,559,510,766,23,28137510700
117,431,409,83,59,563,561,708,24,28157617600
142,401,454,94,60,488,551,668,25,28177472500
151,383,449,95,58,488,548,587,26,28197819100
162,379,519,99,56,491,528,706,27,28217391500
187,444,549,104,56,458,443,568,28,28237415000
186,523,574,139,59,425,340,618,29,28257690400
171,560,564,138,63,497,339,625,30,28277502800
180,612,603,137,68,507,348,672,31,28297552000
174,613,548,133,66,489,312,585,32,28317354400
155,566,521,127,62,501,285,625,33,28337473200
148,497,503,80,59,492,279,626,34,28357567200
162,520,512,76,52,452,286,641,35,28377463800
140,491,459,75,47,443,319,615,36,28397619400
157,496,455,78,52,454,389,642,37,28417433800
189,514,472,83,55,470,464,611,38,28437741900
202,477,552,93,53,479,471,652,39,28457768400
198,440,501,82,53,500,481,666,40,28477649900
214,478,487,80,51,470,460,764,41,28497545000
211,463,486,77,48,503,412,767,42,28517306800
198,530,530,79,52,490,487,866,43,28538538900
184,574,506,90,55,483,516,854,44,28557830800
184,536,537,96,56,449,498,827,45,28577145700
178,505,556,99,59,546,485,755,46,28597424500
194,542,564,100,59,532,536,760,47,28617198000
213,541,507,97,56,640,413,703,48,28637144700
226,568,386,80,51,685,393,663,49,28657436100
239,677,304,73,54,717,480,739,50,28677253200
251,674,270,72,52,620,532,783,51,28697304100
238,645,265,74,51,596,533,819,52,28717168200
214,612,328,74,46,485,529,761,53,28737557400
213,540,315,63,44,504,624,764,54,28757863800
208,468,318,69,41,480,567,716,55,28777531600
183,517,349,70,50,550,540,676,56,28797775100
179,580,355,70,55,571,597,682,57,28817630900
170,552,330,70,56,556,677,729,58,28837492700
157,582,341,78,67,543,607,703,59,28857084900
148,637,367,73,73,572,629,735,60,28877161000
153,612,339,70,68,534,642,763,61,28897185500
151,674,322,68,67,530,550,656,62,28919285100
205,670,273,64,69,576,436,667,63,28937531200
222,640,250,54,59,590,490,708,64,28957746400
224,682,204,51,51,610,555,679,65,28977593100
242,786,390,81,77,649,569,686,66,28997715000
246,769,421,86,75,711,674,759,67,29018506300
208,835,427,91,79,844,710,806,68,29038469900
233,889,477,97,89,873,736,802,69,29058533900
231,846,475,100,90,877,710,807,70,29078722300
222,748,339,73,71,945,728,844,71,29099415800
227,718,356,76,73,986,673,827,72,29117780000
248,701,367,76,80,986,676,765,73,29137861900
252,676,297,71,74,1016,686,806,74,29157567300
289,593,293,69,76,1041,683,808,75,29177591200
288,574,274,68,75,982,714,795,76,29197560600
286,511,239,64,79,966,697,809,77,29217385800
277,515,218,61,73,910,727,819,78,29237735500
241,585,217,60,73,911,758,829,79,29257454700
200,634,248,64,82,924,759,868,80,29277328700
241,658,291,77,91,993,772,828,81,29297724700
237,689,282,75,95,1023,813,812,82,29317462000
271,631,318,82,96,1136,835,911,83,29338111900
316,572,354,88,102,1155,813,983,84,29357903400
332,570,341,91,117,1135,879,931,85,29377447300
300,688,315,91,128,1137,883,984,86,29397588700
315,726,313,98,133,1197,907,1026,87,29417401700
301,816,323,101,153,1243,907,994,88,29437546700
300,883,332,110,160,1283,937,972,89,29457397500
331,923,326,116,161,1388,927,1113,90,29477402000
438,867,318,116,154,1444,946,1154,91,29497432300
465,918,327,130,176,1499,997,1170,92,29517348700
489,849,390,151,180,1357,1044,1190,93,29539058200
524,823,377,159,220,1394,1020,1217,94,29558906100
549,876,394,165,240,1450,1070,1115,95,29578678500
558,975,461,185,271,1490,1083,1090,96,29598993400
561,957,492,178,265,1427,1085,1083,97,29618886900
564,996,437,162,265,1500,1057,1018,98,29638577700
535,1014,507,163,244,1447,1070,904,99,29658153600
508,991,574,168,224,1370,998,947,98,29677843300
440,909,565,149,205,1233,960,932,97,29697812200
444,885,644,152,191,1192,896,943,96,29717347300
432,820,656,157,185,1168,832,967,95,29737583400
414,782,623,138,172,1246,756,1015,94,29757764100
418,707,607,133,170,1172,752,1004,93,29777772800
391,645,609,130,156,1162,728,927,92,29797967100
335,579,495,119,152,1078,650,833,91,29818330000
319,647,463,103,134,1038,602,737,90,29838096700
290,592,426,108,115,809,553,602,89,29858097300
228,568,486,113,97,768,453,404,88,29878073200
211,544,483,125,70,778,305,330,87,29897809800
212,536,498,133,63,893,237,231,86,29917859400
161,516,609,189,64,833,192,193,85,29937881000
160,489,721,209,60,807,164,154,84,29957685600
150,456,683,220,70,767,122,129,83,29977482200
146,443,656,216,63,681,112,94,82,29998338300
128,431,721,218,63,470,105,82,81,30018153400
117,360,682,178,57,377,96,70,80,30038195400
133,369,641,152,55,358,96,60,79,30058049900
130,379,851,132,38,280,92,45,78,30078270600
129,407,908,136,48,410,110,43,77,30098541500
137,390,861,129,56,405,94,42,76,30118494700
137,368,869,130,59,392,86,43,75,30138497000
120,388,944,163,63,393,85,47,74,30158830300
129,398,789,155,62,382,90,46,73,30178512000
123,380,737,146,54,216,70,42,72,30198808700
117,377,762,186,52,210,72,41,71,30218515800
121,387,738,215,55,209,75,45,70,30238587500
107,330,617,199,51,201,73,39,69,30258524800
105,297,566,197,48,201,68,41,68,30278305800
104,293,553,195,48,152,60,41,67,30298571800
102,352,532,160,41,124,59,43,66,30318374100
115,347,545,115,32,138,58,37,65,30338673000
123,353,495,129,33,146,58,37,64,30358918300
115,371,510,130,34,130,52,33,63,30378929600
124,363,622,153,39,130,52,36,62,30398978700
128,331,648,155,41,130,50,36,61,30419071500
107,309,677,153,44,201,79,34,60,30438986500
110,305,714,149,48,225,81,34,59,30461006800
105,293,755,146,49,220,83,34,58,30477457100
102,299,800,139,47,221,83,38,57,30497487200
95,258,785,136,47,254,106,39,56,30518057100
136,299,725,132,46,215,86,148,55,30539424100
182,299,701,109,39,181,83,155,54,30558761200
188,284,671,113,40,181,79,158,53,30578487300
190,333,554,132,55,181,80,162,52,30598714400
189,337,585,126,53,143,49,163,51,30618899200
167,314,657,137,61,102,49,89,50,30639004600
118,311,671,145,62,99,53,75,49,30659233100
130,298,777,143,62,126,58,72,48,30679165100
152,353,916,180,73,135,62,74,47,30698910100
157,397,959,188,79,241,82,71,46,30718617700
163,386,997,182,74,283,97,65,45,30738560000
156,378,1013,186,75,288,95,66,44,30759052100
137,389,955,195,79,277,94,63,43,30778569300
114,346,939,155,65,286,91,50,42,30798846300
116,293,901,159,62,205,73,52,41,30818785700
137,318,878,158,63,144,60,42,40,30838821000
140,377,1048,154,62,141,61,42,39,30858857100
141,381,1072,172,70,151,59,43,38,30878909900
138,329,1018,159,62,123,56,39,37,30899122500
132,339,1042,158,60,134,57,36,36,30919276700
103,324,1010,174,65,187,52,42,35,30939082100
109,314,919,189,75,247,54,45,34,30959015800
110,337,925,173,65,242,53,42,33,30978846600
105,344,987,172,67,241,54,44,32,30999105300
111,348,990,173,69,244,75,44,31,31017427800
107,355,1035,161,63,310,91,45,30,31037496000
114,314,985,150,52,278,93,43,29,31057691000
115,323,940,159,57,288,94,47,28,31077855000
120,324,820,161,60,294,102,47,27,31097726700
120,340,749,161,60,290,91,48,26,31117676400
119,324,766,175,73,401,76,45,25,31137972100
118,332,744,203,76,428,95,46,24,31157476700
136,341,810,197,76,421,95,46,23,31177827000
154,413,849,233,86,425,92,63,22,31197673800
171,423,934,261,92,423,91,70,21,31217441100
181,519,901,289,94,242,93,74,20,31237739900
173,508,852,275,95,209,79,75,19,31257630300
164,491,871,285,92,217,79,75,18,31277734200
163,561,914,297,99,204,79,69,17,31298197500
141,549,855,271,92,195,74,62,16,31322368300
139,512,906,277,92,167,65,62,15,31337815600
138,541,982,276,91,116,55,62,14,31358213400
135,564,938,274,99,195,55,63,13,31378189300
142,536,889,290,116,212,59,74,12,31398661100
171,609,1011,363,142,223,71,92,11,31418719300
179,653,985,358,146,222,75,93,10,31438890300
212,737,949,373,159,221,94,107,9,31458678300
225,776,950,389,168,166,95,111,8,31478468700
218,800,952,379,152,149,89,105,7,31498165400
211,765,859,364,148,149,85,91,6,31518178300
239,843,932,455,155,162,90,103,5,31537086500
259,795,960,492,178,161,85,124,4,31559246500
307,789,991,556,217,155,97,146,3,31579206800
333,901,1000,574,217,152,107,157,2,31599061600
408,978,1042,663,261,158,130,189,1,31618886700
417,935,1173,656,287,275,159,213,0,31638408900
442,1043,1289,666,290,303,171,212,1,31658521700
470,1132,1306,628,299,305,179,221,2,31678550900
483,1057,1333,678,324,326,182,227,3,31698439500
441,1049,1306,615,299,345,176,229,4,31717956300
413,987,1150,550,267,492,163,314,5,31737677400
376,846,1013,516,258,606,211,367,6,31758420100
314,716,901,505,216,635,207,390,7,31778867200
265,643,808,403,183,739,348,586,8,31799259400
237,531,715,320,174,797,469,696,9,31817143900
276,557,593,304,172,721,517,714,10,31837075900
275,630,618,314,150,775,543,763,11,31857160200
258,604,626,285,138,788,607,781,12,31879321000
271,615,661,256,121,746,632,754,13,31899127300
292,667,688,248,94,735,657,765,14,31918984800
267,679,753,262,98,712,654,762,15,31938692900
269,691,805,202,90,547,627,735,16,31958666600
260,674,795,208,100,589,621,841,17,31978436300
242,616,738,202,99,594,593,833,18,31999109500
220,538,707,193,91,545,570,751,19,32018982000
239,646,726,204,91,543,537,711,20,32038874000
238,580,558,192,95,628,536,775,21,32059142400
243,560,540,165,93,653,617,733,22,32078701300
245,555,532,166,95,606,628,714,23,32098453700
241,557,594,171,94,602,553,712,24,32118920100
235,417,593,153,94,593,545,737,25,32138812400
213,373,583,149,86,583,558,798,26,32158959300
202,364,579,140,77,534,547,761,27,32178797500
189,398,571,136,72,506,537,726,28,32198612800
202,470,633,152,74,480,566,726,29,32218660000
180,475,619,177,77,478,578,703,30,32238727700
195,465,605,175,81,497,652,647,31,32258384800
202,473,601,177,71,474,587,678,32,32278361700
209,438,608,178,69,500,623,650,33,32298199700
178,355,453,151,64,502,597,647,34,32317727700
193,316,268,115,54,488,596,700,35,32337947600
164,310,257,115,46,357,514,665,36,32358116400
157,315,236,111,50,438,486,625,37,32378186100
182,341,218,109,49,422,346,630,38,32397762400
200,370,339,109,49,420,323,622,39,32417009300
176,329,463,69,38,430,303,561,40,32439203700
174,346,483,66,42,438,333,567,42,32477827300
174,340,486,66,50,331,357,566,42,32477839200
158,320,487,68,51,322,372,556,43,32497452100
148,366,421,83,55,319,388,543,44,32517400100
176,414,375,118,65,369,397,564,45,32538763600
208,426,357,119,61,372,380,524,46,32559055000
225,421,361,118,57,400,370,470,47,32578807300
222,432,361,117,56,415,383,481,48,32599246800
213,403,406,104,54,419,365,494,49,32619142000
205,448,349,68,45,392,406,507,50,32637019700
194,439,349,71,49,454,473,502,51,32657513600
177,469,364,71,47,535,463,505,52,32677817000
188,499,380,75,55,584,512,535,53,32697881100
191,473,343,85,60,611,519,526,54,32717567000
199,395,370,105,66,658,493,478,55,32737938900
182,397,359,102,65,613,448,483,56,32757594100
193,378,336,102,66,517,473,564,57,32777764300
172,339,315,102,60,482,404,522,58,32797527700
162,323,307,97,54,462,465,528,59,32817539000
141,343,355,82,49,409,485,521,60,32837582700
146,332,397,81,52,445,488,442,61,32857468600
131,313,407,79,52,493,446,302,62,32877756900
141,318,413,77,58,582,514,428,63,32897783200
165,388,399,70,62,605,501,481,64,32917704300
189,355,281,57,58,632,521,503,65,32937852300
185,404,292,67,56,658,504,570,66,32957066200
207,421,283,69,63,637,536,647,67,32977139400
204,502,327,71,60,587,558,608,68,32997080200
192,522,343,75,60,615,566,672,69,33017593100
170,530,345,74,62,594,594,756,70,33037893200
179,502,294,64,58,567,622,743,71,33058085800
178,498,352,71,57,680,648,733,72,33078169400
183,454,334,75,58,677,611,735,73,33097922200
222,395,301,72,66,757,634,705,75,33137953500
224,451,293,69,70,779,583,635,75,33137965800
228,458,282,63,78,818,585,676,76,33157722700
206,476,193,56,75,754,630,706,78,33197911800
202,455,203,54,78,759,632,678,78,33197924600
157,456,274,54,70,661,601,700,79,33218294000
159,456,303,63,69,706,598,814,81,33258398600
156,445,328,62,67,838,597,866,81,33258412100
199,462,350,68,74,854,507,883,82,33278316400
225,508,318,64,73,928,555,950,84,33318604100
230,490,262,64,73,974,687,968,84,33318631900
231,447,222,55,72,970,786,902,85,33338288900
227,539,368,67,74,877,779,917,87,33378182400
217,539,384,67,67,936,794,919,87,33378195800
233,503,384,69,68,939,855,887,88,33398040700
265,623,416,75,70,976,882,870,90,33437934600
309,731,419,79,73,1016,876,912,90,33437946700
326,706,352,85,95,1089,899,846,91,33457534500
321,867,325,80,107,1089,975,891,93,33498616000
366,891,338,86,123,1177,949,976,93,33498630600
417,842,401,105,159,1212,906,987,94,33518983400
424,834,452,115,165,1245,958,1017,96,33558575800
487,814,402,123,178,1219,1099,1043,96,33558610400
553,713,393,134,207,1349,1088,1048,97,33578745000
523,775,469,146,218,1292,1121,1034,99,33619078200
551,813,495,159,236,1406,1175,1083,99,33619116800
560,853,563,176,259,1425,1185,1065,98,33638905500
524,932,614,179,278,1521,1097,1037,96,33678914500
499,938,630,177,261,1444,1045,1001,96,33678963300
518,921,595,170,262,1447,1023,942,95,33698281900
438,902,586,156,239,1372,891,952,93,33738552800
401,805,517,131,221,1341,865,874,93,33738593000
379,750,501,115,177,1287,814,845,92,33759149600
326,692,492,106,165,1186,790,798,90,33799006900
265,599,480,102,133,1083,684,777,90,33799019900
254,579,516,150,109,936,659,582,89,33819078100
224,539,647,186,81,842,462,544,87,33858926200
180,456,628,186,71,701,398,469,87,33858940200
164,371,642,188,64,705,378,338,86,33878860000
159,409,666,197,65,716,350,210,84,33918847500
134,319,696,217,58,664,329,157,84,33918863200
135,300,646,248,58,616,316,128,83,33938287900
130,305,742,251,56,563,227,93,81,33978115200
141,310,792,254,60,518,265,84,81,33978130200
137,242,780,249,56,466,248,72,80,33998406900
138,277,735,200,53,454,237,68,78,34038012500
137,282,711,128,56,415,232,66,77,34057385000
142,290,762,140,56,278,228,63,77,34057397700
86,280,728,129,51,186,102,47,75,34097840500
82,272,732,126,50,151,77,39,74,34117700300
97,231,683,122,43,115,65,35,74,34117713300
99,240,712,114,38,80,57,28,72,34157796400
105,231,645,116,35,60,54,32,71,34178129100
107,248,626,131,36,56,40,34,71,34178142000
102,228,623,129,33,52,38,34,69,34217840000
80,228,623,128,34,59,37,33,68,34237508800
79,216,598,143,43,61,37,36,68,34237521000
86,238,537,133,44,66,31,31,66,34277592800
84,217,530,122,44,67,32,33,65,34297458000
83,251,593,130,45,70,32,33,65,34297470100
85,247,713,132,50,61,33,34,63,34338006500
77,235,699,116,42,59,29,27,62,34357701500
46,209,689,107,40,47,29,29,62,34357714500
42,216,766,107,40,45,29,26,60,34397179100
52,246,810,106,41,45,36,34,59,34417234200
58,275,851,135,40,58,33,38,58,34437011400
62,287,852,136,40,104,47,39,57,34459311700
66,276,855,149,47,163,49,42,56,34479318900
74,292,820,149,49,166,51,45,56,34479331100
69,263,828,146,49,169,51,39,55,34498957200
62,249,735,117,44,176,57,34,53,34537555600
60,254,839,114,50,156,49,36,53,34537568000
57,287,843,93,41,95,51,32,51,34577856200
49,278,885,95,44,89,50,29,50,34597329500
48,288,866,93,41,80,47,28,49,34617841400
59,296,845,104,48,51,43,33,48,34637542000
66,315,740,103,42,46,42,30,47,34657266200
68,283,731,117,48,45,38,34,46,34677058900
72,288,740,128,50,65,46,39,45,34697013300
69,304,653,126,49,82,65,40,44,34716945700
76,317,713,136,53,119,67,42,43,34737164800
89,360,790,155,73,173,75,47,42,34757149900
92,369,888,154,71,219,77,46,41,34777401400
90,357,826,143,69,217,73,42,41,34777454300
91,328,984,169,71,214,56,43,39,34817273600
82,302,982,175,65,230,60,41,38,34839237400
60,239,932,164,45,210,55,34,38,34839249500
68,275,920,170,49,180,70,41,37,34859277400
68,314,988,173,47,182,73,40,35,34897184600
74,327,889,183,52,195,73,42,34,34917213900
80,346,866,172,54,159,67,47,33,34937603700
82,340,901,183,59,145,64,49,32,34957297100
78,324,818,183,56,124,41,44,31,34977501300
84,310,768,219,69,128,64,48,30,34997903800
88,337,713,210,71,114,69,48,29,35018393300
88,383,690,225,78,105,72,46,28,35038266100
89,402,630,248,79,101,71,44,27,35058855900
110,464,671,282,88,100,81,52,26,35079010000
114,492,722,278,88,92,78,54,25,35098553100
115,492,719,271,86,111,77,53,25,35098565400
111,457,822,263,78,140,75,51,23,35140273900
119,490,901,243,82,139,80,58,22,35158076000
113,473,995,244,85,138,73,56,21,35178108900
121,536,993,228,81,137,58,56,20,35198346900
123,565,1074,233,78,120,55,58,19,35218214800
136,604,1002,236,80,85,58,62,18,35238021200
142,598,1005,278,85,95,51,61,17,35258242000
140,623,952,277,82,109,57,62,16,35278228000
142,630,932,289,85,111,56,61,15,35298414100
146,607,909,324,107,106,57,63,14,35318865000
171,737,1040,350,120,107,60,73,13,35337253100
165,727,1078,325,113,98,61,71,12,35357512200
167,738,1066,363,122,84,52,72,11,35377490600
169,674,1186,388,145,83,56,77,10,35397746000
166,682,1219,378,149,82,53,76,9,35418200200
134,564,1197,387,144,88,45,65,8,35438206400
142,588,1176,424,166,96,48,72,7,35457781300
147,566,1274,387,163,97,54,74,6,35477517200
190,666,1285,455,194,115,65,97,5,35497344600
238,785,1260,553,214,127,75,107,4,35517466900
297,866,1231,578,235,139,94,128,3,35539260400
330,908,1242,606,253,145,107,143,2,35559322400
372,1075,1263,670,278,155,118,159,1,35577547000
386,1133,1194,724,278,154,115,162,0,35597764000
387,1139,1169,737,290,161,122,175,1,35617868700
371,1104,1146,723,282,153,112,169,2,35637903800
345,1127,1059,684,260,145,99,158,3,35658291300
331,1051,970,694,262,146,96,156,4,35678379100
334,1079,994,614,235,135,95,149,5,35698093800
325,1024,1036,570,210,117,89,139,6,35718255200
313,1008,1081,580,209,123,107,143,7,35738292900
314,975,1165,589,211,206,119,207,8,35757979900
283,870,1058,504,173,285,119,251,9,35777862100
232,682,992,453,169,484,193,273,10,35797907500
237,714,1033,389,160,537,215,482,11,35818423900
225,666,926,325,142,591,359,659,12,35838543600
218,572,802,279,131,785,418,733,13,35859099000
218,567,794,242,137,904,554,858,14,35878585500
266,664,798,260,141,926,658,878,14,35878625300
237,666,804,215,125,1013,674,889,16,35918356500
242,658,832,203,131,1110,720,950,17,35938251000
270,669,823,198,134,1164,936,1006,18,35958485800
294,654,821,197,126,1075,910,949,19,35978249500
268,693,841,164,111,998,883,988,20,35998803700
289,583,676,145,110,963,902,984,21,36018737000
271,567,649,140,105,896,904,850,22,36038779600
275,574,643,139,93,660,724,748,23,36058608100
250,643,635,146,91,639,701,798,24,36078440300
247,481,533,216,100,626,657,746,25,36098299000
235,558,551,224,91,623,624,733,26,36118132200
249,571,514,225,85,587,588,837,27,36137756900
228,578,477,229,82,575,541,818,28,36157991700
226,529,505,229,78,617,497,805,29,36178171300
200,540,473,146,57,617,529,787,30,36197985800
198,473,381,124,58,500,583,798,31,36217982400
182,450,381,122,62,425,594,677,32,36237508700
171,417,388,116,60,425,647,718,33,36257396100
192,526,449,120,62,350,667,624,34,36277599800
212,532,491,142,75,334,634,677,35,36296999400
208,498,533,138,71,320,592,564,36,36316933500
223,491,531,135,63,316,521,557,37,36338908100
222,491,529,135,69,369,471,556,38,36358833900
195,338,620,119,65,377,522,566,39,36378487300
179,339,651,87,56,378,502,579,40,36398333800
162,356,646,92,59,365,530,568,41,36418179500
154,381,637,92,63,353,566,622,42,36438599500
138,398,633,92,57,239,536,642,43,36458266400
168,444,464,91,55,210,546,715,44,36478310500
180,474,427,75,48,215,555,685,45,36498453100
180,512,526,88,52,208,512,692,46,36518799400
182,512,532,87,48,190,524,645,47,36537769200
196,519,536,85,55,295,534,623,48,36557663700
193,543,549,79,54,346,481,544,49,36577499300
182,546,470,90,58,396,525,561,50,36597845100
203,520,302,74,54,406,561,563,51,36618132200
201,520,291,74,58,433,494,599,52,36638062200
198,508,284,73,54,431,509,619,53,36658125500
177,490,275,72,53,400,570,598,54,36677943000
168,435,245,52,52,489,525,555,55,36697696400
160,425,229,46,55,570,556,642,56,36717626700
167,400,245,45,51,570,567,599,57,36737708200
189,400,243,43,55,567,555,550,58,36757679300
196,402,220,47,57,596,519,684,59,36776930500
212,446,274,56,56,515,661,688,60,36799067700
216,461,278,56,53,478,654,640,61,36818923100
218,498,306,60,54,485,640,653,62,36838932100
213,514,343,61,48,470,685,655,63,36859145100
207,474,356,57,47,532,650,556,64,36879161300
202,403,301,45,48,553,534,575,65,36898908900
181,392,303,47,48,544,531,627,66,36919209400
170,387,275,45,49,579,571,672,67,36938749400
144,379,274,45,52,636,544,655,68,36958768300
163,375,254,46,52,608,604,694,69,36978753000
178,391,255,50,48,707,656,737,70,36999134500
202,380,256,52,51,703,678,711,71,37017302500
207,410,263,47,49,688,639,792,72,37037375700
214,434,307,71,54,703,643,824,73,37057467500
229,402,304,73,55,734,600,783,74,37077742400
223,392,309,72,62,749,558,745,75,37097783400
207,408,307,70,65,848,591,780,76,37117282300
204,383,292,72,65,848,597,726,77,37137086200
202,411,189,48,61,800,620,745,78,37157438000
186,490,159,40,64,822,644,779,79,37177403000
172,514,150,41,58,744,650,812,80,37197637800
183,579,236,57,60,733,622,788,81,37217736900
182,575,235,57,67,819,644,775,82,37237610300
201,571,238,58,65,838,655,762,83,37257543200
193,522,243,59,62,803,679,800,84,37277542400
210,586,249,62,65,847,694,798,85,37297222100
225,652,177,55,59,780,628,843,86,37318338000
238,695,241,57,54,692,705,883,87,37339034800
231,713,249,63,65,784,710,990,88,37359155400
265,726,245,70,77,961,786,987,89,37379305400
255,677,242,68,79,937,821,978,90,37397029000
261,604,263,68,80,974,901,945,91,37417350900
286,627,270,78,125,1098,923,959,92,37437604000
319,603,271,77,134,1176,1007,904,93,37457355700
331,638,287,80,140,1083,969,883,94,37476990000
342,717,306,86,154,1145,992,1004,95,37497067700
385,714,285,99,189,1249,1021,1022,96,37517263300
431,737,300,119,198,1346,1057,1020,97,37538456600
453,787,361,128,214,1383,1041,1039,98,37558818000
520,828,370,161,287,1458,1040,1087,99,37578507400
598,893,381,170,303,1494,1118,1078,98,37598487100
695,1000,482,176,304,1482,1134,1100,97,37618471300
739,1055,479,182,304,1381,1096,1116,96,37638253700
760,1052,465,183,298,1246,1053,1091,95,37658671600
745,1083,484,168,232,1143,1124,1052,94,37678808100
744,1044,475,167,221,1130,1044,973,93,37698647600
634,968,390,152,199,1086,962,936,92,37718539100
541,872,433,128,169,1013,917,888,91,37738402500
484,879,421,126,154,1035,866,832,90,37758124300
410,753,425,105,139,1001,699,754,89,37777590000
273,655,491,97,103,872,564,666,88,37797696300
240,546,569,127,89,770,485,559,87,37818488500
214,463,630,159,78,841,387,380,86,37838777600
161,280,654,163,68,836,277,236,85,37863428600
154,263,663,163,64,884,219,186,84,37878981000
142,246,683,185,62,839,177,137,83,37898905900
133,284,666,167,59,802,163,114,82,37919111100
126,335,641,152,66,685,135,93,81,37939219000
125,330,645,143,68,604,109,68,80,37958937100
111,326,622,144,69,472,102,55,79,37978881700
117,358,558,137,67,467,103,44,78,37999178200
109,384,571,144,65,438,96,42,77,38018853700
102,375,496,137,63,361,75,35,76,38039034600
105,407,543,148,55,241,48,36,75,38059078900
102,430,607,159,54,162,42,38,74,38078976400
89,379,673,142,51,135,34,36,73,38099246900
81,365,666,148,51,103,36,37,72,38119031700
71,323,678,150,46,60,35,34,71,38138780300
65,283,606,142,47,58,33,31,70,38158683500
65,245,613,133,47,59,32,32,69,38178939300
59,254,571,134,49,56,33,33,68,38199042300
58,194,608,137,51,52,33,35,67,38219385900
61,211,578,134,46,42,30,36,66,38238809700
64,206,576,130,45,53,31,36,65,38258849700
67,241,572,141,46,59,33,37,64,38278714500
69,245,581,145,49,62,32,36,63,38298607500
63,249,475,127,43,62,29,29,62,38318795700
61,239,482,152,47,63,28,29,61,38338460200
78,343,539,192,53,65,32,38,60,38358142200
82,350,659,203,58,61,32,38,59,38378406900
85,353,665,206,53,56,33,39,58,38398754000
85,349,671,214,54,56,34,41,57,38418302100
85,355,711,199,59,58,34,40,56,38438067800
75,322,762,183,58,48,33,36,55,38458142000
65,293,619,165,51,42,30,32,54,38478043500
58,290,661,162,53,47,28,34,53,38498137300
61,301,743,151,54,65,29,35,52,38518114400
59,292,756,141,44,83,31,35,51,38540070100
55,230,771,139,45,86,35,35,50,38558883300
58,247,880,133,45,87,38,37,49,38579199200
65,299,848,126,45,85,38,39,48,38599192100
66,303,855,138,46,72,37,37,47,38618931600
74,314,846,173,54,57,41,41,46,38638777700
69,323,838,163,50,61,40,39,45,38658551700
73,317,817,176,53,84,41,39,44,38678435900
66,259,826,179,52,85,42,34,43,38698336600
62,243,800,175,52,87,42,35,42,38718086900
65,260,836,147,46,113,55,34,41,38737981900
70,281,752,135,46,138,69,35,40,38757508800
72,280,711,127,43,150,82,37,39,38777028600
76,310,812,145,53,160,101,46,38,38799243600
79,359,771,141,52,168,104,46,37,38818968100
82,375,724,146,59,170,103,49,35,38858812900
80,356,747,143,59,198,102,51,35,38858826100
72,360,695,137,62,199,94,47,34,38878480000
76,351,631,128,58,196,74,46,33,38898438300
76,325,699,136,58,203,73,47,32,38918218200
69,324,718,127,51,197,66,42,31,38938264600
68,335,783,139,49,175,59,39,30,38957722600
89,388,869,176,70,229,58,48,29,38977590200
96,414,888,219,77,235,62,49,28,38998227700
98,413,907,234,91,224,61,50,27,39017017700
97,428,971,237,91,216,57,50,26,39037118300
106,422,984,230,95,195,45,53,25,39057137000
105,423,943,227,84,178,66,53,24,39076915000
116,428,950,261,91,173,69,55,23,39098111400
126,442,966,280,88,182,201,59,22,39119185100
147,450,913,319,104,188,226,79,21,39139211300
157,521,943,326,109,186,259,80,20,39159031000
158,523,972,348,120,116,258,80,19,39178814100
152,495,958,366,129,109,262,79,18,39198704000
181,596,935,425,148,108,192,86,17,39218199100
194,603,1103,459,163,104,183,84,16,39237991500
192,579,1096,478,162,102,139,86,15,39258238200
195,586,1146,463,163,99,172,88,14,39277832100
209,702,1244,463,173,109,178,97,13,39297731100
207,721,1227,483,192,117,187,100,12,39317649600
196,760,1228,492,194,117,180,98,11,39337588200
195,836,1281,526,196,120,179,103,10,39358309500
228,863,1272,567,226,133,148,117,9,39378228800
317,954,1237,666,284,174,170,149,8,39398597400
317,927,1349,661,272,161,165,145,7,39418279400
325,915,1276,650,275,164,159,144,6,39437914500
374,924,1272,695,298,174,170,165,5,39458119100
380,945,1228,788,292,176,176,164,4,39477697300
346,898,1280,751,252,143,183,167,3,39497173200
361,875,1185,787,256,152,170,174,2,39517280300
356,921,1190,811,258,145,169,174,1,39538758200
321,1001,1131,779,233,138,165,156,0,39558925900
308,1063,1199,659,206,152,157,217,1,39578937800
310,1034,1249,647,208,247,146,233,2,39599266700
300,1057,1231,580,202,295,153,280,3,39618939400
292,1005,1236,516,175,428,292,449,5,39658642500
278,830,1166,453,178,562,466,486,5,39658655300
254,652,1058,432,181,667,589,584,6,39678596400
205,543,865,313,131,689,738,687,7,39698778600
172,480,817,251,118,745,796,777,8,39718606900
169,411,622,214,125,887,901,841,9,39738618600
190,437,630,206,123,971,846,916,10,39758575000
193,436,649,211,125,994,782,930,11,39778312700
187,426,539,196,139,1007,640,951,12,39798716300
196,432,606,161,135,1024,609,891,13,39818274200
206,436,609,154,126,899,464,898,14,39838601400
187,405,587,146,117,734,471,902,15,39858640300
188,460,656,135,106,626,467,896,16,39878789600
180,455,657,176,97,571,488,818,17,39898621900
169,416,614,173,85,467,451,805,18,39918501600
163,408,608,177,85,477,369,655,19,39938635600
155,402,594,176,76,480,354,603,20,39958596500
182,573,674,257,96,458,359,517,21,39978552400
171,604,677,225,82,429,330,490,22,39999139500
164,589,630,220,89,468,340,537,23,40018938600
150,602,624,218,86,399,328,548,24,40040314900
141,629,631,220,87,371,287,541,25,40058442200
109,510,589,157,74,358,288,526,26,40078551800
110,473,597,159,73,384,292,540,27,40098659600
109,471,615,155,62,333,289,543,28,40118493400
128,454,629,152,63,301,337,562,29,40138411000
134,399,647,153,63,306,434,485,30,40158635100
122,309,482,104,51,308,413,458,31,40178139200
134,253,396,84,46,312,445,430,32,40198309600
135,252,363,84,48,338,433,347,33,40218142600
113,244,330,81,41,324,400,299,34,40238204800
106,242,298,69,38,319,310,304,35,40257906000
104,236,373,66,41,317,309,303,36,40277343800
104,278,356,57,37,278,259,300,37,40297154200
109,301,369,55,35,206,269,313,38,40317651600
117,305,372,55,39,267,254,353,39,40337374100
128,307,363,55,41,280,228,335,40,40357007800
153,357,350,78,36,285,252,408,41,40376989700
154,385,365,89,39,354,284,428,42,40396959300
151,371,349,89,38,388,272,421,43,40417165800
155,392,345,92,36,364,272,384,44,40437558000
147,477,366,94,37,363,268,419,45,40458144500
129,462,287,74,36,358,239,358,46,40478281900
122,421,259,58,35,293,199,411,47,40498283300
123,419,261,60,37,227,268,551,48,40518514500
111,405,259,54,35,182,284,542,49,40537062800
113,334,218,55,35,176,287,537,50,40557499600
106,304,234,72,42,227,303,565,51,40578635000
100,359,253,74,40,247,294,505,52,40599554200
96,352,258,73,39,251,231,335,53,40618713300
116,369,259,74,42,259,240,344,54,40639227200
122,362,264,74,40,258,230,342,55,40657026000
128,390,201,51,34,284,278,503,57,40699022100
162,398,312,69,40,353,323,552,57,40699038400
167,457,317,69,45,433,365,563,58,40718796300
163,484,323,70,52,500,359,562,59,40738810900
154,482,316,69,52,537,366,543,60,40758698200
152,464,337,68,51,521,344,397,61,40778361900
131,429,246,58,54,514,330,393,62,40798834900
142,414,241,58,49,476,304,430,63,40818512900
134,369,229,57,41,412,337,436,64,40838071200
134,431,229,54,42,413,368,449,66,40878274100
129,448,220,47,41,424,358,537,66,40878287400
128,447,269,38,35,364,352,523,67,40898419500
122,439,282,39,36,348,357,490,69,40938601800
146,472,289,42,39,404,347,484,69,40938614600
156,417,287,42,38,388,338,494,70,40958492800
160,401,321,50,38,441,352,439,72,40998852700
160,454,277,52,42,530,380,457,72,40998874100
153,421,257,51,41,547,426,475,73,41019278700
145,415,248,50,40,500,433,521,74,41038939200
144,411,261,52,41,539,501,565,75,41058939200
144,389,228,50,40,508,514,558,76,41078925900
135,379,206,46,35,462,582,586,77,41098695400
148,501,218,48,41,451,587,587,78,41118446300
141,519,241,50,41,468,577,599,79,41138513100
147,548,231,47,44,552,508,550,81,41178366300
141,555,178,41,45,550,516,522,81,41178379800
163,516,173,42,49,580,443,513,82,41198553500
171,465,177,48,51,657,438,582,84,41238123100
185,468,215,53,54,752,551,565,84,41238143600
189,485,210,54,53,732,642,648,85,41258557300
201,498,337,62,55,798,726,689,86,41278595800
191,541,391,73,62,809,757,793,87,41298297300
207,547,385,69,76,909,778,822,88,41318313900
206,584,359,67,85,968,828,913,90,41358481900
223,584,384,69,101,1022,855,955,90,41358511400
240,755,311,68,105,1041,851,947,91,41379094300
278,816,357,68,106,1128,879,889,92,41399302500
280,815,378,71,126,1127,925,968,93,41416975400
321,798,375,74,136,1058,862,929,94,41439308700
325,842,362,82,146,1175,896,929,96,41477552100
335,857,366,88,168,1236,883,966,96,41477565200
330,857,323,87,166,1247,907,997,98,41517509700
357,965,312,102,179,1253,850,993,99,41539275500
347,1011,338,115,176,1391,880,1021,99,41539308100
440,1087,383,136,189,1336,839,1003,98,41559083000
477,1047,381,147,213,1303,939,1030,96,41597017700
508,1129,329,154,229,1244,1006,995,95,41619035000
533,1090,362,155,218,1210,1094,941,95,41619048200
575,1077,360,151,221,1069,1099,906,93,41658298500
551,1046,323,141,199,996,1160,901,92,41678457100
518,983,381,145,197,1153,1056,828,92,41678470000
477,836,426,134,179,1134,967,770,90,41718012200
419,764,413,121,158,1055,832,646,89,41738633500
326,692,478,150,150,995,747,550,89,41738646500
215,519,557,205,146,956,519,396,87,41778447000
170,454,607,204,68,876,445,285,86,41798694500
134,380,596,214,71,1001,287,232,86,41798706900
120,292,597,233,70,1155,247,199,85,41818732300
123,259,703,255,59,1158,182,144,83,41858861300
114,240,721,237,61,1129,163,100,83,41858886500
105,243,713,234,58,938,143,74,82,41878520500
104,230,760,238,50,765,115,71,80,41918657200
86,216,840,229,52,461,111,68,80,41918671000
71,254,797,208,57,415,97,55,79,41938770600
94,299,778,174,49,343,93,44,77,41978562600
93,297,737,177,49,308,92,41,77,41978574500
98,295,727,167,57,191,60,35,76,41998627600
100,310,672,164,54,200,44,35,74,42038627300
94,266,627,129,45,300,44,33,74,42038641700
72,220,654,130,43,332,41,34,72,42078284200
71,259,733,136,46,339,34,32,71,42098582800
83,295,745,158,43,337,36,38,71,42098596600
82,278,763,197,51,312,32,39,70,42118804800
82,295,717,198,50,220,32,40,68,42158678000
74,274,643,195,49,153,31,38,68,42158690300
83,262,705,191,53,92,32,42,67,42178778300
64,247,719,181,54,70,28,37,65,42218179900
70,268,698,152,56,72,27,39,65,42218194400
70,247,753,150,57,57,28,39,63,42257626800
73,289,784,154,59,57,31,40,62,42277678300
77,333,753,150,57,61,34,43,62,42277692000
81,332,809,139,54,65,39,44,60,42317593300
74,325,771,109,46,64,45,39,59,42337379100
73,329,779,115,45,66,45,39,59,42337391600
71,307,762,120,44,66,44,37,57,42376998900
59,226,793,105,38,72,74,31,56,42397568200
59,245,698,103,37,72,73,29,56,42397580300
63,242,784,123,38,72,74,33,54,42437080900
64,233,780,120,41,70,74,35,53,42457046800
77,273,831,137,47,70,75,38,53,42457060400
82,292,788,162,51,60,42,39,51,42497363800
88,279,896,185,63,64,47,46,50,42517505000
92,277,839,190,67,93,47,45,50,42517518500
91,283,810,188,67,103,64,44,49,42538899800
82,256,810,183,67,106,64,68,47,42578579900
83,242,778,179,64,107,68,112,46,42599027900
73,226,815,156,50,99,68,135,46,42599046100
66,238,914,135,44,78,63,138,44,42638714500
74,300,944,135,44,65,45,141,43,42658402300
85,368,929,134,43,67,45,135,43,42658668300
87,377,949,165,58,75,56,104,41,42698362200
94,391,924,173,66,98,64,94,40,42718244100
92,393,870,182,65,98,64,90,39,42738262800
89,379,927,183,68,102,64,101,38,42758107400
80,303,967,185,72,104,66,97,37,42779584500
78,320,1005,174,68,103,54,94,37,42779597900
75,373,932,174,62,91,42,69,35,42817667100
94,434,995,197,74,84,48,73,34,42837497600
103,454,965,196,76,86,50,51,33,42857367400
118,503,913,229,88,87,51,54,32,42877308400
126,510,836,223,89,82,49,58,31,42897223600
125,480,885,246,93,67,56,59,30,42917220300
115,433,795,231,89,72,53,57,29,42937342700
121,435,792,253,93,72,53,60,28,42956989300
116,434,818,241,80,70,50,58,27,42979213800
112,464,821,274,78,67,51,55,26,42999366700
117,494,767,253,76,74,47,57,25,43017416400
114,503,793,255,75,90,62,56,24,43037265200
115,512,762,259,74,128,62,57,23,43057354800
145,605,740,290,100,130,66,69,22,43077271200
142,601,788,260,101,132,69,67,21,43097163900
149,588,772,283,107,132,68,73,20,43117523800
157,577,885,308,108,128,56,76,19,43137309400
184,651,994,362,131,100,63,86,18,43157013200
187,590,1055,374,132,97,69,90,17,43179098200
200,616,1090,411,147,111,70,98,16,43199019500
199,656,1237,444,152,113,73,99,16,43199031300
218,727,1216,532,191,120,80,111,14,43239309200
214,658,1202,595,192,118,82,114,13,43256992200
227,723,1220,618,204,130,83,114,12,43278844600
249,765,1231,642,219,132,90,121,11,43298555700
277,840,1208,696,239,135,95,131,10,43319969000
342,934,1205,725,277,154,115,160,10,43319981300
363,938,1228,689,280,162,123,172,8,43357796800
377,975,1224,682,286,157,130,179,7,43377612900
383,1037,1269,754,289,179,131,184,6,43398390100
377,1021,1260,749,290,208,153,183,5,43418487600
387,1060,1321,709,256,312,150,192,4,43438459500
517,1235,1269,814,351,332,185,228,3,43458350100
534,1228,1307,809,353,336,189,239,2,43478110600
541,1274,1342,742,362,325,195,240,1,43498077400
576,1331,1331,710,355,314,179,241,0,43517482100
547,1285,1230,723,344,287,177,242,1,43539471700
414,1138,1276,578,236,286,131,199,2,43557813300
363,1050,1206,552,204,343,218,282,3,43577592900
345,855,1064,496,159,490,237,443,4,43597785500
293,721,1081,444,146,509,314,493,5,43618330500
250,582,1076,314,124,495,359,568,6,43638390300
223,499,944,244,119,515,466,718,7,43658709500
227,526,903,221,128,668,598,767,8,43678351200
212,572,950,224,126,628,641,750,9,43698307400
183,637,861,250,122,650,629,791,10,43718452600
183,591,778,241,120,690,681,828,11,43738198100
194,612,776,242,120,826,650,829,12,43758454800
196,605,798,247,119,797,562,903,13,43778588900
182,635,747,240,104,816,519,955,14,43799008200
172,507,617,185,101,821,553,940,15,43818851000
184,510,617,185,119,956,509,943,16,43838328700
185,561,731,182,110,852,508,917,17,43858212100
176,639,689,181,105,774,445,789,18,43878073300
167,562,570,170,109,732,439,694,19,43898185500
164,530,557,162,110,776,391,708,20,43918090100
155,525,546,150,89,610,474,668,21,43938252200
164,495,448,150,89,572,430,615,22,43958284100
149,373,475,131,84,549,426,610,23,43978445000
148,367,502,114,79,588,412,636,24,43999082500
139,358,508,120,77,541,429,683,25,44019043800
147,386,508,122,70,494,391,638,26,44038954800
127,367,485,115,70,516,408,602,27,44058739900
129,312,538,113,67,526,406,605,28,44078743600
137,302,507,119,68,462,413,609,29,44098818500
140,302,517,112,54,421,385,536,30,44118395800
131,314,529,115,54,375,247,523,31,44138629100
139,328,516,120,56,399,217,520,32,44159027600
138,380,464,94,55,388,290,540,33,44178612500
146,376,499,89,50,383,334,544,34,44198764400
139,381,487,87,50,361,330,488,35,44218856500
132,417,479,83,49,374,356,553,36,44238459100
120,431,472,68,43,334,358,582,37,44258736400
132,429,461,77,45,329,329,706,38,44278487100
115,435,420,72,48,333,310,664,39,44298095100
123,433,422,75,53,371,437,704,40,44317443100
117,367,428,72,50,360,423,656,41,44337774400
118,404,494,80,53,340,429,623,42,44357715400
110,404,405,73,49,325,415,503,43,44377362300
111,399,397,71,46,322,420,546,44,44397642400
128,398,389,67,41,274,303,484,45,44417496300
140,488,379,69,41,269,297,522,46,44437687100
138,431,284,55,37,288,291,570,47,44457876300
134,454,296,44,34,322,355,598,48,44477599700
137,476,294,46,40,343,386,569,49,44497477500
127,478,295,45,43,474,398,626,50,44517749900
120,396,321,45,45,485,432,592,51,44539386100
120,422,240,42,52,524,475,627,52,44557479900
137,370,328,50,53,535,447,609,53,44577382700
151,391,342,50,50,521,432,627,54,44597294300
143,397,337,50,43,394,418,581,55,44617518800
150,441,313,51,44,424,389,668,56,44637319900
147,492,382,75,45,392,427,631,57,44657175400
135,528,353,76,45,400,408,648,58,44677390300
120,501,338,73,45,425,389,636,59,44698338500
139,499,339,76,46,436,429,665,60,44718163200
135,456,335,76,46,413,425,602,61,44738318100
138,396,296,54,38,426,366,574,62,44757983100
135,394,317,65,40,437,380,528,63,44777787000
139,409,328,67,39,441,380,541,64,44797614800
122,473,332,66,40,467,336,567,65,44818057800
122,517,328,64,42,579,345,596,66,44837676200
141,495,327,74,52,652,360,598,67,44857071700
155,506,224,57,50,615,360,598,68,44877040200
153,519,214,58,53,594,432,661,69,44897078100
156,494,222,61,55,582,446,626,71,44938033500
185,512,224,62,55,539,489,643,71,44938047400
174,508,150,50,50,426,461,659,72,44959419400
188,538,141,47,50,447,468,793,73,44977105100
192,574,124,45,49,469,462,766,74,44997487100
191,561,95,44,50,463,461,802,75,45018169000
165,537,91,42,48,386,452,761,76,45037796600
175,531,89,45,47,409,480,753,77,45057444400
155,487,91,48,52,474,514,653,78,45077593200
164,438,96,49,57,518,495,595,79,45097781700
159,430,91,44,55,586,496,562,80,45117569700
156,389,86,44,57,604,533,655,81,45137550300
133,409,88,39,53,642,532,651,82,45157512600
150,411,98,38,53,707,509,642,83,45177284400
139,446,98,34,48,694,525,692,84,45197621100
144,484,101,40,47,713,535,682,85,45217910600
164,530,121,44,54,827,570,754,86,45237927800
173,622,128,45,53,801,609,768,87,45258281300
164,626,121,46,72,813,742,801,88,45278195300
171,654,141,50,74,917,773,839,89,45298226800
210,687,142,51,82,916,829,920,90,45318199800
229,791,134,56,85,935,831,811,91,45338245200
244,808,128,59,95,1141,876,905,92,45358432800
252,865,132,67,104,1152,860,929,93,45378329500
297,888,147,86,116,1124,888,938,94,45399160100
390,910,181,85,120,1164,944,944,95,45419307600
391,837,189,93,133,1182,960,1058,96,45438980900
411,785,199,97,142,1051,927,1045,97,45458909600
446,778,219,104,164,1105,890,1108,98,45479080300
452,781,199,96,168,1207,959,1127,99,45502753100
411,899,204,107,191,1243,968,1120,98,45517953400
422,983,225,107,208,1291,985,1053,97,45539205500
476,1024,249,125,237,1508,983,1076,96,45557345800
514,1011,261,139,239,1544,1040,1112,95,45577531400
521,975,277,148,250,1497,1019,1105,94,45597655700
494,812,255,144,235,1481,936,1052,93,45617556800
480,739,237,138,212,1390,865,1040,92,45637652800
402,638,335,129,170,1090,839,927,91,45657538200
298,576,486,113,133,891,711,699,90,45677600400
225,531,521,132,97,795,525,540,89,45697733300
194,491,618,151,84,831,440,468,88,45717686000
160,339,652,163,79,900,390,304,87,45737517800
150,339,645,164,76,1047,323,251,86,45757552900
150,304,604,177,73,1048,260,164,84,45797613500
132,348,594,223,64,1013,216,136,84,45797627600
126,353,568,216,61,874,195,106,83,45817712800
132,382,649,216,59,702,115,95,81,45857060500
120,336,658,212,54,434,107,71,81,45857104800
109,330,606,205,48,396,103,56,80,45879218200
120,288,606,128,42,352,95,52,79,45897528500
109,293,598,120,43,282,91,49,78,45917463400
90,261,492,111,39,265,79,39,77,45937605800
82,249,427,128,35,200,59,36,76,45957447800
71,234,443,117,41,128,43,33,75,45977414300
54,200,487,142,42,113,43,31,74,45997598200
82,267,503,157,55,87,45,40,73,46017846400
85,262,564,157,56,60,41,40,72,46037867000
87,276,570,141,59,51,39,43,71,46057330200
96,279,577,148,64,52,39,43,70,46077178400
91,268,614,132,65,55,35,42,69,46097066700
67,200,645,110,56,49,27,30,68,46118954600
85,212,669,104,53,107,31,31,67,46139352300
88,247,688,112,50,122,30,32,66,46158900600
77,250,666,97,41,123,31,32,65,46178618400
80,261,646,86,36,122,31,128,64,46198888200
89,313,624,121,45,131,63,213,63,46218577300
76,323,603,130,52,100,66,226,62,46238354900
77,298,653,138,54,90,68,231,61,46258650900
78,293,723,142,54,90,67,234,60,46278747000
76,288,719,147,56,90,68,204,59,46298744600
76,233,691,128,50,84,45,115,58,46318631700
73,211,659,141,49,73,41,90,57,46338344500
73,234,717,155,49,61,39,75,56,46358107300
72,230,730,152,48,52,41,67,55,46377847200
79,255,734,170,50,49,40,50,54,46398301200
71,282,775,179,47,47,35,46,53,46418181800
68,285,821,163,41,47,33,41,52,46438097100
66,263,778,162,44,46,33,44,51,46458484700
68,281,826,187,53,46,30,44,50,46478824500
60,258,828,184,54,53,38,39,49,46498645200
61,226,841,197,59,57,39,40,47,46537461100
62,252,817,201,60,90,49,41,47,46537477800
63,286,767,181,55,109,49,37,46,46557611100
77,337,757,170,53,114,50,38,45,46577545200
94,453,830,184,61,117,48,45,44,46597500800
95,456,863,171,62,112,47,43,43,46617231300
98,436,914,173,68,98,52,45,42,46637269600
114,523,960,195,87,230,60,50,41,46659066000
114,518,985,197,90,240,66,52,40,46676950900
101,438,953,172,82,240,66,46,39,46699261100
102,449,947,187,82,242,66,50,38,46719120400
106,484,915,239,87,272,86,52,37,46737131700
88,380,893,236,72,197,89,47,36,46759027900
99,360,797,241,73,234,90,48,35,46778730100
100,431,874,253,78,236,90,49,34,46798732800
105,415,824,256,90,415,129,54,33,46818394600
99,404,879,224,84,413,115,51,32,46838924600
113,457,944,243,87,406,112,55,30,46878505500
101,464,980,247,85,384,109,53,30,46878518600
99,411,925,244,84,403,112,53,29,46898726000
97,433,1008,223,70,223,71,50,28,46918591200
99,423,946,223,78,230,75,52,27,46938790800
87,365,947,238,89,223,75,51,26,46958684100
137,488,981,323,116,223,85,74,25,46978604200
151,530,938,318,118,184,81,79,24,46998714100
150,529,993,326,122,186,84,77,23,47019119600
155,533,1125,325,122,138,77,80,22,47036953500
167,626,1178,349,125,130,81,83,21,47059174700
132,580,1207,304,106,115,69,65,20,47078971000
127,585,1227,315,103,111,68,62,19,47098931500
134,598,1125,315,101,106,59,64,18,47118481600
143,709,1024,349,108,98,61,72,17,47138220600
154,708,1040,322,117,106,58,77,16,47158302500
177,716,1004,350,132,126,60,86,15,47178332600
182,754,1039,433,144,128,58,86,14,47198269500
199,795,1115,482,159,123,65,98,13,47217957900
278,897,1187,575,203,145,86,132,12,47238283800
280,873,1152,605,201,145,86,134,11,47259047400
274,923,1115,591,197,131,86,131,10,47278762800
321,1006,1254,597,197,138,96,149,9,47298662900
320,1038,1294,619,210,138,98,149,8,47318935200
274,975,1305,601,177,120,84,122,7,47339080000
303,1071,1260,675,219,147,96,130,6,47358691800
353,1097,1434,795,301,262,164,282,5,47378695300
356,1105,1481,845,329,282,174,308,4,47398319100
377,1106,1447,887,341,393,215,342,3,47416924000
417,1088,1484,872,368,484,393,468,1,47457167900
419,1042,1527,830,367,538,487,486,1,47457213600
388,1008,1454,727,311,527,506,435,0,47477679800
363,947,1370,660,293,595,527,434,1,47497554300
379,924,1361,635,275,540,530,436,2,47517520700
380,914,1245,671,248,542,426,418,3,47538544600
359,847,1187,641,215,585,325,479,4,47558592600
354,818,1094,641,204,612,284,477,5,47578557700
351,704,956,598,188,599,507,514,6,47598270900
350,730,903,542,191,658,575,524,7,47618174300
287,667,852,424,164,609,588,514,8,47638461300
269,629,783,380,147,576,637,542,9,47658491100
253,548,701,318,140,625,675,589,10,47679914700
231,571,668,291,130,627,535,714,11,47698218300
144,524,583,185,87,608,485,700,12,47717689100
160,472,616,154,88,717,557,776,13,47737479200
160,480,595,143,85,729,641,755,14,47757494000
169,489,594,140,75,668,701,794,15,47777340100
174,495,568,165,68,629,739,794,16,47797513200
192,433,665,176,72,587,745,905,17,47817141600
177,420,646,161,67,560,714,889,18,47836936300
174,412,641,158,75,595,611,911,19,47856966800
168,445,644,159,72,614,623,873,20,47877266800
206,444,659,178,84,645,616,748,21,47897868800
198,434,537,152,75,684,604,668,22,47918177400
190,443,483,152,75,720,649,691,24,47958203400
193,449,491,156,70,643,652,680,24,47958262300
208,467,486,164,74,610,551,698,25,47978411400
173,571,442,135,68,592,497,748,27,48018676700
176,593,633,140,72,602,471,745,27,48018691700
172,597,658,141,71,519,361,638,28,48038382200
170,593,648,136,69,510,392,577,29,48058569600
144,595,628,122,64,506,376,574,30,48078949700
130,533,645,126,69,481,352,517,31,48098770600
108,493,499,114,60,409,361,459,32,48118724400
110,485,467,110,58,317,350,461,33,48138934200
106,481,461,109,58,385,333,538,34,48159222400
97,397,453,104,58,364,365,563,35,48177108600
101,331,399,74,45,351,368,608,36,48197126200
96,293,319,73,44,409,364,659,37,48219254400
92,286,287,72,47,414,376,679,39,48258497500
100,311,309,74,50,392,420,653,39,48258510400
125,411,354,87,57,407,392,631,40,48278663500
124,423,438,104,56,412,420,593,42,48318443000
131,442,426,106,57,375,513,525,42,48318484800
135,441,441,106,56,367,511,506,43,48338469200
143,454,428,102,50,342,428,571,45,48378967300
131,376,414,95,48,370,461,636,45,48378985000
134,387,266,67,43,375,527,693,46,48398961400
143,413,300,68,46,356,440,718,48,48438852200
156,416,273,68,48,361,442,748,48,48438867400
143,384,276,68,53,387,481,689,49,48458653500
135,407,238,60,47,377,531,642,51,48498647600
144,367,261,47,45,408,493,659,51,48498673000
145,350,283,69,48,469,516,680,52,48519106000
134,365,299,79,47,473,582,691,54,48559186700
146,385,292,82,46,494,587,736,54,48559239100
150,413,295,83,49,497,530,680,55,48579049700
135,462,316,80,49,470,512,782,57,48616987200
135,444,298,61,46,465,548,819,57,48616999500
128,480,279,48,43,486,549,783,58,48636926900
117,489,330,49,39,431,535,787,60,48678831800
113,459,350,53,39,460,513,846,60,48678846300
130,436,334,55,46,546,540,700,61,48698202100
112,439,296,52,54,528,535,668,63,48738248600
131,403,337,53,62,621,549,672,63,48738261300
141,424,360,57,63,624,581,635,64,48758237300
148,430,353,59,63,599,603,560,66,48797738300
146,442,326,59,63,616,600,765,66,48797750800
161,445,343,60,55,624,569,796,67,48817649100
160,432,335,57,51,717,548,803,69,48857270700
166,405,259,51,53,749,549,854,69,48857282500
161,393,290,56,55,733,529,864,70,48877304900
164,419,292,59,55,686,522,707,72,48917082600
161,407,267,56,59,701,546,761,72,48917102600
169,433,270,61,60,527,573,890,73,48937126100
163,488,355,78,68,589,567,848,75,48977301300
174,520,330,74,68,656,633,878,75,48977313500
179,469,327,74,65,681,689,937,76,48997656800
172,608,375,73,63,658,689,902,78,49038228100
162,607,361,72,56,660,634,770,78,49038268300
194,582,281,60,53,669,632,785,79,49058294100
197,570,289,62,51,764,609,838,81,49098875800
189,649,297,67,60,767,603,840,81,49098933000
189,607,281,77,61,818,585,786,82,49117767900
204,621,277,77,72,903,653,839,84,49159445000
177,628,303,79,74,900,710,851,84,49159461000
163,643,291,73,78,1013,754,786,85,49177194700
174,648,302,71,77,1065,758,720,87,49219080900
192,682,268,63,82,1104,857,710,88,49239107700
182,776,286,68,90,1031,864,738,88,49239120600
180,780,282,60,84,1058,818,762,90,49278780300
188,783,279,66,83,948,815,750,91,49298210100
177,737,259,60,80,906,806,795,91,49298223600
187,665,264,70,92,917,755,852,93,49337621300
205,626,237,74,84,1001,759,828,94,49357409500
225,679,200,74,93,975,855,805,94,49357422200
245,791,207,70,95,936,857,940,96,49397630900
291,809,252,93,138,1139,912,1026,97,49417718400
328,938,283,100,143,1223,919,1047,97,49417731300
366,908,299,104,152,1348,923,1066,99,49457711300
402,951,378,134,212,1401,939,1054,98,49477721700
530,907,463,147,232,1460,1025,952,98,49477733900
556,998,547,156,237,1454,960,833,96,49517073800
540,920,557,160,236,1401,983,790,95,49538918700
513,950,628,178,244,1333,961,834,95,49538962700
523,958,634,167,206,1303,860,921,93,49579079200
392,963,574,159,194,1284,693,983,92,49599558300
332,836,482,140,162,1103,674,948,92,49599573900
310,771,499,127,148,1054,587,908,90,49639288300
292,713,566,123,128,918,532,776,89,49659319000
191,557,539,201,104,865,497,591,89,49659332100
156,440,765,217,82,776,470,388,87,49699079700
120,420,811,225,85,779,420,320,86,49718898800
102,410,844,232,86,690,335,234,86,49718915100
115,448,747,234,76,643,258,140,84,49758652300
107,431,762,181,67,548,210,121,83,49778429700
97,391,546,167,63,440,158,107,83,49778442200
80,390,505,158,55,472,142,89,81,49818057800
81,365,404,151,59,452,126,66,80,49838202200
52,271,447,124,55,426,122,48,80,49838214400
52,262,462,112,56,426,118,48,79,49862062500
49,255,479,107,56,421,113,41,77,49897473200
53,227,501,103,50,241,76,39,77,49897485900
48,236,555,101,42,181,64,36,75,49937884900
52,203,571,123,47,171,55,31,74,49957484600
55,191,605,112,53,146,48,33,74,49957496800
56,189,615,117,49,149,46,34,72,49997824400
65,202,649,119,54,171,40,34,71,50017634400
71,207,612,123,53,192,36,35,70,50037504400
70,249,622,117,49,194,32,35,69,50057291500
75,377,612,133,46,195,39,37,68,50077578200
86,445,602,132,49,157,40,40,68,50077590400
79,462,639,137,43,111,40,38,66,50117096400
83,463,778,160,55,73,44,45,65,50137470000
85,457,737,155,56,138,72,45,64,50157513600
90,382,743,160,60,143,69,43,63,50177696800
87,348,780,169,61,144,73,46,62,50198203200
83,323,708,162,59,143,74,46,61,50218126300
79,339,612,147,51,147,94,39,60,50237771600
76,342,656,143,52,109,81,39,59,50257891600
76,355,613,133,52,134,88,44,58,50277833400
71,329,618,116,52,160,84,39,57,50297515800
77,332,628,123,57,184,90,43,56,50317287300
79,350,656,121,59,209,74,44,55,50337525000
97,342,757,137,66,215,72,49,54,50357275900
98,352,974,158,67,206,67,45,53,50377619900
120,381,938,185,74,246,79,49,52,50397521400
117,396,960,194,73,319,78,47,51,50417263300
118,359,937,206,74,319,72,48,50,50437458400
108,345,829,208,71,324,72,42,49,50457407800
105,334,569,196,68,317,71,40,48,50477558100
74,302,696,180,59,410,73,33,47,50497473600
84,304,760,177,71,375,87,37,46,50517171300
83,324,912,160,68,377,90,40,45,50538963800
85,340,928,149,64,369,88,40,44,50557080200
82,325,922,131,61,373,85,42,43,50576965300
98,432,892,136,77,367,86,50,42,50597369900
95,435,869,144,85,379,76,49,41,50617583900
115,491,739,158,94,384,96,56,40,50638164300
111,480,793,172,99,489,107,55,39,50657100100
112,473,844,198,105,604,124,56,38,50679246200
99,410,897,199,93,545,117,50,37,50697748000
101,403,892,196,81,523,116,52,36,50718708000
79,334,855,188,69,525,111,42,35,50738390300
122,456,860,191,76,452,116,55,34,50758269100
129,548,950,194,76,294,99,57,33,50778186600
128,513,858,190,79,281,97,56,32,50798125600
125,500,839,177,82,476,107,57,31,50817819600
129,502,921,179,84,480,91,59,30,50837446100
95,420,945,179,80,459,76,49,29,50857448100
97,350,830,191,84,456,75,49,28,50877476600
126,401,1045,208,98,449,77,58,27,50897484500
135,441,1150,219,99,253,90,61,26,50917637800
135,464,1125,222,102,269,93,63,25,50937627900
143,515,1136,225,101,261,95,67,24,50957501600
137,511,1154,212,94,251,95,65,23,50977244300
113,506,1024,222,81,242,93,56,22,50998531400
118,519,950,243,79,210,77,58,21,51019482700
127,532,1048,300,93,226,106,60,20,51037017200
139,538,1032,348,108,245,113,65,19,51057151400
146,588,1036,361,122,239,113,69,18,51077552800
148,599,966,350,126,236,114,70,17,51097471200
169,669,972,371,148,238,109,85,16,51117319400
177,741,887,368,145,135,78,87,15,51137213700
190,789,881,391,163,117,70,93,14,51159296200
194,803,930,401,163,127,73,95,13,51179170200
200,827,1074,427,170,125,71,96,12,51198654800
193,766,1031,416,163,114,68,90,11,51218680600
195,740,1079,409,161,118,67,90,10,51238531700
184,746,1090,440,146,98,67,84,9,51258311000
230,809,1151,494,174,104,80,109,8,51278626800
291,1019,1137,589,218,122,94,130,7,51298576200
349,1129,1259,721,251,137,111,145,6,51318921700
376,1195,1255,790,293,158,123,155,5,51338798400
380,1217,1284,757,292,280,141,151,4,51358671400
439,1326,1286,879,343,428,160,175,3,51378365100
417,1282,1259,873,336,443,160,172,2,51398723400
385,1241,1187,846,330,444,150,165,1,51418601400
375,1219,1221,841,317,453,148,168,0,51438931300
411,1257,1228,864,338,400,136,186,1,51456982000
342,1140,1105,733,276,236,109,156,2,51479362000
340,1078,1067,695,258,226,108,154,3,51496942200
353,1025,1009,598,243,233,112,156,4,51519224000
335,1008,944,506,214,216,104,143,5,51538316400
278,893,842,442,170,200,96,119,6,51558115300
246,771,824,365,156,393,140,147,7,51578121700
231,688,853,291,143,430,191,205,8,51598093400
170,679,859,292,116,588,204,202,9,51618840600
180,562,724,264,113,675,243,401,10,51638834000
178,484,657,245,122,846,368,544,11,51658881900
188,554,670,256,117,812,400,596,12,51678800000
178,510,545,222,111,844,399,617,13,51698295500
169,483,511,180,101,808,394,679,14,51718207500
154,483,549,164,91,786,395,652,15,51738294300
155,495,541,156,85,734,392,574,16,51758326200
141,433,640,138,82,737,379,564,17,51778055100
143,463,741,148,76,674,395,564,18,51798061500
159,447,695,128,74,627,405,606,19,51817959600
157,433,674,117,74,618,417,580,20,51837872200
149,426,682,113,58,510,439,670,21,51857561400
153,414,704,138,67,456,473,661,22,51877654100
146,370,594,123,62,475,444,657,23,51897583200
125,368,604,123,62,463,433,565,24,51917764700
120,378,588,121,58,417,430,541,25,51938253700
126,388,577,121,61,387,371,446,26,51958079500
119,404,517,91,53,382,304,625,27,51978301400
125,384,540,88,54,364,317,601,28,51998640100
124,416,534,85,53,315,320,607,29,52018700200
117,410,531,79,53,383,320,645,30,52038362100
129,426,545,77,48,462,256,660,31,52058030900
132,435,411,70,43,467,319,483,32,52078193900
130,474,359,90,44,459,341,542,33,52097875800
139,457,336,92,44,472,346,562,34,52117851000
137,440,313,93,45,398,329,576,35,52137713000
141,452,317,101,48,257,340,566,36,52157641100
143,526,335,107,48,237,392,574,37,52177669400
141,489,322,86,44,233,363,524,38,52197653800
152,487,310,81,45,314,358,476,39,52217568600
161,493,313,82,48,346,458,516,40,52237423200
146,525,305,79,40,338,500,489,41,52257428500
160,446,288,79,48,343,429,485,42,52277410100
153,497,270,78,51,367,433,490,43,52297294500
141,500,270,77,50,308,462,528,44,52317201000
133,504,276,74,50,297,357,402,45,52337667700
140,467,300,78,52,301,314,368,46,52357776200
124,458,253,55,41,314,339,465,47,52377896500
147,379,259,54,42,350,344,478,48,52397328200
151,372,262,57,44,343,314,457,49,52419372400
147,364,272,56,39,306,310,526,50,52437240900
141,311,215,42,36,296,329,538,51,52457670100
149,315,235,52,44,446,369,515,52,52477996500
164,324,226,56,41,442,400,571,53,52497897200
157,317,225,54,39,458,401,589,54,52518867500
158,355,230,55,39,478,445,521,55,52537024500
164,408,242,55,43,556,441,533,56,52557008100
154,420,222,47,38,451,408,545,57,52577146800
118,440,245,47,36,420,422,469,58,52597615100
140,435,255,47,37,395,424,458,59,52619343700
162,423,216,43,40,422,417,498,60,52637117700
158,383,259,54,41,354,402,557,61,52657364800
153,359,322,64,45,361,374,493,62,52677539500
168,384,308,62,50,389,321,506,63,52697551800
146,429,304,62,50,388,371,501,64,52717519600
126,427,311,64,50,392,354,582,65,52737564200
133,506,274,56,51,416,363,572,66,52757340700
157,521,209,42,49,426,438,579,67,52777473700
157,508,210,38,45,455,450,699,68,52797432700
177,561,267,41,47,480,428,733,69,52817517300
186,597,259,37,45,517,443,719,70,52837333200
186,565,247,38,45,506,481,755,71,52857074500
175,554,250,40,49,537,469,836,72,52877283400
175,586,252,45,59,709,501,747,73,52897554000
165,585,178,44,62,784,606,748,74,52917874000
190,565,181,46,63,783,632,735,75,52938335000
180,592,229,52,64,775,644,686,76,52958600200
187,588,207,73,78,888,639,632,77,52979145700
216,565,190,78,74,786,635,723,78,52998935000
220,574,193,79,72,822,598,751,79,53017023600
198,598,191,91,83,876,563,815,80,53037105800
230,581,153,92,89,949,623,839,81,53059139700
233,674,168,78,83,891,674,943,82,53079108700
213,712,169,72,90,1033,677,906,83,53098725600
217,674,174,75,93,1070,727,908,84,53118798300
262,682,212,72,87,1048,905,879,85,53138777000
253,713,231,75,94,1112,882,908,86,53158202700
272,706,224,80,115,1159,992,782,87,53178097700
371,756,224,84,129,1123,1030,896,88,53198406400
394,801,260,86,150,1262,1061,958,89,53218882100
401,828,280,85,174,1326,1072,1091,90,53238963000
429,863,259,80,189,1397,1132,1057,91,53259187700
452,879,283,94,216,1488,1112,1088,92,53278955500
467,890,314,101,236,1475,1198,1122,93,53298728000
467,934,435,138,251,1405,1206,1083,94,53318715700
487,959,453,141,247,1386,1138,1011,95,53338872200
510,951,452,148,256,1319,1175,1035,96,53358492800
500,911,483,139,232,1216,1155,1052,97,53379014800
445,886,474,143,208,1166,1075,982,98,53398750700
442,878,402,124,179,1064,986,941,99,53419126200
399,931,410,144,160,1017,955,827,98,53436940200
330,889,437,179,122,916,799,755,96,53477820200
290,847,434,245,103,806,648,634,96,53477835100
231,763,580,249,92,762,535,431,95,53497808900
184,641,631,246,83,696,475,346,94,53520736000
144,423,614,262,83,612,324,248,93,53537777300
129,355,592,258,74,537,225,194,92,53558245400
112,354,591,196,70,594,196,158,91,53578156500
114,395,579,219,61,554,148,118,90,53598051300
100,376,528,230,57,475,123,94,89,53618135400
94,346,577,197,50,450,106,84,88,53638247200
