84,268,736,161,57,285,76,209,18,332902500
90,262,717,147,54,292,78,216,19,345693900
96,291,708,173,61,297,80,205,21,378956900
96,361,719,164,58,302,80,208,22,399868600
85,374,746,148,55,309,75,215,23,421466300
75,378,762,151,48,195,75,125,24,440839600
64,382,878,154,50,265,80,141,25,461615700
70,385,843,152,56,284,81,171,26,482048700
68,320,887,169,64,296,86,169,27,502676200
79,277,830,181,67,305,92,165,28,518258200
110,345,899,234,87,309,83,190,29,538592700
128,400,854,295,97,259,78,173,30,558881700
133,423,900,319,105,227,83,140,31,577177100
141,436,947,324,109,209,84,175,32,598128100
166,536,985,354,123,204,81,169,33,619112500
152,539,945,339,116,163,66,144,34,639665400
147,525,964,335,122,144,70,140,35,659586500
185,569,1046,351,143,166,81,224,36,677614500
181,583,940,363,142,203,90,252,37,697455100
156,515,926,336,133,418,127,334,38,717675500
158,487,891,320,156,743,426,491,39,737315700
159,473,795,270,150,840,635,633,40,757450900
134,384,600,196,127,920,813,779,41,778301000
142,378,675,158,132,962,1064,917,42,798589100
148,335,715,147,134,968,1155,990,43,819022800
168,359,674,169,113,840,1210,1007,44,839775500
168,363,679,173,124,984,1372,1034,45,857401100
189,433,687,177,132,1047,1390,1075,46,877946600
205,407,704,203,131,1086,1279,1029,47,897976900
227,529,747,206,131,1047,1281,975,48,918370200
217,515,833,187,123,1032,1239,1063,49,938811500
221,494,835,184,116,963,1101,1102,50,957753100
194,437,828,180,99,838,972,1014,51,978073900
205,494,864,185,102,731,902,959,52,998691200
194,400,881,194,100,703,832,933,53,1018960600
216,368,816,194,114,771,848,841,54,1039142400
209,383,799,190,104,651,778,745,55,1058580300
214,364,797,189,101,667,851,654,56,1078734100
178,283,608,130,89,674,940,676,57,1098725600
166,268,489,100,87,784,995,724,58,1119242700
159,290,433,83,76,772,1048,710,59,1139259700
183,270,423,84,80,750,1127,764,60,1159494300
229,309,500,80,81,854,1174,876,61,1178287500
252,351,504,96,77,888,1136,909,62,1197454500
268,354,442,80,95,953,1155,989,63,1219668800
254,392,435,83,108,987,1172,1008,64,1237513700
277,420,429,93,118,975,1105,1013,65,1272937200
270,436,347,94,122,916,1018,981,65,1272949100
265,422,519,117,133,989,1003,1011,67,1299624400
249,423,465,122,131,937,934,927,68,1317692600
249,427,484,120,119,911,818,889,69,1338056800
229,460,482,115,115,983,838,802,70,1358162900
206,443,565,130,123,1000,899,816,71,1378158500
248,501,477,116,123,1041,999,768,72,1398160400
296,522,502,122,134,1102,984,872,73,1418245100
320,520,495,130,164,1181,1020,871,74,1438709900
379,599,502,135,187,1281,1002,971,75,1459037600
380,601,487,156,190,1284,966,965,76,1478941500
362,598,449,151,187,1285,943,1067,77,1498752500
348,653,510,148,184,1238,1006,1018,78,1518494400
366,708,502,141,169,1187,1019,1085,79,1538557100
316,763,499,136,154,1105,962,1071,80,1558383900
330,895,422,101,142,1126,992,1137,81,1578435100
377,930,422,135,155,1134,982,1123,82,1602822500
395,949,348,141,169,1217,997,1138,83,1618381600
392,1030,366,152,178,1254,973,1136,85,1658126800
398,957,361,152,175,1254,1012,1170,85,1658139700
397,863,394,153,184,1299,1032,1168,86,1679060700
410,833,362,128,187,1282,1067,1092,87,1698790700
443,769,345,145,218,1323,1079,1164,88,1718400800
444,671,344,147,219,1307,1103,1159,89,1738515600
494,882,354,148,221,1368,1143,1043,90,1758624200
510,887,307,159,232,1364,1179,1010,91,1779368000
533,904,494,169,241,1361,1175,1059,92,1799270300
516,958,520,158,211,1291,1154,1037,93,1819435500
542,1019,551,149,208,1353,1079,1025,94,1837633200
512,933,581,150,207,1353,1040,1080,95,1857445800
511,990,592,143,208,1333,1029,1023,96,1877480400
512,1033,496,140,239,1424,976,1036,97,1897549400
551,1070,486,144,244,1420,987,947,98,1917322700
537,1053,471,149,236,1302,1029,930,99,1937674500
555,1022,465,155,263,1367,1107,978,98,1958428800
619,1032,463,152,260,1433,1089,1045,97,1978520800
608,1025,402,138,232,1384,1070,1034,96,1998340900
590,947,407,124,229,1412,1001,1136,95,2018384100
578,891,386,114,223,1441,995,1149,94,2038356400
562,818,366,109,207,1360,853,1109,93,2058151300
498,763,341,118,208,1345,769,1095,92,2077913100
462,659,383,112,185,1353,718,1059,91,2097667700
398,659,412,119,162,1263,673,911,90,2118214300
364,576,541,156,165,1280,553,803,89,2138478100
313,555,631,153,136,1190,475,691,88,2157630900
249,447,636,142,103,1135,482,557,87,2177914900
178,510,636,151,100,981,438,440,86,2197940400
164,448,664,163,93,935,417,382,85,2217823500
171,465,580,144,85,820,412,338,84,2238089600
165,525,538,148,83,906,429,322,83,2257804100
150,567,595,146,83,805,324,272,82,2277618500
170,485,607,175,76,775,307,185,81,2297373700
179,489,624,170,78,727,298,165,80,2317574400
167,470,682,169,88,769,320,145,79,2337419300
190,422,655,161,75,590,298,282,78,2357299900
208,426,621,184,73,498,266,284,77,2379756800
189,433,592,192,74,471,261,296,76,2397304200
174,429,604,195,79,613,338,302,75,2417861900
175,466,613,198,78,540,294,338,74,2437910300
155,459,614,211,75,513,275,226,73,2457881400
129,395,697,230,84,524,258,212,72,2477734200
143,402,761,222,87,619,282,197,71,2497807700
163,410,718,215,81,595,220,187,70,2518082700
176,374,667,212,71,579,221,122,69,2538165700
176,402,682,220,72,571,224,117,68,2557532400
165,394,612,187,61,609,239,105,67,2577826000
158,423,603,185,60,519,225,97,66,2597857200
147,412,592,179,58,465,184,106,65,2618808700
122,398,579,176,59,461,175,83,64,2639200000
137,357,574,164,59,473,161,84,63,2659115000
138,404,538,161,55,503,141,84,62,2679101500
137,373,574,125,60,616,135,82,61,2698148900
128,368,658,131,63,592,133,65,60,2718477100
143,375,708,130,64,577,128,64,59,2738203000
130,348,793,127,63,594,125,59,58,2758236900
128,345,813,119,67,537,118,57,57,2778993600
125,324,796,128,57,448,115,47,55,2818573700
121,356,697,117,51,401,108,43,55,2818587500
138,425,706,111,49,377,111,43,54,2838688800
128,447,605,93,50,364,116,38,53,2858655200
137,413,724,106,55,596,181,42,52,2878583400
146,484,797,107,54,595,209,119,51,2898976000
157,550,867,114,56,602,219,125,50,2918974600
130,515,868,126,61,604,220,128,49,2938900000
128,499,859,141,75,720,236,132,48,2959151500
138,524,859,156,79,530,196,137,47,2979160600
153,467,847,186,87,487,148,87,46,2998943500
144,410,819,193,87,485,142,84,45,3018838100
146,411,817,187,98,610,170,90,44,3039011600
145,426,844,190,95,489,147,85,43,3058655000
128,413,788,174,91,479,135,76,41,3098373200
94,406,758,156,88,478,137,69,41,3098392700
93,364,748,147,96,571,140,68,40,3118332400
98,331,744,143,82,459,114,69,39,3137837800
97,325,757,131,74,417,111,72,38,3157323300
114,327,740,132,67,419,113,73,36,3197281100
112,304,671,123,66,432,112,71,36,3197294900
111,326,784,133,57,357,96,69,35,3217292000
113,382,766,152,63,328,87,69,34,3239574300
126,391,806,164,66,320,81,69,33,3258925000
120,371,831,167,69,315,78,67,32,3278992100
126,378,964,169,73,334,101,72,31,3299363500
139,356,877,181,80,360,130,77,30,3319377000
128,288,853,166,76,368,125,59,29,3339047200
119,270,843,180,81,370,126,56,27,3379118200
128,310,800,214,93,390,134,63,27,3379164100
126,345,679,229,94,413,115,59,26,3398959600
111,344,696,224,86,350,119,53,24,3438482100
124,364,743,244,93,339,122,59,24,3438495200
132,416,730,244,88,339,125,59,23,3458060100
117,424,808,231,79,332,121,53,21,3498022400
113,421,958,222,74,276,118,50,21,3498039600
119,461,1001,247,86,274,102,52,20,3517840800
116,456,986,249,82,279,110,50,18,3557837400
114,439,1050,246,91,274,108,55,18,3557851600
123,446,1082,244,88,298,103,57,17,3577952600
139,449,1013,266,95,301,120,63,15,3618729500
145,498,1003,254,99,284,113,67,15,3618743100
160,523,1057,277,99,276,109,72,14,3638652200
152,594,1007,274,97,315,122,69,12,3679319100
160,570,1006,290,104,367,136,78,12,3679332400
154,617,1017,307,118,402,131,82,11,3699258400
181,595,1014,380,128,389,125,85,10,3718919600
191,670,980,471,144,388,123,94,9,3738581100
254,740,1001,581,189,423,145,121,8,3758681000
256,805,964,590,196,489,153,123,7,3779680900
282,792,1004,629,212,454,162,136,6,3799339500
306,872,1115,595,222,463,177,149,5,3817545600
350,950,1149,538,239,458,179,161,3,3857286900
408,1096,1134,638,250,407,171,180,3,3857300700
455,1202,1185,685,284,389,156,193,2,3879529100
444,1218,1346,660,277,394,139,183,1,3899158100
503,1282,1335,823,332,384,154,216,0,3919176800
549,1277,1395,880,330,399,159,234,1,3939525700
547,1157,1461,795,345,535,219,246,3,3978257100
527,1080,1475,806,341,444,237,253,3,3978271300
546,1108,1299,821,355,603,256,274,4,3998371300
502,1134,1280,730,308,626,238,263,6,4038489900
434,1077,1226,665,301,648,237,354,6,4038507600
359,1035,1204,602,250,703,316,516,7,4058590200
355,1009,1205,550,225,706,375,581,9,4098523800
382,1002,1161,539,210,655,380,606,9,4098538300
345,791,1041,436,197,731,599,714,10,4118507700
315,709,944,391,202,878,758,823,12,4157959400
312,615,777,373,205,943,870,808,13,4178408100
302,607,547,304,196,1103,1003,882,13,4178420300
229,502,488,213,171,1106,1063,979,15,4218129800
228,521,526,162,155,1154,1036,933,16,4238343200
234,529,493,147,138,1164,1017,879,16,4238355800
265,568,533,141,121,1113,973,872,17,4258059800
261,563,702,144,111,1089,925,880,19,4298459100
265,550,702,139,111,1084,868,785,20,4318232300
279,582,696,167,112,1071,815,896,20,4318244400
277,586,702,163,93,1025,853,997,22,4357685300
247,620,711,160,91,948,796,996,22,4357702900
232,605,615,161,86,803,679,923,23,4378383000
250,690,553,158,79,780,774,938,25,4418465900
231,653,486,133,85,791,797,863,25,4418478500
232,653,482,139,93,674,680,756,26,4438528900
250,694,594,170,106,637,648,688,28,4478497000
281,698,690,214,118,663,655,663,28,4478516600
279,617,687,213,120,761,643,711,29,4498524100
267,591,687,213,116,656,625,782,31,4538288200
281,605,683,211,110,646,633,702,31,4538301600
293,524,638,206,104,693,708,739,33,4578006900
260,433,521,159,93,685,771,782,34,4597835300
248,430,535,155,92,693,703,745,34,4597852400
254,431,547,152,81,707,697,613,35,4617983500
246,445,549,149,80,735,732,669,37,4659466500
207,549,634,172,77,702,649,642,37,4659479800
211,551,587,158,75,706,549,625,38,4679376900
199,540,570,147,69,685,583,584,40,4719124600
192,620,553,142,67,645,577,622,40,4719137600
197,614,644,151,68,609,492,612,41,4739119500
184,504,567,110,65,599,553,639,43,4777271000
190,490,539,109,66,706,564,599,43,4777283600
186,490,540,110,62,611,613,681,44,4799704700
212,414,544,110,62,641,612,636,46,4839216400
187,423,509,98,62,645,597,574,46,4839229300
194,423,425,84,55,645,561,533,48,4883350300
173,444,448,87,50,529,587,524,48,4883363300
188,437,459,86,47,488,566,525,49,4898680500
176,502,463,87,50,397,580,523,50,4919409500
175,452,446,85,52,386,638,522,52,4958381900
169,428,444,118,59,435,644,518,52,4958402000
167,407,421,123,58,396,645,609,53,4978186400
155,426,397,121,56,397,613,561,55,5017650700
192,433,393,123,55,447,624,576,55,5017663200
219,511,386,125,57,548,631,665,57,5057634500
230,525,385,93,60,514,695,695,58,5077369200
243,587,380,80,57,531,687,704,58,5077382100
233,598,388,81,66,546,662,700,60,5117665400
189,529,411,80,68,554,663,790,61,5137423800
162,453,410,84,65,537,652,721,62,5157303600
150,452,348,66,55,573,596,759,63,5177310500
144,370,350,63,58,619,579,743,64,5197445900
151,356,393,67,51,690,660,715,65,5217390300
173,380,368,60,48,701,627,788,66,5239608600
193,369,293,50,48,739,616,815,67,5259513800
191,363,326,61,62,789,653,767,68,5279151600
245,375,328,63,61,786,648,805,68,5279164600
269,411,350,83,62,776,630,796,70,5319557900
254,422,343,87,76,857,696,683,71,5339288700
294,503,358,87,80,836,714,729,71,5339300700
299,500,405,87,78,828,679,737,73,5378986800
266,503,396,88,78,864,772,672,74,5399052900
249,486,324,65,77,914,726,728,74,5399068000
255,540,324,66,70,845,664,699,76,5438810900
211,506,314,62,70,863,655,748,77,5458817300
243,600,191,49,68,913,722,814,77,5458831000
244,615,215,44,69,883,655,826,79,5499508600
255,743,225,48,90,1034,747,822,80,5519340400
263,750,337,58,106,1102,781,837,80,5519362300
260,794,317,63,110,1136,823,912,82,5557322000
268,761,323,69,121,1196,878,926,83,5579513500
269,802,306,74,126,1226,996,942,83,5579526300
349,763,295,78,125,1106,992,1051,85,5619085000
360,762,299,80,118,1163,1032,1162,86,5639810500
383,765,326,86,141,1170,1038,1079,86,5639825000
377,795,401,87,153,1159,1025,1075,88,5677854400
462,880,483,106,210,1271,953,1101,89,5697859700
431,888,515,114,237,1323,965,1046,90,5717804000
439,918,452,116,249,1279,939,953,91,5737371700
496,1033,444,132,281,1302,1050,1012,92,5757372000
512,1093,458,156,316,1317,1019,1090,93,5777636000
549,1081,401,172,305,1326,1008,1136,94,5797798400
565,1087,396,179,287,1279,1015,1177,95,5818305900
597,1076,459,184,288,1327,1059,1213,95,5818318200
640,1048,491,181,260,1361,1033,1176,97,5858394900
686,1016,443,184,238,1329,1042,1136,98,5878021700
643,989,498,165,221,1302,1070,1104,98,5878107400
644,1002,537,169,225,1294,1051,1049,98,5918043500
636,1037,517,172,251,1274,1004,1002,97,5938376700
547,1039,548,168,259,1294,938,1050,97,5938420300
547,1007,544,157,251,1350,887,1024,95,5978656500
519,987,510,160,250,1322,878,1005,94,5998519400
495,939,523,152,237,1267,806,943,94,5998531900
444,869,515,137,189,1221,794,877,92,6038431500
437,725,456,127,159,1107,751,815,91,6058424200
320,669,444,110,115,943,726,697,90,6078059000
275,590,441,102,86,803,619,560,89,6098069400
245,494,469,137,91,872,601,512,88,6117816600
249,409,490,151,103,866,501,486,87,6137356700
214,387,519,163,91,768,340,266,86,6158077200
201,352,535,176,88,725,275,239,85,6178347100
191,368,570,185,83,661,251,204,84,6198133800
168,383,484,159,76,668,158,151,83,6218150900
158,407,596,186,54,558,160,140,82,6237747300
160,392,658,187,49,559,213,85,81,6257745100
182,458,642,179,48,548,212,77,80,6277502400
193,475,620,187,54,625,218,72,79,6298291700
186,459,639,179,54,494,257,125,78,6318162000
190,448,612,156,53,434,248,120,77,6337739300
193,448,560,153,58,425,202,121,76,6357825500
196,448,601,146,59,494,213,120,75,6377911600
181,391,714,122,68,545,245,126,74,6398200700
190,416,708,122,64,512,211,85,73,6417944800
191,408,645,113,66,510,206,87,72,6438264700
246,398,704,137,73,508,202,90,71,6458430200
239,297,790,151,76,553,192,94,70,6478144600
292,311,691,150,63,438,213,88,69,6498541300
366,325,707,156,64,436,211,90,68,6520229200
396,355,724,152,72,439,214,89,67,6538033200
362,352,664,127,64,468,219,84,66,6557824300
359,384,547,112,65,423,224,83,65,6577486600
326,424,570,110,65,402,157,77,64,6597310800
236,398,564,112,64,392,149,58,63,6617395600
182,388,558,106,51,385,136,52,62,6637525900
169,390,619,105,54,400,137,49,61,6658365400
152,382,637,110,53,426,144,42,60,6678594500
148,362,645,107,54,425,122,47,59,6699159900
156,358,656,93,53,424,117,49,58,6719218500
145,358,658,94,56,426,121,49,57,6739186400
139,356,618,79,50,384,128,50,56,6759511600
135,354,673,87,44,259,114,49,55,6777660300
117,338,670,103,44,231,114,42,54,6797350100
107,379,721,126,49,228,116,44,53,6819546500
103,388,747,129,49,258,119,46,52,6839579300
101,381,728,130,46,269,97,45,51,6859450000
103,359,672,131,48,294,82,47,50,6879348100
117,369,630,121,46,294,76,46,49,6899441400
104,359,686,146,42,296,74,43,48,6919132200
97,314,650,147,37,283,70,41,47,6939357000
98,317,637,158,41,305,97,43,46,6958648300
99,309,632,159,40,284,94,39,45,6979040300
92,307,715,167,47,279,94,44,44,6998994600
91,262,645,138,49,282,94,44,43,7018777200
97,297,718,140,50,285,92,44,42,7038426400
111,314,731,133,50,295,64,40,41,7058323800
111,337,818,126,52,264,61,42,40,7077676600
108,319,778,129,51,271,63,40,39,7097548600
113,317,790,138,56,281,73,39,38,7117546300
116,404,793,174,68,282,87,44,37,7137777400
103,387,765,174,66,332,92,45,36,7158089500
103,389,665,177,70,336,103,47,35,7178212200
88,379,689,175,67,353,118,44,34,7197825400
107,388,637,167,62,348,111,44,33,7217541600
102,297,687,129,49,334,98,38,32,7237723200
104,303,787,143,53,261,107,37,31,7257791000
111,302,830,148,60,343,107,48,30,7277762100
120,303,808,162,61,330,89,49,29,7297848200
96,291,857,168,63,321,91,48,28,7318232300
96,262,804,161,62,315,92,49,27,7337808000
97,266,767,151,59,309,117,124,26,7358421500
86,256,816,179,62,247,152,138,25,7378444300
72,246,817,172,60,249,159,142,24,7398092000
106,346,839,216,68,251,161,143,23,7418216300
109,379,808,221,68,256,164,145,22,7438601800
124,398,783,244,74,355,164,97,21,7458466700
135,431,778,269,74,347,127,73,20,7478444400
141,514,1037,276,84,337,127,69,19,7498353900
130,484,1064,262,80,344,128,71,18,7518486200
127,508,1095,306,93,365,131,68,17,7538103800
133,583,1216,309,100,277,109,71,16,7558292000
142,625,1210,284,103,245,105,77,15,7578383500
152,628,1003,333,113,246,96,78,14,7598247200
157,677,984,372,130,245,100,82,13,7617570000
195,711,947,385,145,225,105,112,12,7637518100
185,675,873,384,141,192,95,136,11,7657638800
175,622,921,397,134,180,94,147,10,7677836500
174,634,1018,380,122,173,105,149,9,7697804400
206,682,1022,377,121,159,103,155,8,7718142100
224,748,1189,439,148,130,102,160,7,7737650800
249,862,1167,477,168,105,104,164,6,7757550500
264,970,1156,533,200,112,109,157,5,7777457200
294,973,1144,568,214,119,104,168,4,7797173000
269,924,1154,546,212,114,99,160,3,7819558900
279,907,1044,545,219,126,96,156,2,7839171800
302,878,1077,560,222,118,97,145,1,7859409500
304,832,1022,572,212,118,94,145,0,7879096700
316,860,1000,596,230,117,90,149,1,7898989200
335,907,1029,648,242,116,94,156,2,7918813500
351,937,1007,697,245,119,90,159,3,7938735900
358,883,945,735,254,133,94,162,4,7958422000
382,909,978,716,258,150,130,208,5,7979439800
364,889,999,696,243,155,148,204,6,7999385400
368,904,1067,660,238,154,148,206,7,8019440900
322,781,1134,544,210,441,286,320,8,8038826800
273,755,1124,426,187,662,357,491,9,8058611800
239,699,1125,384,196,840,543,572,10,8078413200
246,664,1103,314,197,884,565,596,11,8098179000
219,526,909,273,182,982,664,709,12,8118100400
217,528,726,254,192,1036,735,845,13,8138121500
228,518,759,259,195,1050,816,924,14,8159726200
237,484,792,218,162,942,726,1004,15,8177605500
215,431,705,184,144,964,764,1070,16,8197706200
223,417,693,177,145,950,774,1036,17,8217469900
240,497,710,185,120,808,774,981,18,8239539000
257,533,647,218,111,654,880,877,19,8257325500
242,554,445,200,102,640,911,783,20,8279648100
243,557,371,202,109,701,938,782,21,8297440400
232,553,411,194,109,624,898,767,22,8317502800
210,574,503,212,105,632,814,712,23,8337185600
191,558,480,166,90,643,574,685,24,8357393400
177,478,490,166,102,742,571,774,25,8377239400
160,451,498,158,89,658,527,770,26,8399465800
172,513,548,155,81,630,523,742,27,8420121500
181,579,628,169,86,612,512,702,28,8437900400
171,588,660,172,93,567,624,724,29,8458408300
172,593,652,166,85,501,599,617,30,8479267300
176,593,646,167,79,478,617,594,31,8498499200
162,608,612,189,82,466,576,664,32,8518153000
146,472,566,144,72,443,594,689,33,8537906200
137,405,578,138,59,437,465,657,34,8558060800
144,391,578,140,55,351,467,696,35,8577966200
140,398,578,139,59,321,441,642,36,8597864700
134,292,553,107,54,358,500,568,37,8617920900
128,250,553,97,49,359,496,529,38,8637757800
136,290,502,85,45,361,503,574,39,8658449700
141,310,506,80,45,362,479,569,40,8678351100
144,326,506,84,50,369,405,600,41,8698674300
152,384,517,82,54,341,385,625,42,8719702100
151,364,388,86,53,338,366,627,43,8737500500
151,392,389,80,52,356,375,611,44,8757463200
161,401,390,83,54,402,485,613,45,8777879100
172,431,407,91,49,398,529,593,46,8797990700
206,387,425,98,47,412,504,633,47,8817944800
224,403,629,106,50,418,503,664,48,8837838300
220,345,653,106,52,399,507,659,49,8857828000
202,322,660,105,46,333,430,620,50,8878214600
191,388,655,97,43,403,409,608,51,8898499100
147,375,640,102,47,413,421,600,52,8918489600
138,364,384,77,42,422,466,596,53,8938858100
159,442,353,77,44,437,509,587,54,8957352200
158,457,346,76,43,463,507,596,55,8978366500
179,379,370,86,44,378,495,644,56,8998335100
201,464,442,93,40,351,529,638,57,9018124800
199,468,507,97,41,353,515,619,58,9037786900
190,431,483,96,42,408,562,651,59,9057445900
190,427,468,97,46,368,556,674,60,9079488100
170,455,446,86,44,372,551,613,61,9099670600
148,385,410,74,48,382,510,575,62,9119763000
139,407,349,73,50,405,482,557,63,9140002700
139,394,339,72,49,429,359,523,64,9157656700
142,388,341,73,51,455,399,507,65,9177594700
170,349,351,72,58,484,430,576,66,9197588300
184,339,378,83,62,508,511,691,67,9217451900
180,370,391,83,64,491,533,704,68,9237570900
171,372,408,83,66,507,543,721,69,9257311600
180,399,404,84,71,571,538,764,70,9279228700
157,418,392,81,64,567,532,695,71,9299298400
166,510,299,55,62,707,506,608,72,9319106700
173,486,296,56,65,755,553,654,73,9339158900
191,501,306,65,62,770,656,625,74,9359467500
205,575,310,65,56,724,653,581,75,9379096600
214,597,346,72,69,856,784,619,76,9397200700
201,547,359,76,64,810,799,661,77,9419449400
202,562,315,71,63,828,772,698,78,9439136600
206,656,356,66,66,792,767,705,79,9459147400
206,726,362,65,64,814,750,686,80,9478401800
216,728,346,60,54,823,620,703,81,9498311400
211,723,313,51,57,860,623,701,82,9517921200
219,825,324,54,55,846,648,705,83,9537760000
222,790,254,57,69,1011,604,756,84,9557460100
231,682,249,59,79,1068,671,790,85,9579586700
228,685,215,61,88,1047,754,834,86,9597676200
232,743,195,65,91,1069,850,897,87,9617593500
291,632,179,69,104,1115,907,843,88,9637575900
346,732,183,73,112,1122,971,891,89,9659465300
347,758,192,75,116,1180,936,862,90,9677478500
363,806,283,91,124,1189,981,858,91,9697574500
369,826,317,92,127,1236,998,847,92,9717574700
480,869,344,119,174,1293,1001,935,94,9759663400
479,815,367,123,185,1322,1036,925,94,9759677300
601,888,403,139,208,1312,1101,1005,95,9777685900
640,958,390,154,236,1405,1033,995,96,9797975300
659,970,396,166,255,1362,981,1018,97,9817371700
608,1011,400,167,271,1364,1003,994,98,9837557100
589,1009,391,173,287,1398,918,946,99,9857325600
549,1026,378,178,299,1374,901,935,98,9877610300
550,931,399,159,278,1327,923,931,97,9898036600
575,917,432,154,265,1301,872,928,96,9917998600
568,867,406,135,222,1306,848,992,95,9938345000
600,859,429,127,199,1134,871,1107,94,9957572500
558,808,572,127,155,1168,817,1041,93,9977564300
512,823,556,132,154,1154,765,1022,92,9997409300
454,758,525,122,140,1132,745,919,91,10017574700
394,800,532,119,132,1072,645,935,90,10037737000
333,814,512,112,116,1119,649,778,89,10057496400
267,748,310,74,106,1100,586,731,88,10077279500
229,679,421,103,95,1021,531,689,87,10099490900
214,660,467,113,102,1031,476,656,86,10119104400
201,519,492,118,99,1025,450,361,85,10139500700
180,426,512,119,87,992,219,249,84,10159133600
168,377,600,121,86,865,204,207,83,10178565200
170,423,569,93,78,771,166,158,82,10198495900
165,412,584,103,68,748,171,139,81,10218449900
172,493,659,98,53,708,159,107,79,10258409100
161,437,662,104,52,591,149,78,79,10258422500
140,474,585,102,47,576,151,72,78,10278421000
128,451,554,112,49,561,145,65,77,10299528400
130,484,568,93,48,480,126,66,76,10318239600
174,449,474,90,42,406,106,57,75,10338009100
167,466,512,86,41,436,116,54,74,10359644800
160,442,563,98,40,424,110,42,73,10377474300
199,454,605,113,42,419,109,41,72,10397403500
201,425,568,130,51,387,100,34,71,10417259100
161,401,578,135,60,339,92,37,70,10439660000
162,406,583,132,63,326,86,66,68,10477251800
165,412,574,128,64,326,83,67,68,10477265100
134,380,523,110,63,330,83,68,67,10499648800
132,374,628,96,57,324,82,70,66,10519403700
117,361,700,95,49,389,89,70,65,10539114600
112,352,789,112,48,382,98,47,64,10559211800
109,350,846,127,54,384,101,47,63,10578686600
99,329,854,121,49,383,103,44,62,10598971100
118,330,796,121,47,377,109,45,61,10619139900
117,323,806,124,50,282,100,47,60,10639502200
123,305,704,124,52,252,93,45,59,10659402800
145,305,696,123,49,256,89,44,58,10677511200
140,324,736,121,50,251,102,44,57,10697515000
124,315,708,117,55,330,108,43,56,10717527700
126,328,642,114,53,319,114,67,55,10737462800
117,335,664,105,46,300,105,66,54,10759516300
107,292,575,85,42,288,103,67,53,10777451600
102,274,541,88,45,294,90,66,52,10799567500
108,282,576,99,47,267,88,66,51,10819325900
98,268,641,106,47,236,71,40,50,10839305800
104,259,709,113,55,257,75,44,49,10858852100
89,286,772,117,56,269,76,42,48,10879019800
118,306,870,134,55,267,84,44,47,10903137000
114,326,871,129,49,319,98,46,46,10918399300
116,352,834,120,50,322,97,44,45,10939142800
113,366,745,121,44,320,96,40,44,10957481100
115,341,713,121,52,356,99,42,42,10997416600
102,347,611,111,51,359,92,42,42,10997433000
105,328,570,113,52,275,78,38,41,11017286300
105,304,763,136,55,263,91,42,39,11057430700
101,275,784,130,55,269,89,42,39,11057443700
106,321,781,129,51,200,92,43,38,11077315600
96,334,770,123,51,192,94,43,37,11099595700
96,425,802,128,59,321,122,53,36,11119339500
110,417,589,116,60,338,112,56,35,11137244300
109,416,690,114,60,317,114,55,34,11159362500
96,380,832,111,56,318,113,54,33,11178925800
101,347,898,109,57,351,119,52,32,11199177700
95,246,877,96,53,394,99,47,31,11218815900
78,260,900,90,49,397,101,41,30,11238662700
81,282,849,114,51,407,98,40,29,11258995500
84,290,809,150,61,416,96,45,28,11278417800
83,338,857,177,71,467,108,48,27,11298482400
86,336,936,184,67,351,96,44,26,11318358500
99,359,979,209,73,330,96,49,25,11338393500
99,347,964,205,73,332,95,51,24,11358478700
119,399,873,244,84,368,103,60,23,11378307900
120,403,763,236,80,386,95,60,22,11398373200
124,411,740,248,99,433,100,76,21,11418387700
129,422,747,243,98,438,99,76,20,11438476200
129,435,757,251,99,488,102,76,19,11458292200
108,397,800,212,91,546,111,69,18,11477853100
109,378,871,211,88,484,102,69,17,11498021500
116,377,894,202,72,432,101,55,15,11537538100
118,388,887,214,78,455,123,60,14,11557841800
124,406,966,223,83,411,125,60,14,11557855300
124,428,1095,226,101,437,113,67,12,11597471900
125,448,1137,230,105,433,110,72,12,11597485500
129,550,1111,235,103,436,100,72,11,11619364600
123,594,1125,216,96,411,74,67,10,11639531200
153,655,1091,263,104,476,104,71,9,11657373600
193,750,1033,273,99,361,99,77,7,11699649300
196,765,983,372,111,358,107,75,7,11699691400
200,744,1037,469,135,351,109,83,6,11719483800
240,790,1105,591,187,351,117,103,5,11739689000
227,782,1166,601,187,261,85,101,4,11759668600
209,738,1153,650,196,227,90,98,2,11797540100
237,863,1191,675,210,202,87,109,2,11797553000
294,1107,1183,703,230,211,93,120,1,11819338200
283,1152,1201,644,211,202,98,117,1,11858835200
316,1168,1191,724,262,145,108,137,1,11858848400
330,1196,1138,752,261,178,113,151,2,11878566400
371,1176,1150,809,285,193,121,163,4,11918315000
378,987,1197,775,274,182,120,165,4,11918329200
385,961,1102,763,267,404,134,188,5,11938819500
363,916,1030,681,223,466,193,212,7,11979222400
359,881,1098,601,219,630,241,249,7,11979235900
315,821,973,417,174,730,511,362,8,11998624100
260,798,825,337,164,811,725,518,10,12038485400
232,692,759,288,157,925,819,648,10,12038513500
259,673,673,216,149,1055,925,869,11,12058617000
254,704,521,196,149,1042,993,927,13,12098794700
247,664,649,194,144,1029,928,963,13,12098807600
263,709,764,183,127,992,797,974,14,12118847000
260,688,755,182,124,883,764,948,16,12159374200
238,686,759,180,117,837,732,951,16,12159387700
230,660,828,173,110,839,758,966,17,12179361300
225,726,779,198,101,803,732,916,19,12219440900
194,594,699,186,102,803,725,856,19,12219454200
190,657,675,177,107,867,785,926,20,12239649600
181,650,673,173,105,788,759,816,22,12279053400
167,574,583,170,92,709,636,767,22,12279066400
185,559,535,188,100,683,634,777,23,12299097400
203,610,464,182,95,680,696,907,25,12338545800
206,559,475,180,90,612,609,909,25,12338559100
222,559,470,177,85,549,646,883,26,12358216700
225,573,452,188,89,526,655,855,28,12398053000
209,529,412,168,85,522,645,900,28,12398066600
190,479,388,154,87,621,647,787,29,12418033600
206,485,369,151,80,510,639,693,31,12458395000
182,477,357,153,79,490,622,729,31,12458407900
222,512,506,174,78,469,635,728,32,12478380900
216,506,497,142,66,516,668,741,34,12518176500
213,503,499,143,65,345,660,779,34,12518189100
191,444,495,142,61,367,626,787,36,12557507000
190,473,502,140,61,356,540,704,37,12577389300
145,435,340,92,50,356,525,696,37,12577402600
127,404,388,86,55,369,517,610,38,12599392000
128,428,400,92,50,412,474,520,40,12639407900
143,476,411,93,57,489,578,515,40,12639422800
149,460,404,91,57,512,584,551,41,12659470000
148,454,387,78,54,513,571,549,43,12698986900
155,421,369,95,55,461,563,537,44,12718955200
174,461,349,101,70,601,568,599,44,12718968100
159,452,333,103,68,528,524,547,46,12758788300
161,460,337,103,67,514,606,511,47,12779001700
166,509,420,119,70,515,654,512,47,12779014800
166,498,375,102,64,548,665,498,49,12818466600
142,460,368,89,46,399,651,394,50,12838440400
193,480,423,89,44,387,629,522,50,12838452400
237,480,444,91,47,408,559,552,52,12878136700
273,446,354,67,47,417,533,557,53,12897971700
290,506,333,78,46,359,488,546,54,12917670500
306,495,328,89,48,307,528,603,55,12939756700
311,467,257,89,54,431,564,576,56,12957375300
285,442,342,89,53,426,549,539,57,12977643600
264,409,388,98,58,451,626,558,58,12997694700
279,329,448,86,60,454,651,630,59,13019674200
279,354,493,82,66,460,625,646,59,13019687500
271,392,512,83,63,429,569,639,61,13059731200
279,414,437,82,64,435,563,707,62,13079283100
269,444,405,78,61,411,483,741,62,13079296100
246,515,481,79,58,414,499,725,64,13119277700
227,484,448,72,50,427,489,711,65,13139277500
240,466,432,66,45,409,623,763,65,13139291400
216,456,425,64,46,432,655,791,67,13179289800
213,436,414,54,43,446,641,796,68,13199354200
218,421,245,51,45,477,618,804,68,13199368900
230,444,213,53,47,464,648,802,70,13239255000
218,479,231,56,54,477,600,724,71,13258900600
241,509,355,65,54,477,585,685,71,13258919500
253,509,357,70,56,514,658,691,73,13299151600
262,465,348,69,61,491,675,675,74,13318848200
267,462,372,70,61,525,677,721,74,13318862700
240,429,352,68,56,534,672,724,76,13357254000
221,529,230,60,62,639,684,728,77,13377432000
222,519,260,54,63,614,635,757,78,13397569200
225,633,262,53,59,651,666,838,79,13419495000
223,658,226,46,64,640,615,851,80,13439720300
251,696,260,55,76,689,653,881,80,13439734500
292,647,287,53,81,660,657,871,82,13477377700
308,817,294,56,95,802,654,943,83,13497601600
298,739,294,67,103,896,652,933,84,13517520100
336,767,302,77,140,1064,761,931,85,13537378100
332,782,283,78,160,1128,718,991,86,13559771200
321,791,252,80,164,1174,759,994,86,13559786500
291,675,213,77,159,1116,764,906,88,13599287600
329,750,205,74,165,1103,768,859,89,13618426500
311,708,209,70,132,1001,834,843,90,13638528000
321,776,219,72,112,1065,872,739,91,13658186700
313,762,217,72,104,1063,880,812,92,13678289200
388,750,207,80,119,1129,969,891,93,13698198700
467,795,224,105,190,1189,1011,896,94,13717581100
538,859,229,116,218,1186,987,906,95,13739484000
621,830,223,134,243,1117,1019,978,96,13759199100
656,908,247,141,265,1240,1122,947,97,13779683400
668,906,275,156,290,1288,1176,978,98,13799562000
631,982,282,152,280,1316,1141,1104,99,13819654700
722,1050,285,156,301,1419,1127,1075,98,13839697500
725,1052,303,167,314,1455,1128,1074,97,13857398200
721,1035,312,169,321,1356,1105,1072,96,13877509100
741,1185,353,161,314,1324,1036,1022,95,13897604500
754,1108,375,184,324,1245,1062,907,94,13918050000
621,1106,376,189,318,1230,1060,1035,93,13939258400
543,1103,359,174,296,1220,1081,1068,92,13957887300
552,1071,347,169,273,1165,986,1042,91,13978191000
505,1004,285,171,269,1166,919,1039,90,13998302900
526,970,324,146,237,1163,912,1168,89,14018220500
516,829,332,130,198,1055,847,1072,88,14038386600
506,787,439,130,180,943,684,961,87,14058131800
455,794,604,164,177,893,602,918,86,14078257900
408,636,785,159,149,823,546,834,85,14098453500
279,558,776,155,111,814,397,529,84,14118291800
242,592,830,169,106,739,283,393,83,14138272800
215,556,849,166,96,674,269,297,82,14158223700
200,463,821,143,80,695,235,255,81,14177621200
175,430,728,153,69,629,202,131,80,14197281800
168,450,757,146,73,618,261,115,79,14219631100
173,417,729,130,64,655,325,145,78,14239459900
163,383,706,150,71,646,313,138,77,14259508100
133,382,651,146,71,635,329,139,76,14279518800
134,384,632,162,70,688,340,138,75,14297220800
136,360,617,173,62,624,330,126,74,14317334100
131,432,581,168,63,572,296,82,73,14337753100
117,447,603,157,60,559,294,77,72,14357560800
128,509,615,159,62,568,274,72,71,14377451100
121,528,564,158,61,540,263,69,70,14397577700
117,557,697,154,62,469,366,134,69,14419504700
134,489,719,157,63,454,357,136,68,14439410200
138,496,663,164,59,460,358,137,67,14459103700
134,478,742,159,55,426,364,140,66,14479436600
137,473,796,132,58,453,370,157,65,14499084100
137,459,703,120,54,468,273,110,64,14518660900
130,488,711,117,51,465,248,105,63,14538718700
121,454,695,94,51,469,256,104,62,14558609200
114,438,580,105,62,593,252,102,61,14578064200
114,441,522,104,59,517,247,76,60,14598202400
114,495,535,117,62,505,171,73,59,14618343200
96,448,560,133,61,503,159,66,58,14638510000
106,442,579,138,61,506,133,67,57,14658380500
112,441,599,131,61,369,126,65,56,14678112600
147,459,585,130,67,410,153,64,55,14698375800
143,385,526,122,61,410,203,50,54,14718209400
137,371,512,117,68,411,206,50,53,14738112700
130,383,562,117,72,396,206,48,52,14757942100
139,392,521,111,63,416,209,48,51,14778196400
126,363,585,125,61,337,193,65,50,14798077700
146,347,570,130,65,308,131,66,49,14817631500
147,343,564,137,63,303,132,65,48,14837472400
158,325,571,136,62,309,130,70,47,14857500300
155,324,567,145,65,380,131,72,46,14877475300
139,315,559,141,63,432,130,67,45,14897531100
117,312,693,136,61,436,122,65,44,14917851800
111,318,686,123,58,460,120,65,43,14939130200
95,397,680,119,60,485,122,61,42,14959400500
89,364,830,131,67,458,118,61,41,14979006200
74,359,828,128,60,424,96,45,40,14998690300
72,390,758,131,62,415,106,46,39,15018506900
75,394,767,141,61,403,104,46,38,15038304800
79,320,871,143,68,414,119,54,37,15058198500
81,367,799,129,72,437,120,56,36,15078112200
83,349,807,130,75,392,117,58,35,15097772800
78,329,831,131,74,404,107,57,34,15118320300
85,365,920,142,77,443,125,61,33,15138246000
87,368,795,135,76,509,126,57,32,15157697200
77,296,762,134,64,441,117,50,31,15177811700
79,323,794,153,68,434,114,50,30,15197587800
78,300,800,159,69,423,121,49,29,15219399200
77,303,828,152,69,391,117,45,28,15239302500
84,317,890,168,59,328,107,42,27,15258818400
95,364,937,182,62,315,110,45,26,15278681700
98,363,927,175,64,308,111,46,25,15299211900
107,390,879,193,68,319,104,51,24,15319276800
108,382,819,198,66,299,95,52,23,15339450000
107,391,864,215,77,211,87,55,22,15359162200
102,405,872,206,76,215,96,55,21,15378944700
98,412,938,201,70,222,98,52,20,15398920800
92,386,1083,179,65,213,97,49,19,15419316700
100,357,1139,173,66,250,100,52,18,15439279600
86,346,1122,159,60,365,98,45,17,15459319600
84,321,1117,161,62,380,84,42,16,15479295800
95,314,1090,175,65,380,85,45,15,15499208300
108,418,1023,200,82,377,87,48,14,15519052600
104,427,970,236,96,413,114,48,13,15539328200
111,442,984,239,96,314,115,51,12,15559227500
113,434,1019,258,98,279,114,53,11,15579272100
120,435,1117,279,104,274,111,59,10,15598972800
158,486,1126,332,124,275,117,81,9,15618785600
166,581,1206,343,121,153,81,81,8,15639201400
204,636,1244,387,147,185,99,100,7,15659487700
215,665,1247,393,152,234,105,105,6,15677583900
217,695,1110,378,148,238,104,104,5,15697779800
231,703,1144,405,157,243,101,109,4,15718171900
244,707,1090,400,163,242,102,116,3,15738092800
270,770,1104,435,188,208,95,126,2,15757842200
289,799,1235,439,204,175,99,135,1,15779066500
299,817,1269,510,228,232,104,155,0,15798307500
285,827,1205,467,219,267,104,180,1,15818566800
274,800,1119,453,214,417,149,283,2,15838646600
260,741,1078,392,181,439,165,394,3,15858943000
234,700,824,372,161,529,216,458,4,15878655500
220,692,753,261,132,733,353,622,5,15898471000
201,617,679,232,119,740,526,760,6,15918792100
205,602,711,218,123,775,618,809,7,15939408800
171,547,669,192,119,846,620,846,8,15957733400
166,540,658,180,110,885,687,859,9,15978167400
195,499,660,177,106,790,701,842,10,15998449100
227,585,661,157,133,1012,816,878,11,16018113900
254,594,693,181,127,975,867,853,12,16038259500
302,655,650,156,122,960,923,840,13,16057862100
327,660,645,154,124,970,901,883,14,16077974000
325,669,600,147,127,1021,915,840,15,16098056200
310,622,623,146,83,798,777,709,16,16118105400
293,630,614,133,79,773,672,711,17,16138319000
240,587,531,133,73,741,650,749,18,16158132600
238,553,520,131,72,656,712,750,19,16179312500
228,528,529,126,60,499,715,751,20,16198990900
227,508,645,153,73,533,668,747,21,16219252600
226,516,599,116,66,544,643,716,22,16239308700
225,483,570,112,69,570,655,643,23,16258936300
188,486,551,108,66,625,602,550,24,16278632900
176,499,572,108,64,618,626,516,25,16298691600
165,456,418,90,51,585,622,472,26,16318678600
175,387,409,105,60,565,631,451,27,16337724900
197,421,438,101,61,567,639,455,28,16357466300
255,433,425,105,62,490,592,556,29,16377295000
261,416,452,103,62,461,494,542,30,16397493200
261,416,536,111,64,456,538,550,31,16417424500
250,472,524,110,63,479,517,570,32,16439647500
229,412,563,116,64,458,445,582,33,16457200400
179,455,576,113,65,410,513,511,34,16479686800
171,494,528,118,63,440,497,535,35,16499603300
174,497,479,85,59,506,453,593,36,16517552300
167,449,607,94,57,486,530,584,37,16538084200
175,484,584,92,51,450,548,520,38,16558191900
162,468,588,91,54,519,490,577,40,16597975300
205,444,583,85,55,496,536,561,40,16597998800
202,440,592,94,56,514,600,551,41,16618087600
201,426,519,103,55,491,542,545,42,16638157600
197,406,500,102,49,507,544,632,43,16657849800
196,373,486,102,41,454,531,637,44,16677712800
156,347,491,101,42,461,487,633,45,16697746800
154,360,405,97,41,391,455,669,46,16718642200
148,374,425,73,34,388,452,666,47,16738933700
134,384,426,76,38,370,458,605,48,16758867900
160,417,440,74,43,432,480,554,49,16779149200
172,471,433,75,45,489,546,654,50,16798872600
195,461,459,74,51,540,526,625,51,16818910000
197,461,357,67,53,571,541,647,52,16838775700
222,433,365,68,62,551,541,654,53,16858532200
239,451,358,70,59,506,532,636,54,16877622800
242,430,362,73,61,464,458,610,55,16898054500
244,432,328,71,53,375,525,610,56,16918342700
248,455,269,69,55,368,546,667,57,16939608400
231,475,295,67,44,388,607,770,58,16957695000
204,471,324,75,41,388,614,756,59,16977733100
216,431,321,73,39,369,604,704,60,16997531100
248,420,321,73,40,392,596,709,61,17019453800
243,394,314,66,42,504,654,696,62,17039154400
249,387,225,58,46,521,577,609,63,17059347700
255,418,164,44,49,597,566,669,64,17079440000
228,470,353,67,54,608,574,682,65,17099343700
194,533,372,68,55,659,621,685,66,17119657500
205,542,384,71,54,587,551,715,67,17139260800
222,576,392,71,56,573,591,719,68,17159020300
212,526,396,71,56,494,604,708,69,17178856000
222,485,293,54,54,509,632,809,70,17198462300
226,515,357,58,59,555,562,840,72,17238119700
235,513,363,61,61,574,574,849,72,17238139500
299,563,358,60,62,624,635,887,73,17257979700
318,603,367,60,65,680,662,885,74,17278263900
321,716,391,61,62,673,670,795,75,17298050700
330,757,319,56,59,563,663,744,76,17317899200
349,749,414,57,54,527,661,793,78,17357655500
291,732,429,78,59,598,600,773,79,17378070300
301,797,428,86,70,722,678,852,79,17378083100
299,717,368,85,77,739,646,845,80,17397612800
269,692,434,88,78,862,640,867,81,17419322600
276,720,452,117,87,929,705,811,82,17437647300
285,738,472,112,87,927,732,795,83,17458081000
283,723,464,107,87,935,704,789,84,17478351800
349,749,477,111,89,1057,764,811,85,17498193300
354,750,414,109,102,1135,804,880,86,17518453100
356,805,293,81,97,1180,765,832,87,17538466100
405,791,248,78,103,1214,769,852,88,17558291500
427,733,258,82,100,1237,793,869,89,17578432300
397,759,239,79,100,1138,827,884,90,17598342200
420,806,245,84,106,1075,942,917,91,17618303500
431,772,278,83,117,995,956,981,93,17658474100
425,825,274,83,125,1121,954,947,93,17658488500
435,817,269,102,157,1072,911,1031,94,17678599200
426,827,276,105,161,1152,893,1075,95,17698558900
475,766,282,108,175,1185,774,1069,96,17718587400
515,880,259,118,189,1238,881,1041,97,17738468700
519,940,301,119,195,1114,969,1099,98,17758086700
582,1012,301,125,216,1176,1047,989,99,17778033100
615,1122,330,132,228,1279,1160,979,97,17818121100
587,1158,432,134,228,1309,1183,919,97,17818133600
569,1106,438,140,225,1302,1156,962,96,17838100300
563,1105,542,159,246,1323,1089,938,95,17857990700
465,1046,560,155,228,1301,1022,892,94,17877792500
453,895,556,151,220,1207,841,839,93,17897493700
458,873,509,148,202,1080,810,778,92,17917738300
401,799,721,144,188,1021,673,665,91,17937545500
343,624,683,133,146,921,569,558,90,17957676600
328,693,751,139,112,851,473,522,89,17977513100
258,647,845,201,96,711,416,422,88,17997631900
175,528,891,220,93,688,211,355,87,18017804900
156,502,756,226,87,653,170,303,86,18037786400
153,498,810,254,84,655,175,259,85,18057886300
132,378,862,260,76,543,149,139,84,18077591000
136,398,825,232,72,513,143,118,83,18097649200
127,432,895,223,73,488,143,96,82,18117667700
146,442,919,236,79,524,135,81,81,18137400300
160,418,867,201,78,542,127,79,80,18157381700
160,376,772,183,77,515,117,71,79,18177434100
153,396,811,187,78,517,116,67,78,18199417800
159,390,716,182,71,516,116,56,77,18219569600
160,365,821,165,72,547,118,53,76,18239439300
152,420,856,176,70,471,116,57,75,18259172300
174,442,874,180,70,458,187,64,74,18278963100
177,434,783,153,73,451,195,69,73,18299207100
177,420,805,161,79,529,203,70,72,18319538000
205,452,693,146,76,548,212,70,71,18337189500
216,431,690,129,70,533,207,134,70,18359638300
206,422,732,125,69,531,141,134,69,18377355000
203,376,768,129,60,535,132,138,68,18399346600
232,364,866,147,76,444,117,143,67,18419119600
191,332,842,149,77,326,93,142,66,18439264100
176,342,833,170,83,333,95,84,65,18459212400
200,366,927,188,85,322,91,79,64,18478896600
210,462,960,189,91,384,119,74,63,18499046500
170,495,859,175,73,348,114,64,62,18518698900
175,503,893,193,75,308,113,63,61,18539297300
191,496,897,189,71,355,104,54,60,18559057000
178,493,771,191,88,453,120,65,59,18579003400
185,473,763,214,89,414,106,63,57,18619686600
216,473,748,209,87,419,106,61,56,18639765100
222,457,800,209,85,428,104,64,56,18639779000
221,451,830,207,87,429,145,63,55,18659380600
200,435,860,198,89,526,168,56,54,18679349300
203,380,827,172,87,512,162,52,53,18699679400
181,342,912,175,86,508,162,51,51,18738653600
177,436,914,187,87,505,164,50,51,18738669800
162,440,854,182,88,535,140,49,50,18758169000
184,497,823,196,84,402,101,55,48,18798687500
177,564,894,243,97,411,98,62,48,18798712600
175,640,964,272,113,424,100,69,47,18819096000
168,602,972,260,113,425,103,69,45,18858617300
194,631,1040,266,110,414,106,83,45,18858631100
208,620,1031,262,109,478,104,80,44,18878667600
219,617,1087,257,104,509,105,79,42,18918481700
226,562,1095,222,92,500,103,73,42,18918494700
231,589,1107,219,96,557,130,76,41,18938988200
227,563,1125,235,104,500,125,78,39,18977415800
248,545,1186,295,99,397,123,75,39,18977428700
228,520,1161,291,105,341,122,78,38,18997352500
228,667,1145,357,137,348,129,92,37,19019525400
247,683,1167,400,142,422,132,100,36,19039482900
260,796,1166,471,169,438,148,103,35,19059455500
231,878,1165,466,185,448,154,121,34,19078817000
258,957,1237,493,196,465,157,128,33,19098647300
280,873,1158,517,197,461,159,140,32,19119057100
290,885,1113,567,212,392,196,145,31,19139000800
299,899,1147,555,208,402,191,142,30,19159398700
304,845,1194,564,212,383,196,137,29,19179353400
339,787,1130,605,236,378,198,147,28,19198942900
384,873,1137,677,278,390,200,157,27,19219138100
425,918,1141,687,283,355,153,257,26,19239225800
439,890,1124,715,305,347,163,283,25,19258912400
477,1008,1161,812,347,389,180,297,24,19279100500
465,1025,1173,850,360,400,193,304,23,19299284200
433,982,1222,804,332,499,203,295,22,19319564900
460,1065,1245,851,354,571,210,295,20,19358682200
439,1070,1263,854,350,564,195,270,20,19358695700
395,978,1164,785,327,570,189,297,18,19398195200
489,1073,1118,781,326,685,190,348,17,19418126500
488,1143,1140,776,336,731,199,399,17,19418139100
470,1081,1110,749,318,661,200,359,15,19457389000
486,1101,1062,741,303,652,196,373,14,19479555200
510,1204,1104,754,301,657,207,365,14,19479568600
416,1088,1055,697,280,672,219,320,13,19499070600
414,994,918,688,267,554,216,318,11,19539054000
358,980,864,618,250,652,239,319,11,19539067900
349,980,895,588,250,661,265,319,10,19558695100
306,807,758,509,217,669,266,307,8,19598209200
286,772,721,444,186,621,263,363,8,19598221500
254,725,727,364,161,729,429,456,6,19638537400
287,739,770,334,163,771,446,568,5,19658404000
268,705,825,264,140,786,443,606,5,19658417300
272,681,817,246,131,811,484,780,3,19698251000
269,716,827,265,136,907,627,834,2,19718147500
292,762,874,289,146,838,567,776,2,19718160200
246,622,823,232,123,787,550,767,0,19757636800
248,482,634,196,125,883,586,908,1,19778216200
247,502,640,194,134,887,707,799,1,19778228500
248,481,720,171,136,756,724,785,3,19818469900
261,572,742,210,131,763,698,796,4,19838232000
299,685,794,257,136,746,718,794,5,19858257500
285,713,756,261,137,766,784,659,6,19878639100
295,711,741,261,128,724,751,706,7,19898571500
306,715,640,256,120,697,625,629,7,19898584500
276,605,635,245,121,688,633,605,9,19939094900
226,484,513,200,119,708,632,650,10,19957765400
219,428,507,193,115,731,700,729,10,19957779300
205,401,509,191,114,730,633,679,12,19997451300
186,494,498,178,108,717,652,693,13,20017178900
195,475,387,145,87,689,668,709,13,20017191900
211,482,385,134,82,708,660,647,14,20038848600
208,479,373,130,65,643,524,613,16,20078714200
221,513,373,130,61,631,545,599,16,20078743300
224,451,427,142,57,619,535,578,17,20098768200
241,469,442,142,67,625,513,566,19,20138900000
235,438,470,142,75,676,531,550,19,20138913500
250,456,472,144,73,585,497,558,21,20178730700
232,462,464,142,74,591,502,544,22,20198627400
227,544,491,134,75,597,487,560,22,20198640500
207,587,539,165,93,616,490,587,23,20218883600
196,598,513,174,88,511,542,646,25,20258341100
187,586,516,175,89,507,555,558,25,20258353900
190,577,514,176,88,475,476,542,27,20298783100
276,492,450,175,89,477,465,524,28,20318846900
266,456,395,132,66,466,490,542,29,20338842000
269,471,402,128,55,387,401,446,30,20359306700
265,468,403,126,59,378,377,495,31,20379218500
292,437,408,128,58,394,448,525,32,20399289100
213,492,398,130,58,376,489,528,33,20419126500
217,495,488,164,66,344,445,501,34,20438718500
211,479,507,168,67,329,452,575,35,20459110100
224,478,505,169,66,338,484,565,36,20479236400
212,469,505,167,65,326,482,538,37,20499200800
210,427,505,163,64,332,450,552,38,20519282200
222,449,381,104,52,339,446,523,39,20538921200
216,465,368,87,55,367,449,423,40,20558814800
214,473,355,85,50,352,453,498,41,20578561400
216,500,356,84,52,344,459,541,42,20599057400
217,506,355,85,55,351,461,557,43,20619293800
199,485,310,66,50,336,492,582,44,20639333200
233,511,277,56,49,309,545,580,44,20639523600
227,511,272,58,52,314,564,517,46,20679006600
192,511,265,56,51,322,503,563,47,20698223600
198,531,319,63,47,326,533,557,48,20718822100
209,493,332,71,54,366,640,589,49,20739463200
188,450,352,77,55,388,599,585,50,20757271600
190,452,353,76,55,350,581,635,51,20778547600
199,438,352,76,58,363,599,627,52,20798379900
172,404,311,69,57,418,574,634,53,20818079300
179,493,310,61,54,436,520,603,54,20838104400
167,505,343,51,53,462,529,684,55,20858004200
165,530,375,55,51,456,546,582,56,20877879600
195,545,375,54,51,488,595,522,57,20898142300
220,581,486,100,58,541,605,560,58,20918271900
235,566,485,111,57,544,522,584,59,20938169700
250,554,443,111,56,577,527,526,60,20959962400
263,566,419,110,53,632,465,535,61,20979409300
259,575,425,111,62,734,449,599,62,20999504600
274,523,307,73,61,713,449,568,62,20999518700
264,546,307,67,69,783,478,562,64,21039103500
257,578,307,66,74,822,528,535,65,21059208100
237,579,306,68,76,844,508,560,66,21079045000
241,554,296,65,69,766,545,515,67,21098727700
222,552,262,65,71,811,568,581,68,21118843700
240,522,163,47,70,907,606,644,69,21138862100
281,588,161,48,68,924,544,690,70,21159096600
307,630,172,48,64,901,588,749,72,21198197800
296,627,184,53,80,974,563,761,72,21198211900
290,625,167,50,78,925,623,735,73,21218260600
266,604,168,56,85,936,622,708,74,21238115400
282,579,172,59,86,1074,715,751,75,21257618600
278,652,165,57,92,1080,756,753,76,21279566000
320,675,158,55,87,1079,713,764,77,21299456000
336,689,216,72,92,1241,682,859,78,21319457300
370,760,256,79,89,1210,744,920,79,21339145500
359,856,252,79,88,1104,701,889,80,21359317000
352,785,252,80,85,1089,695,826,81,21379273800
329,880,258,79,78,1104,700,804,82,21398801400
315,859,217,66,70,935,670,652,83,21419182500
276,844,179,59,65,932,662,512,84,21439087700
236,781,189,59,69,953,732,580,85,21458872400
307,759,183,59,94,1093,715,609,86,21478904600
319,732,164,57,93,1044,804,677,87,21498816800
357,768,197,61,98,1123,844,793,88,21518645000
372,731,198,57,101,1183,901,869,89,21538641400
365,655,182,60,110,1207,1018,911,90,21558636500
330,707,208,84,126,1221,1076,982,91,21578432300
418,695,279,120,190,1296,1075,1031,92,21598512400
520,811,302,132,209,1293,1137,1105,93,21618656100
679,927,321,141,222,1335,1105,1249,94,21638242900
710,992,324,141,232,1302,996,1186,95,21658289300
773,993,307,129,232,1291,1024,1196,96,21679163200
770,1036,261,109,208,1277,1034,1158,97,21699162600
770,1022,276,115,226,1412,971,1087,98,21719022000
683,1006,345,123,234,1375,1001,895,99,21739250800
660,999,382,130,225,1437,1023,894,98,21759620400
695,1046,491,157,216,1358,943,815,97,21777788800
644,1017,542,163,198,1324,887,747,96,21797636000
544,919,555,157,155,1166,839,628,95,21817511700
485,791,592,145,119,1008,702,534,94,21837339100
471,746,578,140,104,906,525,447,93,21857426200
254,660,523,115,87,982,425,322,92,21877682600
225,548,470,95,72,950,346,240,91,21897863400
224,539,418,99,68,921,292,203,89,21937589900
174,550,374,99,59,1032,230,153,89,21937640500
176,499,444,96,59,944,288,136,88,21959126000
149,452,482,110,50,883,267,93,87,21979058000
154,442,535,122,59,838,255,68,86,21998840500
140,429,574,135,53,769,249,60,85,22018818700
146,416,547,139,57,616,252,57,84,22038713100
142,382,636,147,62,623,162,58,83,22058658800
143,346,610,132,62,519,149,55,82,22078538200
162,307,572,123,54,476,208,57,81,22098399500
156,300,532,90,47,476,207,57,80,22118395400
165,307,576,96,44,453,207,50,79,22138191100
164,355,484,103,53,461,203,46,78,22159005800
163,342,508,124,51,466,215,49,77,22178913500
131,362,516,126,50,466,129,41,76,22198806900
126,338,557,141,53,436,130,41,75,22219381200
111,365,667,160,57,410,121,42,74,22239227200
118,366,649,156,42,333,114,42,73,22259376400
132,352,613,141,43,259,80,41,72,22279519900
139,336,630,145,44,241,77,43,71,22299303700
138,344,666,135,41,202,62,42,70,22319243300
138,333,521,128,45,258,93,43,69,22338736100
135,307,489,125,49,265,91,42,68,22358794200
136,321,575,128,46,257,90,39,67,22378687200
120,322,618,125,47,262,86,37,66,22398860900
121,321,547,127,54,351,100,40,65,22419121000
116,284,565,117,59,432,83,43,64,22438910100
113,292,625,125,58,450,82,43,63,22459024400
110,306,573,139,62,460,84,46,62,22478681200
110,320,518,146,63,461,89,46,61,22498573500
119,325,648,142,59,396,77,43,60,22518397200
117,334,606,139,50,266,66,36,59,22537913800
113,310,607,140,46,247,66,37,58,22557644500
96,320,584,123,45,226,65,35,57,22577612300
92,304,670,119,46,217,56,31,56,22597449400
72,288,600,119,46,210,49,33,55,22617237400
71,281,762,125,39,132,38,36,54,22639561900
64,268,742,113,41,82,32,56,53,22659520800
57,237,756,123,41,88,32,58,52,22679112100
54,220,670,112,38,85,33,58,51,22698779700
53,223,657,118,40,85,33,59,50,22719036200
52,216,663,105,40,82,34,58,49,22738789200
54,228,662,107,40,87,36,39,48,22757496500
47,209,651,93,37,74,34,33,47,22777625500
51,227,706,94,38,127,43,35,46,22797773900
53,226,698,100,38,128,45,31,45,22817364900
51,220,511,96,39,127,43,30,44,22837388500
52,222,480,95,40,126,44,31,43,22859495500
56,236,570,102,38,153,53,32,42,22879390500
51,214,606,100,36,168,61,28,41,22899434300
48,210,690,92,35,166,62,29,40,22919165800
52,227,811,101,39,168,65,33,39,22939536600
50,205,877,98,39,203,64,33,38,22958988100
73,241,849,117,56,264,69,45,37,22978660100
81,268,846,134,58,257,56,52,36,22998967400
86,270,843,133,61,260,55,118,35,23019231700
97,272,761,163,69,265,54,121,34,23039089400
103,289,686,174,74,242,125,164,33,23058866400
90,259,747,170,65,156,127,173,32,23078814900
83,256,740,159,66,120,129,172,31,23099251400
83,276,709,159,64,179,147,138,30,23118901900
73,283,712,115,53,239,148,135,29,23138609800
66,260,815,109,49,251,97,80,28,23159125600
66,299,863,100,50,258,90,51,27,23178988300
78,319,855,98,50,280,95,52,26,23199112500
82,354,864,132,58,279,63,57,25,23219411000
83,348,926,147,67,272,75,73,24,23239342100
93,357,992,168,81,276,92,80,23,23258824700
103,373,963,164,80,277,91,81,22,23278860300
112,443,950,195,86,263,84,84,21,23298951300
119,464,991,190,87,330,93,79,20,23319138500
116,492,1039,197,82,362,116,65,19,23339285700
118,533,1005,190,78,357,103,59,18,23359311000
120,548,999,225,90,355,107,60,17,23378924000
117,562,1062,226,93,358,110,62,16,23398655400
114,603,1084,229,92,267,109,63,15,23420457100
126,629,1034,237,97,172,73,64,14,23438345700
158,681,1056,272,122,205,86,73,13,23458606200
182,797,1104,283,128,200,85,79,12,23478243300
179,769,1150,290,127,185,86,74,11,23498288900
181,750,1147,312,133,182,83,73,10,23518102400
194,827,1199,328,153,178,88,82,9,23538111200
184,835,1187,373,143,123,82,81,8,23558311600
204,822,1209,413,168,123,90,97,7,23578426000
237,844,1190,528,198,130,95,114,6,23598510100
290,906,1178,570,208,141,101,138,5,23618240900
322,902,1142,667,225,139,109,155,4,23639107700
384,972,1128,680,252,150,121,175,3,23659048100
384,966,1152,678,243,154,116,171,2,23679633000
372,971,1152,623,230,143,112,165,1,23699692200
365,1032,1286,592,227,139,108,157,0,23717289900
369,989,1345,633,268,139,115,161,1,23739585700
351,1048,1303,682,279,132,110,157,2,23757275300
355,1038,1250,730,285,130,124,173,3,23777398400
349,1012,1158,703,275,205,133,206,4,23797240400
329,876,957,698,272,389,263,410,5,23817895500
299,833,829,553,205,484,335,585,7,23858163600
234,591,812,420,149,602,566,642,7,23858177700
189,462,694,251,113,620,574,706,8,23877949100
186,466,710,234,116,692,601,719,9,23898135600
156,418,631,192,110,686,614,707,10,23917844700
176,422,656,179,120,814,622,614,11,23937524000
166,506,747,179,109,802,454,618,12,23959492900
169,508,723,167,119,866,471,686,13,23978849700
180,459,687,146,118,874,553,697,14,23998751600
201,504,735,178,120,864,579,717,15,24018783300
170,569,701,168,106,722,562,700,16,24038797900
205,548,546,164,106,649,546,652,17,24058965500
207,595,523,163,107,758,555,573,18,24078674700
209,602,515,165,100,756,448,703,19,24099011600
204,597,498,125,90,717,370,614,20,24119058500
216,577,508,165,91,688,319,602,21,24139031400
183,554,501,153,90,696,315,676,22,24159195600
191,475,493,154,75,636,320,750,23,24179434900
176,502,508,156,76,587,408,708,24,24198982200
177,497,602,164,77,586,380,718,25,24219409700
158,515,501,127,62,589,387,721,26,24237708100
170,492,489,119,59,587,415,696,27,24257233100
167,495,495,115,56,398,430,634,28,24279414600
179,485,473,110,57,344,382,535,29,24299618900
163,470,382,94,48,306,372,524,30,24318993100
162,468,457,107,57,300,396,506,31,24339226700
161,480,491,105,57,328,362,509,32,24359585200
156,501,488,105,58,386,385,547,33,24377258100
144,495,503,106,55,358,379,572,34,24397457800
141,502,453,98,55,365,395,569,35,24417243500
131,410,479,74,45,359,371,584,36,24439575100
149,390,456,80,44,329,387,612,37,24459374400
166,366,468,82,44,276,316,552,38,24479269200
180,346,462,81,44,283,277,566,39,24498993900
185,429,515,125,49,309,283,613,40,24517932600
188,446,413,116,46,338,320,615,41,24537780300
168,408,387,115,46,354,316,565,42,24557744200
161,401,359,116,42,345,326,528,43,24577786700
153,416,407,118,40,344,330,486,44,24597376000
148,333,331,92,44,324,311,461,45,24619552500
151,370,340,100,46,315,304,552,46,24639328600
164,373,352,100,46,309,335,587,47,24659262800
184,381,351,98,44,285,333,603,48,24679045400
175,367,276,96,49,288,353,625,49,24698932500
173,402,474,91,40,311,380,631,50,24718559800
169,368,543,88,42,311,376,595,51,24738935100
177,385,538,83,43,279,364,568,52,24759563800
151,380,540,85,50,309,354,563,53,24777423900
167,415,567,88,49,307,386,591,54,24798203200
175,370,453,87,49,296,373,566,55,24818039100
176,380,373,80,47,290,380,574,56,24837918700
159,443,370,80,45,286,416,545,57,24857993600
156,454,376,77,39,330,423,623,58,24878090300
148,429,356,75,39,405,389,653,59,24898169800
219,507,293,57,37,408,423,649,60,24918129700
232,498,256,83,41,402,395,595,61,24938214200
235,483,254,88,46,429,340,600,62,24959716300
240,495,245,86,51,524,377,621,63,24979646200
242,488,207,86,52,495,370,562,64,24997308200
186,401,140,82,53,514,312,582,65,25017218600
166,402,192,64,48,516,357,595,66,25037417900
159,336,195,56,44,507,365,693,67,25059142800
153,316,194,59,43,370,348,608,68,25079384900
146,444,206,56,42,333,346,584,69,25097381300
126,434,225,53,42,299,356,618,70,25119517800
132,449,184,43,43,363,386,770,71,25139401400
158,540,179,46,50,403,469,691,72,25157316400
152,634,191,48,50,541,458,808,73,25177197900
155,591,243,56,51,562,464,818,74,25197266600
172,625,348,61,53,592,562,823,75,25219585900
173,625,383,59,57,597,557,777,76,25239156800
162,675,383,57,58,644,506,799,77,25258959300
201,614,384,57,61,542,525,687,78,25278846100
223,683,359,49,62,571,595,746,79,25298925200
247,775,247,42,62,571,612,757,80,25318314700
256,783,185,42,64,592,655,687,81,25338400700
247,769,316,48,58,592,669,701,82,25358042500
249,841,409,52,53,610,720,699,83,25377821700
267,767,409,56,54,707,681,700,84,25397406800
255,709,413,56,55,788,663,682,85,25419411600
277,782,425,61,52,826,650,677,86,25439241000
299,806,403,70,69,844,667,704,87,25459709500
313,794,315,66,78,909,624,722,88,25479531200
304,917,312,69,87,960,661,742,89,25499362200
302,921,303,70,90,909,660,781,90,25519078900
330,896,312,74,93,917,716,911,91,25538946400
346,834,251,74,114,1012,712,933,92,25559457300
324,810,243,95,132,1071,780,971,93,25579110100
359,729,238,108,166,989,891,1009,94,25598532300
387,816,253,115,178,1069,941,1024,95,25618173200
381,869,229,119,209,1154,964,1031,96,25638945900
409,897,204,120,227,1252,1064,1036,97,25658954000
454,890,208,122,229,1320,1074,1083,98,25679595700
465,887,233,114,220,1375,1016,1122,99,25699342400
616,838,310,138,256,1446,1012,1157,98,25718785000
675,799,333,152,275,1492,991,1132,97,25738701800
696,833,435,166,263,1510,990,1145,96,25758887400
693,888,492,174,281,1467,956,1144,95,25779302000
684,951,481,177,297,1527,1023,1039,93,25819348800
559,916,446,159,263,1479,968,998,93,25819362100
512,939,457,164,259,1389,954,1102,92,25838972900
449,899,418,146,249,1228,847,1066,91,25859159900
415,874,350,123,219,1133,834,990,90,25879320300
393,779,370,119,191,964,697,999,89,25899071500
341,775,461,117,185,819,653,919,88,25918590200
250,666,473,113,118,772,544,645,87,25937441100
217,604,475,194,115,865,471,534,86,25958627000
195,537,630,225,121,885,378,433,85,25978477200
151,513,741,257,104,944,278,267,84,25998400700
153,435,695,258,100,955,260,219,83,26018160700
168,441,698,252,99,883,243,150,82,26038004000
183,445,744,257,93,690,243,125,80,26078271700
170,400,661,237,70,677,221,87,80,26078296700
174,362,549,210,51,590,228,73,79,26098275300
166,395,571,211,51,565,222,70,78,26118370600
157,475,544,220,53,563,219,59,77,26137478000
141,459,562,158,54,539,197,55,75,26179636500
132,430,537,160,49,475,194,54,75,26179649100
120,433,532,150,51,373,251,56,74,26198086800
124,456,531,143,47,342,234,59,72,26237869300
104,405,541,115,40,331,237,56,71,26257457700
112,430,449,117,43,312,237,54,71,26257470800
112,451,441,97,44,181,238,54,70,26279326100
117,448,505,106,39,240,166,47,69,26297484500
112,385,487,111,39,272,210,37,68,26317426900
116,319,473,110,38,261,206,35,67,26339660300
96,291,509,91,36,263,204,36,66,26359675800
101,262,533,108,37,259,197,33,65,26379551500
98,304,462,99,37,192,198,32,64,26399163400
96,335,574,100,37,111,143,29,63,26418939500
89,327,626,116,41,112,138,30,62,26438858700
85,298,625,125,41,101,135,30,61,26458654600
93,320,660,159,45,94,132,36,60,26478758100
89,284,658,169,51,78,66,41,59,26498726400
87,265,641,175,54,77,54,43,58,26518052700
99,272,656,178,52,61,62,43,57,26538281600
97,282,653,171,52,59,59,43,56,26558248200
82,231,634,133,58,55,55,39,54,26598447100
74,208,708,114,56,68,56,33,54,26598460700
75,185,703,112,60,161,64,31,53,26617868800
58,197,645,110,62,268,65,31,51,26658028400
57,179,622,111,63,290,64,29,51,26658040600
56,232,713,110,55,301,66,29,50,26677625700
64,246,665,116,54,302,66,37,49,26698095500
82,265,618,135,72,366,85,41,48,26718047000
80,265,628,125,72,320,76,41,47,26737902800
90,295,691,140,74,302,79,45,45,26778726100
102,334,770,151,74,295,77,46,45,26778741700
98,330,785,157,74,298,76,41,44,26799149600
87,327,803,136,53,165,50,43,43,26819521600
88,329,819,138,51,141,63,44,42,26839540600
82,314,792,134,50,178,63,41,41,26859551400
71,272,688,120,51,241,66,41,40,26879512500
75,347,745,134,65,312,114,47,39,26899560400
67,339,796,145,65,317,115,43,38,26919333600
108,352,846,146,66,332,111,43,36,26958289800
142,404,910,148,71,331,112,54,35,26978556300
142,392,884,147,69,357,114,52,35,26978568800
147,367,844,130,56,308,69,50,34,26998631000
156,397,857,124,56,306,68,52,32,27038327400
133,378,791,129,58,304,63,54,32,27038340100
104,351,772,129,54,290,62,46,30,27078116300
121,405,805,165,63,301,83,52,29,27097900800
117,383,921,174,61,318,87,49,29,27097919500
108,351,843,175,62,318,90,50,27,27138216100
109,359,886,180,64,307,99,51,26,27158214400
114,384,872,180,62,404,121,54,26,27158227100
100,394,850,168,68,372,111,50,24,27197690600
116,492,786,215,80,382,117,58,23,27221665600
130,520,901,272,92,380,117,63,23,27221678200
144,588,1000,296,97,372,113,67,22,27239440700
147,577,1034,306,102,357,101,69,20,27279139200
166,544,1084,323,108,347,99,79,20,27279155200
166,549,1068,295,108,306,90,78,19,27299260700
163,547,992,242,98,306,90,74,17,27339151000
165,583,916,222,95,305,89,75,17,27339164800
199,619,929,301,106,180,82,87,15,27378379300
192,673,906,309,103,140,80,83,14,27398299400
193,676,910,341,109,156,76,85,14,27398312700
233,783,989,437,130,155,87,103,13,27418128600
230,723,1023,489,135,150,85,103,11,27457818900
222,769,1006,476,134,142,77,98,11,27457831900
247,796,1065,556,164,124,83,110,9,27498110300
263,761,1095,556,167,95,89,117,8,27518062600
271,778,1123,524,173,90,83,116,8,27518075600
322,872,1151,596,206,110,93,132,7,27537941300
395,903,1193,638,223,116,105,148,5,27577799500
410,913,1222,594,224,109,110,157,5,27577813900
422,921,1180,603,239,115,116,162,3,27618049900
423,897,1112,596,240,119,123,169,2,27638059300
389,838,1039,579,238,119,120,161,2,27638071300
324,849,1041,568,244,255,124,157,0,27678045800
278,816,972,530,223,366,139,190,1,27697958200
261,833,982,529,211,453,152,238,1,27697970700
322,868,980,607,258,603,188,280,2,27718227600
316,854,982,510,233,614,206,291,4,27762517400
291,738,837,433,206,635,215,427,4,27762530600
303,717,718,423,205,612,223,541,6,27797696900
299,700,678,395,195,643,233,581,7,27817449600
204,655,776,213,102,545,231,650,7,27817463500
199,635,714,196,97,577,227,678,8,27839546800
191,656,732,182,94,609,256,627,10,27879014600
211,609,833,182,99,700,253,618,11,27899187400
206,615,950,157,102,702,248,588,11,27899200600
183,547,833,112,102,864,254,593,13,27939213900
185,531,829,100,105,910,294,706,14,27957962600
195,569,793,97,100,877,299,772,14,27958017500
212,629,703,135,99,835,302,835,16,27998068600
200,641,483,125,89,772,297,841,17,28017713700
216,589,403,133,75,639,289,791,18,28038320500
231,586,382,133,70,617,278,789,19,28058337000
231,571,378,135,72,593,240,741,20,28078003500
189,526,447,122,63,527,225,589,20,28078018600
184,469,514,131,71,652,258,571,22,28117860500
157,442,516,125,73,619,288,575,23,28137874900
125,423,516,124,72,585,277,517,24,28157779100
106,313,533,125,68,632,315,477,25,28177719100
108,302,527,112,62,632,318,491,26,28197609900
121,268,602,93,53,514,300,590,27,28219678800
132,401,616,99,55,475,297,601,28,28239356400
145,403,623,100,59,445,298,605,29,28258822100
148,441,617,98,58,340,261,627,30,28278564200
139,522,611,96,58,340,259,624,31,28302811400
154,560,649,137,64,405,282,591,32,28317915400
161,561,672,135,61,430,271,597,32,28317927300
148,574,669,137,55,445,287,531,34,28358245200
152,567,661,137,57,447,345,529,35,28378034600
165,488,634,122,50,442,351,592,35,28378046200
150,546,563,91,44,375,324,545,37,28417399400
144,490,546,98,43,357,294,537,38,28437543300
150,492,544,93,42,312,302,556,39,28457527300
157,479,546,91,40,310,306,591,40,28477376500
136,468,483,92,45,306,304,548,41,28497397000
144,373,389,93,45,299,306,550,42,28517425900
135,362,360,78,41,257,339,616,43,28537650300
136,371,346,82,48,281,310,598,44,28557315300
142,352,341,81,50,421,268,581,45,28577374700
152,394,293,83,48,439,281,591,46,28599601900
148,389,231,57,46,447,308,594,47,28621039400
161,402,357,72,51,475,272,539,47,28621051800
163,380,374,68,46,475,258,551,49,28659201500
149,464,386,72,44,385,256,532,50,28679743300
144,449,409,70,45,360,313,533,50,28679756300
159,410,385,66,44,384,345,641,52,28717477800
151,442,235,48,41,371,362,614,53,28737584100
145,460,206,47,41,352,379,590,54,28759743200
141,449,203,46,43,321,389,579,55,28777394100
209,494,275,57,51,502,349,607,56,28798001500
206,539,292,59,51,504,365,511,57,28818040100
236,500,295,59,49,511,366,515,58,28837699200
318,496,298,63,54,519,368,599,59,28859149900
332,496,288,63,54,549,346,639,60,28877273600
297,448,207,51,53,447,342,601,61,28897490400
293,409,282,63,54,416,300,560,62,28917554100
265,453,386,87,59,381,289,545,63,28937694600
157,497,398,86,55,409,360,495,64,28959539700
199,480,396,86,57,426,360,495,65,28977461200
200,527,381,86,53,489,393,472,66,28999634600
206,645,312,77,53,498,378,515,67,29019610900
227,637,193,53,49,567,424,605,68,29039573200
256,646,175,53,49,563,354,638,69,29057244800
211,652,185,53,55,603,433,647,70,29077523200
256,632,211,57,54,615,435,713,71,29097586300
307,589,247,63,62,649,495,752,72,29117422000
316,591,233,60,61,599,490,782,73,29137268300
297,540,225,58,59,576,522,779,74,29159547900
296,549,222,59,57,510,521,825,75,29179358500
278,559,288,66,67,459,526,879,76,29199066300
236,498,271,61,68,556,531,934,77,29218777300
243,476,263,64,75,652,546,942,78,29238565600
244,527,265,68,86,741,581,1019,79,29258440600
292,564,266,68,90,799,574,1046,80,29278453900
282,551,184,57,85,882,678,1045,81,29298388600
295,576,168,68,92,928,714,1033,82,29317876800
307,630,170,66,93,955,733,980,83,29337884700
320,722,162,63,94,1083,815,929,84,29357862000
317,679,155,66,100,1247,830,950,85,29377885300
336,807,180,69,118,1266,902,932,86,29401746400
349,825,295,68,118,1254,941,886,87,29419216100
334,865,318,73,151,1281,1051,940,88,29439284800
377,802,344,84,155,1235,1096,954,89,29457196400
435,846,345,85,161,1148,1147,976,90,29479621900
439,824,370,106,180,1110,1093,931,91,29499245600
482,873,309,121,197,1177,1063,1006,92,29518799200
533,883,314,135,205,1282,964,1029,93,29538621200
553,986,296,136,225,1254,961,1103,94,29558871900
572,1035,310,148,275,1441,923,1006,95,29578504300
620,1040,293,141,268,1474,884,1123,96,29598260900
622,1055,296,137,273,1493,922,1119,97,29618368100
595,999,285,124,257,1487,928,1098,98,29638407900
574,925,331,120,236,1489,870,952,99,29658360200
490,856,450,111,166,1234,830,931,98,29679108500
402,783,466,99,154,1289,807,756,97,29699230000
351,687,456,83,120,1171,785,671,96,29719050000
348,710,497,92,99,959,747,574,95,29738871000
297,621,531,113,97,888,608,533,94,29758992200
294,651,476,120,97,946,581,485,93,29779030700
297,587,534,159,94,748,529,479,92,29799139300
244,533,552,164,85,773,353,365,91,29818795600
169,456,577,164,87,843,280,301,90,29838883000
151,450,557,152,83,830,273,322,89,29858821500
174,346,565,155,76,771,293,315,88,29879405100
155,385,506,145,56,757,278,268,87,29899244900
140,378,629,166,57,655,258,231,86,29919026100
139,352,593,172,57,649,244,195,85,29943490500
145,337,595,170,61,696,259,137,84,29959484800
96,272,561,155,61,679,158,107,83,29979185000
106,266,539,139,62,642,148,95,82,29998927200
142,341,438,121,60,632,138,81,81,30018989700
138,357,457,107,52,513,146,78,80,30038836600
140,353,459,105,55,478,103,54,79,30058390000
145,362,571,109,53,392,93,53,78,30078687200
138,361,584,106,51,381,87,44,77,30098573300
97,287,567,105,51,369,86,42,76,30119094000
96,273,566,112,52,394,65,41,75,30139023300
93,295,534,118,45,391,70,36,74,30159387800
96,280,404,114,46,407,68,28,73,30179388200
112,333,530,122,48,405,70,37,72,30199345400
111,362,584,134,52,409,73,36,71,30219521700
113,383,666,141,53,372,64,44,70,30237390300
100,391,674,135,51,365,68,46,69,30259403200
89,398,679,135,52,339,68,59,68,30279440500
59,313,578,129,53,343,66,54,67,30299464200
55,305,540,112,47,341,65,54,66,30319736200
56,280,515,106,52,333,61,48,65,30337207700
53,270,666,131,52,167,58,47,64,30357734400
56,300,685,134,51,181,59,31,63,30379537200
55,323,726,125,50,253,64,33,62,30399463800
60,324,738,114,47,262,66,40,61,30417310000
60,374,787,125,40,259,66,40,60,30439711200
61,392,686,113,43,257,57,40,59,30457465200
56,360,807,117,45,261,63,41,58,30477806500
64,365,799,117,46,191,56,42,57,30499582600
66,377,783,121,49,171,55,37,56,30517766500
66,336,721,103,49,172,60,41,55,30537579700
67,309,790,89,48,225,64,41,54,30559539400
68,302,691,101,58,288,63,43,53,30577263300
67,291,733,124,60,280,67,41,52,30597396200
65,265,759,126,60,289,71,43,51,30617258300
62,277,764,134,59,302,76,40,50,30637594100
67,290,748,137,63,304,79,42,49,30657408700
69,327,783,138,55,232,73,40,48,30679552300
75,329,801,148,57,239,75,43,47,30699446000
73,321,768,164,54,239,72,41,46,30719611000
79,336,710,165,58,285,87,42,45,30737396200
79,354,742,177,57,260,90,41,44,30759624800
78,396,804,173,55,258,97,41,43,30777412800
72,393,811,158,51,251,94,38,42,30797899700
71,404,889,144,51,267,98,37,41,30818238600
71,398,1006,159,61,277,86,39,40,30839132600
71,393,1044,172,60,267,77,42,39,30859124800
67,331,1055,173,59,258,68,40,38,30879176200
76,351,1027,178,65,265,70,50,37,30899299600
79,343,999,182,69,384,112,52,36,30919326400
73,322,921,167,55,357,110,49,35,30937774600
69,319,828,149,53,346,108,43,34,30959093800
75,338,732,167,59,354,112,48,33,30979288400
78,395,877,164,54,398,123,42,32,30997334200
88,463,877,155,65,345,86,43,31,31017449700
100,483,892,165,72,333,95,50,30,31039211900
110,488,914,190,81,344,115,54,29,31059383400
119,496,913,198,86,364,115,57,28,31079308000
120,448,768,188,86,314,112,57,27,31099284700
114,409,767,199,82,236,111,54,26,31119279800
112,401,839,200,82,211,105,52,25,31138852700
112,421,915,184,78,255,120,51,24,31158664100
107,419,987,167,74,333,162,51,23,31178388200
98,492,1061,180,75,360,164,49,22,31198172500
122,628,1119,225,92,357,168,57,21,31218585600
130,654,1132,272,102,360,168,63,20,31238122400
133,653,1114,280,119,495,160,68,19,31257691700
145,673,1108,309,137,441,125,73,18,31277563500
153,698,1080,331,141,417,115,76,17,31297448900
147,611,1102,328,134,415,106,77,16,31319533500
149,657,1187,420,141,420,103,78,15,31339653200
192,813,1205,488,160,310,102,92,14,31359428800
202,838,1245,495,156,337,99,93,13,31379208100
252,854,1281,560,197,351,110,117,12,31399124600
258,878,1345,595,200,351,112,118,11,31419021300
285,898,1263,575,197,349,121,127,10,31438651800
297,890,1308,590,196,257,112,131,9,31458566900
322,1066,1249,624,224,220,114,138,8,31478349400
341,1121,1269,615,203,240,111,128,7,31498367300
361,1158,1285,580,228,238,116,134,6,31518136700
351,1137,1277,602,242,254,109,132,5,31537693000
388,1136,1246,623,250,256,113,143,4,31557287500
380,1021,1313,626,249,253,120,146,3,31578856700
351,951,1254,607,255,222,113,157,2,31599165400
338,897,1141,619,240,294,112,214,1,31619025800
329,870,1108,537,227,483,176,285,0,31638744200
251,735,985,424,208,690,393,477,1,31658775500
225,669,877,329,177,801,418,630,2,31679194400
194,667,829,251,151,831,461,706,3,31699150600
163,613,759,171,131,842,521,857,5,31739174900
155,583,760,165,127,819,522,948,5,31739190600
180,666,839,178,126,792,415,978,6,31758957900
188,656,778,169,117,818,412,939,7,31779520200
186,606,753,153,118,873,389,923,8,31797178500
197,615,704,170,117,941,383,957,9,31817388700
235,669,679,188,130,1032,366,872,10,31839503000
212,595,575,168,117,964,349,773,11,31859211200
212,540,550,163,116,865,345,734,12,31879350200
215,537,531,180,117,787,357,813,13,31898646800
219,557,585,173,118,701,287,629,14,31918507700
178,485,504,168,90,457,286,672,15,31938734200
195,490,474,161,77,410,326,669,16,31957449100
192,485,463,166,76,501,330,748,17,31977520100
211,449,441,154,69,556,329,638,18,31997802300
201,457,410,169,73,540,320,601,19,32018490000
216,496,441,144,73,614,331,521,20,32038339400
201,452,437,135,74,697,301,595,21,32058338600
205,464,440,132,77,716,301,547,22,32078803700
200,505,436,123,70,686,260,527,23,32098539900
233,558,534,77,60,688,259,563,24,32120648000
247,526,532,101,62,652,244,610,25,32138515000
251,512,525,104,59,622,254,541,26,32158404800
239,537,524,101,53,520,254,471,27,32178211600
219,514,524,99,53,527,314,536,28,32197858700
199,519,336,96,53,506,389,505,30,32237812900
166,534,408,74,52,653,395,533,30,32237825600
149,566,414,78,53,595,372,535,31,32258593400
139,542,412,77,51,610,356,654,32,32278586700
155,501,408,75,50,582,311,605,33,32298752700
168,431,420,73,49,573,260,706,34,32318524100
166,413,335,63,42,373,261,685,35,32338400300
175,382,329,45,34,374,303,724,36,32358465600
182,385,322,43,32,312,289,666,37,32378298800
173,444,321,43,35,304,294,660,38,32398197000
141,384,304,56,40,309,281,611,39,32418414700
143,388,249,56,46,361,305,578,40,32438183100
151,424,226,56,48,370,288,562,41,32457819900
148,409,230,57,49,369,330,517,43,32499646000
151,429,232,59,48,413,425,638,43,32499660600
153,458,203,47,42,423,454,578,44,32519443200
145,454,167,40,39,365,442,568,45,32537238900
146,459,191,48,42,409,440,522,46,32559756900
145,480,189,46,42,448,425,549,47,32579510400
156,415,187,46,46,488,387,473,48,32599344700
165,434,286,61,54,554,435,532,49,32619379700
174,561,287,63,50,535,435,551,50,32639232300
162,529,276,58,45,484,431,546,51,32660833300
161,556,300,64,50,491,455,553,52,32678500200
168,658,300,62,49,490,416,559,53,32698453900
157,679,203,45,41,440,336,647,54,32718269000
159,572,188,43,44,511,366,723,55,32738296300
193,602,205,44,47,533,381,778,56,32758496800
211,601,240,62,45,526,347,748,57,32778846000
226,517,289,96,56,527,339,796,58,32798862600
247,510,309,101,68,641,366,724,59,32817420800
264,535,380,105,69,612,329,676,60,32837229100
242,580,384,105,70,620,313,721,61,32857924900
241,567,348,96,70,655,349,778,62,32878122300
221,572,306,64,63,684,416,747,64,32917819100
220,642,468,82,61,671,412,735,64,32917831500
237,680,434,82,60,707,435,796,65,32938855700
241,639,417,83,63,768,446,708,66,32957322700
244,652,418,82,64,818,520,686,67,32977577700
257,647,426,84,61,783,491,658,68,32997455100
245,586,316,68,52,776,537,675,69,33017238600
213,565,290,61,54,825,570,601,70,33039450500
208,570,290,61,47,817,571,612,71,33059634600
281,601,302,60,45,809,506,707,72,33077270400
268,634,312,57,47,799,541,714,73,33099578800
273,613,205,53,52,809,526,730,74,33119612100
272,585,249,57,67,811,495,739,75,33139378400
284,638,255,54,70,789,523,807,76,33159610700
227,658,234,51,76,803,577,732,77,33179046300
246,638,278,56,88,869,611,762,78,33198989800
294,705,340,53,86,889,643,781,79,33218167700
292,751,312,53,87,948,628,796,81,33257576400
285,718,314,54,92,1031,670,796,81,33257605200
274,723,334,56,92,1020,644,840,82,33277259200
252,774,280,63,90,1145,634,918,83,33299188300
229,737,282,86,96,1197,672,936,84,33319584100
274,815,292,91,100,1265,778,969,85,33339467300
304,818,289,94,102,1254,843,959,86,33359693400
302,791,269,96,111,1304,864,943,87,33379705100
332,761,284,91,111,1213,930,914,89,33417701900
358,709,267,85,130,1214,944,950,89,33417716700
353,616,264,80,123,1114,962,963,90,33437499600
352,650,281,89,134,1276,913,960,91,33457579200
415,634,300,96,144,1308,963,1050,92,33477281100
414,651,293,97,161,1412,972,1037,93,33499415600
420,741,339,97,151,1438,933,986,94,33519301900
457,827,345,105,189,1574,956,995,95,33539100600
445,810,331,104,210,1503,997,1047,96,33559444100
447,1015,318,110,240,1537,962,1034,97,33579322600
486,1032,322,128,247,1445,946,1021,98,33599037500
485,1069,252,125,253,1396,1094,1061,99,33619087600
481,1010,291,133,236,1213,1018,1055,98,33639224000
494,1007,295,131,214,1172,1010,986,97,33659282200
463,996,316,125,171,1036,1025,954,96,33677370700
420,964,333,109,159,1078,953,938,95,33697470200
402,932,325,109,164,1039,827,901,93,33737584900
343,975,279,90,149,999,808,816,93,33737597600
347,970,277,83,144,911,746,794,92,33759645700
381,843,273,84,154,938,719,718,90,33798464400
370,852,537,143,136,872,682,635,90,33798478800
346,790,631,195,124,842,533,550,89,33818437100
343,679,704,215,128,926,487,512,87,33858465800
314,640,762,227,129,891,400,451,87,33858478200
215,474,885,252,113,868,222,319,85,33898079600
187,415,755,237,112,843,197,279,84,33918207600
157,388,722,197,93,787,164,199,84,33918220200
157,364,773,216,83,651,151,163,83,33938523400
128,351,812,225,76,674,100,131,82,33959066900
124,337,720,205,74,592,118,82,81,33979040100
121,286,764,189,68,475,117,71,80,33998799200
150,343,731,186,66,463,121,55,79,34018873500
134,398,687,156,65,459,116,45,78,34038477200
135,407,602,147,67,358,103,43,77,34058721100
132,410,547,135,53,279,80,39,75,34098230600
131,421,515,141,65,329,90,41,75,34098243300
91,351,512,139,66,328,79,35,74,34118241800
104,363,418,122,60,307,78,37,72,34157313300
109,423,524,120,63,289,76,46,71,34177521300
108,433,549,120,60,252,68,45,71,34177533900
106,433,523,111,46,138,43,41,70,34199542700
137,422,519,112,45,109,39,43,69,34219081900
130,348,603,117,45,101,36,40,68,34239070900
130,255,505,150,49,72,35,32,67,34258940200
130,236,630,150,51,63,32,31,66,34279433500
131,223,778,156,51,66,34,29,65,34298965400
86,197,770,155,51,53,34,28,64,34319204800
83,228,711,160,51,53,33,31,63,34338708800
70,261,726,124,50,58,34,30,61,34379430600
79,296,716,148,57,64,38,35,61,34379443500
80,288,615,162,62,58,35,36,60,34399266300
80,301,653,161,62,56,34,37,59,34419027600
78,315,633,152,61,53,34,35,57,34458757800
72,279,651,137,50,47,31,32,57,34458772500
76,237,541,127,43,45,29,32,56,34478497600
76,256,510,106,36,46,28,31,54,34518152000
79,261,499,108,37,47,30,31,53,34537866700
72,225,607,105,37,47,31,31,53,34537879900
73,241,701,101,37,52,32,32,51,34578309200
57,235,735,75,42,55,32,31,50,34598087900
63,270,807,90,48,60,45,32,50,34598102100
62,261,843,98,50,92,50,29,48,34640122300
71,300,949,114,54,105,53,33,47,34657439000
74,309,941,118,55,127,53,34,47,34657452600
72,316,1035,114,48,162,53,32,46,34679344000
71,292,990,111,46,171,50,34,44,34719196700
68,337,1026,110,48,166,53,36,44,34719210100
69,322,925,99,46,169,60,33,43,34738839000
71,323,873,98,48,157,60,34,41,34778897600
81,327,794,108,50,119,60,34,41,34778912000
89,305,906,95,49,104,56,34,39,34819381600
88,260,911,89,45,98,48,35,38,34839732100
83,229,918,89,44,86,35,35,38,34839747000
85,241,957,99,41,84,35,34,36,34878068300
89,252,955,126,55,158,51,42,35,34898142600
81,256,861,142,55,176,52,40,35,34898156500
86,236,842,156,56,182,53,40,33,34938491500
100,308,864,166,63,188,59,46,32,34959135600
103,287,791,176,76,338,90,51,32,34959148900
96,279,765,157,68,355,84,45,31,34979247500
91,296,781,144,68,364,86,46,29,35017530700
89,330,737,148,72,374,89,48,29,35017549800
74,316,820,155,71,386,93,44,28,35039701600
67,325,899,140,60,314,79,38,26,35079429900
70,339,893,146,57,281,77,39,26,35079443600
88,378,889,176,68,261,75,44,25,35099666500
107,389,897,181,77,245,73,53,23,35137719800
112,378,769,169,75,220,64,53,23,35137732900
112,377,697,169,76,169,68,53,21,35177405900
112,387,709,188,82,140,72,55,20,35197531300
112,442,836,188,77,135,71,56,20,35197544100
111,474,942,211,72,126,71,51,18,35239471500
116,487,1005,282,92,137,75,54,17,35259438100
114,490,1024,303,92,104,57,54,17,35259452600
116,493,1063,310,92,100,63,55,16,35279253600
119,484,1035,326,99,109,70,56,14,35319083500
112,442,968,315,102,105,69,55,14,35319097600
124,423,966,290,94,91,67,61,12,35358865900
139,527,1108,293,99,81,71,67,11,35378367900
167,587,1126,335,117,92,69,81,11,35378387300
169,609,1175,353,117,78,65,82,9,35418394600
174,682,1243,384,125,85,66,83,8,35438302800
168,733,1276,387,134,88,67,79,7,35458455700
212,765,1300,433,157,99,71,93,6,35478068100
217,762,1308,475,174,104,76,97,5,35497788000
223,772,1280,511,181,107,76,100,4,35517694100
283,818,1255,583,207,114,91,124,3,35539616700
351,955,1250,680,256,128,107,152,2,35559595800
392,1037,1258,736,313,139,127,175,1,35579675200
405,1043,1326,787,333,138,129,183,1,35579687300
400,1072,1298,782,337,140,130,181,1,35617292300
363,1042,1298,730,321,137,121,169,2,35639287200
353,1073,1255,710,313,148,126,166,2,35639307100
290,952,1131,628,248,166,103,138,4,35679350900
275,898,959,500,204,385,258,565,5,35699532400
279,823,893,451,198,493,265,603,5,35699545200
277,769,814,437,200,510,268,724,7,35739325200
233,488,739,294,143,527,328,749,8,35759359700
221,417,629,258,132,649,406,830,8,35759395500
195,447,592,239,137,689,521,797,10,35799176800
201,451,711,223,130,833,609,832,11,35819276000
246,492,667,176,116,857,617,776,11,35819288100
223,492,693,148,112,885,609,835,13,35859278100
280,507,682,143,114,926,666,831,14,35879483300
289,505,718,134,95,906,649,713,14,35879499400
287,518,615,159,88,718,584,680,16,35918568000
277,501,640,162,84,733,588,736,17,35937806700
289,481,599,152,85,721,584,759,18,35958494700
240,476,584,152,82,605,535,752,19,35978191300
229,482,653,153,75,504,441,755,20,35998056100
218,492,660,145,78,538,424,732,20,35998070300
172,469,618,135,84,557,424,659,22,36037963400
138,447,606,132,76,618,456,664,23,36057491900
122,446,607,128,71,586,452,673,24,36077283300
132,439,490,126,70,577,421,641,25,36099546600
151,412,533,124,69,565,420,706,26,36119609300
149,407,509,121,64,505,470,743,26,36119629000
168,414,521,123,65,397,463,636,28,36159414300
201,398,523,124,62,438,400,576,29,36179079600
209,434,582,128,65,452,388,588,29,36179092500
221,453,605,120,55,420,398,542,31,36217424300
231,425,609,122,58,482,367,567,32,36237380900
231,442,593,120,58,543,428,650,33,36259667100
208,467,585,118,57,507,468,669,34,36279777300
213,468,516,112,56,481,467,679,35,36297293600
189,457,343,79,53,485,462,654,36,36319648800
177,478,323,71,47,399,447,593,37,36339401500
158,465,306,72,46,302,453,539,38,36359032500
172,461,293,70,46,281,418,559,39,36378742900
155,464,303,73,46,281,421,583,40,36398606100
164,437,232,87,49,290,478,640,41,36418911100
181,534,238,84,49,263,474,642,42,36438710600
188,551,236,84,47,288,373,621,43,36460586300
170,530,252,86,50,359,365,575,44,36478388600
170,482,243,83,48,420,375,586,45,36498267900
162,477,276,54,41,436,301,615,46,36518145700
159,344,374,61,40,452,331,582,47,36537970000
169,329,407,60,42,482,334,573,48,36558022000
165,333,405,61,42,452,342,560,49,36577732700
152,367,422,59,41,400,322,576,50,36597712300
151,362,423,58,38,417,387,566,51,36617604900
150,438,370,57,41,410,372,621,52,36637515400
142,430,340,55,38,359,381,649,53,36657687800
166,461,335,53,33,370,412,640,54,36677575500
169,437,305,53,37,376,455,636,55,36697765800
171,472,247,53,45,394,413,614,56,36717675700
177,469,217,60,44,417,410,554,57,36737802500
204,493,218,61,48,448,433,518,58,36758601800
196,480,220,59,48,418,387,558,59,36778581200
195,509,235,59,56,586,478,551,60,36798417600
209,563,287,96,64,586,482,504,61,36818263200
202,543,272,121,68,574,471,537,62,36838228200
214,582,277,126,67,564,483,546,63,36858462000
212,642,280,128,71,600,535,649,64,36878820600
229,654,267,131,64,436,452,650,65,36899215800
223,592,218,105,49,416,472,660,66,36919005300
219,572,209,63,45,460,501,659,67,36939865100
178,618,226,52,44,448,498,786,68,36958129800
192,612,217,48,40,464,472,695,69,36977975600
184,571,221,44,42,471,464,643,70,37002048700
171,555,203,51,46,506,457,706,71,37017787600
173,571,199,49,45,529,434,713,72,37037827200
200,489,204,50,46,519,414,575,73,37057851300
199,405,200,50,51,480,458,559,74,37077268900
194,414,233,46,49,546,489,596,75,37097258700
204,402,276,40,47,519,480,598,76,37119571200
211,458,373,49,52,493,494,606,77,37137246000
202,451,364,47,59,595,510,691,78,37159298900
202,473,376,53,59,610,487,788,79,37178803400
201,549,368,59,57,608,451,799,80,37198688700
214,551,343,59,58,616,488,797,81,37218958100
229,510,223,52,58,703,482,837,82,37239125500
223,517,214,55,58,659,484,798,83,37258842700
217,527,224,56,57,774,563,810,84,37278461400
229,485,214,53,60,853,598,842,85,37298195100
266,579,201,50,66,945,596,888,86,37317589600
262,617,202,50,65,1084,686,899,87,37337580900
258,666,192,49,76,1129,788,947,88,37357504300
325,734,212,51,81,1074,747,886,89,37377297700
353,718,217,52,86,1100,806,930,90,37397506500
342,682,222,55,101,1228,832,949,91,37417474800
384,659,220,64,110,1150,809,894,92,37437521000
408,629,269,71,102,1172,771,851,93,37457418300
364,593,247,71,100,1292,835,916,94,37479676400
388,721,251,75,102,1275,821,910,95,37499603000
367,745,246,75,92,1161,824,854,96,37519386400
346,753,260,70,94,1179,830,877,97,37541290100
342,766,297,68,110,1312,910,941,98,37558989700
347,841,310,69,126,1294,891,927,99,37578553600
359,796,305,76,159,1330,907,912,98,37598454900
426,940,311,92,192,1366,971,925,97,37618013700
453,917,323,98,205,1325,1038,977,96,37638041500
513,922,284,102,206,1221,990,978,95,37658322200
542,872,267,108,229,1150,991,1034,94,37678765300
505,869,287,103,221,1284,982,1057,93,37698729200
476,730,285,91,204,1267,944,1046,92,37718789000
446,747,288,85,204,1269,881,1070,91,37738859000
346,691,339,77,195,1229,792,990,90,37758723000
272,612,336,67,160,1183,712,877,89,37779097800
263,622,348,65,139,924,634,776,88,37799218900
228,576,360,59,115,876,556,729,87,37819302600
186,578,402,65,77,875,433,559,86,37839277400
187,581,449,99,81,855,397,510,85,37859256900
185,565,521,121,68,924,374,443,84,37879190900
160,450,564,140,64,1037,312,356,83,37899053000
117,417,590,143,64,986,197,243,82,37918785500
99,422,575,140,59,886,160,198,81,37939809800
100,424,556,124,49,839,140,181,80,37957754700
96,447,539,116,48,748,136,162,79,37978204700
75,446,485,95,41,648,147,143,78,37998397000
72,424,556,93,44,603,177,106,77,38017696200
74,422,551,100,46,612,228,106,76,38038030300
70,468,507,95,47,564,235,104,75,38057946800
68,451,500,88,45,540,231,102,74,38077831900
62,457,507,99,43,382,218,99,73,38097375700
62,438,443,103,42,343,181,58,72,38117565100
68,389,471,100,42,312,110,50,71,38137414900
68,327,502,100,39,295,89,40,70,38157612800
80,353,502,93,43,262,68,45,69,38179390400
80,347,523,102,47,223,83,45,68,38199557200
78,335,478,106,43,210,78,40,67,38217368200
65,319,464,102,42,201,79,38,66,38237335000
67,309,436,104,43,194,80,39,65,38260107200
63,300,508,112,45,188,80,35,64,38277491900
64,287,516,94,40,139,53,33,63,38298023700
66,314,530,86,43,85,49,34,62,38317596800
64,315,557,103,43,75,35,35,61,38337425200
57,287,581,119,41,70,31,33,60,38359635900
47,275,548,111,33,73,29,27,59,38379268400
47,311,570,109,37,139,62,27,58,38399429300
49,289,628,123,39,143,61,28,57,38419091800
48,274,666,123,40,144,64,26,56,38439028300
59,283,671,109,46,146,67,31,55,38458942600
57,257,660,106,46,151,72,31,54,38479062200
56,193,630,112,42,117,60,33,53,38499227100
57,213,633,112,42,113,62,32,52,38518855700
64,268,635,119,45,110,61,34,51,38538934500
54,270,634,126,41,127,60,31,50,38558439300
59,268,647,131,43,124,59,33,48,38597967100
63,292,631,133,45,91,47,33,48,38597980600
63,272,612,129,45,88,43,33,47,38621305000
71,274,539,129,49,116,63,36,46,38639565900
73,256,565,119,49,113,73,36,45,38659004900
74,273,588,121,56,144,74,38,44,38678701100
72,263,659,124,55,148,74,37,43,38698797300
77,279,680,125,62,154,77,42,42,38718178800
73,265,793,113,56,144,74,43,41,38739614800
73,270,744,109,56,196,63,43,40,38759161000
70,267,747,104,47,235,62,41,39,38777833800
71,270,750,97,46,251,62,42,38,38798604000
87,390,747,108,44,255,63,44,37,38818539000
91,412,738,126,50,291,54,44,36,38838283500
91,410,855,136,49,280,57,44,35,38858156600
91,423,827,136,49,239,51,43,34,38878834600
101,513,848,146,56,222,60,45,33,38897345700
83,421,850,139,54,224,61,42,32,38917341000
71,390,769,123,51,168,64,41,31,38937380900
68,385,672,112,51,114,61,40,30,38958637200
77,407,680,131,57,101,61,43,29,38978919700
65,302,727,138,53,168,59,41,28,38998890300
66,341,812,155,50,194,70,40,27,39019098600
105,391,861,184,67,222,84,57,26,39039277200
109,402,854,190,68,233,95,62,25,39059530000
109,374,844,185,72,241,100,67,24,39079535400
111,363,794,189,78,397,123,70,23,39099402600
113,324,787,189,86,436,120,71,22,39119462600
79,272,785,180,72,433,107,57,21,39137299600
78,261,884,184,76,438,100,54,20,39159632300
79,291,902,200,77,454,101,48,19,39181323900
77,327,914,184,69,367,83,44,18,39199582000
87,371,873,179,70,361,78,45,17,39217436800
98,430,844,201,82,361,80,50,16,39237944100
106,469,830,225,90,352,83,56,15,39257486000
108,452,871,229,93,339,93,57,14,39277375200
123,510,920,260,106,280,99,64,13,39297597200
130,562,978,315,110,234,106,66,12,39317240700
129,515,1048,313,105,227,105,64,11,39337364700
126,506,1019,306,103,226,102,62,10,39359735800
148,645,1039,308,103,205,90,70,9,39379452900
160,761,985,298,106,245,77,73,8,39399367500
158,723,911,313,106,214,62,71,7,39417829200
184,810,854,336,116,202,69,80,6,39438417400
197,850,872,364,129,204,73,87,5,39458274800
185,779,928,397,131,203,77,84,4,39478431100
187,699,985,431,142,126,71,87,3,39498487700
202,747,1073,454,154,186,106,99,2,39518122100
228,861,1106,468,166,198,109,109,1,39538092400
249,969,1211,525,180,192,111,116,0,39558353400
291,1106,1210,539,192,193,113,126,1,39577902900
288,1120,1172,548,181,193,114,121,2,39597580200
279,1140,1159,529,173,126,91,111,3,39617339600
295,1109,1264,638,207,120,102,126,4,39637538000
335,1082,1198,673,237,132,120,145,5,39659589500
320,978,1163,682,252,148,123,150,6,39679629200
349,1013,1206,701,269,233,127,164,7,39699413200
385,1050,1175,717,291,258,128,181,8,39723434900
368,1041,1096,614,280,267,126,174,9,39739121900
350,1040,1144,568,269,265,115,163,10,39759220400
346,1071,1106,570,261,367,132,175,11,39777564100
311,968,1073,514,239,401,180,204,12,39797773900
293,980,1051,485,221,525,194,300,13,39818068200
285,934,938,477,196,605,194,368,14,39838091300
238,824,773,395,171,768,236,425,15,39858225200
227,703,703,301,149,803,477,510,16,39878113000
223,694,580,283,153,906,540,643,17,39898359600
202,536,592,226,143,951,553,683,18,39918173400
199,561,620,168,141,952,571,765,19,39938972000
217,615,610,155,140,1095,567,815,20,39958565200
204,616,607,151,136,1069,535,827,21,39978068500
223,625,654,140,130,964,488,840,22,39998964400
216,618,628,103,115,857,479,867,23,40018882200
211,566,607,109,111,889,477,908,25,40058406500
215,523,613,121,81,536,479,941,25,40058418900
230,537,615,129,86,517,345,902,26,40078318800
212,517,585,132,85,495,350,854,27,40098979800
206,569,601,149,91,556,363,844,28,40118966800
196,615,673,157,86,467,364,764,29,40138860800
197,628,630,144,82,622,360,675,30,40159001200
200,613,610,137,73,602,343,751,31,40178819600
209,641,575,135,73,611,301,704,32,40198453600
212,623,532,121,65,552,270,602,33,40218126400
204,501,424,93,59,494,236,523,34,40238190800
176,436,450,89,49,282,241,567,35,40257941200
161,427,453,90,54,346,291,517,36,40277748600
158,409,452,87,53,341,327,539,37,40299708800
154,336,451,76,54,334,334,545,38,40319459700
160,372,490,82,58,337,342,549,39,40339575900
157,386,480,77,56,339,362,542,40,40359130100
149,410,484,79,60,402,324,616,41,40379413600
158,481,503,88,60,405,305,620,42,40399716200
165,503,477,91,57,411,324,645,43,40417228200
164,483,450,87,54,440,335,726,44,40437324800
165,468,434,86,61,569,371,712,45,40459472700
166,486,426,84,48,475,374,608,46,40479510700
158,418,405,78,49,474,363,639,47,40499318300
138,391,314,58,49,473,388,626,48,40519204700
127,416,334,51,48,446,374,578,49,40539272300
123,463,334,55,45,250,323,559,50,40559391600
127,441,332,53,52,311,350,576,51,40579651700
127,419,328,47,55,358,353,599,52,40599389300
148,503,336,51,55,358,314,644,53,40619194400
152,510,233,60,55,373,320,634,54,40639364700
159,507,255,54,49,393,381,672,55,40659099600
156,499,260,58,45,405,328,656,56,40679122900
177,606,259,59,42,357,373,607,57,40699289700
168,646,293,58,39,354,386,565,58,40719585900
167,698,369,46,40,352,408,699,59,40737287000
172,688,444,71,52,402,333,704,60,40759573500
186,703,454,73,52,464,368,721,61,40777698700
172,673,477,74,50,470,322,702,62,40797499200
171,624,447,71,50,483,292,758,64,40839538800
171,540,421,80,54,514,312,626,64,40839552200
176,581,310,58,47,536,329,605,65,40859261300
155,599,282,52,44,431,315,670,66,40879682600
143,622,238,52,47,461,333,709,67,40899220900
161,560,296,60,53,506,447,734,68,40919735200
162,535,231,46,45,492,464,760,69,40940176500
188,506,251,50,47,445,461,767,70,40957594100
199,500,259,53,50,492,475,732,71,40978612200
199,448,262,50,51,489,530,760,73,41018968600
192,481,214,40,48,473,568,794,73,41018981800
196,484,213,44,51,503,671,796,74,41039102000
182,471,179,45,52,484,732,779,75,41059489100
187,497,166,46,56,488,787,779,76,41077235300
204,481,155,48,58,612,790,787,77,41099506400
205,475,108,46,60,625,770,698,78,41119498600
200,531,114,45,68,748,731,733,79,41137458400
176,528,135,44,65,804,743,744,80,41159357200
162,471,136,42,61,817,732,730,81,41179401600
148,513,162,49,67,733,724,712,82,41198943000
140,509,166,48,67,788,734,670,83,41219148300
136,462,150,46,61,703,715,614,84,41238961300
156,483,130,48,64,718,737,618,85,41258679300
200,572,132,52,70,818,827,663,87,41298864500
191,552,121,50,81,1080,818,672,87,41298877900
210,627,137,58,87,1107,828,767,88,41318419000
226,668,218,62,93,1131,862,811,90,41362544000
272,675,233,61,103,1149,855,858,90,41362557100
260,756,241,66,122,1157,778,907,91,41377580300
312,772,241,78,138,1151,891,917,93,41417341400
367,799,260,84,144,1117,908,903,93,41417354400
423,798,237,92,156,1153,962,945,94,41437507600
427,849,299,112,192,1206,1014,1007,96,41479665000
456,802,390,116,205,1248,1032,996,96,41479701300
508,867,422,120,208,1180,1028,954,97,41497510400
490,912,456,134,231,1235,1097,988,99,41537455500
505,974,463,139,251,1308,1127,1072,99,41537471900
518,1000,434,129,227,1318,1058,1013,98,41559427700
582,1089,427,143,239,1419,1077,1036,97,41579334200
538,1044,473,159,239,1364,1082,1095,96,41599200200
608,1000,445,159,231,1349,1015,1111,95,41619098200
592,984,454,167,223,1291,1004,1002,94,41639009200
577,917,441,166,231,1278,1036,988,93,41659229300
506,835,432,151,206,1155,980,880,92,41677466600
522,913,385,141,218,1220,922,857,90,41717603700
452,902,380,135,223,1364,942,824,89,41737649100
420,829,363,120,209,1323,888,760,89,41737662400
405,865,417,125,195,1263,818,721,87,41778226400
378,807,410,129,185,1143,774,713,86,41798544500
311,697,392,163,155,1037,691,619,86,41798557000
237,600,419,156,121,762,517,474,85,41818752000
189,584,434,154,102,685,299,408,83,41858216900
148,520,426,162,97,642,248,293,83,41858230300
135,473,487,228,96,682,240,247,82,41878518500
129,439,561,235,79,643,211,166,80,41917732100
122,426,552,239,73,591,270,138,80,41917744200
137,417,566,238,68,644,241,118,78,41959059100
133,381,571,236,65,584,246,88,77,41978846400
145,376,474,173,60,518,237,84,77,41978859000
141,453,416,109,51,472,239,76,76,41998665900
142,458,451,103,53,511,175,52,74,42038278200
143,460,423,115,52,418,163,51,74,42038297500
136,430,423,120,48,419,127,47,73,42058081800
94,420,541,143,49,402,116,40,71,42097454500
87,311,524,149,50,369,103,39,71,42097467400
89,400,524,146,35,255,85,36,69,42137493700
103,410,596,155,48,217,87,30,68,42157581100
110,439,629,156,52,186,87,35,68,42157593800
113,405,611,139,53,170,84,34,66,42199519600
114,383,685,139,51,165,72,33,65,42219435900
126,333,778,143,54,195,63,38,65,42219449800
95,318,765,131,48,174,61,41,64,42239016200
117,321,778,126,52,180,62,41,62,42278924300
117,325,753,118,53,179,63,40,62,42278936700
119,359,739,122,54,191,69,41,61,42298434400
102,308,635,117,55,227,56,37,59,42338274900
98,300,612,113,50,228,56,34,59,42338289600
61,294,659,100,43,229,54,30,57,42378221800
65,315,719,146,48,232,63,32,56,42398183300
69,311,723,153,53,219,68,32,56,42398197700
74,345,718,162,56,185,77,33,55,42418012200
76,344,742,157,57,192,101,35,54,42441439200
76,306,754,170,62,197,103,39,53,42457506000
73,294,787,140,61,202,98,38,51,42498081600
66,257,764,132,60,230,98,38,50,42518373000
62,217,836,121,58,217,93,39,50,42518385800
63,272,846,128,60,209,67,37,49,42538132700
64,291,822,115,56,228,67,36,47,42578264800
107,296,739,114,51,239,74,38,47,42578277800
114,317,731,113,48,225,92,39,45,42617369800
120,331,658,133,49,199,112,44,44,42639298100
186,363,663,148,52,233,115,52,44,42639311300
208,462,670,154,58,295,117,62,43,42659238700
209,528,735,173,66,312,118,67,41,42699637100
232,575,810,218,80,358,121,72,41,42699653700
235,574,908,217,78,375,119,70,40,42719421600
192,549,872,210,80,384,121,67,38,42759606200
166,475,839,206,75,329,118,57,38,42759620400
143,431,780,186,75,426,117,49,36,42797822600
97,394,842,148,65,451,97,39,35,42818014100
97,439,770,141,66,441,78,38,35,42818027700
104,430,811,154,62,443,93,36,33,42857241800
117,422,858,174,72,491,97,38,32,42877484800
122,449,916,190,73,396,100,43,32,42877497600
127,437,790,211,81,321,114,48,31,42898056000
122,404,756,229,87,361,117,48,29,42937759100
119,415,767,222,92,428,125,48,29,42937772300
115,440,739,211,88,376,122,49,28,42958773600
146,422,700,213,86,374,119,50,26,42998240200
138,434,911,193,77,382,109,47,26,42998253500
150,470,951,179,76,370,111,52,24,43037849700
150,488,930,198,77,398,105,56,23,43057782000
147,475,991,206,80,415,110,57,22,43078099300
118,480,1041,212,97,415,110,61,22,43078112200
131,563,980,261,110,412,113,69,20,43118235000
117,593,1032,263,111,482,121,64,19,43137932500
145,660,1055,307,125,499,111,73,19,43137945200
186,818,1061,387,137,511,120,87,17,43178112900
206,853,1081,405,141,532,121,96,16,43198412900
236,857,1060,405,139,532,119,101,16,43198425200
259,890,1078,466,145,454,120,111,14,43238211200
284,939,1128,582,170,535,141,115,13,43258047300
287,909,1142,592,191,532,133,121,13,43258059900
327,1021,1182,649,215,514,143,135,11,43298133000
323,1167,1234,644,231,514,142,134,10,43318111100
353,1209,1334,660,282,506,143,157,9,43338657100
355,1190,1316,642,282,298,152,164,8,43358889400
403,1219,1337,687,320,256,166,185,7,43378776300
429,1180,1378,727,371,241,183,209,7,43378789300
454,1067,1361,795,415,258,201,235,5,43418306000
454,1064,1234,827,408,305,214,231,4,43437940100
486,1102,1333,841,431,374,233,243,3,43457967300
460,1083,1322,816,419,458,240,234,2,43477880600
458,1140,1217,813,403,480,240,228,1,43497576700
470,1134,1124,792,383,476,238,219,0,43517325000
457,1078,1134,747,373,592,245,227,1,43539060300
402,990,1033,646,336,689,256,251,2,43559198600
369,873,932,576,305,688,294,295,2,43559211400
295,659,859,440,242,782,341,295,4,43598811900
239,634,920,411,208,789,394,408,5,43618747100
199,550,910,334,172,716,426,539,5,43618759700
190,505,797,315,161,648,446,629,7,43658134200
194,576,769,302,158,834,613,656,8,43678573000
199,626,782,304,157,799,613,688,8,43678585700
201,569,780,197,123,796,616,744,10,43718521000
210,618,747,192,119,782,606,843,11,43738238500
210,623,744,198,114,849,591,832,11,43738251100
242,574,706,200,99,648,475,834,13,43778470900
241,509,666,184,88,598,535,860,14,43798203300
210,479,610,146,71,589,503,782,14,43798216700
198,457,548,152,65,644,498,598,16,43838164300
193,476,529,134,55,518,558,608,17,43857908800
181,456,532,124,57,539,561,598,18,43878205400
180,478,568,133,59,513,500,604,19,43898518100
193,601,654,137,59,512,509,625,20,43918147000
190,621,614,113,69,503,506,723,20,43918159200
193,628,621,114,70,466,507,726,22,43959297700
160,632,622,112,64,393,528,738,23,43979210400
167,609,623,119,63,381,512,702,24,43999400300
156,553,539,142,71,435,492,675,25,44017313700
161,560,533,150,71,402,569,609,26,44037314500
182,514,507,150,75,457,578,621,27,44057372200
257,541,495,158,78,473,503,623,28,44079249000
260,648,572,187,82,482,505,626,29,44098885600
261,634,512,171,74,478,533,662,30,44118909500
275,601,498,166,69,481,473,679,31,44139115200
265,607,500,166,69,452,403,669,32,44159446100
200,610,488,159,70,452,422,701,33,44179313300
189,577,339,112,62,444,412,680,34,44199177900
183,519,298,88,61,421,402,629,35,44218925900
162,504,309,80,55,454,363,637,36,44238569500
160,510,316,78,51,577,393,597,37,44258358000
153,463,319,74,45,642,414,544,38,44278009200
155,427,299,63,46,645,421,573,39,44298321500
149,419,330,65,43,636,401,602,40,44318392500
142,411,325,63,41,601,414,556,41,44338371700
137,415,328,64,48,471,392,509,42,44358275100
135,436,324,64,51,374,354,530,43,44378179200
151,451,312,61,48,366,350,548,44,44397735800
168,476,215,48,48,378,385,578,45,44417746800
170,469,205,47,52,380,449,589,46,44437557100
165,484,239,45,46,362,502,672,47,44457417400
195,496,246,47,43,348,510,667,48,44479292000
196,482,244,47,43,397,550,637,49,44498843900
190,448,251,50,51,467,575,683,50,44519451800
234,462,245,53,52,574,566,671,51,44539381400
234,438,199,53,49,569,519,688,52,44559298800
219,478,183,50,53,573,548,716,53,44579296200
213,447,183,51,54,594,518,722,54,44598843700
217,511,143,44,47,534,463,728,55,44618698900
187,584,180,46,43,369,446,755,56,44638334500
189,639,181,47,41,559,530,733,57,44658675000
200,614,203,48,39,577,492,803,58,44678675200
204,605,204,49,39,573,531,830,59,44698393400
223,561,200,47,35,582,563,819,60,44719109700
207,545,257,51,40,596,545,817,61,44738719600
214,531,279,49,42,444,466,797,62,44758631100
200,517,266,47,41,436,464,725,63,44778645700
217,546,268,49,42,395,430,705,64,44798206100
186,588,273,52,52,470,427,646,65,44818228000
230,668,193,44,49,499,516,711,66,44837913800
220,644,251,53,50,536,601,674,67,44857932900
225,634,254,56,53,573,589,677,68,44877813100
210,641,250,55,56,594,601,643,69,44897743500
225,716,247,54,57,653,642,718,70,44918167900
190,640,240,51,61,764,565,649,71,44938458200
220,718,138,46,59,805,490,670,72,44957502800
222,815,186,45,69,915,582,713,73,44978478400
203,837,185,44,80,1028,599,796,74,44998281400
223,725,185,44,79,1005,547,790,75,45018753300
228,744,187,41,80,1010,640,822,76,45038473900
236,688,182,40,86,1018,699,909,77,45058401700
279,722,127,43,90,1001,695,947,78,45078225200
318,720,127,44,79,919,679,932,79,45098140300
315,833,149,48,87,995,818,979,80,45118025100
343,823,148,57,93,1040,778,986,81,45137868600
349,843,157,60,110,1054,816,965,82,45159560800
333,774,163,62,115,1099,864,892,83,45179538700
299,836,183,66,120,1214,911,874,84,45199667600
310,828,174,68,119,1263,923,796,85,45219631800
359,846,175,71,125,1220,931,780,86,45239336300
382,854,170,75,115,1232,922,796,87,45259151400
384,912,184,81,113,1183,1004,798,88,45279426400
446,948,193,84,130,1067,979,891,89,45299356200
521,1039,192,86,141,1208,1018,1010,90,45319084800
511,1055,196,89,155,1257,1179,1062,91,45338916900
515,1042,205,91,165,1259,1192,1111,92,45358761100
557,993,261,98,193,1370,1196,1193,93,45378557300
560,922,264,101,209,1444,1257,1229,94,45398239700
539,878,281,105,215,1312,1254,1142,95,45418503600
510,806,276,100,207,1331,1099,1122,96,45438343400
491,806,273,103,225,1406,1051,1118,97,45458156400
454,822,225,94,197,1331,894,1128,98,45478186800
423,815,242,101,180,1306,934,1011,99,45497872500
336,692,226,91,163,1268,817,1077,98,45517881200
312,711,298,92,157,1214,805,1039,97,45538842500
285,698,389,87,117,1132,754,904,96,45559242500
228,626,412,83,119,1104,787,737,95,45578856400
190,610,421,64,94,1036,573,695,94,45599252400
190,590,590,75,84,1109,464,483,93,45619029900
194,542,647,76,73,1032,415,361,92,45639192400
172,507,678,81,65,975,394,311,91,45658957800
170,496,675,98,57,926,258,230,90,45679311900
126,445,718,114,60,897,230,172,89,45699141400
119,473,700,140,65,703,202,142,88,45719067600
112,501,661,144,72,745,193,125,87,45739008900
114,488,619,140,67,789,181,117,86,45758988800
112,483,627,128,63,755,203,73,85,45777829700
125,537,562,119,61,711,208,75,84,45797657500
122,577,419,93,58,656,214,68,83,45817532300
115,551,410,86,52,652,216,63,82,45837998300
115,544,453,88,54,617,218,46,81,45858041300
112,533,509,96,54,562,168,43,80,45877781500
86,447,511,95,49,570,156,37,79,45897788000
71,382,540,90,48,562,145,38,78,45918132500
69,408,624,105,48,440,130,39,77,45937519200
67,427,598,115,37,265,92,38,76,45958213500
69,429,576,125,49,342,66,39,75,45978022000
60,414,607,128,55,344,62,37,74,45998903600
67,307,615,127,57,339,62,38,73,46018785000
68,278,533,117,54,332,62,33,72,46038546600
63,248,546,132,59,300,56,36,71,46059428900
65,256,611,128,58,229,55,35,70,46079618600
67,252,586,128,53,224,57,35,69,46097438000
59,241,556,122,50,219,53,34,68,46117366800
52,222,607,121,50,217,52,32,67,46139554200
58,220,570,108,48,219,64,31,66,46159577400
52,201,503,123,38,144,53,32,65,46179348400
49,199,515,128,40,104,54,33,64,46199224500
56,219,533,133,42,96,54,35,63,46220277600
58,220,464,132,41,90,54,35,62,46237823000
51,210,483,116,35,76,37,31,61,46257542500
49,206,532,102,35,70,36,30,60,46277489100
60,232,622,121,44,68,32,34,59,46297318800
58,214,669,122,42,84,62,35,58,46319443900
56,199,675,124,46,163,65,35,57,46339278600
58,205,650,126,46,165,65,35,56,46358980900
60,192,701,129,45,164,66,34,55,46378942500
53,167,795,121,39,164,81,30,54,46398877200
65,287,768,131,43,235,73,33,53,46418672400
67,291,767,129,37,199,71,32,52,46438076800
69,318,833,136,43,202,71,36,51,46458519000
71,338,817,133,47,201,71,37,50,46478092100
71,357,786,133,46,204,52,38,49,46497980300
62,284,914,120,49,135,41,36,48,46517725800
66,288,920,125,64,179,63,40,47,46537570300
67,267,959,120,67,226,64,40,46,46557439000
77,271,932,126,72,252,66,45,45,46577530400
85,273,848,129,77,254,70,49,44,46599346500
80,268,717,131,73,273,81,48,43,46618679400
79,279,726,125,64,349,71,45,42,46638540600
77,277,642,121,61,362,74,43,41,46658460300
64,250,771,108,52,348,71,35,40,46677968100
76,307,840,113,52,365,72,38,39,46697796600
95,374,878,164,62,362,74,42,38,46717689200
104,395,869,186,66,291,74,45,37,46737249200
104,409,891,191,66,276,78,45,36,46757559300
105,417,845,209,67,286,85,47,35,46781372500
97,387,855,219,70,286,82,43,34,46799534000
92,382,867,204,76,263,74,44,33,46819309700
89,414,985,189,72,260,75,42,32,46839385400
92,434,962,199,75,231,68,42,31,46859387000
98,449,894,187,81,258,67,44,30,46879305000
92,480,857,170,79,246,81,43,29,46899402400
91,497,871,205,75,249,76,43,28,46919639600
93,478,834,247,84,220,72,45,27,46937574000
98,498,859,247,89,216,76,50,26,46958458500
117,576,869,296,97,374,119,67,25,46978704600
118,559,889,303,95,384,111,68,24,46998438900
113,536,903,307,90,381,115,64,23,47018351000
115,525,942,298,91,381,114,68,22,47038104500
109,505,1042,309,99,443,114,65,21,47058040900
88,475,1101,276,92,312,71,45,20,47077867900
89,441,1108,270,94,337,95,48,19,47097974300
100,481,1077,231,100,366,103,55,18,47117744800
124,568,1135,275,106,370,107,58,17,47137517000
135,607,1130,281,100,330,126,62,16,47157786800
140,586,1202,281,102,343,126,66,15,47177756300
159,710,1241,332,116,313,114,71,14,47197448200
168,766,1300,379,148,292,111,75,13,47219380200
160,758,1207,355,146,286,108,76,12,47239045400
183,751,1267,420,175,239,88,88,11,47259584100
208,783,1174,485,204,244,90,101,10,47279526600
201,725,1191,544,213,238,86,99,9,47299593200
212,710,1208,584,201,220,80,105,8,47323865700
278,772,1235,627,239,218,94,136,7,47339064400
295,877,1126,647,224,217,91,139,6,47359334200
371,955,1131,739,289,176,122,181,5,47379514300
389,1080,1112,725,284,152,123,186,4,47399399400
394,1131,1113,728,302,156,124,186,3,47419599600
417,1217,1124,870,326,176,132,192,2,47439214000
436,1183,1199,857,340,179,140,200,1,47458925100
411,1140,1223,882,317,206,129,183,1,47498853500
414,1066,1249,857,329,227,134,188,1,47498871500
411,980,1247,842,314,226,132,187,2,47518402800
349,837,1288,661,262,261,143,175,3,47538081100
296,751,1171,620,240,349,167,188,4,47557962900
241,705,1163,433,185,340,187,177,6,47597878400
212,632,1088,406,155,403,231,219,6,47597891100
189,594,973,334,145,587,245,231,7,47617851700
177,508,786,296,127,575,265,447,8,47637833900
186,558,886,286,127,594,295,598,9,47657659200
160,514,815,213,111,664,311,692,10,47677729400
176,541,725,194,102,633,302,792,11,47697779500
183,554,681,174,94,650,373,805,12,47717773300
184,530,712,168,99,771,358,756,13,47737876100
203,609,665,214,116,751,336,677,14,47757925100
207,683,635,199,102,687,329,670,15,47778240900
181,611,610,192,104,775,343,663,16,47798061900
170,593,603,193,100,689,272,784,17,47817773000
181,616,578,225,110,549,266,758,18,47837558300
169,500,459,157,86,557,251,784,19,47861605300
156,386,440,153,89,597,240,728,20,47879174400
164,376,452,149,82,481,230,833,21,47897382800
166,401,493,145,81,450,301,785,22,47919284300
175,485,603,114,71,501,305,854,23,47939699000
152,481,619,113,66,451,310,821,24,47957949300
149,463,600,111,63,450,314,834,25,47980439700
142,478,587,112,60,490,310,686,26,47997301900
157,452,615,159,67,459,237,668,28,48039633700
148,359,533,143,53,411,243,570,28,48039647700
149,375,486,134,50,414,254,599,29,48057386400
157,382,477,134,62,550,253,632,30,48077375300
161,359,485,133,64,511,255,606,31,48097348800
171,434,416,73,54,531,256,619,32,48117364000
188,488,418,79,60,586,252,616,33,48137358300
192,508,468,77,62,604,229,555,34,48159050500
194,501,457,75,49,441,211,472,35,48178588100
191,508,453,74,50,469,220,417,36,48198237600
169,512,430,73,51,430,225,251,37,48218149600
150,487,463,66,48,342,222,328,38,48238361900
161,447,424,73,47,297,295,541,39,48258242900
149,457,434,73,42,280,328,552,40,48278140800
164,460,431,73,41,208,312,554,41,48298605900
163,426,433,70,39,204,304,581,42,48318964000
142,427,429,65,36,245,322,557,43,48338876100
134,426,438,63,45,414,366,459,44,48358904400
145,469,450,66,50,419,348,501,45,48378789900
127,471,457,65,49,416,344,489,46,48399270500
132,478,458,64,52,446,338,464,47,48418592200
133,468,382,79,56,570,412,457,48,48438777700
128,474,349,85,49,517,344,373,49,48458472000
138,462,320,82,49,570,327,293,50,48478183400
148,473,305,83,49,607,323,293,51,48498333900
171,419,296,83,53,624,360,368,52,48518260300
173,388,247,59,49,530,253,425,53,48537874800
176,367,219,40,54,523,228,414,54,48557695300
172,345,213,41,52,490,250,454,55,48577694700
163,360,201,39,52,512,368,543,56,48598025100
134,439,200,41,46,481,349,518,57,48618147000
148,443,182,38,43,546,349,463,59,48657870900
158,443,168,43,43,607,382,490,59,48657886100
150,480,165,43,42,631,379,584,60,48677931700
151,549,193,48,42,602,289,565,61,48698284700
156,532,203,51,44,660,277,565,62,48718150100
137,519,154,50,47,590,372,625,63,48737836800
152,556,150,47,41,592,346,637,64,48757398500
151,555,151,47,43,565,403,594,66,48797424200
146,472,110,40,48,607,437,564,66,48797455500
147,450,91,34,47,551,475,590,67,48818035400
173,481,156,40,49,620,442,550,68,48839257400
163,504,156,41,53,550,457,598,69,48858243900
164,524,164,38,53,565,549,619,70,48878243800
178,552,165,40,52,578,519,632,72,48917889500
180,563,167,39,55,655,496,612,72,48917925700
156,663,121,38,56,675,489,678,73,48939704900
160,645,124,39,57,701,490,672,75,48977372100
185,629,126,45,57,704,382,618,75,48977385100
229,643,136,49,65,838,503,682,76,48997788600
241,669,132,50,66,859,520,800,78,49037878600
246,551,120,47,67,852,522,768,78,49037921700
258,625,114,48,66,890,632,795,79,49057546700
251,741,101,46,76,992,690,802,81,49098221300
221,802,97,42,71,958,643,821,81,49098238700
215,788,142,42,75,943,658,739,82,49118062400
233,845,147,43,73,986,702,843,84,49157919500
211,811,146,39,71,1056,641,838,84,49157965300
235,718,145,42,73,1051,588,938,85,49177554800
271,777,165,48,98,1073,638,889,87,49217703900
281,788,152,65,127,1222,747,934,87,49217717200
318,811,160,76,147,1247,784,939,88,49237499500
352,791,236,81,164,1273,838,971,90,49279756400
356,816,260,85,166,1296,942,1039,91,49299598700
363,690,256,92,161,1205,1029,1074,91,49299618000
367,689,250,89,151,1075,1021,1033,92,49319219800
328,652,261,91,168,1201,1141,1057,93,49339321900
347,700,229,106,196,1171,1192,1086,94,49359372500
418,778,229,117,239,1232,1193,1023,95,49379374900
509,881,250,119,252,1320,1112,1047,96,49397231600
579,908,270,142,266,1412,1123,1142,97,49419415900
615,963,316,139,252,1291,1045,1086,98,49439190800
615,1020,328,137,242,1319,967,1096,99,49458637300
574,941,353,134,207,1267,1009,1053,98,49479045600
486,896,359,127,191,1235,1003,1000,97,49499145500
429,878,368,107,178,1326,958,993,96,49518536500
398,781,330,109,189,1344,861,951,95,49538589900
379,752,306,108,190,1350,855,871,94,49558670300
361,776,286,100,184,1335,703,838,93,49578844600
333,692,289,101,177,1298,668,831,92,49599064700
316,690,427,93,157,1096,628,658,91,49618617600
288,671,443,88,136,1038,639,733,90,49638827800
246,664,454,70,89,867,570,668,89,49658566800
229,605,510,65,71,705,483,615,88,49678388500
227,602,551,118,74,707,444,558,86,49718460600
160,549,519,118,73,800,384,544,86,49718474200
137,551,561,149,63,785,272,306,85,49738798000
139,447,573,162,70,936,232,234,83,49778776600
120,447,568,162,68,952,222,171,83,49778789400
111,473,519,145,62,915,200,114,82,49798613100
106,471,473,144,63,740,162,99,80,49838361900
102,457,455,114,60,700,155,69,80,49838374700
80,375,504,100,47,449,138,71,78,49877772300
91,433,499,102,49,398,133,67,77,49898001000
87,436,593,83,50,373,131,60,77,49898013500
89,447,619,98,43,357,98,58,76,49918074800
89,436,624,109,60,403,134,61,74,49959460700
89,433,618,109,60,410,138,53,74,49959474500
93,398,626,107,59,410,138,46,73,49978392000
98,374,603,114,58,392,140,46,71,50018432900
97,338,563,102,58,378,131,46,71,50018446200
98,341,552,101,53,402,88,38,70,50038327200
97,350,604,100,55,433,196,47,68,50077374600
85,388,567,101,57,436,209,50,68,50077415500
106,399,490,91,61,435,221,53,66,50119479400
111,437,565,89,59,433,230,50,65,50139623100
111,439,584,103,49,274,225,49,65,50139637000
113,442,505,115,48,181,139,40,64,50159444700
112,369,589,136,46,161,124,36,62,50198306500
94,347,632,137,40,186,102,32,62,50198319600
87,307,607,158,43,190,81,35,61,50218095800
107,372,585,149,49,158,79,33,59,50257629300
102,356,587,146,49,192,81,34,59,50257665900
106,353,522,134,57,237,81,38,57,50297559600
96,346,503,155,57,211,79,40,56,50319557500
99,355,439,135,55,201,85,124,56,50319573000
89,289,462,139,50,203,102,130,55,50339841500
91,287,462,132,49,183,104,136,53,50377233200
86,270,495,132,41,185,112,139,53,50377246400
80,267,512,126,42,195,113,140,52,50399322600
82,304,531,127,44,193,109,82,50,50439414700
67,299,515,128,47,224,123,78,50,50439453500
70,339,587,127,51,301,118,67,49,50459369600
76,340,648,127,52,332,117,61,47,50498878300
75,349,832,123,50,346,117,55,47,50498891000
78,302,842,144,51,358,115,50,46,50518399500
77,291,866,132,49,352,96,44,44,50558463900
87,350,913,144,46,392,91,49,44,50558477800
86,341,924,173,63,396,85,63,43,50578097300
87,314,783,162,63,421,89,64,41,50619615100
104,367,826,158,68,441,92,66,40,50639498700
106,391,848,161,69,434,77,64,40,50639511800
105,335,883,170,71,386,85,140,38,50679517600
103,360,852,148,57,343,116,203,37,50699243800
107,385,849,157,60,323,206,212,37,50699256400
82,327,825,149,54,284,232,217,35,50738854200
93,352,969,160,59,403,288,218,34,50759539900
84,324,960,147,56,371,289,180,34,50759553300
99,381,942,192,68,386,286,112,32,50799440200
96,380,956,193,69,394,238,124,31,50819246800
100,432,944,215,76,432,231,113,31,50819260100
116,471,962,255,86,323,163,121,29,50859518000
131,488,856,269,85,308,157,117,28,50879471900
124,451,891,239,78,298,149,108,28,50879484700
125,437,920,235,79,353,144,73,26,50919281100
135,422,977,252,74,318,113,73,25,50937703100
141,442,854,256,72,332,106,67,24,50959015500
133,516,992,254,80,334,106,67,23,50979560600
141,553,1090,261,84,347,95,60,22,50997333700
140,599,1120,279,83,319,87,62,21,51017452400
168,646,1123,309,116,325,92,80,20,51037567200
166,648,1145,321,117,304,91,78,19,51057563000
165,681,1091,317,115,302,91,80,18,51077872000
166,683,1008,348,121,344,104,85,17,51097552200
171,659,956,346,122,283,104,82,16,51117481700
165,687,1106,350,114,280,99,77,15,51139747600
174,703,1137,368,127,287,105,84,14,51159519100
216,822,1173,448,170,294,111,100,13,51179288500
224,880,1264,434,168,190,97,98,13,51179302700
245,994,1264,452,180,221,88,105,11,51219249300
249,998,1287,475,202,208,88,110,10,51239250200
258,1018,1262,450,207,213,87,113,9,51259110000
254,1027,1306,429,205,204,84,111,8,51279646700
305,1041,1235,544,264,212,107,143,7,51299473000
310,973,1288,587,282,190,118,150,6,51319553800
320,1083,1250,561,277,196,122,149,5,51339427100
320,1110,1227,604,286,188,124,154,4,51359306400
339,1013,1199,700,296,197,127,165,4,51359326100
299,933,1332,660,254,207,120,146,2,51397371800
301,945,1333,674,246,328,188,193,1,51419760500
284,755,1211,663,232,400,338,383,1,51419774500
302,756,1215,636,226,529,434,469,1,51458578500
270,733,1124,510,195,556,512,535,2,51478055400
264,733,882,458,192,619,629,649,2,51478069100
275,736,864,413,196,640,682,733,4,51517919900
268,728,800,396,202,758,760,707,5,51537556700
236,582,720,346,185,803,772,750,6,51557523500
233,569,763,300,175,895,747,833,7,51577816600
253,579,793,298,167,859,693,853,8,51597791700
232,566,721,205,130,827,678,807,9,51617723300
245,554,715,198,125,829,577,802,10,51637528500
248,542,691,197,118,768,536,734,11,51659559000
250,531,746,202,114,668,505,633,12,51678938700
226,582,728,172,110,668,471,600,13,51699197000
201,519,671,162,118,805,497,628,14,51719097200
179,526,680,163,98,739,571,617,15,51739229400
169,548,677,159,91,731,583,633,16,51759034900
197,556,668,212,105,728,593,609,17,51779753500
202,563,637,202,100,746,585,584,18,51797549400
203,556,624,193,88,672,665,570,19,51817962800
202,553,611,191,87,629,692,657,20,51838090200
189,531,613,192,90,566,654,628,21,51857975400
139,556,423,155,79,544,648,607,22,51877846400
131,465,384,144,77,542,643,542,23,51897758700
130,471,367,139,71,473,593,586,24,51917562500
120,457,367,143,69,452,579,579,25,51938539000
148,507,314,139,65,472,603,571,26,51957507100
148,411,431,118,59,458,607,570,27,51977331500
163,448,447,111,59,521,614,571,28,51999490900
177,411,448,108,62,569,560,526,29,52019401100
189,437,442,106,69,573,496,494,30,52039065800
181,407,443,106,71,563,468,502,31,52059051600
178,537,460,104,67,561,460,509,32,52079000300
169,547,468,112,70,538,451,553,33,52098970800
158,549,465,112,69,435,410,631,34,52118956900
153,534,468,108,56,423,380,585,35,52138841200
140,553,475,104,55,414,401,625,36,52158515900
140,469,423,90,55,420,404,644,37,52178228900
134,418,428,76,46,382,432,609,38,52197676400
154,443,428,79,45,389,427,579,39,52221714700
167,474,425,81,52,414,354,549,39,52221728000
198,535,457,89,55,405,341,497,41,52258572600
208,516,579,84,53,404,335,484,42,52278200200
216,540,561,88,55,366,318,499,43,52298193900
213,513,562,89,59,434,306,433,44,52318160700
215,501,565,86,58,401,457,507,45,52338451700
194,415,533,78,54,427,457,524,46,52357966600
182,445,262,59,53,501,471,561,47,52378158900
173,459,279,46,53,483,590,623,48,52398059000
156,534,279,41,48,460,590,702,49,52417579100
154,528,274,43,45,476,497,728,50,52437546100
171,538,264,43,48,470,533,855,51,52457461800
219,603,310,62,49,385,593,839,52,52477858500
223,608,320,72,50,440,476,788,53,52498141500
246,570,315,75,50,377,483,808,54,52518203000
260,576,315,75,50,346,478,807,55,52538192800
254,626,341,80,50,361,440,667,56,52558161100
236,563,354,75,51,416,396,688,57,52577887600
251,576,326,73,51,379,410,754,58,52598254200
227,574,331,69,47,375,403,683,59,52618323100
207,557,324,68,45,368,456,719,60,52638228500
226,503,329,75,45,365,536,798,61,52657900300
230,494,301,67,44,353,525,829,62,52678105600
248,492,285,60,49,366,504,842,63,52698120600
268,498,276,61,51,500,534,832,64,52717821700
280,577,299,63,55,663,589,792,65,52737623900
271,566,289,48,60,728,582,785,66,52761852700
283,551,268,48,59,817,662,823,67,52777885000
255,594,262,44,57,854,672,797,68,52798080900
253,658,288,48,64,862,694,858,69,52817757800
281,672,287,51,70,790,672,888,70,52837820700
281,762,279,54,67,744,637,893,71,52857377600
270,854,302,56,69,728,681,826,72,52877751400
268,820,293,61,74,778,755,819,73,52897855800
294,885,266,59,69,793,811,774,74,52918461400
272,836,251,55,65,808,819,751,75,52938574600
282,758,241,50,66,945,851,764,76,52957812500
288,697,194,50,68,977,764,767,77,52978073600
285,729,207,49,68,964,732,778,78,52997842100
245,684,209,50,68,973,683,778,79,53018272300
261,735,198,50,71,1054,662,758,80,53038224600
242,759,206,57,84,1038,647,743,81,53058047300
215,768,212,64,94,1063,665,827,82,53078344600
230,743,254,75,105,1069,689,830,83,53098065800
249,778,267,75,109,1136,698,841,84,53118263500
248,809,266,77,110,1142,792,819,85,53138262600
261,850,253,75,105,1133,812,853,86,53158500900
350,832,231,74,125,1173,872,876,87,53178236000
382,885,208,69,126,1200,880,924,88,53198156700
406,831,264,73,132,1164,914,931,89,53218256500
404,782,271,75,143,1220,852,951,90,53238113200
