7.300000000000000000e+01,2.570000000000000000e+02,7.950000000000000000e+02,1.420000000000000000e+02,5.300000000000000000e+01,6.700000000000000000e+01,7.500000000000000000e+01,2.410000000000000000e+02,4.000000000000000083e-02,3.292980000000000000e+08
8.000000000000000000e+01,2.890000000000000000e+02,8.820000000000000000e+02,1.440000000000000000e+02,5.200000000000000000e+01,7.900000000000000000e+01,7.600000000000000000e+01,2.340000000000000000e+02,4.000000000000000083e-02,3.293101000000000000e+08
8.300000000000000000e+01,2.930000000000000000e+02,8.530000000000000000e+02,1.460000000000000000e+02,5.400000000000000000e+01,8.100000000000000000e+01,7.600000000000000000e+01,2.430000000000000000e+02,4.000000000000000083e-02,3.293182000000000000e+08
7.400000000000000000e+01,3.300000000000000000e+02,7.410000000000000000e+02,1.110000000000000000e+02,4.600000000000000000e+01,8.200000000000000000e+01,6.400000000000000000e+01,2.370000000000000000e+02,4.000000000000000083e-02,3.293257000000000000e+08
7.600000000000000000e+01,3.290000000000000000e+02,8.790000000000000000e+02,1.130000000000000000e+02,5.000000000000000000e+01,8.100000000000000000e+01,6.300000000000000000e+01,1.770000000000000000e+02,4.000000000000000083e-02,3.293328000000000000e+08
9.800000000000000000e+01,3.780000000000000000e+02,9.360000000000000000e+02,1.360000000000000000e+02,6.100000000000000000e+01,8.700000000000000000e+01,5.300000000000000000e+01,2.050000000000000000e+02,4.000000000000000083e-02,3.293401000000000000e+08
1.020000000000000000e+02,3.820000000000000000e+02,8.820000000000000000e+02,1.470000000000000000e+02,6.600000000000000000e+01,7.500000000000000000e+01,5.900000000000000000e+01,2.170000000000000000e+02,4.000000000000000083e-02,3.293475000000000000e+08
1.000000000000000000e+02,3.750000000000000000e+02,8.840000000000000000e+02,1.440000000000000000e+02,6.500000000000000000e+01,8.600000000000000000e+01,6.100000000000000000e+01,2.210000000000000000e+02,4.000000000000000083e-02,3.293546000000000000e+08
9.300000000000000000e+01,3.470000000000000000e+02,9.440000000000000000e+02,1.410000000000000000e+02,6.200000000000000000e+01,8.300000000000000000e+01,6.200000000000000000e+01,2.170000000000000000e+02,4.000000000000000083e-02,3.293621000000000000e+08
8.900000000000000000e+01,3.330000000000000000e+02,8.400000000000000000e+02,1.330000000000000000e+02,5.700000000000000000e+01,9.100000000000000000e+01,6.200000000000000000e+01,2.170000000000000000e+02,4.000000000000000083e-02,3.293745000000000000e+08
7.200000000000000000e+01,2.940000000000000000e+02,8.290000000000000000e+02,1.080000000000000000e+02,4.700000000000000000e+01,7.300000000000000000e+01,5.000000000000000000e+01,1.820000000000000000e+02,4.000000000000000083e-02,3.293817000000000000e+08
6.600000000000000000e+01,2.910000000000000000e+02,8.580000000000000000e+02,9.700000000000000000e+01,4.300000000000000000e+01,7.300000000000000000e+01,4.100000000000000000e+01,1.230000000000000000e+02,4.000000000000000083e-02,3.293888000000000000e+08
6.800000000000000000e+01,3.030000000000000000e+02,8.820000000000000000e+02,9.300000000000000000e+01,4.200000000000000000e+01,6.500000000000000000e+01,5.200000000000000000e+01,2.010000000000000000e+02,4.000000000000000083e-02,3.293957000000000000e+08
7.100000000000000000e+01,2.790000000000000000e+02,8.010000000000000000e+02,8.500000000000000000e+01,4.000000000000000000e+01,7.300000000000000000e+01,7.900000000000000000e+01,2.640000000000000000e+02,4.000000000000000083e-02,3.294027000000000000e+08
7.800000000000000000e+01,2.750000000000000000e+02,8.720000000000000000e+02,1.130000000000000000e+02,4.900000000000000000e+01,6.200000000000000000e+01,8.100000000000000000e+01,2.750000000000000000e+02,4.000000000000000083e-02,3.294117000000000000e+08
7.600000000000000000e+01,2.710000000000000000e+02,8.170000000000000000e+02,1.190000000000000000e+02,5.000000000000000000e+01,6.300000000000000000e+01,8.400000000000000000e+01,2.770000000000000000e+02,4.000000000000000083e-02,3.294188000000000000e+08
8.000000000000000000e+01,2.770000000000000000e+02,8.140000000000000000e+02,1.300000000000000000e+02,5.300000000000000000e+01,6.300000000000000000e+01,8.600000000000000000e+01,3.180000000000000000e+02,1.900000000000000022e-01,3.549133000000000000e+08
8.700000000000000000e+01,2.620000000000000000e+02,7.330000000000000000e+02,1.380000000000000000e+02,5.300000000000000000e+01,1.100000000000000000e+02,1.020000000000000000e+02,3.000000000000000000e+02,2.000000000000000111e-01,3.669572000000000000e+08
1.020000000000000000e+02,3.150000000000000000e+02,8.110000000000000000e+02,1.630000000000000000e+02,7.300000000000000000e+01,2.680000000000000000e+02,1.210000000000000000e+02,3.010000000000000000e+02,2.099999999999999922e-01,3.812489000000000000e+08
1.090000000000000000e+02,3.650000000000000000e+02,8.060000000000000000e+02,1.590000000000000000e+02,7.300000000000000000e+01,2.850000000000000000e+02,1.280000000000000000e+02,2.990000000000000000e+02,2.200000000000000011e-01,4.025204000000000000e+08
1.190000000000000000e+02,3.850000000000000000e+02,8.500000000000000000e+02,1.670000000000000000e+02,7.400000000000000000e+01,3.090000000000000000e+02,1.570000000000000000e+02,3.480000000000000000e+02,2.300000000000000100e-01,4.250340000000000000e+08
1.190000000000000000e+02,3.710000000000000000e+02,8.730000000000000000e+02,1.640000000000000000e+02,7.800000000000000000e+01,3.910000000000000000e+02,2.360000000000000000e+02,3.580000000000000000e+02,2.399999999999999911e-01,4.401554000000000000e+08
1.180000000000000000e+02,3.880000000000000000e+02,9.350000000000000000e+02,1.610000000000000000e+02,7.800000000000000000e+01,3.920000000000000000e+02,2.970000000000000000e+02,3.810000000000000000e+02,2.500000000000000000e-01,4.616426000000000000e+08
1.120000000000000000e+02,3.480000000000000000e+02,8.540000000000000000e+02,1.380000000000000000e+02,6.900000000000000000e+01,3.540000000000000000e+02,4.120000000000000000e+02,3.720000000000000000e+02,2.600000000000000089e-01,4.838555000000000000e+08
1.190000000000000000e+02,3.270000000000000000e+02,7.730000000000000000e+02,1.290000000000000000e+02,7.300000000000000000e+01,4.460000000000000000e+02,6.370000000000000000e+02,5.560000000000000000e+02,2.700000000000000178e-01,5.055298000000000000e+08
1.070000000000000000e+02,3.070000000000000000e+02,7.240000000000000000e+02,1.110000000000000000e+02,7.100000000000000000e+01,4.470000000000000000e+02,7.200000000000000000e+02,5.930000000000000000e+02,2.800000000000000266e-01,5.213635000000000000e+08
1.100000000000000000e+02,3.360000000000000000e+02,6.590000000000000000e+02,9.800000000000000000e+01,7.000000000000000000e+01,3.850000000000000000e+02,7.280000000000000000e+02,6.090000000000000000e+02,2.999999999999999889e-01,5.605983000000000000e+08
1.080000000000000000e+02,3.320000000000000000e+02,5.950000000000000000e+02,9.800000000000000000e+01,7.300000000000000000e+01,4.440000000000000000e+02,7.590000000000000000e+02,6.770000000000000000e+02,2.999999999999999889e-01,5.606090000000000000e+08
1.360000000000000000e+02,3.180000000000000000e+02,6.080000000000000000e+02,1.040000000000000000e+02,9.900000000000000000e+01,6.170000000000000000e+02,9.290000000000000000e+02,8.290000000000000000e+02,3.200000000000000067e-01,6.014541000000000000e+08
1.360000000000000000e+02,2.940000000000000000e+02,5.780000000000000000e+02,1.000000000000000000e+02,1.020000000000000000e+02,6.510000000000000000e+02,8.810000000000000000e+02,8.290000000000000000e+02,3.200000000000000067e-01,6.014668000000000000e+08
1.550000000000000000e+02,3.490000000000000000e+02,6.130000000000000000e+02,1.230000000000000000e+02,1.120000000000000000e+02,6.880000000000000000e+02,9.060000000000000000e+02,8.400000000000000000e+02,3.400000000000000244e-01,6.417713000000000000e+08
2.110000000000000000e+02,3.580000000000000000e+02,6.820000000000000000e+02,1.180000000000000000e+02,1.110000000000000000e+02,7.050000000000000000e+02,1.077000000000000000e+03,9.140000000000000000e+02,3.400000000000000244e-01,6.417824000000000000e+08
2.180000000000000000e+02,3.740000000000000000e+02,7.630000000000000000e+02,1.300000000000000000e+02,1.190000000000000000e+02,7.840000000000000000e+02,1.102000000000000000e+03,9.120000000000000000e+02,3.499999999999999778e-01,6.617472000000000000e+08
2.230000000000000000e+02,4.130000000000000000e+02,7.530000000000000000e+02,1.270000000000000000e+02,9.800000000000000000e+01,6.680000000000000000e+02,1.013000000000000000e+03,8.230000000000000000e+02,3.599999999999999867e-01,6.808218000000000000e+08
2.340000000000000000e+02,4.220000000000000000e+02,7.570000000000000000e+02,1.320000000000000000e+02,9.900000000000000000e+01,6.100000000000000000e+02,1.084000000000000000e+03,8.120000000000000000e+02,3.800000000000000044e-01,7.205660000000000000e+08
2.260000000000000000e+02,4.050000000000000000e+02,7.110000000000000000e+02,1.250000000000000000e+02,9.600000000000000000e+01,6.340000000000000000e+02,1.123000000000000000e+03,8.300000000000000000e+02,3.800000000000000044e-01,7.205766000000000000e+08
1.720000000000000000e+02,3.790000000000000000e+02,6.430000000000000000e+02,1.250000000000000000e+02,9.800000000000000000e+01,6.290000000000000000e+02,1.014000000000000000e+03,7.370000000000000000e+02,3.900000000000000133e-01,7.416718000000000000e+08
1.760000000000000000e+02,3.740000000000000000e+02,5.150000000000000000e+02,1.140000000000000000e+02,9.500000000000000000e+01,5.320000000000000000e+02,9.990000000000000000e+02,7.470000000000000000e+02,4.099999999999999756e-01,7.805731000000000000e+08
1.550000000000000000e+02,3.670000000000000000e+02,5.530000000000000000e+02,1.170000000000000000e+02,9.300000000000000000e+01,5.240000000000000000e+02,9.760000000000000000e+02,6.980000000000000000e+02,4.099999999999999756e-01,7.805844000000000000e+08
1.380000000000000000e+02,3.690000000000000000e+02,5.360000000000000000e+02,1.090000000000000000e+02,8.100000000000000000e+01,4.930000000000000000e+02,9.170000000000000000e+02,6.890000000000000000e+02,4.299999999999999933e-01,8.211512000000000000e+08
1.390000000000000000e+02,3.510000000000000000e+02,5.700000000000000000e+02,9.500000000000000000e+01,7.200000000000000000e+01,4.000000000000000000e+02,9.500000000000000000e+02,6.220000000000000000e+02,4.400000000000000022e-01,8.405799000000000000e+08
1.440000000000000000e+02,3.240000000000000000e+02,5.660000000000000000e+02,9.500000000000000000e+01,6.700000000000000000e+01,4.060000000000000000e+02,8.980000000000000000e+02,6.650000000000000000e+02,4.400000000000000022e-01,8.405911000000000000e+08
1.280000000000000000e+02,3.080000000000000000e+02,5.780000000000000000e+02,8.000000000000000000e+01,5.200000000000000000e+01,3.300000000000000000e+02,9.430000000000000000e+02,5.840000000000000000e+02,4.600000000000000200e-01,8.812180000000000000e+08
2.020000000000000000e+02,2.720000000000000000e+02,5.340000000000000000e+02,7.200000000000000000e+01,5.500000000000000000e+01,3.170000000000000000e+02,9.270000000000000000e+02,6.310000000000000000e+02,4.699999999999999734e-01,8.998544000000000000e+08
2.050000000000000000e+02,3.410000000000000000e+02,5.360000000000000000e+02,7.100000000000000000e+01,6.000000000000000000e+01,3.760000000000000000e+02,9.780000000000000000e+02,5.650000000000000000e+02,4.699999999999999734e-01,8.998651000000000000e+08
2.090000000000000000e+02,3.820000000000000000e+02,5.160000000000000000e+02,6.100000000000000000e+01,6.100000000000000000e+01,4.050000000000000000e+02,8.600000000000000000e+02,5.690000000000000000e+02,4.799999999999999822e-01,9.211877000000000000e+08
2.160000000000000000e+02,3.810000000000000000e+02,5.090000000000000000e+02,9.200000000000000000e+01,7.000000000000000000e+01,4.830000000000000000e+02,9.170000000000000000e+02,5.690000000000000000e+02,5.000000000000000000e-01,9.601373000000000000e+08
2.190000000000000000e+02,3.990000000000000000e+02,5.770000000000000000e+02,1.120000000000000000e+02,7.000000000000000000e+01,5.160000000000000000e+02,8.800000000000000000e+02,6.180000000000000000e+02,5.100000000000000089e-01,9.812993000000000000e+08
1.680000000000000000e+02,4.020000000000000000e+02,5.780000000000000000e+02,1.110000000000000000e+02,6.300000000000000000e+01,4.970000000000000000e+02,8.740000000000000000e+02,5.970000000000000000e+02,5.100000000000000089e-01,9.813163000000000000e+08
1.560000000000000000e+02,3.630000000000000000e+02,5.800000000000000000e+02,1.100000000000000000e+02,6.200000000000000000e+01,4.700000000000000000e+02,7.480000000000000000e+02,5.890000000000000000e+02,5.300000000000000266e-01,1.021114500000000000e+09
1.700000000000000000e+02,3.050000000000000000e+02,5.660000000000000000e+02,1.140000000000000000e+02,6.700000000000000000e+01,5.070000000000000000e+02,7.270000000000000000e+02,6.630000000000000000e+02,5.300000000000000266e-01,1.021125800000000000e+09
1.780000000000000000e+02,3.220000000000000000e+02,6.150000000000000000e+02,1.010000000000000000e+02,6.000000000000000000e+01,4.200000000000000000e+02,7.120000000000000000e+02,7.060000000000000000e+02,5.500000000000000444e-01,1.061071000000000000e+09
1.730000000000000000e+02,2.980000000000000000e+02,5.680000000000000000e+02,9.300000000000000000e+01,7.100000000000000000e+01,5.390000000000000000e+02,7.580000000000000000e+02,6.790000000000000000e+02,5.600000000000000533e-01,1.080290000000000000e+09
1.590000000000000000e+02,2.910000000000000000e+02,5.550000000000000000e+02,9.100000000000000000e+01,7.200000000000000000e+01,5.940000000000000000e+02,8.060000000000000000e+02,7.090000000000000000e+02,5.600000000000000533e-01,1.080302700000000000e+09
1.640000000000000000e+02,2.730000000000000000e+02,5.480000000000000000e+02,9.200000000000000000e+01,7.600000000000000000e+01,6.390000000000000000e+02,8.510000000000000000e+02,7.410000000000000000e+02,5.799999999999999600e-01,1.121448500000000000e+09
1.370000000000000000e+02,2.730000000000000000e+02,5.340000000000000000e+02,8.600000000000000000e+01,7.100000000000000000e+01,6.670000000000000000e+02,8.530000000000000000e+02,6.650000000000000000e+02,5.899999999999999689e-01,1.140852000000000000e+09
1.150000000000000000e+02,2.370000000000000000e+02,3.870000000000000000e+02,6.400000000000000000e+01,6.900000000000000000e+01,7.110000000000000000e+02,9.210000000000000000e+02,6.470000000000000000e+02,5.999999999999999778e-01,1.159336400000000000e+09
1.420000000000000000e+02,2.540000000000000000e+02,4.940000000000000000e+02,5.200000000000000000e+01,6.900000000000000000e+01,6.530000000000000000e+02,8.780000000000000000e+02,6.610000000000000000e+02,6.099999999999999867e-01,1.180819900000000000e+09
1.550000000000000000e+02,2.990000000000000000e+02,5.230000000000000000e+02,5.500000000000000000e+01,7.600000000000000000e+01,7.080000000000000000e+02,8.750000000000000000e+02,6.980000000000000000e+02,6.199999999999999956e-01,1.199570100000000000e+09
1.750000000000000000e+02,2.800000000000000000e+02,5.280000000000000000e+02,5.700000000000000000e+01,7.500000000000000000e+01,7.150000000000000000e+02,8.410000000000000000e+02,7.050000000000000000e+02,6.199999999999999956e-01,1.199580700000000000e+09
1.920000000000000000e+02,2.960000000000000000e+02,5.040000000000000000e+02,5.500000000000000000e+01,7.900000000000000000e+01,6.880000000000000000e+02,8.560000000000000000e+02,7.630000000000000000e+02,6.300000000000000044e-01,1.220729600000000000e+09
1.900000000000000000e+02,3.230000000000000000e+02,4.960000000000000000e+02,5.800000000000000000e+01,8.200000000000000000e+01,6.910000000000000000e+02,8.860000000000000000e+02,7.130000000000000000e+02,6.500000000000000222e-01,1.260586700000000000e+09
1.760000000000000000e+02,3.570000000000000000e+02,3.590000000000000000e+02,6.100000000000000000e+01,7.700000000000000000e+01,6.800000000000000000e+02,8.880000000000000000e+02,7.280000000000000000e+02,6.600000000000000311e-01,1.281570800000000000e+09
1.780000000000000000e+02,3.440000000000000000e+02,3.430000000000000000e+02,6.400000000000000000e+01,7.700000000000000000e+01,6.570000000000000000e+02,8.160000000000000000e+02,7.620000000000000000e+02,6.700000000000000400e-01,1.304140500000000000e+09
1.600000000000000000e+02,3.470000000000000000e+02,3.230000000000000000e+02,6.200000000000000000e+01,7.500000000000000000e+01,6.040000000000000000e+02,7.940000000000000000e+02,8.530000000000000000e+02,6.700000000000000400e-01,1.304156200000000000e+09
1.690000000000000000e+02,3.370000000000000000e+02,3.430000000000000000e+02,6.500000000000000000e+01,7.300000000000000000e+01,5.830000000000000000e+02,8.580000000000000000e+02,8.420000000000000000e+02,7.099999999999999645e-01,1.379793500000000000e+09
1.660000000000000000e+02,3.470000000000000000e+02,4.360000000000000000e+02,6.800000000000000000e+01,7.400000000000000000e+01,6.200000000000000000e+02,7.220000000000000000e+02,9.500000000000000000e+02,7.099999999999999645e-01,1.379804600000000000e+09
2.260000000000000000e+02,2.880000000000000000e+02,4.230000000000000000e+02,7.300000000000000000e+01,8.500000000000000000e+01,6.420000000000000000e+02,7.230000000000000000e+02,1.007000000000000000e+03,7.199999999999999734e-01,1.399848500000000000e+09
2.360000000000000000e+02,2.760000000000000000e+02,4.580000000000000000e+02,8.000000000000000000e+01,8.700000000000000000e+01,5.950000000000000000e+02,7.810000000000000000e+02,1.037000000000000000e+03,7.199999999999999734e-01,1.399859500000000000e+09
2.790000000000000000e+02,3.360000000000000000e+02,6.040000000000000000e+02,1.050000000000000000e+02,9.200000000000000000e+01,6.050000000000000000e+02,8.050000000000000000e+02,9.820000000000000000e+02,7.299999999999999822e-01,1.421861800000000000e+09
2.800000000000000000e+02,3.270000000000000000e+02,6.390000000000000000e+02,1.130000000000000000e+02,9.100000000000000000e+01,6.120000000000000000e+02,7.850000000000000000e+02,1.110000000000000000e+03,7.399999999999999911e-01,1.440644600000000000e+09
3.030000000000000000e+02,3.600000000000000000e+02,6.940000000000000000e+02,1.430000000000000000e+02,1.050000000000000000e+02,6.100000000000000000e+02,7.710000000000000000e+02,1.076000000000000000e+03,7.500000000000000000e-01,1.459859900000000000e+09
2.800000000000000000e+02,3.980000000000000000e+02,7.190000000000000000e+02,1.480000000000000000e+02,1.040000000000000000e+02,5.950000000000000000e+02,7.790000000000000000e+02,1.078000000000000000e+03,7.600000000000000089e-01,1.481863800000000000e+09
2.770000000000000000e+02,4.070000000000000000e+02,6.870000000000000000e+02,1.440000000000000000e+02,1.030000000000000000e+02,5.700000000000000000e+02,7.440000000000000000e+02,1.047000000000000000e+03,7.700000000000000178e-01,1.501784400000000000e+09
2.480000000000000000e+02,4.080000000000000000e+02,5.900000000000000000e+02,1.300000000000000000e+02,1.030000000000000000e+02,6.130000000000000000e+02,7.390000000000000000e+02,1.099000000000000000e+03,7.800000000000000266e-01,1.521713800000000000e+09
2.340000000000000000e+02,4.360000000000000000e+02,6.470000000000000000e+02,1.270000000000000000e+02,1.040000000000000000e+02,6.100000000000000000e+02,6.770000000000000000e+02,9.900000000000000000e+02,7.900000000000000355e-01,1.540777600000000000e+09
2.400000000000000000e+02,4.560000000000000000e+02,5.360000000000000000e+02,9.600000000000000000e+01,1.050000000000000000e+02,6.290000000000000000e+02,7.430000000000000000e+02,9.650000000000000000e+02,8.000000000000000444e-01,1.559605500000000000e+09
2.430000000000000000e+02,4.550000000000000000e+02,5.300000000000000000e+02,8.300000000000000000e+01,1.050000000000000000e+02,7.600000000000000000e+02,6.960000000000000000e+02,9.510000000000000000e+02,8.000000000000000444e-01,1.559617600000000000e+09
2.330000000000000000e+02,4.620000000000000000e+02,5.230000000000000000e+02,8.400000000000000000e+01,1.150000000000000000e+02,8.230000000000000000e+02,6.870000000000000000e+02,9.590000000000000000e+02,8.100000000000000533e-01,1.590279900000000000e+09
2.220000000000000000e+02,5.070000000000000000e+02,5.110000000000000000e+02,8.200000000000000000e+01,1.150000000000000000e+02,9.510000000000000000e+02,6.610000000000000000e+02,8.950000000000000000e+02,8.299999999999999600e-01,1.621470900000000000e+09
2.520000000000000000e+02,4.960000000000000000e+02,4.180000000000000000e+02,8.000000000000000000e+01,1.200000000000000000e+02,1.103000000000000000e+03,7.130000000000000000e+02,1.042000000000000000e+03,8.399999999999999689e-01,1.640556100000000000e+09
2.400000000000000000e+02,5.200000000000000000e+02,4.790000000000000000e+02,9.000000000000000000e+01,1.180000000000000000e+02,1.129000000000000000e+03,6.630000000000000000e+02,1.076000000000000000e+03,8.499999999999999778e-01,1.659552300000000000e+09
2.240000000000000000e+02,5.630000000000000000e+02,4.830000000000000000e+02,9.700000000000000000e+01,1.220000000000000000e+02,1.132000000000000000e+03,7.280000000000000000e+02,1.102000000000000000e+03,8.599999999999999867e-01,1.681697900000000000e+09
2.450000000000000000e+02,5.780000000000000000e+02,4.890000000000000000e+02,9.600000000000000000e+01,1.170000000000000000e+02,1.138000000000000000e+03,7.950000000000000000e+02,1.046000000000000000e+03,8.699999999999999956e-01,1.700852300000000000e+09
2.770000000000000000e+02,5.310000000000000000e+02,4.750000000000000000e+02,9.900000000000000000e+01,1.200000000000000000e+02,1.134000000000000000e+03,8.740000000000000000e+02,1.049000000000000000e+03,8.699999999999999956e-01,1.700872800000000000e+09
2.840000000000000000e+02,6.340000000000000000e+02,4.370000000000000000e+02,9.800000000000000000e+01,1.300000000000000000e+02,1.151000000000000000e+03,8.750000000000000000e+02,9.620000000000000000e+02,8.900000000000000133e-01,1.740042700000000000e+09
2.880000000000000000e+02,5.820000000000000000e+02,3.920000000000000000e+02,8.100000000000000000e+01,1.240000000000000000e+02,1.182000000000000000e+03,9.590000000000000000e+02,9.610000000000000000e+02,9.000000000000000222e-01,1.760193100000000000e+09
3.250000000000000000e+02,6.480000000000000000e+02,3.150000000000000000e+02,8.400000000000000000e+01,1.890000000000000000e+02,1.174000000000000000e+03,1.050000000000000000e+03,9.250000000000000000e+02,9.100000000000000311e-01,1.779526500000000000e+09
3.470000000000000000e+02,6.410000000000000000e+02,3.620000000000000000e+02,9.700000000000000000e+01,1.980000000000000000e+02,1.192000000000000000e+03,1.033000000000000000e+03,9.760000000000000000e+02,9.200000000000000400e-01,1.801879900000000000e+09
3.590000000000000000e+02,7.070000000000000000e+02,3.930000000000000000e+02,1.070000000000000000e+02,2.120000000000000000e+02,1.196000000000000000e+03,1.001000000000000000e+03,1.164000000000000000e+03,9.300000000000000488e-01,1.820414700000000000e+09
3.670000000000000000e+02,6.440000000000000000e+02,4.230000000000000000e+02,1.200000000000000000e+02,2.410000000000000000e+02,1.195000000000000000e+03,1.015000000000000000e+03,1.155000000000000000e+03,9.399999999999999467e-01,1.839892800000000000e+09
4.070000000000000000e+02,6.680000000000000000e+02,4.770000000000000000e+02,1.300000000000000000e+02,2.570000000000000000e+02,1.263000000000000000e+03,9.440000000000000000e+02,1.172000000000000000e+03,9.499999999999999556e-01,1.861440900000000000e+09
4.180000000000000000e+02,6.600000000000000000e+02,4.790000000000000000e+02,1.260000000000000000e+02,2.200000000000000000e+02,1.329000000000000000e+03,8.530000000000000000e+02,1.160000000000000000e+03,9.599999999999999645e-01,1.879916200000000000e+09
4.650000000000000000e+02,8.040000000000000000e+02,4.420000000000000000e+02,1.220000000000000000e+02,2.180000000000000000e+02,1.388000000000000000e+03,8.850000000000000000e+02,1.162000000000000000e+03,9.699999999999999734e-01,1.900927400000000000e+09
5.180000000000000000e+02,8.080000000000000000e+02,5.300000000000000000e+02,1.230000000000000000e+02,2.210000000000000000e+02,1.385000000000000000e+03,9.930000000000000000e+02,1.040000000000000000e+03,9.799999999999999822e-01,1.919538100000000000e+09
5.270000000000000000e+02,8.470000000000000000e+02,5.720000000000000000e+02,1.140000000000000000e+02,1.990000000000000000e+02,1.430000000000000000e+03,9.630000000000000000e+02,9.760000000000000000e+02,9.899999999999999911e-01,1.940583500000000000e+09
5.570000000000000000e+02,8.410000000000000000e+02,5.620000000000000000e+02,1.130000000000000000e+02,1.830000000000000000e+02,1.331000000000000000e+03,9.980000000000000000e+02,9.990000000000000000e+02,9.799999999999999822e-01,1.959368300000000000e+09
5.340000000000000000e+02,7.710000000000000000e+02,5.920000000000000000e+02,1.180000000000000000e+02,1.760000000000000000e+02,1.269000000000000000e+03,1.023000000000000000e+03,9.910000000000000000e+02,9.699999999999999734e-01,1.980805400000000000e+09
5.210000000000000000e+02,6.410000000000000000e+02,6.320000000000000000e+02,1.220000000000000000e+02,1.750000000000000000e+02,1.251000000000000000e+03,9.870000000000000000e+02,9.690000000000000000e+02,9.599999999999999645e-01,2.001338900000000000e+09
4.950000000000000000e+02,6.950000000000000000e+02,6.120000000000000000e+02,1.240000000000000000e+02,1.630000000000000000e+02,1.201000000000000000e+03,9.660000000000000000e+02,9.380000000000000000e+02,9.599999999999999645e-01,2.001362600000000000e+09
4.740000000000000000e+02,6.440000000000000000e+02,5.680000000000000000e+02,1.200000000000000000e+02,1.420000000000000000e+02,1.046000000000000000e+03,9.320000000000000000e+02,9.500000000000000000e+02,9.399999999999999467e-01,2.041064800000000000e+09
3.960000000000000000e+02,6.140000000000000000e+02,4.960000000000000000e+02,1.120000000000000000e+02,1.300000000000000000e+02,9.970000000000000000e+02,8.550000000000000000e+02,8.100000000000000000e+02,9.300000000000000488e-01,2.059456500000000000e+09
3.870000000000000000e+02,6.070000000000000000e+02,5.430000000000000000e+02,1.130000000000000000e+02,1.240000000000000000e+02,9.440000000000000000e+02,7.250000000000000000e+02,7.440000000000000000e+02,9.200000000000000400e-01,2.080721400000000000e+09
3.290000000000000000e+02,5.870000000000000000e+02,5.350000000000000000e+02,1.020000000000000000e+02,1.150000000000000000e+02,8.900000000000000000e+02,6.580000000000000000e+02,6.810000000000000000e+02,9.100000000000000311e-01,2.100059600000000000e+09
2.320000000000000000e+02,4.000000000000000000e+02,6.210000000000000000e+02,1.830000000000000000e+02,1.170000000000000000e+02,8.030000000000000000e+02,4.030000000000000000e+02,5.000000000000000000e+02,9.000000000000000222e-01,2.121150000000000000e+09
2.030000000000000000e+02,3.540000000000000000e+02,6.940000000000000000e+02,2.150000000000000000e+02,1.110000000000000000e+02,7.250000000000000000e+02,3.490000000000000000e+02,3.790000000000000000e+02,9.000000000000000222e-01,2.121161200000000000e+09
1.980000000000000000e+02,3.650000000000000000e+02,7.640000000000000000e+02,2.420000000000000000e+02,1.220000000000000000e+02,7.390000000000000000e+02,2.940000000000000000e+02,3.450000000000000000e+02,8.800000000000000044e-01,2.161459100000000000e+09
1.800000000000000000e+02,3.390000000000000000e+02,7.370000000000000000e+02,2.500000000000000000e+02,1.200000000000000000e+02,8.820000000000000000e+02,2.610000000000000000e+02,3.070000000000000000e+02,8.699999999999999956e-01,2.180363000000000000e+09
1.470000000000000000e+02,3.130000000000000000e+02,8.200000000000000000e+02,2.560000000000000000e+02,1.080000000000000000e+02,8.690000000000000000e+02,2.030000000000000000e+02,1.810000000000000000e+02,8.699999999999999956e-01,2.180374100000000000e+09
1.490000000000000000e+02,3.030000000000000000e+02,8.100000000000000000e+02,2.000000000000000000e+02,8.300000000000000000e+01,9.340000000000000000e+02,2.230000000000000000e+02,1.630000000000000000e+02,8.499999999999999778e-01,2.220087200000000000e+09
1.760000000000000000e+02,3.030000000000000000e+02,8.360000000000000000e+02,1.770000000000000000e+02,8.800000000000000000e+01,9.410000000000000000e+02,1.980000000000000000e+02,1.170000000000000000e+02,8.299999999999999600e-01,2.259566600000000000e+09
1.870000000000000000e+02,3.230000000000000000e+02,8.380000000000000000e+02,1.420000000000000000e+02,6.600000000000000000e+01,9.020000000000000000e+02,1.900000000000000000e+02,1.040000000000000000e+02,8.299999999999999600e-01,2.259604900000000000e+09
1.940000000000000000e+02,3.330000000000000000e+02,8.210000000000000000e+02,1.270000000000000000e+02,6.500000000000000000e+01,7.910000000000000000e+02,1.910000000000000000e+02,7.800000000000000000e+01,8.199999999999999512e-01,2.281225200000000000e+09
1.860000000000000000e+02,3.370000000000000000e+02,7.640000000000000000e+02,1.240000000000000000e+02,6.700000000000000000e+01,7.440000000000000000e+02,1.990000000000000000e+02,7.800000000000000000e+01,8.100000000000000533e-01,2.299629900000000000e+09
1.980000000000000000e+02,3.480000000000000000e+02,7.790000000000000000e+02,1.220000000000000000e+02,6.400000000000000000e+01,7.000000000000000000e+02,1.310000000000000000e+02,7.600000000000000000e+01,8.000000000000000444e-01,2.320407100000000000e+09
1.830000000000000000e+02,3.970000000000000000e+02,6.940000000000000000e+02,1.210000000000000000e+02,6.000000000000000000e+01,6.560000000000000000e+02,1.240000000000000000e+02,7.900000000000000000e+01,7.900000000000000355e-01,2.339115600000000000e+09
1.610000000000000000e+02,3.810000000000000000e+02,6.340000000000000000e+02,1.190000000000000000e+02,6.000000000000000000e+01,6.440000000000000000e+02,1.100000000000000000e+02,7.600000000000000000e+01,7.800000000000000266e-01,2.360234700000000000e+09
1.530000000000000000e+02,3.890000000000000000e+02,6.720000000000000000e+02,1.110000000000000000e+02,5.400000000000000000e+01,4.940000000000000000e+02,1.150000000000000000e+02,8.000000000000000000e+01,7.700000000000000178e-01,2.381657800000000000e+09
1.530000000000000000e+02,4.110000000000000000e+02,7.030000000000000000e+02,1.110000000000000000e+02,5.700000000000000000e+01,3.880000000000000000e+02,8.900000000000000000e+01,8.500000000000000000e+01,7.600000000000000089e-01,2.400174500000000000e+09
1.850000000000000000e+02,4.610000000000000000e+02,5.900000000000000000e+02,1.120000000000000000e+02,5.400000000000000000e+01,2.380000000000000000e+02,8.300000000000000000e+01,8.400000000000000000e+01,7.500000000000000000e-01,2.421321500000000000e+09
1.750000000000000000e+02,4.170000000000000000e+02,8.130000000000000000e+02,1.050000000000000000e+02,4.200000000000000000e+01,2.270000000000000000e+02,7.700000000000000000e+01,8.000000000000000000e+01,7.500000000000000000e-01,2.421336200000000000e+09
1.770000000000000000e+02,4.180000000000000000e+02,8.680000000000000000e+02,1.020000000000000000e+02,4.300000000000000000e+01,2.170000000000000000e+02,7.500000000000000000e+01,8.200000000000000000e+01,7.299999999999999822e-01,2.461458000000000000e+09
1.890000000000000000e+02,4.520000000000000000e+02,9.370000000000000000e+02,1.270000000000000000e+02,4.800000000000000000e+01,1.600000000000000000e+02,4.300000000000000000e+01,7.400000000000000000e+01,7.199999999999999734e-01,2.479832700000000000e+09
1.850000000000000000e+02,4.240000000000000000e+02,9.120000000000000000e+02,1.160000000000000000e+02,4.000000000000000000e+01,1.240000000000000000e+02,3.600000000000000000e+01,6.200000000000000000e+01,7.099999999999999645e-01,2.500654400000000000e+09
1.870000000000000000e+02,3.760000000000000000e+02,9.060000000000000000e+02,1.130000000000000000e+02,4.100000000000000000e+01,1.280000000000000000e+02,5.300000000000000000e+01,6.900000000000000000e+01,6.999999999999999556e-01,2.519165800000000000e+09
1.810000000000000000e+02,3.670000000000000000e+02,7.660000000000000000e+02,1.100000000000000000e+02,4.100000000000000000e+01,1.320000000000000000e+02,5.300000000000000000e+01,6.600000000000000000e+01,6.899999999999999467e-01,2.539767300000000000e+09
1.710000000000000000e+02,3.690000000000000000e+02,7.320000000000000000e+02,1.200000000000000000e+02,4.400000000000000000e+01,1.320000000000000000e+02,5.500000000000000000e+01,6.700000000000000000e+01,6.800000000000000488e-01,2.560933400000000000e+09
1.680000000000000000e+02,3.030000000000000000e+02,6.800000000000000000e+02,9.500000000000000000e+01,4.100000000000000000e+01,1.310000000000000000e+02,5.400000000000000000e+01,6.400000000000000000e+01,6.700000000000000400e-01,2.579352500000000000e+09
1.850000000000000000e+02,2.980000000000000000e+02,6.710000000000000000e+02,9.500000000000000000e+01,4.000000000000000000e+01,1.200000000000000000e+02,5.300000000000000000e+01,7.900000000000000000e+01,6.600000000000000311e-01,2.600643300000000000e+09
1.480000000000000000e+02,2.760000000000000000e+02,7.220000000000000000e+02,9.900000000000000000e+01,3.800000000000000000e+01,8.700000000000000000e+01,5.300000000000000000e+01,7.000000000000000000e+01,6.500000000000000222e-01,2.619216700000000000e+09
1.540000000000000000e+02,2.700000000000000000e+02,7.700000000000000000e+02,9.100000000000000000e+01,3.700000000000000000e+01,8.300000000000000000e+01,5.200000000000000000e+01,7.200000000000000000e+01,6.400000000000000133e-01,2.640310700000000000e+09
1.780000000000000000e+02,3.210000000000000000e+02,8.290000000000000000e+02,8.200000000000000000e+01,3.500000000000000000e+01,9.400000000000000000e+01,5.000000000000000000e+01,7.000000000000000000e+01,6.300000000000000044e-01,2.659252300000000000e+09
1.720000000000000000e+02,3.210000000000000000e+02,7.780000000000000000e+02,1.010000000000000000e+02,4.300000000000000000e+01,9.600000000000000000e+01,5.100000000000000000e+01,7.400000000000000000e+01,6.199999999999999956e-01,2.680884100000000000e+09
1.660000000000000000e+02,3.610000000000000000e+02,8.570000000000000000e+02,1.080000000000000000e+02,4.400000000000000000e+01,9.300000000000000000e+01,5.000000000000000000e+01,5.300000000000000000e+01,5.999999999999999778e-01,2.720944800000000000e+09
1.550000000000000000e+02,3.670000000000000000e+02,8.380000000000000000e+02,1.070000000000000000e+02,4.700000000000000000e+01,9.200000000000000000e+01,4.900000000000000000e+01,6.800000000000000000e+01,5.999999999999999778e-01,2.720955600000000000e+09
1.540000000000000000e+02,3.580000000000000000e+02,7.380000000000000000e+02,1.060000000000000000e+02,4.800000000000000000e+01,1.030000000000000000e+02,5.200000000000000000e+01,6.600000000000000000e+01,5.899999999999999689e-01,2.739476600000000000e+09
1.300000000000000000e+02,2.920000000000000000e+02,6.920000000000000000e+02,1.010000000000000000e+02,4.600000000000000000e+01,9.000000000000000000e+01,5.400000000000000000e+01,6.800000000000000000e+01,5.799999999999999600e-01,2.760446800000000000e+09
1.240000000000000000e+02,3.000000000000000000e+02,6.780000000000000000e+02,8.400000000000000000e+01,3.900000000000000000e+01,9.000000000000000000e+01,5.400000000000000000e+01,6.500000000000000000e+01,5.699999999999999512e-01,2.779321200000000000e+09
1.360000000000000000e+02,3.370000000000000000e+02,7.030000000000000000e+02,1.420000000000000000e+02,5.900000000000000000e+01,9.700000000000000000e+01,6.000000000000000000e+01,7.700000000000000000e+01,5.600000000000000533e-01,2.800574400000000000e+09
1.560000000000000000e+02,3.450000000000000000e+02,7.550000000000000000e+02,1.410000000000000000e+02,5.700000000000000000e+01,9.700000000000000000e+01,5.500000000000000000e+01,8.200000000000000000e+01,5.500000000000000444e-01,2.819794300000000000e+09
1.590000000000000000e+02,3.530000000000000000e+02,7.530000000000000000e+02,1.460000000000000000e+02,5.900000000000000000e+01,8.600000000000000000e+01,5.300000000000000000e+01,8.600000000000000000e+01,5.400000000000000355e-01,2.840686700000000000e+09
1.600000000000000000e+02,3.700000000000000000e+02,7.980000000000000000e+02,1.570000000000000000e+02,6.400000000000000000e+01,1.020000000000000000e+02,5.300000000000000000e+01,8.700000000000000000e+01,5.300000000000000266e-01,2.860095900000000000e+09
1.690000000000000000e+02,3.700000000000000000e+02,9.420000000000000000e+02,1.660000000000000000e+02,6.900000000000000000e+01,9.900000000000000000e+01,5.200000000000000000e+01,8.800000000000000000e+01,5.200000000000000178e-01,2.881335200000000000e+09
1.460000000000000000e+02,3.860000000000000000e+02,9.730000000000000000e+02,1.270000000000000000e+02,5.600000000000000000e+01,9.300000000000000000e+01,4.600000000000000000e+01,1.000000000000000000e+02,5.100000000000000089e-01,2.899908300000000000e+09
1.150000000000000000e+02,3.880000000000000000e+02,9.370000000000000000e+02,1.420000000000000000e+02,6.200000000000000000e+01,8.500000000000000000e+01,6.700000000000000000e+01,9.100000000000000000e+01,5.000000000000000000e-01,2.921007000000000000e+09
1.140000000000000000e+02,3.840000000000000000e+02,9.840000000000000000e+02,1.520000000000000000e+02,6.200000000000000000e+01,9.500000000000000000e+01,6.900000000000000000e+01,9.000000000000000000e+01,4.899999999999999911e-01,2.939133500000000000e+09
1.230000000000000000e+02,3.800000000000000000e+02,9.640000000000000000e+02,1.410000000000000000e+02,5.900000000000000000e+01,9.500000000000000000e+01,7.300000000000000000e+01,9.500000000000000000e+01,4.799999999999999822e-01,2.959967000000000000e+09
1.190000000000000000e+02,3.800000000000000000e+02,9.370000000000000000e+02,1.340000000000000000e+02,5.500000000000000000e+01,1.240000000000000000e+02,7.400000000000000000e+01,9.100000000000000000e+01,4.699999999999999734e-01,2.981292600000000000e+09
1.660000000000000000e+02,2.980000000000000000e+02,8.200000000000000000e+02,1.400000000000000000e+02,5.200000000000000000e+01,1.320000000000000000e+02,7.600000000000000000e+01,8.200000000000000000e+01,4.600000000000000200e-01,3.000053500000000000e+09
1.740000000000000000e+02,2.770000000000000000e+02,7.980000000000000000e+02,1.260000000000000000e+02,4.900000000000000000e+01,1.520000000000000000e+02,7.000000000000000000e+01,8.400000000000000000e+01,4.500000000000000111e-01,3.021104000000000000e+09
1.680000000000000000e+02,2.920000000000000000e+02,8.510000000000000000e+02,1.410000000000000000e+02,5.200000000000000000e+01,1.500000000000000000e+02,6.700000000000000000e+01,8.200000000000000000e+01,4.400000000000000022e-01,3.039800600000000000e+09
1.570000000000000000e+02,2.950000000000000000e+02,8.880000000000000000e+02,1.680000000000000000e+02,5.300000000000000000e+01,1.710000000000000000e+02,8.300000000000000000e+01,7.700000000000000000e+01,4.299999999999999933e-01,3.061782500000000000e+09
1.750000000000000000e+02,3.020000000000000000e+02,9.430000000000000000e+02,1.730000000000000000e+02,5.400000000000000000e+01,1.700000000000000000e+02,8.600000000000000000e+01,8.000000000000000000e+01,4.199999999999999845e-01,3.080887100000000000e+09
1.350000000000000000e+02,3.670000000000000000e+02,9.660000000000000000e+02,1.620000000000000000e+02,5.200000000000000000e+01,1.680000000000000000e+02,8.600000000000000000e+01,6.500000000000000000e+01,4.099999999999999756e-01,3.099439800000000000e+09
1.340000000000000000e+02,3.840000000000000000e+02,1.016000000000000000e+03,1.770000000000000000e+02,5.700000000000000000e+01,1.570000000000000000e+02,7.500000000000000000e+01,6.000000000000000000e+01,4.000000000000000222e-01,3.120851900000000000e+09
1.310000000000000000e+02,3.750000000000000000e+02,1.080000000000000000e+03,1.560000000000000000e+02,5.200000000000000000e+01,1.630000000000000000e+02,7.700000000000000000e+01,8.000000000000000000e+01,3.900000000000000133e-01,3.139841400000000000e+09
1.350000000000000000e+02,3.930000000000000000e+02,1.088000000000000000e+03,1.410000000000000000e+02,5.200000000000000000e+01,1.340000000000000000e+02,8.400000000000000000e+01,8.200000000000000000e+01,3.800000000000000044e-01,3.160870100000000000e+09
1.200000000000000000e+02,4.390000000000000000e+02,1.017000000000000000e+03,1.420000000000000000e+02,5.900000000000000000e+01,1.160000000000000000e+02,8.300000000000000000e+01,8.200000000000000000e+01,3.699999999999999956e-01,3.179417000000000000e+09
1.280000000000000000e+02,3.990000000000000000e+02,1.037000000000000000e+03,1.770000000000000000e+02,7.600000000000000000e+01,1.170000000000000000e+02,8.400000000000000000e+01,8.300000000000000000e+01,3.599999999999999867e-01,3.201180700000000000e+09
1.430000000000000000e+02,4.300000000000000000e+02,1.076000000000000000e+03,2.020000000000000000e+02,8.200000000000000000e+01,1.490000000000000000e+02,9.700000000000000000e+01,8.500000000000000000e+01,3.499999999999999778e-01,3.219788500000000000e+09
1.420000000000000000e+02,4.400000000000000000e+02,1.040000000000000000e+03,2.000000000000000000e+02,8.300000000000000000e+01,1.480000000000000000e+02,1.010000000000000000e+02,6.400000000000000000e+01,3.400000000000000244e-01,3.241198800000000000e+09
1.500000000000000000e+02,4.470000000000000000e+02,1.114000000000000000e+03,2.030000000000000000e+02,8.700000000000000000e+01,1.530000000000000000e+02,8.500000000000000000e+01,6.500000000000000000e+01,3.200000000000000067e-01,3.280549100000000000e+09
1.730000000000000000e+02,4.300000000000000000e+02,1.138000000000000000e+03,2.710000000000000000e+02,1.000000000000000000e+02,1.540000000000000000e+02,8.500000000000000000e+01,7.800000000000000000e+01,3.200000000000000067e-01,3.280559400000000000e+09
1.810000000000000000e+02,4.700000000000000000e+02,1.093000000000000000e+03,2.570000000000000000e+02,9.200000000000000000e+01,1.610000000000000000e+02,9.200000000000000000e+01,7.700000000000000000e+01,3.099999999999999978e-01,3.299267500000000000e+09
1.670000000000000000e+02,4.220000000000000000e+02,1.027000000000000000e+03,2.350000000000000000e+02,8.600000000000000000e+01,1.230000000000000000e+02,8.400000000000000000e+01,7.200000000000000000e+01,2.999999999999999889e-01,3.321276500000000000e+09
1.770000000000000000e+02,4.420000000000000000e+02,9.670000000000000000e+02,2.550000000000000000e+02,9.000000000000000000e+01,1.090000000000000000e+02,7.900000000000000000e+01,7.700000000000000000e+01,2.899999999999999800e-01,3.339560200000000000e+09
1.700000000000000000e+02,4.550000000000000000e+02,8.980000000000000000e+02,2.600000000000000000e+02,8.900000000000000000e+01,9.700000000000000000e+01,7.900000000000000000e+01,7.600000000000000000e+01,2.800000000000000266e-01,3.361140000000000000e+09
1.410000000000000000e+02,4.440000000000000000e+02,8.740000000000000000e+02,1.890000000000000000e+02,7.100000000000000000e+01,1.020000000000000000e+02,8.100000000000000000e+01,6.700000000000000000e+01,2.700000000000000178e-01,3.379567000000000000e+09
1.190000000000000000e+02,3.650000000000000000e+02,9.030000000000000000e+02,1.800000000000000000e+02,6.900000000000000000e+01,8.500000000000000000e+01,7.000000000000000000e+01,6.400000000000000000e+01,2.600000000000000089e-01,3.401216800000000000e+09
1.140000000000000000e+02,3.870000000000000000e+02,9.330000000000000000e+02,1.710000000000000000e+02,6.500000000000000000e+01,7.800000000000000000e+01,5.800000000000000000e+01,6.000000000000000000e+01,2.500000000000000000e-01,3.419676000000000000e+09
1.710000000000000000e+02,4.820000000000000000e+02,1.080000000000000000e+03,2.380000000000000000e+02,8.600000000000000000e+01,8.300000000000000000e+01,6.500000000000000000e+01,7.700000000000000000e+01,2.399999999999999911e-01,3.440361600000000000e+09
1.800000000000000000e+02,4.930000000000000000e+02,1.044000000000000000e+03,2.410000000000000000e+02,8.900000000000000000e+01,8.200000000000000000e+01,6.100000000000000000e+01,7.800000000000000000e+01,2.300000000000000100e-01,3.461397700000000000e+09
1.900000000000000000e+02,5.280000000000000000e+02,1.121000000000000000e+03,2.590000000000000000e+02,9.300000000000000000e+01,7.100000000000000000e+01,6.500000000000000000e+01,7.900000000000000000e+01,2.200000000000000011e-01,3.480004700000000000e+09
1.950000000000000000e+02,5.780000000000000000e+02,1.154000000000000000e+03,2.710000000000000000e+02,9.700000000000000000e+01,6.400000000000000000e+01,6.500000000000000000e+01,8.300000000000000000e+01,2.099999999999999922e-01,3.500974600000000000e+09
2.110000000000000000e+02,6.010000000000000000e+02,1.152000000000000000e+03,3.230000000000000000e+02,1.090000000000000000e+02,7.200000000000000000e+01,7.300000000000000000e+01,9.300000000000000000e+01,2.000000000000000111e-01,3.519607500000000000e+09
1.830000000000000000e+02,6.650000000000000000e+02,1.210000000000000000e+03,3.310000000000000000e+02,1.050000000000000000e+02,7.100000000000000000e+01,7.700000000000000000e+01,8.300000000000000000e+01,1.900000000000000022e-01,3.540742400000000000e+09
1.880000000000000000e+02,7.160000000000000000e+02,1.193000000000000000e+03,3.750000000000000000e+02,1.190000000000000000e+02,7.800000000000000000e+01,8.200000000000000000e+01,8.900000000000000000e+01,1.799999999999999933e-01,3.559357800000000000e+09
1.870000000000000000e+02,6.810000000000000000e+02,1.159000000000000000e+03,3.880000000000000000e+02,1.240000000000000000e+02,7.700000000000000000e+01,7.600000000000000000e+01,9.100000000000000000e+01,1.700000000000000122e-01,3.580472100000000000e+09
1.950000000000000000e+02,7.220000000000000000e+02,1.142000000000000000e+03,3.910000000000000000e+02,1.260000000000000000e+02,8.300000000000000000e+01,8.000000000000000000e+01,9.500000000000000000e+01,1.600000000000000033e-01,3.601591200000000000e+09
1.920000000000000000e+02,7.420000000000000000e+02,1.277000000000000000e+03,3.690000000000000000e+02,1.240000000000000000e+02,7.900000000000000000e+01,7.600000000000000000e+01,9.000000000000000000e+01,1.499999999999999944e-01,3.620270400000000000e+09
2.140000000000000000e+02,7.470000000000000000e+02,1.138000000000000000e+03,3.530000000000000000e+02,1.330000000000000000e+02,8.500000000000000000e+01,7.100000000000000000e+01,1.010000000000000000e+02,1.400000000000000133e-01,3.641190400000000000e+09
2.590000000000000000e+02,7.520000000000000000e+02,1.232000000000000000e+03,4.150000000000000000e+02,1.450000000000000000e+02,9.300000000000000000e+01,7.400000000000000000e+01,1.110000000000000000e+02,1.300000000000000044e-01,3.660028700000000000e+09
2.690000000000000000e+02,8.430000000000000000e+02,1.220000000000000000e+03,4.400000000000000000e+02,1.500000000000000000e+02,9.400000000000000000e+01,7.600000000000000000e+01,1.140000000000000000e+02,1.199999999999999956e-01,3.680927800000000000e+09
2.740000000000000000e+02,8.430000000000000000e+02,1.348000000000000000e+03,4.620000000000000000e+02,1.570000000000000000e+02,9.700000000000000000e+01,7.700000000000000000e+01,1.160000000000000000e+02,1.100000000000000006e-01,3.699765000000000000e+09
2.690000000000000000e+02,8.300000000000000000e+02,1.312000000000000000e+03,5.040000000000000000e+02,1.720000000000000000e+02,1.020000000000000000e+02,7.700000000000000000e+01,1.150000000000000000e+02,8.999999999999999667e-02,3.739357500000000000e+09
2.680000000000000000e+02,7.750000000000000000e+02,1.420000000000000000e+03,5.960000000000000000e+02,1.810000000000000000e+02,1.060000000000000000e+02,8.500000000000000000e+01,1.190000000000000000e+02,8.999999999999999667e-02,3.739379100000000000e+09
2.750000000000000000e+02,7.260000000000000000e+02,1.364000000000000000e+03,5.570000000000000000e+02,1.970000000000000000e+02,1.130000000000000000e+02,9.700000000000000000e+01,1.310000000000000000e+02,8.000000000000000167e-02,3.761277600000000000e+09
3.130000000000000000e+02,7.600000000000000000e+02,1.367000000000000000e+03,5.470000000000000000e+02,2.100000000000000000e+02,1.220000000000000000e+02,1.060000000000000000e+02,1.440000000000000000e+02,7.000000000000000666e-02,3.780813400000000000e+09
3.060000000000000000e+02,7.900000000000000000e+02,1.280000000000000000e+03,5.450000000000000000e+02,2.090000000000000000e+02,1.220000000000000000e+02,1.060000000000000000e+02,1.420000000000000000e+02,5.999999999999999778e-02,3.799262000000000000e+09
3.290000000000000000e+02,8.320000000000000000e+02,1.309000000000000000e+03,5.870000000000000000e+02,2.180000000000000000e+02,1.280000000000000000e+02,1.120000000000000000e+02,1.560000000000000000e+02,5.000000000000000278e-02,3.820314400000000000e+09
3.290000000000000000e+02,8.650000000000000000e+02,1.256000000000000000e+03,5.060000000000000000e+02,2.080000000000000000e+02,1.240000000000000000e+02,1.110000000000000000e+02,1.530000000000000000e+02,4.000000000000000083e-02,3.841350300000000000e+09
3.210000000000000000e+02,9.210000000000000000e+02,1.255000000000000000e+03,5.180000000000000000e+02,2.090000000000000000e+02,1.250000000000000000e+02,1.050000000000000000e+02,1.500000000000000000e+02,2.999999999999999889e-02,3.860045900000000000e+09
2.770000000000000000e+02,8.780000000000000000e+02,1.255000000000000000e+03,4.960000000000000000e+02,1.890000000000000000e+02,1.130000000000000000e+02,9.300000000000000000e+01,1.340000000000000000e+02,2.000000000000000042e-02,3.881170800000000000e+09
2.830000000000000000e+02,7.950000000000000000e+02,1.249000000000000000e+03,5.000000000000000000e+02,1.960000000000000000e+02,1.140000000000000000e+02,9.400000000000000000e+01,1.390000000000000000e+02,1.000000000000000021e-02,3.900063000000000000e+09
2.690000000000000000e+02,7.800000000000000000e+02,1.191000000000000000e+03,4.210000000000000000e+02,1.830000000000000000e+02,1.080000000000000000e+02,9.000000000000000000e+01,1.320000000000000000e+02,0.000000000000000000e+00,3.921438900000000000e+09
2.460000000000000000e+02,7.420000000000000000e+02,1.135000000000000000e+03,3.770000000000000000e+02,1.760000000000000000e+02,1.020000000000000000e+02,8.100000000000000000e+01,1.260000000000000000e+02,1.000000000000000021e-02,3.939720700000000000e+09
1.870000000000000000e+02,6.450000000000000000e+02,1.139000000000000000e+03,3.120000000000000000e+02,1.340000000000000000e+02,9.900000000000000000e+01,7.700000000000000000e+01,2.120000000000000000e+02,2.000000000000000042e-02,3.960747200000000000e+09
1.770000000000000000e+02,5.480000000000000000e+02,1.073000000000000000e+03,2.950000000000000000e+02,1.320000000000000000e+02,2.630000000000000000e+02,1.920000000000000000e+02,2.430000000000000000e+02,2.999999999999999889e-02,3.981537000000000000e+09
1.970000000000000000e+02,5.590000000000000000e+02,1.004000000000000000e+03,2.420000000000000000e+02,1.100000000000000000e+02,3.150000000000000000e+02,2.820000000000000000e+02,4.000000000000000000e+02,4.000000000000000083e-02,4.000007800000000000e+09
2.020000000000000000e+02,5.780000000000000000e+02,9.480000000000000000e+02,2.130000000000000000e+02,9.400000000000000000e+01,3.310000000000000000e+02,3.140000000000000000e+02,4.250000000000000000e+02,5.000000000000000278e-02,4.020896200000000000e+09
2.100000000000000000e+02,5.620000000000000000e+02,8.450000000000000000e+02,2.120000000000000000e+02,8.400000000000000000e+01,3.650000000000000000e+02,3.340000000000000000e+02,5.810000000000000000e+02,5.999999999999999778e-02,4.039340200000000000e+09
2.250000000000000000e+02,6.490000000000000000e+02,8.140000000000000000e+02,2.010000000000000000e+02,9.100000000000000000e+01,4.370000000000000000e+02,3.520000000000000000e+02,7.030000000000000000e+02,7.000000000000000666e-02,4.060607200000000000e+09
2.340000000000000000e+02,6.490000000000000000e+02,8.080000000000000000e+02,2.190000000000000000e+02,9.700000000000000000e+01,4.480000000000000000e+02,3.370000000000000000e+02,7.900000000000000000e+02,8.000000000000000167e-02,4.079451200000000000e+09
2.190000000000000000e+02,6.420000000000000000e+02,8.520000000000000000e+02,2.230000000000000000e+02,1.020000000000000000e+02,4.330000000000000000e+02,3.750000000000000000e+02,7.830000000000000000e+02,8.999999999999999667e-02,4.100604900000000000e+09
1.990000000000000000e+02,5.790000000000000000e+02,8.010000000000000000e+02,2.050000000000000000e+02,1.020000000000000000e+02,4.620000000000000000e+02,6.030000000000000000e+02,8.620000000000000000e+02,1.000000000000000056e-01,4.119333100000000000e+09
3.260000000000000000e+02,5.280000000000000000e+02,7.990000000000000000e+02,1.890000000000000000e+02,1.030000000000000000e+02,4.670000000000000000e+02,6.690000000000000000e+02,8.540000000000000000e+02,1.100000000000000006e-01,4.140624900000000000e+09
3.640000000000000000e+02,4.200000000000000000e+02,7.340000000000000000e+02,1.750000000000000000e+02,9.400000000000000000e+01,4.480000000000000000e+02,7.450000000000000000e+02,7.970000000000000000e+02,1.199999999999999956e-01,4.159230500000000000e+09
3.640000000000000000e+02,4.140000000000000000e+02,7.010000000000000000e+02,1.810000000000000000e+02,9.700000000000000000e+01,4.850000000000000000e+02,9.380000000000000000e+02,9.010000000000000000e+02,1.300000000000000044e-01,4.180348000000000000e+09
3.620000000000000000e+02,4.060000000000000000e+02,6.460000000000000000e+02,1.730000000000000000e+02,9.100000000000000000e+01,5.120000000000000000e+02,9.350000000000000000e+02,8.960000000000000000e+02,1.400000000000000133e-01,4.201574400000000000e+09
3.650000000000000000e+02,3.610000000000000000e+02,7.500000000000000000e+02,1.480000000000000000e+02,7.600000000000000000e+01,4.990000000000000000e+02,8.170000000000000000e+02,8.790000000000000000e+02,1.499999999999999944e-01,4.220756800000000000e+09
2.800000000000000000e+02,3.800000000000000000e+02,7.300000000000000000e+02,1.460000000000000000e+02,7.400000000000000000e+01,4.960000000000000000e+02,7.630000000000000000e+02,8.280000000000000000e+02,1.600000000000000033e-01,4.239457200000000000e+09
2.260000000000000000e+02,4.100000000000000000e+02,7.250000000000000000e+02,1.550000000000000000e+02,8.100000000000000000e+01,5.570000000000000000e+02,7.760000000000000000e+02,8.190000000000000000e+02,1.700000000000000122e-01,4.260468600000000000e+09
2.410000000000000000e+02,4.140000000000000000e+02,7.320000000000000000e+02,1.160000000000000000e+02,6.700000000000000000e+01,5.050000000000000000e+02,5.530000000000000000e+02,7.030000000000000000e+02,1.799999999999999933e-01,4.279837000000000000e+09
2.400000000000000000e+02,4.200000000000000000e+02,7.430000000000000000e+02,1.410000000000000000e+02,7.700000000000000000e+01,5.050000000000000000e+02,6.250000000000000000e+02,6.900000000000000000e+02,1.900000000000000022e-01,4.300711600000000000e+09
2.280000000000000000e+02,5.130000000000000000e+02,5.910000000000000000e+02,1.410000000000000000e+02,8.000000000000000000e+01,4.960000000000000000e+02,6.720000000000000000e+02,6.130000000000000000e+02,2.000000000000000111e-01,4.319485200000000000e+09
2.050000000000000000e+02,4.970000000000000000e+02,5.710000000000000000e+02,1.340000000000000000e+02,8.000000000000000000e+01,4.990000000000000000e+02,7.220000000000000000e+02,6.110000000000000000e+02,2.099999999999999922e-01,4.340260900000000000e+09
2.160000000000000000e+02,4.710000000000000000e+02,5.300000000000000000e+02,1.210000000000000000e+02,7.300000000000000000e+01,4.420000000000000000e+02,7.370000000000000000e+02,6.630000000000000000e+02,2.200000000000000011e-01,4.361350000000000000e+09
1.950000000000000000e+02,4.830000000000000000e+02,5.190000000000000000e+02,1.170000000000000000e+02,7.000000000000000000e+01,3.940000000000000000e+02,7.350000000000000000e+02,5.880000000000000000e+02,2.300000000000000100e-01,4.380252900000000000e+09
2.100000000000000000e+02,4.680000000000000000e+02,6.890000000000000000e+02,9.600000000000000000e+01,6.000000000000000000e+01,3.420000000000000000e+02,6.770000000000000000e+02,5.940000000000000000e+02,2.399999999999999911e-01,4.401528800000000000e+09
2.360000000000000000e+02,4.010000000000000000e+02,7.020000000000000000e+02,9.400000000000000000e+01,6.200000000000000000e+01,3.380000000000000000e+02,6.430000000000000000e+02,6.340000000000000000e+02,2.500000000000000000e-01,4.420145600000000000e+09
2.310000000000000000e+02,3.780000000000000000e+02,7.060000000000000000e+02,9.700000000000000000e+01,7.000000000000000000e+01,4.680000000000000000e+02,6.780000000000000000e+02,7.550000000000000000e+02,2.600000000000000089e-01,4.441709800000000000e+09
2.080000000000000000e+02,3.350000000000000000e+02,7.120000000000000000e+02,9.900000000000000000e+01,6.700000000000000000e+01,4.430000000000000000e+02,5.740000000000000000e+02,7.520000000000000000e+02,2.700000000000000178e-01,4.461321100000000000e+09
2.090000000000000000e+02,3.860000000000000000e+02,6.900000000000000000e+02,9.800000000000000000e+01,6.800000000000000000e+01,4.390000000000000000e+02,5.990000000000000000e+02,7.680000000000000000e+02,2.800000000000000266e-01,4.481730900000000000e+09
1.820000000000000000e+02,4.940000000000000000e+02,4.970000000000000000e+02,8.100000000000000000e+01,6.600000000000000000e+01,4.360000000000000000e+02,5.530000000000000000e+02,7.300000000000000000e+02,2.899999999999999800e-01,4.500648000000000000e+09
1.460000000000000000e+02,4.770000000000000000e+02,4.340000000000000000e+02,7.300000000000000000e+01,6.200000000000000000e+01,4.450000000000000000e+02,5.340000000000000000e+02,7.270000000000000000e+02,2.999999999999999889e-01,4.520506600000000000e+09
1.730000000000000000e+02,4.810000000000000000e+02,4.380000000000000000e+02,7.000000000000000000e+01,4.600000000000000000e+01,3.160000000000000000e+02,4.660000000000000000e+02,6.210000000000000000e+02,3.099999999999999978e-01,4.539170500000000000e+09
1.970000000000000000e+02,5.340000000000000000e+02,4.810000000000000000e+02,7.000000000000000000e+01,4.500000000000000000e+01,3.870000000000000000e+02,6.310000000000000000e+02,6.110000000000000000e+02,3.200000000000000067e-01,4.560812900000000000e+09
2.280000000000000000e+02,4.740000000000000000e+02,4.810000000000000000e+02,7.500000000000000000e+01,4.700000000000000000e+01,4.050000000000000000e+02,5.820000000000000000e+02,5.680000000000000000e+02,3.300000000000000155e-01,4.579308600000000000e+09
2.290000000000000000e+02,3.620000000000000000e+02,4.070000000000000000e+02,6.400000000000000000e+01,4.300000000000000000e+01,4.040000000000000000e+02,5.800000000000000000e+02,5.900000000000000000e+02,3.400000000000000244e-01,4.600451300000000000e+09
2.390000000000000000e+02,3.600000000000000000e+02,3.920000000000000000e+02,6.000000000000000000e+01,4.300000000000000000e+01,3.950000000000000000e+02,5.950000000000000000e+02,5.650000000000000000e+02,3.499999999999999778e-01,4.619268600000000000e+09
2.100000000000000000e+02,3.470000000000000000e+02,4.300000000000000000e+02,6.700000000000000000e+01,4.500000000000000000e+01,3.790000000000000000e+02,6.110000000000000000e+02,5.800000000000000000e+02,3.599999999999999867e-01,4.640763200000000000e+09
1.810000000000000000e+02,2.830000000000000000e+02,3.880000000000000000e+02,6.700000000000000000e+01,4.400000000000000000e+01,3.580000000000000000e+02,4.610000000000000000e+02,4.940000000000000000e+02,3.699999999999999956e-01,4.661761100000000000e+09
1.300000000000000000e+02,3.750000000000000000e+02,4.520000000000000000e+02,8.500000000000000000e+01,4.300000000000000000e+01,3.330000000000000000e+02,4.530000000000000000e+02,4.870000000000000000e+02,3.800000000000000044e-01,4.680339400000000000e+09
1.250000000000000000e+02,3.820000000000000000e+02,4.710000000000000000e+02,9.100000000000000000e+01,4.700000000000000000e+01,3.370000000000000000e+02,4.760000000000000000e+02,4.640000000000000000e+02,3.900000000000000133e-01,4.699372100000000000e+09
1.420000000000000000e+02,3.700000000000000000e+02,4.750000000000000000e+02,9.400000000000000000e+01,4.900000000000000000e+01,3.430000000000000000e+02,4.590000000000000000e+02,4.950000000000000000e+02,4.000000000000000222e-01,4.721414800000000000e+09
1.410000000000000000e+02,3.660000000000000000e+02,4.010000000000000000e+02,8.800000000000000000e+01,4.600000000000000000e+01,3.740000000000000000e+02,4.460000000000000000e+02,4.330000000000000000e+02,4.099999999999999756e-01,4.740588700000000000e+09
1.520000000000000000e+02,3.670000000000000000e+02,3.840000000000000000e+02,8.700000000000000000e+01,4.700000000000000000e+01,3.120000000000000000e+02,5.290000000000000000e+02,4.050000000000000000e+02,4.199999999999999845e-01,4.759649300000000000e+09
1.480000000000000000e+02,2.910000000000000000e+02,2.850000000000000000e+02,6.100000000000000000e+01,4.300000000000000000e+01,3.290000000000000000e+02,5.810000000000000000e+02,4.120000000000000000e+02,4.299999999999999933e-01,4.781088400000000000e+09
1.550000000000000000e+02,3.220000000000000000e+02,2.230000000000000000e+02,5.700000000000000000e+01,4.100000000000000000e+01,3.530000000000000000e+02,6.100000000000000000e+02,4.450000000000000000e+02,4.400000000000000022e-01,4.799701100000000000e+09
1.620000000000000000e+02,3.130000000000000000e+02,3.190000000000000000e+02,7.900000000000000000e+01,4.600000000000000000e+01,3.460000000000000000e+02,6.410000000000000000e+02,3.810000000000000000e+02,4.600000000000000200e-01,4.839490000000000000e+09
1.590000000000000000e+02,3.740000000000000000e+02,3.220000000000000000e+02,8.000000000000000000e+01,4.600000000000000000e+01,3.080000000000000000e+02,6.220000000000000000e+02,4.160000000000000000e+02,4.600000000000000200e-01,4.839519800000000000e+09
1.610000000000000000e+02,3.750000000000000000e+02,3.130000000000000000e+02,8.000000000000000000e+01,4.600000000000000000e+01,3.830000000000000000e+02,6.080000000000000000e+02,5.170000000000000000e+02,4.699999999999999734e-01,4.861260600000000000e+09
1.600000000000000000e+02,3.720000000000000000e+02,3.150000000000000000e+02,8.000000000000000000e+01,4.500000000000000000e+01,3.800000000000000000e+02,5.620000000000000000e+02,4.980000000000000000e+02,4.799999999999999822e-01,4.879897500000000000e+09
1.500000000000000000e+02,3.450000000000000000e+02,3.720000000000000000e+02,7.800000000000000000e+01,4.700000000000000000e+01,3.600000000000000000e+02,5.340000000000000000e+02,4.600000000000000000e+02,4.899999999999999911e-01,4.900601100000000000e+09
1.140000000000000000e+02,3.650000000000000000e+02,3.610000000000000000e+02,6.100000000000000000e+01,4.400000000000000000e+01,3.480000000000000000e+02,5.030000000000000000e+02,4.540000000000000000e+02,5.000000000000000000e-01,4.919774400000000000e+09
1.050000000000000000e+02,2.990000000000000000e+02,4.580000000000000000e+02,6.700000000000000000e+01,4.400000000000000000e+01,3.230000000000000000e+02,4.810000000000000000e+02,4.030000000000000000e+02,5.100000000000000089e-01,4.941136700000000000e+09
9.700000000000000000e+01,3.370000000000000000e+02,4.750000000000000000e+02,6.700000000000000000e+01,4.200000000000000000e+01,1.940000000000000000e+02,4.290000000000000000e+02,3.370000000000000000e+02,5.200000000000000178e-01,4.959880500000000000e+09
9.700000000000000000e+01,3.430000000000000000e+02,4.830000000000000000e+02,7.100000000000000000e+01,4.400000000000000000e+01,1.950000000000000000e+02,5.520000000000000000e+02,3.720000000000000000e+02,5.300000000000000266e-01,4.981608700000000000e+09
9.800000000000000000e+01,3.450000000000000000e+02,4.360000000000000000e+02,6.900000000000000000e+01,4.200000000000000000e+01,1.820000000000000000e+02,5.810000000000000000e+02,4.160000000000000000e+02,5.400000000000000355e-01,4.999968100000000000e+09
1.110000000000000000e+02,3.430000000000000000e+02,3.790000000000000000e+02,6.100000000000000000e+01,3.800000000000000000e+01,1.700000000000000000e+02,5.690000000000000000e+02,4.220000000000000000e+02,5.500000000000000444e-01,5.021543500000000000e+09
1.170000000000000000e+02,3.420000000000000000e+02,2.710000000000000000e+02,5.100000000000000000e+01,3.500000000000000000e+01,1.680000000000000000e+02,5.870000000000000000e+02,4.040000000000000000e+02,5.600000000000000533e-01,5.040048400000000000e+09
1.270000000000000000e+02,3.980000000000000000e+02,2.550000000000000000e+02,5.300000000000000000e+01,3.900000000000000000e+01,2.480000000000000000e+02,6.590000000000000000e+02,4.160000000000000000e+02,5.799999999999999600e-01,5.081370500000000000e+09
1.310000000000000000e+02,3.940000000000000000e+02,2.600000000000000000e+02,5.400000000000000000e+01,3.900000000000000000e+01,2.730000000000000000e+02,5.590000000000000000e+02,4.240000000000000000e+02,5.799999999999999600e-01,5.081415700000000000e+09
1.290000000000000000e+02,3.970000000000000000e+02,2.640000000000000000e+02,5.100000000000000000e+01,3.900000000000000000e+01,2.800000000000000000e+02,5.110000000000000000e+02,4.070000000000000000e+02,5.899999999999999689e-01,5.100649800000000000e+09
1.120000000000000000e+02,3.980000000000000000e+02,2.690000000000000000e+02,5.100000000000000000e+01,4.100000000000000000e+01,2.890000000000000000e+02,5.490000000000000000e+02,4.840000000000000000e+02,5.999999999999999778e-01,5.119910700000000000e+09
1.210000000000000000e+02,4.280000000000000000e+02,4.020000000000000000e+02,5.800000000000000000e+01,4.500000000000000000e+01,3.900000000000000000e+02,5.590000000000000000e+02,5.050000000000000000e+02,6.099999999999999867e-01,5.141438000000000000e+09
1.110000000000000000e+02,3.580000000000000000e+02,4.770000000000000000e+02,5.500000000000000000e+01,4.300000000000000000e+01,3.730000000000000000e+02,5.020000000000000000e+02,4.810000000000000000e+02,6.199999999999999956e-01,5.160312500000000000e+09
1.110000000000000000e+02,3.610000000000000000e+02,4.730000000000000000e+02,4.900000000000000000e+01,4.300000000000000000e+01,3.480000000000000000e+02,5.500000000000000000e+02,4.820000000000000000e+02,6.300000000000000044e-01,5.181830700000000000e+09
1.300000000000000000e+02,3.990000000000000000e+02,4.720000000000000000e+02,1.240000000000000000e+02,5.500000000000000000e+01,3.830000000000000000e+02,5.410000000000000000e+02,5.200000000000000000e+02,6.400000000000000133e-01,5.201290800000000000e+09
1.350000000000000000e+02,4.640000000000000000e+02,4.600000000000000000e+02,1.440000000000000000e+02,5.700000000000000000e+01,4.220000000000000000e+02,4.890000000000000000e+02,5.240000000000000000e+02,6.500000000000000222e-01,5.219887600000000000e+09
1.220000000000000000e+02,4.670000000000000000e+02,4.380000000000000000e+02,1.470000000000000000e+02,5.900000000000000000e+01,3.590000000000000000e+02,5.440000000000000000e+02,5.270000000000000000e+02,6.600000000000000311e-01,5.241394600000000000e+09
1.130000000000000000e+02,4.430000000000000000e+02,3.580000000000000000e+02,1.470000000000000000e+02,6.400000000000000000e+01,4.250000000000000000e+02,5.360000000000000000e+02,5.610000000000000000e+02,6.700000000000000400e-01,5.260539000000000000e+09
1.230000000000000000e+02,5.320000000000000000e+02,3.650000000000000000e+02,1.520000000000000000e+02,6.600000000000000000e+01,4.510000000000000000e+02,5.650000000000000000e+02,5.420000000000000000e+02,6.800000000000000488e-01,5.279537600000000000e+09
1.060000000000000000e+02,5.200000000000000000e+02,3.540000000000000000e+02,1.070000000000000000e+02,6.600000000000000000e+01,4.940000000000000000e+02,5.730000000000000000e+02,5.410000000000000000e+02,6.999999999999999556e-01,5.319564800000000000e+09
1.170000000000000000e+02,4.500000000000000000e+02,3.660000000000000000e+02,7.900000000000000000e+01,6.800000000000000000e+01,5.230000000000000000e+02,6.450000000000000000e+02,4.950000000000000000e+02,6.999999999999999556e-01,5.319576400000000000e+09
1.180000000000000000e+02,4.630000000000000000e+02,2.220000000000000000e+02,7.000000000000000000e+01,6.300000000000000000e+01,5.090000000000000000e+02,6.010000000000000000e+02,4.850000000000000000e+02,7.099999999999999645e-01,5.341281900000000000e+09
1.210000000000000000e+02,4.970000000000000000e+02,2.520000000000000000e+02,7.000000000000000000e+01,6.500000000000000000e+01,4.500000000000000000e+02,5.580000000000000000e+02,5.020000000000000000e+02,7.299999999999999822e-01,5.380947400000000000e+09
1.120000000000000000e+02,4.640000000000000000e+02,2.560000000000000000e+02,6.000000000000000000e+01,6.800000000000000000e+01,4.460000000000000000e+02,5.150000000000000000e+02,5.360000000000000000e+02,7.299999999999999822e-01,5.380959500000000000e+09
1.110000000000000000e+02,4.610000000000000000e+02,2.830000000000000000e+02,5.600000000000000000e+01,5.900000000000000000e+01,4.640000000000000000e+02,5.730000000000000000e+02,4.880000000000000000e+02,7.399999999999999911e-01,5.399701100000000000e+09
9.900000000000000000e+01,4.640000000000000000e+02,3.130000000000000000e+02,5.800000000000000000e+01,6.200000000000000000e+01,4.870000000000000000e+02,5.270000000000000000e+02,4.910000000000000000e+02,7.500000000000000000e-01,5.421368100000000000e+09
1.110000000000000000e+02,4.920000000000000000e+02,3.250000000000000000e+02,6.000000000000000000e+01,6.600000000000000000e+01,5.180000000000000000e+02,5.920000000000000000e+02,5.560000000000000000e+02,7.600000000000000089e-01,5.440108100000000000e+09
1.070000000000000000e+02,4.640000000000000000e+02,2.910000000000000000e+02,5.600000000000000000e+01,5.800000000000000000e+01,5.080000000000000000e+02,5.930000000000000000e+02,4.890000000000000000e+02,7.700000000000000178e-01,5.461398800000000000e+09
1.160000000000000000e+02,3.920000000000000000e+02,2.680000000000000000e+02,5.500000000000000000e+01,6.000000000000000000e+01,6.790000000000000000e+02,6.840000000000000000e+02,4.830000000000000000e+02,7.800000000000000266e-01,5.480070000000000000e+09
1.230000000000000000e+02,4.420000000000000000e+02,2.540000000000000000e+02,5.000000000000000000e+01,6.300000000000000000e+01,6.770000000000000000e+02,7.030000000000000000e+02,5.640000000000000000e+02,7.900000000000000355e-01,5.501072300000000000e+09
1.230000000000000000e+02,4.470000000000000000e+02,3.210000000000000000e+02,5.200000000000000000e+01,5.600000000000000000e+01,6.190000000000000000e+02,7.130000000000000000e+02,5.590000000000000000e+02,8.000000000000000444e-01,5.519769800000000000e+09
1.160000000000000000e+02,3.850000000000000000e+02,3.250000000000000000e+02,5.200000000000000000e+01,5.500000000000000000e+01,6.390000000000000000e+02,6.800000000000000000e+02,5.390000000000000000e+02,8.100000000000000533e-01,5.541244500000000000e+09
1.300000000000000000e+02,3.900000000000000000e+02,3.320000000000000000e+02,5.200000000000000000e+01,5.600000000000000000e+01,6.760000000000000000e+02,6.960000000000000000e+02,5.420000000000000000e+02,8.199999999999999512e-01,5.560309800000000000e+09
1.280000000000000000e+02,4.500000000000000000e+02,4.100000000000000000e+02,5.900000000000000000e+01,5.200000000000000000e+01,5.280000000000000000e+02,6.130000000000000000e+02,5.620000000000000000e+02,8.299999999999999600e-01,5.581686700000000000e+09
1.290000000000000000e+02,4.590000000000000000e+02,4.090000000000000000e+02,5.500000000000000000e+01,5.300000000000000000e+01,5.530000000000000000e+02,5.920000000000000000e+02,5.400000000000000000e+02,8.399999999999999689e-01,5.600041100000000000e+09
1.510000000000000000e+02,5.060000000000000000e+02,3.320000000000000000e+02,5.100000000000000000e+01,6.300000000000000000e+01,5.980000000000000000e+02,6.530000000000000000e+02,5.820000000000000000e+02,8.599999999999999867e-01,5.640030500000000000e+09
1.810000000000000000e+02,5.360000000000000000e+02,3.160000000000000000e+02,5.200000000000000000e+01,6.800000000000000000e+01,6.660000000000000000e+02,6.580000000000000000e+02,6.840000000000000000e+02,8.599999999999999867e-01,5.640040900000000000e+09
1.950000000000000000e+02,5.960000000000000000e+02,3.430000000000000000e+02,6.300000000000000000e+01,7.800000000000000000e+01,6.810000000000000000e+02,6.610000000000000000e+02,7.340000000000000000e+02,8.699999999999999956e-01,5.661414500000000000e+09
2.230000000000000000e+02,5.870000000000000000e+02,3.360000000000000000e+02,7.000000000000000000e+01,8.000000000000000000e+01,6.780000000000000000e+02,6.540000000000000000e+02,7.270000000000000000e+02,8.800000000000000044e-01,5.680037300000000000e+09
2.790000000000000000e+02,6.850000000000000000e+02,3.610000000000000000e+02,7.700000000000000000e+01,7.900000000000000000e+01,6.290000000000000000e+02,6.170000000000000000e+02,6.870000000000000000e+02,8.900000000000000133e-01,5.701373400000000000e+09
3.300000000000000000e+02,6.850000000000000000e+02,3.600000000000000000e+02,8.100000000000000000e+01,7.800000000000000000e+01,6.550000000000000000e+02,5.830000000000000000e+02,7.790000000000000000e+02,9.000000000000000222e-01,5.719858700000000000e+09
3.400000000000000000e+02,7.150000000000000000e+02,3.570000000000000000e+02,8.000000000000000000e+01,8.100000000000000000e+01,6.160000000000000000e+02,5.940000000000000000e+02,7.350000000000000000e+02,9.200000000000000400e-01,5.760813400000000000e+09
3.330000000000000000e+02,7.260000000000000000e+02,3.280000000000000000e+02,7.300000000000000000e+01,7.600000000000000000e+01,6.560000000000000000e+02,6.050000000000000000e+02,7.200000000000000000e+02,9.200000000000000400e-01,5.760824300000000000e+09
3.170000000000000000e+02,7.750000000000000000e+02,2.640000000000000000e+02,6.300000000000000000e+01,7.100000000000000000e+01,6.660000000000000000e+02,6.530000000000000000e+02,7.520000000000000000e+02,9.399999999999999467e-01,5.801118500000000000e+09
2.830000000000000000e+02,7.180000000000000000e+02,2.510000000000000000e+02,6.000000000000000000e+01,7.900000000000000000e+01,7.090000000000000000e+02,7.060000000000000000e+02,8.390000000000000000e+02,9.399999999999999467e-01,5.801129600000000000e+09
2.480000000000000000e+02,7.200000000000000000e+02,3.960000000000000000e+02,5.800000000000000000e+01,8.000000000000000000e+01,8.870000000000000000e+02,7.500000000000000000e+02,8.380000000000000000e+02,9.499999999999999556e-01,5.819815500000000000e+09
2.430000000000000000e+02,7.140000000000000000e+02,4.440000000000000000e+02,5.700000000000000000e+01,7.700000000000000000e+01,9.180000000000000000e+02,7.750000000000000000e+02,8.250000000000000000e+02,9.599999999999999645e-01,5.841222200000000000e+09
2.670000000000000000e+02,7.030000000000000000e+02,4.420000000000000000e+02,5.600000000000000000e+01,8.100000000000000000e+01,9.420000000000000000e+02,7.760000000000000000e+02,8.290000000000000000e+02,9.699999999999999734e-01,5.860129600000000000e+09
2.720000000000000000e+02,6.280000000000000000e+02,4.280000000000000000e+02,6.000000000000000000e+01,9.100000000000000000e+01,9.970000000000000000e+02,7.840000000000000000e+02,8.260000000000000000e+02,9.799999999999999822e-01,5.881516100000000000e+09
2.620000000000000000e+02,6.340000000000000000e+02,4.470000000000000000e+02,6.300000000000000000e+01,1.100000000000000000e+02,1.130000000000000000e+03,7.720000000000000000e+02,7.750000000000000000e+02,9.899999999999999911e-01,5.900005200000000000e+09
2.420000000000000000e+02,6.410000000000000000e+02,3.250000000000000000e+02,6.400000000000000000e+01,1.100000000000000000e+02,1.018000000000000000e+03,7.300000000000000000e+02,7.440000000000000000e+02,9.799999999999999822e-01,5.921036200000000000e+09
2.530000000000000000e+02,6.300000000000000000e+02,2.550000000000000000e+02,6.500000000000000000e+01,1.080000000000000000e+02,1.077000000000000000e+03,6.970000000000000000e+02,7.680000000000000000e+02,9.699999999999999734e-01,5.939663000000000000e+09
2.400000000000000000e+02,6.190000000000000000e+02,3.010000000000000000e+02,7.500000000000000000e+01,1.100000000000000000e+02,1.083000000000000000e+03,6.800000000000000000e+02,7.500000000000000000e+02,9.599999999999999645e-01,5.960940300000000000e+09
2.490000000000000000e+02,6.300000000000000000e+02,5.690000000000000000e+02,8.900000000000000000e+01,1.250000000000000000e+02,1.118000000000000000e+03,7.000000000000000000e+02,7.420000000000000000e+02,9.399999999999999467e-01,6.000551600000000000e+09
2.540000000000000000e+02,5.570000000000000000e+02,6.410000000000000000e+02,9.100000000000000000e+01,1.160000000000000000e+02,1.074000000000000000e+03,6.810000000000000000e+02,7.200000000000000000e+02,9.399999999999999467e-01,6.000564600000000000e+09
2.800000000000000000e+02,5.390000000000000000e+02,6.370000000000000000e+02,9.600000000000000000e+01,1.160000000000000000e+02,1.134000000000000000e+03,6.620000000000000000e+02,6.940000000000000000e+02,9.300000000000000488e-01,6.021375500000000000e+09
3.030000000000000000e+02,5.550000000000000000e+02,7.150000000000000000e+02,1.130000000000000000e+02,1.220000000000000000e+02,1.060000000000000000e+03,6.010000000000000000e+02,7.310000000000000000e+02,9.200000000000000400e-01,6.040836100000000000e+09
3.040000000000000000e+02,5.760000000000000000e+02,8.350000000000000000e+02,1.600000000000000000e+02,1.210000000000000000e+02,9.910000000000000000e+02,5.720000000000000000e+02,7.160000000000000000e+02,9.100000000000000311e-01,6.059830200000000000e+09
2.980000000000000000e+02,5.880000000000000000e+02,7.170000000000000000e+02,1.730000000000000000e+02,9.700000000000000000e+01,8.700000000000000000e+02,4.510000000000000000e+02,6.680000000000000000e+02,9.000000000000000222e-01,6.080846600000000000e+09
2.990000000000000000e+02,6.410000000000000000e+02,7.330000000000000000e+02,1.810000000000000000e+02,8.400000000000000000e+01,7.170000000000000000e+02,3.930000000000000000e+02,6.460000000000000000e+02,8.900000000000000133e-01,6.099698800000000000e+09
2.670000000000000000e+02,6.240000000000000000e+02,8.260000000000000000e+02,1.920000000000000000e+02,9.000000000000000000e+01,5.570000000000000000e+02,3.130000000000000000e+02,5.380000000000000000e+02,8.800000000000000044e-01,6.120810300000000000e+09
2.070000000000000000e+02,5.560000000000000000e+02,7.920000000000000000e+02,1.850000000000000000e+02,7.800000000000000000e+01,5.170000000000000000e+02,2.910000000000000000e+02,3.110000000000000000e+02,8.599999999999999867e-01,6.160688600000000000e+09
1.920000000000000000e+02,4.850000000000000000e+02,7.190000000000000000e+02,1.500000000000000000e+02,7.300000000000000000e+01,4.750000000000000000e+02,2.820000000000000000e+02,2.650000000000000000e+02,8.599999999999999867e-01,6.160735300000000000e+09
1.910000000000000000e+02,4.400000000000000000e+02,7.380000000000000000e+02,1.290000000000000000e+02,7.500000000000000000e+01,5.120000000000000000e+02,2.550000000000000000e+02,2.260000000000000000e+02,8.499999999999999778e-01,6.179705800000000000e+09
1.850000000000000000e+02,3.900000000000000000e+02,6.840000000000000000e+02,1.370000000000000000e+02,7.500000000000000000e+01,4.740000000000000000e+02,2.290000000000000000e+02,1.890000000000000000e+02,8.399999999999999689e-01,6.201232000000000000e+09
1.720000000000000000e+02,3.720000000000000000e+02,6.500000000000000000e+02,1.350000000000000000e+02,6.500000000000000000e+01,4.100000000000000000e+02,1.950000000000000000e+02,1.730000000000000000e+02,8.199999999999999512e-01,6.241448300000000000e+09
1.630000000000000000e+02,3.870000000000000000e+02,6.820000000000000000e+02,1.450000000000000000e+02,6.600000000000000000e+01,3.190000000000000000e+02,1.840000000000000000e+02,1.590000000000000000e+02,8.199999999999999512e-01,6.241459200000000000e+09
1.510000000000000000e+02,3.650000000000000000e+02,6.780000000000000000e+02,1.450000000000000000e+02,7.000000000000000000e+01,3.120000000000000000e+02,1.190000000000000000e+02,1.020000000000000000e+02,8.000000000000000444e-01,6.281583300000000000e+09
1.320000000000000000e+02,3.730000000000000000e+02,7.520000000000000000e+02,1.440000000000000000e+02,7.400000000000000000e+01,4.020000000000000000e+02,9.700000000000000000e+01,9.200000000000000000e+01,8.000000000000000444e-01,6.281630300000000000e+09
1.100000000000000000e+02,2.780000000000000000e+02,7.470000000000000000e+02,1.420000000000000000e+02,7.300000000000000000e+01,4.200000000000000000e+02,7.900000000000000000e+01,7.300000000000000000e+01,7.900000000000000355e-01,6.301112900000000000e+09
1.320000000000000000e+02,2.430000000000000000e+02,7.640000000000000000e+02,1.370000000000000000e+02,7.000000000000000000e+01,4.160000000000000000e+02,7.300000000000000000e+01,5.900000000000000000e+01,7.800000000000000266e-01,6.319775500000000000e+09
1.310000000000000000e+02,2.610000000000000000e+02,7.430000000000000000e+02,1.460000000000000000e+02,6.900000000000000000e+01,4.100000000000000000e+02,7.800000000000000000e+01,5.300000000000000000e+01,7.700000000000000178e-01,6.340862700000000000e+09
1.530000000000000000e+02,2.690000000000000000e+02,7.730000000000000000e+02,1.530000000000000000e+02,6.200000000000000000e+01,4.110000000000000000e+02,6.500000000000000000e+01,4.900000000000000000e+01,7.600000000000000089e-01,6.359520500000000000e+09
1.500000000000000000e+02,2.520000000000000000e+02,7.150000000000000000e+02,1.690000000000000000e+02,6.000000000000000000e+01,2.360000000000000000e+02,6.000000000000000000e+01,4.800000000000000000e+01,7.500000000000000000e-01,6.380956700000000000e+09
1.540000000000000000e+02,2.750000000000000000e+02,6.930000000000000000e+02,1.590000000000000000e+02,5.900000000000000000e+01,1.650000000000000000e+02,5.600000000000000000e+01,4.900000000000000000e+01,7.399999999999999911e-01,6.399677800000000000e+09
1.260000000000000000e+02,2.840000000000000000e+02,7.150000000000000000e+02,1.490000000000000000e+02,5.800000000000000000e+01,1.440000000000000000e+02,5.700000000000000000e+01,4.700000000000000000e+01,7.199999999999999734e-01,6.441874400000000000e+09
1.370000000000000000e+02,2.840000000000000000e+02,7.380000000000000000e+02,1.250000000000000000e+02,5.600000000000000000e+01,1.550000000000000000e+02,5.900000000000000000e+01,4.500000000000000000e+01,7.199999999999999734e-01,6.441885200000000000e+09
1.060000000000000000e+02,2.960000000000000000e+02,6.890000000000000000e+02,1.190000000000000000e+02,5.500000000000000000e+01,1.420000000000000000e+02,6.000000000000000000e+01,6.400000000000000000e+01,7.099999999999999645e-01,6.460620500000000000e+09
1.060000000000000000e+02,2.980000000000000000e+02,7.200000000000000000e+02,9.800000000000000000e+01,4.900000000000000000e+01,1.230000000000000000e+02,5.600000000000000000e+01,6.200000000000000000e+01,6.999999999999999556e-01,6.479365800000000000e+09
1.310000000000000000e+02,3.190000000000000000e+02,8.090000000000000000e+02,1.170000000000000000e+02,5.000000000000000000e+01,1.220000000000000000e+02,5.800000000000000000e+01,6.500000000000000000e+01,6.899999999999999467e-01,6.500646500000000000e+09
1.360000000000000000e+02,3.320000000000000000e+02,7.540000000000000000e+02,1.400000000000000000e+02,5.600000000000000000e+01,1.300000000000000000e+02,6.200000000000000000e+01,6.900000000000000000e+01,6.800000000000000488e-01,6.519388900000000000e+09
1.200000000000000000e+02,3.040000000000000000e+02,7.490000000000000000e+02,1.420000000000000000e+02,5.400000000000000000e+01,9.300000000000000000e+01,6.300000000000000000e+01,7.200000000000000000e+01,6.700000000000000400e-01,6.541311400000000000e+09
1.220000000000000000e+02,2.890000000000000000e+02,7.460000000000000000e+02,1.330000000000000000e+02,5.100000000000000000e+01,9.100000000000000000e+01,5.900000000000000000e+01,5.300000000000000000e+01,6.600000000000000311e-01,6.560051300000000000e+09
1.480000000000000000e+02,2.790000000000000000e+02,6.800000000000000000e+02,1.320000000000000000e+02,4.900000000000000000e+01,9.100000000000000000e+01,6.000000000000000000e+01,5.200000000000000000e+01,6.500000000000000222e-01,6.581552100000000000e+09
1.300000000000000000e+02,3.360000000000000000e+02,6.610000000000000000e+02,1.160000000000000000e+02,5.000000000000000000e+01,9.000000000000000000e+01,6.000000000000000000e+01,4.900000000000000000e+01,6.400000000000000133e-01,6.600172000000000000e+09
1.330000000000000000e+02,3.490000000000000000e+02,6.890000000000000000e+02,1.320000000000000000e+02,5.700000000000000000e+01,5.600000000000000000e+01,5.400000000000000000e+01,4.800000000000000000e+01,6.300000000000000044e-01,6.621234500000000000e+09
1.350000000000000000e+02,3.510000000000000000e+02,6.870000000000000000e+02,1.410000000000000000e+02,6.100000000000000000e+01,7.600000000000000000e+01,3.900000000000000000e+01,4.500000000000000000e+01,6.099999999999999867e-01,6.660842600000000000e+09
1.330000000000000000e+02,3.430000000000000000e+02,6.720000000000000000e+02,1.430000000000000000e+02,6.200000000000000000e+01,7.400000000000000000e+01,6.200000000000000000e+01,4.500000000000000000e+01,6.099999999999999867e-01,6.660860900000000000e+09
9.700000000000000000e+01,3.380000000000000000e+02,7.280000000000000000e+02,1.490000000000000000e+02,6.600000000000000000e+01,8.100000000000000000e+01,6.300000000000000000e+01,4.800000000000000000e+01,5.999999999999999778e-01,6.679589300000000000e+09
8.300000000000000000e+01,2.610000000000000000e+02,7.280000000000000000e+02,1.440000000000000000e+02,5.900000000000000000e+01,8.200000000000000000e+01,6.300000000000000000e+01,4.400000000000000000e+01,5.799999999999999600e-01,6.720193900000000000e+09
1.070000000000000000e+02,2.940000000000000000e+02,7.540000000000000000e+02,1.550000000000000000e+02,6.800000000000000000e+01,9.800000000000000000e+01,6.700000000000000000e+01,5.100000000000000000e+01,5.799999999999999600e-01,6.720205100000000000e+09
1.130000000000000000e+02,2.970000000000000000e+02,7.630000000000000000e+02,1.770000000000000000e+02,7.300000000000000000e+01,9.900000000000000000e+01,9.600000000000000000e+01,5.300000000000000000e+01,5.699999999999999512e-01,6.741585500000000000e+09
1.140000000000000000e+02,3.020000000000000000e+02,8.620000000000000000e+02,1.800000000000000000e+02,7.500000000000000000e+01,1.230000000000000000e+02,9.600000000000000000e+01,5.900000000000000000e+01,5.600000000000000533e-01,6.760619100000000000e+09
1.140000000000000000e+02,3.260000000000000000e+02,8.290000000000000000e+02,1.800000000000000000e+02,7.600000000000000000e+01,1.290000000000000000e+02,9.800000000000000000e+01,5.800000000000000000e+01,5.500000000000000444e-01,6.781889600000000000e+09
1.190000000000000000e+02,3.460000000000000000e+02,8.210000000000000000e+02,1.860000000000000000e+02,7.800000000000000000e+01,1.340000000000000000e+02,1.010000000000000000e+02,6.100000000000000000e+01,5.400000000000000355e-01,6.800496200000000000e+09
8.400000000000000000e+01,2.860000000000000000e+02,7.850000000000000000e+02,1.520000000000000000e+02,5.900000000000000000e+01,1.280000000000000000e+02,1.050000000000000000e+02,5.200000000000000000e+01,5.300000000000000266e-01,6.819140600000000000e+09
1.240000000000000000e+02,2.920000000000000000e+02,8.300000000000000000e+02,1.290000000000000000e+02,5.300000000000000000e+01,1.170000000000000000e+02,8.000000000000000000e+01,4.900000000000000000e+01,5.200000000000000178e-01,6.840266300000000000e+09
1.320000000000000000e+02,2.930000000000000000e+02,7.680000000000000000e+02,1.330000000000000000e+02,5.300000000000000000e+01,1.020000000000000000e+02,7.500000000000000000e+01,4.200000000000000000e+01,5.100000000000000089e-01,6.859197400000000000e+09
1.450000000000000000e+02,3.030000000000000000e+02,8.270000000000000000e+02,1.590000000000000000e+02,6.900000000000000000e+01,1.810000000000000000e+02,8.900000000000000000e+01,5.300000000000000000e+01,5.000000000000000000e-01,6.880534500000000000e+09
1.490000000000000000e+02,2.970000000000000000e+02,8.130000000000000000e+02,1.580000000000000000e+02,6.800000000000000000e+01,1.970000000000000000e+02,9.000000000000000000e+01,5.500000000000000000e+01,4.899999999999999911e-01,6.901563100000000000e+09
1.510000000000000000e+02,3.080000000000000000e+02,8.270000000000000000e+02,1.560000000000000000e+02,6.900000000000000000e+01,1.960000000000000000e+02,8.400000000000000000e+01,5.500000000000000000e+01,4.799999999999999822e-01,6.920339700000000000e+09
1.260000000000000000e+02,3.060000000000000000e+02,8.170000000000000000e+02,1.670000000000000000e+02,7.600000000000000000e+01,1.990000000000000000e+02,8.400000000000000000e+01,6.100000000000000000e+01,4.699999999999999734e-01,6.941424200000000000e+09
1.410000000000000000e+02,3.320000000000000000e+02,9.040000000000000000e+02,2.130000000000000000e+02,8.500000000000000000e+01,2.220000000000000000e+02,9.600000000000000000e+01,6.900000000000000000e+01,4.600000000000000200e-01,6.960379900000000000e+09
1.280000000000000000e+02,3.130000000000000000e+02,9.430000000000000000e+02,1.890000000000000000e+02,6.900000000000000000e+01,1.660000000000000000e+02,8.100000000000000000e+01,6.100000000000000000e+01,4.500000000000000111e-01,6.981247200000000000e+09
1.300000000000000000e+02,2.890000000000000000e+02,9.760000000000000000e+02,1.930000000000000000e+02,7.000000000000000000e+01,1.430000000000000000e+02,7.800000000000000000e+01,5.800000000000000000e+01,4.400000000000000022e-01,7.000539000000000000e+09
1.350000000000000000e+02,2.950000000000000000e+02,1.042000000000000000e+03,2.110000000000000000e+02,7.600000000000000000e+01,1.450000000000000000e+02,7.700000000000000000e+01,6.100000000000000000e+01,4.199999999999999845e-01,7.041575900000000000e+09
1.240000000000000000e+02,2.840000000000000000e+02,1.050000000000000000e+03,1.930000000000000000e+02,7.200000000000000000e+01,2.050000000000000000e+02,9.600000000000000000e+01,5.600000000000000000e+01,4.199999999999999845e-01,7.041586200000000000e+09
9.600000000000000000e+01,2.440000000000000000e+02,9.960000000000000000e+02,1.400000000000000000e+02,6.800000000000000000e+01,3.060000000000000000e+02,8.700000000000000000e+01,7.400000000000000000e+01,4.099999999999999756e-01,7.060436200000000000e+09
1.070000000000000000e+02,2.610000000000000000e+02,9.910000000000000000e+02,1.460000000000000000e+02,7.100000000000000000e+01,3.160000000000000000e+02,8.800000000000000000e+01,7.600000000000000000e+01,4.000000000000000222e-01,7.081681900000000000e+09
1.100000000000000000e+02,2.980000000000000000e+02,1.014000000000000000e+03,1.720000000000000000e+02,8.100000000000000000e+01,3.190000000000000000e+02,9.100000000000000000e+01,8.400000000000000000e+01,3.900000000000000133e-01,7.100505600000000000e+09
1.140000000000000000e+02,2.990000000000000000e+02,9.270000000000000000e+02,1.590000000000000000e+02,7.800000000000000000e+01,3.610000000000000000e+02,1.120000000000000000e+02,8.500000000000000000e+01,3.800000000000000044e-01,7.121470500000000000e+09
1.220000000000000000e+02,3.320000000000000000e+02,9.640000000000000000e+02,1.660000000000000000e+02,8.300000000000000000e+01,4.210000000000000000e+02,1.000000000000000000e+02,9.200000000000000000e+01,3.699999999999999956e-01,7.139787300000000000e+09
1.400000000000000000e+02,3.640000000000000000e+02,9.850000000000000000e+02,1.890000000000000000e+02,8.500000000000000000e+01,3.450000000000000000e+02,9.500000000000000000e+01,7.700000000000000000e+01,3.599999999999999867e-01,7.160838900000000000e+09
1.350000000000000000e+02,3.640000000000000000e+02,1.015000000000000000e+03,1.880000000000000000e+02,8.800000000000000000e+01,3.390000000000000000e+02,1.070000000000000000e+02,7.600000000000000000e+01,3.400000000000000244e-01,7.200832500000000000e+09
1.290000000000000000e+02,3.350000000000000000e+02,9.850000000000000000e+02,1.700000000000000000e+02,7.800000000000000000e+01,3.450000000000000000e+02,1.150000000000000000e+02,7.300000000000000000e+01,3.400000000000000244e-01,7.200843800000000000e+09
1.340000000000000000e+02,3.660000000000000000e+02,1.041000000000000000e+03,1.780000000000000000e+02,8.100000000000000000e+01,3.000000000000000000e+02,9.600000000000000000e+01,7.300000000000000000e+01,3.200000000000000067e-01,7.241389400000000000e+09
1.260000000000000000e+02,3.580000000000000000e+02,9.960000000000000000e+02,1.760000000000000000e+02,7.400000000000000000e+01,1.820000000000000000e+02,9.600000000000000000e+01,8.700000000000000000e+01,3.200000000000000067e-01,7.241430100000000000e+09
1.070000000000000000e+02,3.450000000000000000e+02,9.580000000000000000e+02,1.480000000000000000e+02,6.600000000000000000e+01,1.790000000000000000e+02,1.000000000000000000e+02,8.500000000000000000e+01,3.099999999999999978e-01,7.259914900000000000e+09
1.370000000000000000e+02,4.060000000000000000e+02,9.120000000000000000e+02,1.840000000000000000e+02,8.200000000000000000e+01,2.340000000000000000e+02,8.900000000000000000e+01,9.500000000000000000e+01,2.999999999999999889e-01,7.281169000000000000e+09
1.750000000000000000e+02,4.690000000000000000e+02,1.017000000000000000e+03,2.630000000000000000e+02,1.000000000000000000e+02,2.350000000000000000e+02,8.300000000000000000e+01,1.010000000000000000e+02,2.899999999999999800e-01,7.299689800000000000e+09
1.790000000000000000e+02,4.650000000000000000e+02,1.016000000000000000e+03,2.950000000000000000e+02,1.000000000000000000e+02,2.470000000000000000e+02,1.070000000000000000e+02,1.040000000000000000e+02,2.800000000000000266e-01,7.320812200000000000e+09
1.970000000000000000e+02,5.080000000000000000e+02,1.030000000000000000e+03,3.110000000000000000e+02,1.090000000000000000e+02,2.330000000000000000e+02,1.120000000000000000e+02,9.200000000000000000e+01,2.600000000000000089e-01,7.361215300000000000e+09
2.330000000000000000e+02,6.130000000000000000e+02,1.108000000000000000e+03,3.410000000000000000e+02,1.270000000000000000e+02,3.040000000000000000e+02,1.300000000000000000e+02,1.300000000000000000e+02,2.600000000000000089e-01,7.361227300000000000e+09
2.170000000000000000e+02,5.800000000000000000e+02,1.115000000000000000e+03,3.340000000000000000e+02,1.190000000000000000e+02,2.740000000000000000e+02,1.310000000000000000e+02,1.230000000000000000e+02,2.500000000000000000e-01,7.379844200000000000e+09
2.040000000000000000e+02,5.810000000000000000e+02,1.046000000000000000e+03,2.820000000000000000e+02,1.090000000000000000e+02,2.650000000000000000e+02,1.230000000000000000e+02,1.190000000000000000e+02,2.399999999999999911e-01,7.401180700000000000e+09
2.310000000000000000e+02,6.800000000000000000e+02,9.970000000000000000e+02,2.880000000000000000e+02,1.260000000000000000e+02,2.580000000000000000e+02,1.130000000000000000e+02,1.320000000000000000e+02,2.300000000000000100e-01,7.420291500000000000e+09
2.260000000000000000e+02,6.690000000000000000e+02,1.076000000000000000e+03,2.830000000000000000e+02,1.260000000000000000e+02,2.820000000000000000e+02,1.210000000000000000e+02,1.320000000000000000e+02,2.200000000000000011e-01,7.441711600000000000e+09
2.430000000000000000e+02,7.020000000000000000e+02,1.176000000000000000e+03,3.310000000000000000e+02,1.350000000000000000e+02,2.100000000000000000e+02,1.110000000000000000e+02,1.170000000000000000e+02,2.000000000000000111e-01,7.479250800000000000e+09
2.570000000000000000e+02,7.510000000000000000e+02,1.252000000000000000e+03,3.760000000000000000e+02,1.480000000000000000e+02,2.060000000000000000e+02,1.090000000000000000e+02,1.220000000000000000e+02,2.000000000000000111e-01,7.479264300000000000e+09
2.480000000000000000e+02,7.330000000000000000e+02,1.284000000000000000e+03,3.940000000000000000e+02,1.470000000000000000e+02,2.210000000000000000e+02,1.130000000000000000e+02,1.210000000000000000e+02,1.900000000000000022e-01,7.500165400000000000e+09
2.510000000000000000e+02,7.540000000000000000e+02,1.395000000000000000e+03,3.910000000000000000e+02,1.380000000000000000e+02,2.210000000000000000e+02,1.110000000000000000e+02,1.160000000000000000e+02,1.700000000000000122e-01,7.540111600000000000e+09
2.520000000000000000e+02,7.500000000000000000e+02,1.388000000000000000e+03,4.540000000000000000e+02,1.340000000000000000e+02,1.720000000000000000e+02,9.700000000000000000e+01,1.140000000000000000e+02,1.700000000000000122e-01,7.540135700000000000e+09
2.220000000000000000e+02,6.660000000000000000e+02,1.366000000000000000e+03,4.300000000000000000e+02,1.270000000000000000e+02,1.710000000000000000e+02,9.100000000000000000e+01,1.020000000000000000e+02,1.600000000000000033e-01,7.561274400000000000e+09
3.060000000000000000e+02,6.510000000000000000e+02,1.327000000000000000e+03,5.270000000000000000e+02,1.430000000000000000e+02,1.540000000000000000e+02,9.800000000000000000e+01,1.460000000000000000e+02,1.400000000000000133e-01,7.601016000000000000e+09
3.290000000000000000e+02,6.990000000000000000e+02,1.317000000000000000e+03,5.570000000000000000e+02,1.720000000000000000e+02,1.520000000000000000e+02,1.120000000000000000e+02,1.610000000000000000e+02,1.300000000000000044e-01,7.619729500000000000e+09
3.410000000000000000e+02,7.700000000000000000e+02,1.285000000000000000e+03,5.610000000000000000e+02,1.940000000000000000e+02,1.690000000000000000e+02,1.100000000000000000e+02,1.680000000000000000e+02,1.300000000000000044e-01,7.619743500000000000e+09
4.570000000000000000e+02,1.032000000000000000e+03,1.231000000000000000e+03,6.040000000000000000e+02,2.410000000000000000e+02,2.210000000000000000e+02,1.470000000000000000e+02,2.140000000000000000e+02,1.100000000000000006e-01,7.659959700000000000e+09
4.690000000000000000e+02,1.113000000000000000e+03,1.131000000000000000e+03,6.570000000000000000e+02,2.520000000000000000e+02,2.250000000000000000e+02,1.460000000000000000e+02,2.340000000000000000e+02,1.100000000000000006e-01,7.659970500000000000e+09
4.420000000000000000e+02,1.179000000000000000e+03,1.159000000000000000e+03,6.310000000000000000e+02,2.660000000000000000e+02,2.240000000000000000e+02,1.510000000000000000e+02,2.410000000000000000e+02,1.000000000000000056e-01,7.681315300000000000e+09
4.550000000000000000e+02,1.162000000000000000e+03,1.113000000000000000e+03,6.480000000000000000e+02,2.670000000000000000e+02,2.200000000000000000e+02,1.520000000000000000e+02,2.410000000000000000e+02,8.000000000000000167e-02,7.721518400000000000e+09
4.280000000000000000e+02,1.051000000000000000e+03,1.029000000000000000e+03,6.520000000000000000e+02,2.530000000000000000e+02,2.290000000000000000e+02,1.580000000000000000e+02,2.330000000000000000e+02,8.000000000000000167e-02,7.721549400000000000e+09
3.070000000000000000e+02,8.860000000000000000e+02,1.115000000000000000e+03,5.960000000000000000e+02,2.150000000000000000e+02,2.240000000000000000e+02,1.360000000000000000e+02,1.950000000000000000e+02,5.999999999999999778e-02,7.761226500000000000e+09
2.910000000000000000e+02,8.370000000000000000e+02,1.280000000000000000e+03,5.490000000000000000e+02,2.030000000000000000e+02,2.210000000000000000e+02,1.320000000000000000e+02,1.700000000000000000e+02,5.999999999999999778e-02,7.761240400000000000e+09
2.410000000000000000e+02,7.120000000000000000e+02,1.204000000000000000e+03,4.570000000000000000e+02,1.570000000000000000e+02,2.590000000000000000e+02,1.230000000000000000e+02,1.450000000000000000e+02,5.000000000000000278e-02,7.779963800000000000e+09
1.760000000000000000e+02,6.880000000000000000e+02,1.216000000000000000e+03,3.700000000000000000e+02,1.230000000000000000e+02,3.290000000000000000e+02,1.420000000000000000e+02,2.450000000000000000e+02,4.000000000000000083e-02,7.801387900000000000e+09
1.720000000000000000e+02,6.840000000000000000e+02,1.177000000000000000e+03,3.250000000000000000e+02,1.120000000000000000e+02,3.980000000000000000e+02,1.790000000000000000e+02,3.760000000000000000e+02,2.000000000000000042e-02,7.839182500000000000e+09
1.590000000000000000e+02,5.850000000000000000e+02,1.056000000000000000e+03,2.670000000000000000e+02,1.060000000000000000e+02,4.780000000000000000e+02,1.970000000000000000e+02,4.580000000000000000e+02,2.000000000000000042e-02,7.839193400000000000e+09
1.370000000000000000e+02,5.070000000000000000e+02,8.350000000000000000e+02,1.800000000000000000e+02,8.100000000000000000e+01,4.850000000000000000e+02,2.040000000000000000e+02,5.020000000000000000e+02,1.000000000000000021e-02,7.860503900000000000e+09
1.720000000000000000e+02,4.880000000000000000e+02,8.160000000000000000e+02,1.820000000000000000e+02,9.100000000000000000e+01,6.040000000000000000e+02,2.090000000000000000e+02,6.330000000000000000e+02,1.000000000000000021e-02,7.900296600000000000e+09
1.800000000000000000e+02,4.830000000000000000e+02,7.160000000000000000e+02,1.660000000000000000e+02,9.100000000000000000e+01,6.930000000000000000e+02,2.390000000000000000e+02,7.120000000000000000e+02,1.000000000000000021e-02,7.900316400000000000e+09
2.290000000000000000e+02,4.630000000000000000e+02,7.350000000000000000e+02,1.560000000000000000e+02,1.100000000000000000e+02,8.050000000000000000e+02,3.690000000000000000e+02,8.270000000000000000e+02,2.999999999999999889e-02,7.940886100000000000e+09
3.870000000000000000e+02,5.520000000000000000e+02,8.030000000000000000e+02,2.180000000000000000e+02,1.230000000000000000e+02,8.600000000000000000e+02,4.410000000000000000e+02,8.520000000000000000e+02,4.000000000000000083e-02,7.960601300000000000e+09
4.320000000000000000e+02,5.350000000000000000e+02,7.990000000000000000e+02,2.680000000000000000e+02,1.400000000000000000e+02,9.250000000000000000e+02,6.150000000000000000e+02,9.060000000000000000e+02,4.000000000000000083e-02,7.960613900000000000e+09
4.440000000000000000e+02,5.540000000000000000e+02,7.550000000000000000e+02,2.570000000000000000e+02,1.430000000000000000e+02,1.065000000000000000e+03,8.180000000000000000e+02,8.610000000000000000e+02,5.000000000000000278e-02,7.979647100000000000e+09
4.670000000000000000e+02,5.890000000000000000e+02,7.560000000000000000e+02,2.580000000000000000e+02,1.420000000000000000e+02,1.062000000000000000e+03,8.740000000000000000e+02,8.760000000000000000e+02,7.000000000000000666e-02,8.019625400000000000e+09
4.580000000000000000e+02,5.820000000000000000e+02,7.420000000000000000e+02,2.600000000000000000e+02,1.300000000000000000e+02,9.980000000000000000e+02,8.710000000000000000e+02,7.900000000000000000e+02,7.000000000000000666e-02,8.019680100000000000e+09
3.920000000000000000e+02,5.050000000000000000e+02,6.710000000000000000e+02,2.550000000000000000e+02,1.240000000000000000e+02,9.350000000000000000e+02,8.370000000000000000e+02,7.790000000000000000e+02,8.999999999999999667e-02,8.060303700000000000e+09
3.710000000000000000e+02,4.980000000000000000e+02,7.330000000000000000e+02,1.960000000000000000e+02,1.050000000000000000e+02,8.880000000000000000e+02,7.370000000000000000e+02,7.140000000000000000e+02,1.000000000000000056e-01,8.081321600000000000e+09
3.670000000000000000e+02,4.760000000000000000e+02,7.030000000000000000e+02,1.930000000000000000e+02,9.500000000000000000e+01,6.710000000000000000e+02,6.060000000000000000e+02,7.750000000000000000e+02,1.000000000000000056e-01,8.081354300000000000e+09
3.530000000000000000e+02,4.490000000000000000e+02,6.930000000000000000e+02,1.930000000000000000e+02,1.040000000000000000e+02,6.050000000000000000e+02,6.290000000000000000e+02,7.410000000000000000e+02,1.199999999999999956e-01,8.121762800000000000e+09
3.480000000000000000e+02,4.540000000000000000e+02,7.020000000000000000e+02,1.970000000000000000e+02,1.060000000000000000e+02,5.310000000000000000e+02,6.010000000000000000e+02,7.200000000000000000e+02,1.300000000000000044e-01,8.140525900000000000e+09
3.780000000000000000e+02,4.650000000000000000e+02,7.300000000000000000e+02,1.580000000000000000e+02,9.200000000000000000e+01,4.860000000000000000e+02,6.090000000000000000e+02,7.070000000000000000e+02,1.300000000000000044e-01,8.140546300000000000e+09
3.510000000000000000e+02,4.350000000000000000e+02,5.610000000000000000e+02,1.690000000000000000e+02,9.300000000000000000e+01,4.700000000000000000e+02,5.930000000000000000e+02,7.350000000000000000e+02,1.499999999999999944e-01,8.181274300000000000e+09
3.430000000000000000e+02,4.260000000000000000e+02,5.390000000000000000e+02,1.710000000000000000e+02,9.400000000000000000e+01,4.740000000000000000e+02,5.130000000000000000e+02,7.230000000000000000e+02,1.499999999999999944e-01,8.181286600000000000e+09
3.290000000000000000e+02,3.820000000000000000e+02,5.340000000000000000e+02,1.680000000000000000e+02,8.000000000000000000e+01,4.010000000000000000e+02,4.820000000000000000e+02,7.120000000000000000e+02,1.600000000000000033e-01,8.199890300000000000e+09
3.230000000000000000e+02,3.970000000000000000e+02,6.540000000000000000e+02,1.670000000000000000e+02,7.500000000000000000e+01,3.860000000000000000e+02,4.340000000000000000e+02,6.760000000000000000e+02,1.700000000000000122e-01,8.221330500000000000e+09
2.040000000000000000e+02,3.360000000000000000e+02,6.880000000000000000e+02,1.320000000000000000e+02,7.000000000000000000e+01,3.710000000000000000e+02,4.550000000000000000e+02,6.820000000000000000e+02,1.900000000000000022e-01,8.260697700000000000e+09
2.160000000000000000e+02,3.810000000000000000e+02,7.900000000000000000e+02,1.290000000000000000e+02,7.000000000000000000e+01,4.350000000000000000e+02,4.920000000000000000e+02,6.960000000000000000e+02,2.000000000000000111e-01,8.281491500000000000e+09
1.920000000000000000e+02,3.880000000000000000e+02,7.960000000000000000e+02,1.260000000000000000e+02,6.600000000000000000e+01,3.770000000000000000e+02,6.680000000000000000e+02,6.970000000000000000e+02,2.000000000000000111e-01,8.281524500000000000e+09
1.900000000000000000e+02,3.860000000000000000e+02,8.420000000000000000e+02,1.310000000000000000e+02,6.900000000000000000e+01,3.840000000000000000e+02,6.370000000000000000e+02,6.510000000000000000e+02,2.200000000000000011e-01,8.319510100000000000e+09
1.820000000000000000e+02,3.420000000000000000e+02,9.410000000000000000e+02,1.320000000000000000e+02,6.900000000000000000e+01,3.880000000000000000e+02,6.360000000000000000e+02,6.950000000000000000e+02,2.300000000000000100e-01,8.340707800000000000e+09
1.750000000000000000e+02,3.550000000000000000e+02,9.060000000000000000e+02,1.300000000000000000e+02,6.700000000000000000e+01,3.930000000000000000e+02,6.430000000000000000e+02,6.910000000000000000e+02,2.300000000000000100e-01,8.340718700000000000e+09
1.700000000000000000e+02,3.190000000000000000e+02,8.020000000000000000e+02,1.130000000000000000e+02,6.400000000000000000e+01,3.110000000000000000e+02,7.090000000000000000e+02,6.980000000000000000e+02,2.500000000000000000e-01,8.380442300000000000e+09
2.290000000000000000e+02,3.240000000000000000e+02,7.940000000000000000e+02,1.150000000000000000e+02,6.200000000000000000e+01,2.840000000000000000e+02,6.630000000000000000e+02,6.490000000000000000e+02,2.600000000000000089e-01,8.399582100000000000e+09
2.340000000000000000e+02,3.310000000000000000e+02,7.510000000000000000e+02,1.060000000000000000e+02,5.800000000000000000e+01,2.780000000000000000e+02,6.700000000000000000e+02,6.720000000000000000e+02,2.600000000000000089e-01,8.399593400000000000e+09
2.370000000000000000e+02,3.800000000000000000e+02,5.280000000000000000e+02,9.000000000000000000e+01,5.500000000000000000e+01,2.690000000000000000e+02,6.690000000000000000e+02,6.330000000000000000e+02,2.700000000000000178e-01,8.420986100000000000e+09
2.370000000000000000e+02,3.690000000000000000e+02,5.290000000000000000e+02,7.000000000000000000e+01,4.900000000000000000e+01,2.810000000000000000e+02,6.450000000000000000e+02,6.550000000000000000e+02,2.899999999999999800e-01,8.461307000000000000e+09
2.260000000000000000e+02,3.930000000000000000e+02,5.090000000000000000e+02,7.300000000000000000e+01,5.100000000000000000e+01,2.620000000000000000e+02,5.460000000000000000e+02,6.070000000000000000e+02,2.999999999999999889e-01,8.479889300000000000e+09
1.890000000000000000e+02,3.940000000000000000e+02,5.120000000000000000e+02,7.500000000000000000e+01,5.200000000000000000e+01,2.430000000000000000e+02,5.440000000000000000e+02,6.980000000000000000e+02,3.099999999999999978e-01,8.501429300000000000e+09
1.950000000000000000e+02,4.370000000000000000e+02,5.140000000000000000e+02,7.900000000000000000e+01,5.100000000000000000e+01,2.360000000000000000e+02,5.040000000000000000e+02,7.150000000000000000e+02,3.200000000000000067e-01,8.520201300000000000e+09
2.060000000000000000e+02,3.960000000000000000e+02,4.740000000000000000e+02,8.400000000000000000e+01,5.400000000000000000e+01,2.410000000000000000e+02,5.120000000000000000e+02,7.330000000000000000e+02,3.300000000000000155e-01,8.539404600000000000e+09
2.090000000000000000e+02,3.680000000000000000e+02,4.120000000000000000e+02,8.800000000000000000e+01,5.300000000000000000e+01,2.220000000000000000e+02,5.320000000000000000e+02,7.310000000000000000e+02,3.400000000000000244e-01,8.560786200000000000e+09
2.010000000000000000e+02,3.660000000000000000e+02,4.630000000000000000e+02,9.100000000000000000e+01,4.800000000000000000e+01,2.270000000000000000e+02,5.850000000000000000e+02,7.510000000000000000e+02,3.499999999999999778e-01,8.580020600000000000e+09
1.830000000000000000e+02,3.680000000000000000e+02,5.340000000000000000e+02,9.300000000000000000e+01,4.500000000000000000e+01,2.960000000000000000e+02,5.390000000000000000e+02,7.330000000000000000e+02,3.599999999999999867e-01,8.601706300000000000e+09
1.630000000000000000e+02,3.350000000000000000e+02,6.790000000000000000e+02,1.220000000000000000e+02,6.100000000000000000e+01,3.760000000000000000e+02,5.820000000000000000e+02,7.770000000000000000e+02,3.599999999999999867e-01,8.601718900000000000e+09
2.110000000000000000e+02,3.480000000000000000e+02,7.650000000000000000e+02,1.150000000000000000e+02,5.700000000000000000e+01,3.900000000000000000e+02,5.940000000000000000e+02,8.330000000000000000e+02,3.800000000000000044e-01,8.641861100000000000e+09
2.160000000000000000e+02,3.420000000000000000e+02,7.600000000000000000e+02,1.100000000000000000e+02,5.700000000000000000e+01,3.940000000000000000e+02,6.270000000000000000e+02,8.400000000000000000e+02,3.800000000000000044e-01,8.641872100000000000e+09
2.270000000000000000e+02,3.120000000000000000e+02,7.440000000000000000e+02,1.100000000000000000e+02,6.100000000000000000e+01,4.160000000000000000e+02,6.330000000000000000e+02,8.270000000000000000e+02,4.000000000000000222e-01,8.679467600000000000e+09
2.270000000000000000e+02,2.940000000000000000e+02,6.910000000000000000e+02,1.070000000000000000e+02,6.100000000000000000e+01,4.030000000000000000e+02,5.750000000000000000e+02,7.970000000000000000e+02,4.099999999999999756e-01,8.700450600000000000e+09
2.450000000000000000e+02,3.050000000000000000e+02,5.530000000000000000e+02,7.200000000000000000e+01,4.700000000000000000e+01,3.460000000000000000e+02,5.300000000000000000e+02,7.570000000000000000e+02,4.199999999999999845e-01,8.721847000000000000e+09
2.000000000000000000e+02,3.170000000000000000e+02,4.130000000000000000e+02,6.700000000000000000e+01,5.000000000000000000e+01,3.270000000000000000e+02,5.760000000000000000e+02,6.560000000000000000e+02,4.199999999999999845e-01,8.721859000000000000e+09
1.870000000000000000e+02,3.850000000000000000e+02,3.630000000000000000e+02,6.600000000000000000e+01,5.300000000000000000e+01,3.280000000000000000e+02,5.270000000000000000e+02,6.380000000000000000e+02,4.400000000000000022e-01,8.759514000000000000e+09
2.250000000000000000e+02,3.650000000000000000e+02,3.640000000000000000e+02,6.300000000000000000e+01,4.900000000000000000e+01,3.030000000000000000e+02,5.110000000000000000e+02,7.210000000000000000e+02,4.400000000000000022e-01,8.759526900000000000e+09
2.180000000000000000e+02,3.700000000000000000e+02,3.790000000000000000e+02,6.100000000000000000e+01,4.600000000000000000e+01,2.240000000000000000e+02,5.250000000000000000e+02,7.160000000000000000e+02,4.500000000000000111e-01,8.780372600000000000e+09
1.910000000000000000e+02,3.480000000000000000e+02,3.620000000000000000e+02,5.800000000000000000e+01,4.500000000000000000e+01,1.820000000000000000e+02,5.780000000000000000e+02,6.760000000000000000e+02,4.699999999999999734e-01,8.820074700000000000e+09
1.840000000000000000e+02,3.320000000000000000e+02,3.550000000000000000e+02,5.600000000000000000e+01,4.100000000000000000e+01,1.830000000000000000e+02,5.480000000000000000e+02,7.290000000000000000e+02,4.699999999999999734e-01,8.820117400000000000e+09
2.090000000000000000e+02,2.650000000000000000e+02,4.380000000000000000e+02,7.500000000000000000e+01,4.700000000000000000e+01,2.110000000000000000e+02,6.040000000000000000e+02,6.780000000000000000e+02,4.799999999999999822e-01,8.841407300000000000e+09
1.690000000000000000e+02,3.030000000000000000e+02,4.960000000000000000e+02,7.400000000000000000e+01,4.400000000000000000e+01,2.610000000000000000e+02,5.770000000000000000e+02,6.270000000000000000e+02,5.000000000000000000e-01,8.881602800000000000e+09
1.880000000000000000e+02,3.130000000000000000e+02,4.910000000000000000e+02,7.200000000000000000e+01,4.500000000000000000e+01,3.180000000000000000e+02,5.550000000000000000e+02,6.010000000000000000e+02,5.000000000000000000e-01,8.881652100000000000e+09
1.990000000000000000e+02,3.060000000000000000e+02,4.780000000000000000e+02,7.200000000000000000e+01,4.600000000000000000e+01,3.250000000000000000e+02,5.060000000000000000e+02,6.120000000000000000e+02,5.100000000000000089e-01,8.900552300000000000e+09
2.040000000000000000e+02,3.590000000000000000e+02,5.000000000000000000e+02,7.300000000000000000e+01,4.900000000000000000e+01,3.400000000000000000e+02,5.410000000000000000e+02,6.260000000000000000e+02,5.300000000000000266e-01,8.940031300000000000e+09
1.930000000000000000e+02,3.850000000000000000e+02,4.690000000000000000e+02,6.600000000000000000e+01,5.000000000000000000e+01,3.940000000000000000e+02,5.290000000000000000e+02,7.050000000000000000e+02,5.300000000000000266e-01,8.940044100000000000e+09
2.210000000000000000e+02,3.750000000000000000e+02,4.400000000000000000e+02,7.000000000000000000e+01,5.400000000000000000e+01,3.870000000000000000e+02,5.630000000000000000e+02,6.740000000000000000e+02,5.500000000000000444e-01,8.979611700000000000e+09
2.030000000000000000e+02,3.620000000000000000e+02,4.560000000000000000e+02,7.500000000000000000e+01,5.600000000000000000e+01,3.860000000000000000e+02,6.450000000000000000e+02,6.780000000000000000e+02,5.600000000000000533e-01,9.000891800000000000e+09
1.940000000000000000e+02,3.830000000000000000e+02,4.660000000000000000e+02,7.700000000000000000e+01,5.900000000000000000e+01,4.460000000000000000e+02,6.370000000000000000e+02,7.080000000000000000e+02,5.699999999999999512e-01,9.019641600000000000e+09
1.940000000000000000e+02,3.620000000000000000e+02,4.340000000000000000e+02,7.500000000000000000e+01,6.100000000000000000e+01,4.700000000000000000e+02,6.320000000000000000e+02,7.660000000000000000e+02,5.799999999999999600e-01,9.041623600000000000e+09
1.930000000000000000e+02,3.470000000000000000e+02,3.790000000000000000e+02,6.400000000000000000e+01,6.200000000000000000e+01,4.340000000000000000e+02,6.640000000000000000e+02,7.240000000000000000e+02,5.899999999999999689e-01,9.060167700000000000e+09
1.500000000000000000e+02,3.340000000000000000e+02,3.270000000000000000e+02,6.200000000000000000e+01,6.300000000000000000e+01,4.840000000000000000e+02,6.390000000000000000e+02,7.580000000000000000e+02,5.899999999999999689e-01,9.060179200000000000e+09
1.670000000000000000e+02,4.040000000000000000e+02,3.040000000000000000e+02,5.800000000000000000e+01,5.700000000000000000e+01,4.650000000000000000e+02,5.880000000000000000e+02,7.660000000000000000e+02,6.099999999999999867e-01,9.100408800000000000e+09
2.280000000000000000e+02,4.140000000000000000e+02,3.930000000000000000e+02,6.200000000000000000e+01,6.100000000000000000e+01,4.560000000000000000e+02,6.020000000000000000e+02,8.030000000000000000e+02,6.199999999999999956e-01,9.121362400000000000e+09
2.310000000000000000e+02,3.860000000000000000e+02,4.110000000000000000e+02,6.400000000000000000e+01,6.500000000000000000e+01,4.900000000000000000e+02,6.250000000000000000e+02,7.510000000000000000e+02,6.300000000000000044e-01,9.139654900000000000e+09
2.470000000000000000e+02,3.840000000000000000e+02,3.990000000000000000e+02,5.700000000000000000e+01,6.200000000000000000e+01,4.990000000000000000e+02,6.340000000000000000e+02,7.360000000000000000e+02,6.400000000000000133e-01,9.160790900000000000e+09
2.730000000000000000e+02,4.060000000000000000e+02,3.820000000000000000e+02,5.900000000000000000e+01,6.900000000000000000e+01,4.990000000000000000e+02,7.320000000000000000e+02,7.300000000000000000e+02,6.500000000000000222e-01,9.179353900000000000e+09
2.870000000000000000e+02,3.600000000000000000e+02,3.730000000000000000e+02,6.000000000000000000e+01,7.100000000000000000e+01,5.520000000000000000e+02,7.400000000000000000e+02,7.930000000000000000e+02,6.500000000000000222e-01,9.179366300000000000e+09
2.470000000000000000e+02,3.520000000000000000e+02,2.680000000000000000e+02,5.400000000000000000e+01,6.500000000000000000e+01,5.380000000000000000e+02,7.410000000000000000e+02,7.360000000000000000e+02,6.600000000000000311e-01,9.200854700000000000e+09
2.470000000000000000e+02,3.800000000000000000e+02,3.220000000000000000e+02,5.000000000000000000e+01,6.500000000000000000e+01,5.320000000000000000e+02,7.280000000000000000e+02,7.320000000000000000e+02,6.800000000000000488e-01,9.241502400000000000e+09
2.610000000000000000e+02,3.850000000000000000e+02,3.410000000000000000e+02,5.300000000000000000e+01,7.400000000000000000e+01,6.100000000000000000e+02,7.150000000000000000e+02,7.790000000000000000e+02,6.899999999999999467e-01,9.260170700000000000e+09
2.440000000000000000e+02,3.980000000000000000e+02,3.400000000000000000e+02,4.700000000000000000e+01,8.000000000000000000e+01,6.400000000000000000e+02,6.680000000000000000e+02,8.030000000000000000e+02,6.999999999999999556e-01,9.281766400000000000e+09
2.350000000000000000e+02,3.960000000000000000e+02,3.520000000000000000e+02,5.400000000000000000e+01,8.600000000000000000e+01,6.980000000000000000e+02,6.620000000000000000e+02,7.100000000000000000e+02,7.099999999999999645e-01,9.300337400000000000e+09
2.720000000000000000e+02,3.870000000000000000e+02,5.060000000000000000e+02,8.700000000000000000e+01,1.010000000000000000e+02,8.590000000000000000e+02,6.510000000000000000e+02,7.490000000000000000e+02,7.199999999999999734e-01,9.321418000000000000e+09
2.730000000000000000e+02,4.480000000000000000e+02,5.020000000000000000e+02,9.300000000000000000e+01,1.080000000000000000e+02,8.930000000000000000e+02,6.430000000000000000e+02,7.110000000000000000e+02,7.299999999999999822e-01,9.340638200000000000e+09
2.580000000000000000e+02,4.610000000000000000e+02,4.790000000000000000e+02,9.500000000000000000e+01,1.120000000000000000e+02,9.420000000000000000e+02,6.820000000000000000e+02,8.070000000000000000e+02,7.399999999999999911e-01,9.359334500000000000e+09
2.870000000000000000e+02,5.310000000000000000e+02,4.850000000000000000e+02,9.700000000000000000e+01,1.230000000000000000e+02,1.050000000000000000e+03,6.760000000000000000e+02,8.380000000000000000e+02,7.500000000000000000e-01,9.380379500000000000e+09
2.960000000000000000e+02,5.210000000000000000e+02,5.170000000000000000e+02,9.500000000000000000e+01,1.280000000000000000e+02,1.172000000000000000e+03,8.180000000000000000e+02,8.750000000000000000e+02,7.500000000000000000e-01,9.380393400000000000e+09
2.990000000000000000e+02,5.570000000000000000e+02,5.350000000000000000e+02,6.900000000000000000e+01,1.220000000000000000e+02,1.146000000000000000e+03,8.970000000000000000e+02,8.780000000000000000e+02,7.700000000000000178e-01,9.420718000000000000e+09
3.070000000000000000e+02,5.170000000000000000e+02,5.280000000000000000e+02,6.500000000000000000e+01,1.180000000000000000e+02,1.185000000000000000e+03,9.390000000000000000e+02,1.044000000000000000e+03,7.900000000000000355e-01,9.460818700000000000e+09
3.210000000000000000e+02,5.400000000000000000e+02,5.860000000000000000e+02,8.600000000000000000e+01,1.300000000000000000e+02,1.146000000000000000e+03,9.740000000000000000e+02,1.013000000000000000e+03,7.900000000000000355e-01,9.460854500000000000e+09
3.200000000000000000e+02,4.910000000000000000e+02,6.360000000000000000e+02,8.800000000000000000e+01,1.260000000000000000e+02,1.049000000000000000e+03,9.650000000000000000e+02,9.620000000000000000e+02,8.000000000000000444e-01,9.479803900000000000e+09
3.450000000000000000e+02,5.230000000000000000e+02,7.310000000000000000e+02,1.000000000000000000e+02,1.200000000000000000e+02,8.630000000000000000e+02,8.440000000000000000e+02,9.710000000000000000e+02,8.100000000000000533e-01,9.499482900000000000e+09
3.340000000000000000e+02,4.930000000000000000e+02,7.120000000000000000e+02,1.120000000000000000e+02,1.340000000000000000e+02,9.630000000000000000e+02,8.730000000000000000e+02,1.022000000000000000e+03,8.199999999999999512e-01,9.520791000000000000e+09
3.470000000000000000e+02,4.970000000000000000e+02,6.870000000000000000e+02,1.130000000000000000e+02,1.300000000000000000e+02,8.790000000000000000e+02,9.390000000000000000e+02,8.980000000000000000e+02,8.299999999999999600e-01,9.539953100000000000e+09
3.410000000000000000e+02,4.710000000000000000e+02,7.220000000000000000e+02,1.050000000000000000e+02,1.100000000000000000e+02,8.940000000000000000e+02,8.450000000000000000e+02,9.040000000000000000e+02,8.399999999999999689e-01,9.561436500000000000e+09
3.410000000000000000e+02,4.500000000000000000e+02,7.830000000000000000e+02,1.050000000000000000e+02,9.900000000000000000e+01,9.170000000000000000e+02,8.480000000000000000e+02,8.950000000000000000e+02,8.399999999999999689e-01,9.561448500000000000e+09
3.120000000000000000e+02,4.500000000000000000e+02,7.160000000000000000e+02,1.110000000000000000e+02,1.050000000000000000e+02,9.590000000000000000e+02,8.430000000000000000e+02,9.130000000000000000e+02,8.599999999999999867e-01,9.601892800000000000e+09
