5.800000000000000000e+01,2.310000000000000000e+02,6.260000000000000000e+02,8.000000000000000000e+01,3.200000000000000000e+01,2.900000000000000000e+01,3.300000000000000000e+01,1.920000000000000000e+02,4.000000000000000083e-02,3.471096000000000000e+08
5.300000000000000000e+01,2.320000000000000000e+02,6.180000000000000000e+02,7.200000000000000000e+01,2.800000000000000000e+01,2.800000000000000000e+01,3.400000000000000000e+01,1.810000000000000000e+02,4.000000000000000083e-02,3.471210000000000000e+08
6.300000000000000000e+01,2.380000000000000000e+02,6.230000000000000000e+02,8.900000000000000000e+01,3.500000000000000000e+01,3.000000000000000000e+01,3.300000000000000000e+01,2.020000000000000000e+02,4.000000000000000083e-02,3.471366000000000000e+08
5.900000000000000000e+01,2.310000000000000000e+02,6.290000000000000000e+02,8.800000000000000000e+01,3.500000000000000000e+01,2.700000000000000000e+01,3.100000000000000000e+01,2.100000000000000000e+02,4.000000000000000083e-02,3.471436000000000000e+08
6.700000000000000000e+01,2.260000000000000000e+02,5.980000000000000000e+02,9.200000000000000000e+01,3.700000000000000000e+01,3.000000000000000000e+01,2.900000000000000000e+01,1.960000000000000000e+02,4.000000000000000083e-02,3.471507000000000000e+08
6.700000000000000000e+01,2.000000000000000000e+02,6.470000000000000000e+02,9.600000000000000000e+01,3.700000000000000000e+01,2.900000000000000000e+01,3.000000000000000000e+01,1.940000000000000000e+02,4.000000000000000083e-02,3.471579000000000000e+08
8.000000000000000000e+01,2.370000000000000000e+02,7.090000000000000000e+02,1.090000000000000000e+02,4.100000000000000000e+01,3.300000000000000000e+01,2.900000000000000000e+01,1.890000000000000000e+02,4.000000000000000083e-02,3.471647000000000000e+08
7.700000000000000000e+01,2.430000000000000000e+02,6.880000000000000000e+02,9.300000000000000000e+01,3.600000000000000000e+01,3.100000000000000000e+01,3.000000000000000000e+01,2.070000000000000000e+02,4.000000000000000083e-02,3.471716000000000000e+08
7.700000000000000000e+01,2.390000000000000000e+02,6.630000000000000000e+02,1.000000000000000000e+02,3.800000000000000000e+01,3.500000000000000000e+01,3.000000000000000000e+01,1.990000000000000000e+02,4.000000000000000083e-02,3.471957000000000000e+08
6.400000000000000000e+01,2.130000000000000000e+02,6.330000000000000000e+02,8.900000000000000000e+01,3.400000000000000000e+01,3.000000000000000000e+01,2.800000000000000000e+01,1.970000000000000000e+02,4.000000000000000083e-02,3.472032000000000000e+08
6.500000000000000000e+01,2.270000000000000000e+02,6.170000000000000000e+02,9.000000000000000000e+01,3.800000000000000000e+01,3.200000000000000000e+01,2.900000000000000000e+01,1.940000000000000000e+02,4.000000000000000083e-02,3.472100000000000000e+08
5.100000000000000000e+01,2.460000000000000000e+02,5.620000000000000000e+02,7.100000000000000000e+01,3.500000000000000000e+01,2.700000000000000000e+01,2.800000000000000000e+01,2.320000000000000000e+02,4.000000000000000083e-02,3.472171000000000000e+08
5.400000000000000000e+01,2.430000000000000000e+02,6.460000000000000000e+02,7.400000000000000000e+01,3.800000000000000000e+01,2.900000000000000000e+01,2.600000000000000000e+01,1.860000000000000000e+02,4.000000000000000083e-02,3.472302000000000000e+08
6.700000000000000000e+01,2.760000000000000000e+02,7.090000000000000000e+02,7.100000000000000000e+01,3.900000000000000000e+01,2.600000000000000000e+01,2.600000000000000000e+01,1.570000000000000000e+02,4.000000000000000083e-02,3.472455000000000000e+08
7.500000000000000000e+01,3.090000000000000000e+02,8.250000000000000000e+02,7.700000000000000000e+01,4.200000000000000000e+01,2.800000000000000000e+01,2.600000000000000000e+01,1.520000000000000000e+02,4.000000000000000083e-02,3.472524000000000000e+08
8.100000000000000000e+01,3.150000000000000000e+02,8.670000000000000000e+02,8.500000000000000000e+01,4.300000000000000000e+01,2.900000000000000000e+01,3.000000000000000000e+01,1.760000000000000000e+02,4.000000000000000083e-02,3.472592000000000000e+08
7.900000000000000000e+01,2.840000000000000000e+02,9.460000000000000000e+02,8.500000000000000000e+01,4.200000000000000000e+01,2.900000000000000000e+01,3.300000000000000000e+01,1.850000000000000000e+02,4.000000000000000083e-02,3.472670000000000000e+08
8.700000000000000000e+01,2.730000000000000000e+02,9.010000000000000000e+02,1.110000000000000000e+02,4.800000000000000000e+01,4.100000000000000000e+01,6.200000000000000000e+01,2.470000000000000000e+02,2.000000000000000111e-01,3.664403000000000000e+08
9.400000000000000000e+01,3.120000000000000000e+02,8.920000000000000000e+02,1.140000000000000000e+02,5.100000000000000000e+01,4.600000000000000000e+01,7.000000000000000000e+01,2.550000000000000000e+02,2.099999999999999922e-01,3.839827000000000000e+08
9.700000000000000000e+01,2.940000000000000000e+02,8.280000000000000000e+02,1.360000000000000000e+02,5.300000000000000000e+01,7.800000000000000000e+01,7.200000000000000000e+01,2.600000000000000000e+02,2.300000000000000100e-01,4.207251000000000000e+08
1.070000000000000000e+02,2.990000000000000000e+02,9.240000000000000000e+02,1.600000000000000000e+02,5.400000000000000000e+01,1.210000000000000000e+02,8.700000000000000000e+01,3.170000000000000000e+02,2.300000000000000100e-01,4.207362000000000000e+08
1.210000000000000000e+02,3.040000000000000000e+02,8.310000000000000000e+02,1.600000000000000000e+02,5.900000000000000000e+01,2.140000000000000000e+02,1.250000000000000000e+02,3.140000000000000000e+02,2.399999999999999911e-01,4.404091000000000000e+08
1.150000000000000000e+02,3.060000000000000000e+02,8.090000000000000000e+02,1.420000000000000000e+02,6.000000000000000000e+01,2.970000000000000000e+02,2.510000000000000000e+02,4.250000000000000000e+02,2.600000000000000089e-01,4.795601000000000000e+08
1.060000000000000000e+02,2.430000000000000000e+02,7.550000000000000000e+02,1.380000000000000000e+02,5.800000000000000000e+01,3.370000000000000000e+02,2.670000000000000000e+02,4.500000000000000000e+02,2.700000000000000178e-01,5.019168000000000000e+08
1.060000000000000000e+02,2.680000000000000000e+02,7.800000000000000000e+02,1.230000000000000000e+02,5.900000000000000000e+01,3.450000000000000000e+02,3.160000000000000000e+02,5.120000000000000000e+02,2.700000000000000178e-01,5.019277000000000000e+08
9.800000000000000000e+01,2.600000000000000000e+02,6.140000000000000000e+02,9.100000000000000000e+01,9.600000000000000000e+01,5.450000000000000000e+02,5.420000000000000000e+02,6.270000000000000000e+02,2.899999999999999800e-01,5.411747000000000000e+08
1.110000000000000000e+02,2.910000000000000000e+02,5.240000000000000000e+02,8.900000000000000000e+01,1.000000000000000000e+02,5.630000000000000000e+02,6.820000000000000000e+02,7.080000000000000000e+02,2.899999999999999800e-01,5.411855000000000000e+08
1.240000000000000000e+02,2.990000000000000000e+02,4.990000000000000000e+02,9.000000000000000000e+01,1.020000000000000000e+02,5.670000000000000000e+02,7.750000000000000000e+02,7.860000000000000000e+02,3.099999999999999978e-01,5.813831000000000000e+08
1.390000000000000000e+02,3.110000000000000000e+02,5.350000000000000000e+02,1.020000000000000000e+02,1.090000000000000000e+02,5.790000000000000000e+02,8.110000000000000000e+02,8.360000000000000000e+02,3.200000000000000067e-01,6.014321000000000000e+08
1.590000000000000000e+02,3.330000000000000000e+02,4.750000000000000000e+02,1.240000000000000000e+02,1.090000000000000000e+02,6.510000000000000000e+02,8.190000000000000000e+02,8.480000000000000000e+02,3.200000000000000067e-01,6.014478000000000000e+08
1.640000000000000000e+02,3.570000000000000000e+02,5.090000000000000000e+02,1.320000000000000000e+02,8.200000000000000000e+01,5.350000000000000000e+02,7.990000000000000000e+02,8.770000000000000000e+02,3.300000000000000155e-01,6.204354000000000000e+08
1.530000000000000000e+02,3.240000000000000000e+02,5.420000000000000000e+02,1.350000000000000000e+02,7.700000000000000000e+01,5.270000000000000000e+02,8.310000000000000000e+02,8.430000000000000000e+02,3.499999999999999778e-01,6.607775000000000000e+08
1.440000000000000000e+02,3.230000000000000000e+02,5.420000000000000000e+02,1.330000000000000000e+02,7.500000000000000000e+01,5.420000000000000000e+02,8.340000000000000000e+02,7.360000000000000000e+02,3.499999999999999778e-01,6.607894000000000000e+08
1.490000000000000000e+02,3.590000000000000000e+02,5.850000000000000000e+02,1.390000000000000000e+02,7.100000000000000000e+01,5.330000000000000000e+02,8.580000000000000000e+02,8.080000000000000000e+02,3.699999999999999956e-01,7.007505000000000000e+08
1.310000000000000000e+02,3.290000000000000000e+02,5.270000000000000000e+02,1.160000000000000000e+02,7.900000000000000000e+01,4.900000000000000000e+02,9.120000000000000000e+02,8.800000000000000000e+02,3.800000000000000044e-01,7.201617000000000000e+08
1.330000000000000000e+02,3.270000000000000000e+02,5.920000000000000000e+02,1.060000000000000000e+02,7.100000000000000000e+01,4.730000000000000000e+02,8.750000000000000000e+02,7.980000000000000000e+02,3.800000000000000044e-01,7.201749000000000000e+08
1.410000000000000000e+02,3.350000000000000000e+02,5.730000000000000000e+02,1.050000000000000000e+02,7.900000000000000000e+01,5.090000000000000000e+02,8.140000000000000000e+02,8.310000000000000000e+02,4.000000000000000222e-01,7.616434000000000000e+08
1.500000000000000000e+02,3.540000000000000000e+02,5.980000000000000000e+02,1.120000000000000000e+02,8.600000000000000000e+01,5.150000000000000000e+02,8.440000000000000000e+02,9.220000000000000000e+02,4.099999999999999756e-01,7.814439000000000000e+08
1.380000000000000000e+02,3.470000000000000000e+02,6.230000000000000000e+02,1.000000000000000000e+02,8.900000000000000000e+01,5.970000000000000000e+02,9.160000000000000000e+02,8.590000000000000000e+02,4.099999999999999756e-01,7.814554000000000000e+08
1.350000000000000000e+02,3.520000000000000000e+02,7.460000000000000000e+02,9.600000000000000000e+01,8.300000000000000000e+01,5.770000000000000000e+02,9.390000000000000000e+02,7.410000000000000000e+02,4.199999999999999845e-01,8.002286000000000000e+08
1.420000000000000000e+02,3.330000000000000000e+02,6.790000000000000000e+02,8.600000000000000000e+01,9.000000000000000000e+01,6.130000000000000000e+02,1.052000000000000000e+03,8.260000000000000000e+02,4.400000000000000022e-01,8.402493000000000000e+08
1.480000000000000000e+02,3.420000000000000000e+02,6.940000000000000000e+02,8.600000000000000000e+01,8.900000000000000000e+01,6.610000000000000000e+02,1.114000000000000000e+03,8.230000000000000000e+02,4.500000000000000111e-01,8.615703000000000000e+08
1.480000000000000000e+02,3.270000000000000000e+02,6.960000000000000000e+02,8.000000000000000000e+01,8.000000000000000000e+01,6.450000000000000000e+02,1.060000000000000000e+03,7.470000000000000000e+02,4.600000000000000200e-01,8.803651000000000000e+08
1.740000000000000000e+02,3.980000000000000000e+02,7.290000000000000000e+02,9.400000000000000000e+01,7.300000000000000000e+01,6.650000000000000000e+02,9.870000000000000000e+02,7.650000000000000000e+02,4.699999999999999734e-01,9.017199000000000000e+08
1.730000000000000000e+02,4.120000000000000000e+02,6.380000000000000000e+02,9.500000000000000000e+01,7.500000000000000000e+01,6.860000000000000000e+02,9.520000000000000000e+02,8.150000000000000000e+02,4.699999999999999734e-01,9.017308000000000000e+08
1.690000000000000000e+02,4.060000000000000000e+02,6.540000000000000000e+02,1.000000000000000000e+02,8.200000000000000000e+01,7.100000000000000000e+02,8.840000000000000000e+02,7.220000000000000000e+02,4.799999999999999822e-01,9.205653000000000000e+08
1.540000000000000000e+02,4.210000000000000000e+02,6.600000000000000000e+02,9.600000000000000000e+01,7.900000000000000000e+01,6.720000000000000000e+02,8.110000000000000000e+02,6.930000000000000000e+02,5.000000000000000000e-01,9.614426000000000000e+08
1.510000000000000000e+02,4.610000000000000000e+02,7.270000000000000000e+02,1.080000000000000000e+02,8.300000000000000000e+01,6.420000000000000000e+02,8.360000000000000000e+02,7.520000000000000000e+02,5.100000000000000089e-01,9.810410000000000000e+08
1.260000000000000000e+02,3.700000000000000000e+02,6.290000000000000000e+02,9.200000000000000000e+01,8.600000000000000000e+01,5.950000000000000000e+02,8.030000000000000000e+02,7.200000000000000000e+02,5.100000000000000089e-01,9.810595000000000000e+08
1.310000000000000000e+02,3.420000000000000000e+02,6.070000000000000000e+02,8.600000000000000000e+01,8.900000000000000000e+01,6.050000000000000000e+02,8.480000000000000000e+02,7.910000000000000000e+02,5.300000000000000266e-01,1.019843100000000000e+09
1.380000000000000000e+02,3.670000000000000000e+02,6.120000000000000000e+02,8.300000000000000000e+01,8.000000000000000000e+01,6.160000000000000000e+02,8.180000000000000000e+02,8.030000000000000000e+02,5.400000000000000355e-01,1.041624600000000000e+09
1.550000000000000000e+02,3.420000000000000000e+02,6.140000000000000000e+02,8.600000000000000000e+01,8.700000000000000000e+01,5.940000000000000000e+02,8.400000000000000000e+02,7.990000000000000000e+02,5.400000000000000355e-01,1.041635000000000000e+09
1.560000000000000000e+02,3.010000000000000000e+02,5.100000000000000000e+02,6.900000000000000000e+01,8.700000000000000000e+01,6.570000000000000000e+02,7.970000000000000000e+02,7.750000000000000000e+02,5.600000000000000533e-01,1.079292500000000000e+09
1.750000000000000000e+02,3.580000000000000000e+02,4.930000000000000000e+02,7.000000000000000000e+01,9.600000000000000000e+01,6.150000000000000000e+02,8.970000000000000000e+02,7.980000000000000000e+02,5.699999999999999512e-01,1.101204700000000000e+09
1.770000000000000000e+02,3.570000000000000000e+02,4.750000000000000000e+02,7.300000000000000000e+01,9.600000000000000000e+01,6.220000000000000000e+02,8.650000000000000000e+02,7.700000000000000000e+02,5.699999999999999512e-01,1.101216000000000000e+09
1.660000000000000000e+02,3.770000000000000000e+02,4.500000000000000000e+02,7.200000000000000000e+01,9.400000000000000000e+01,5.490000000000000000e+02,8.200000000000000000e+02,7.900000000000000000e+02,5.899999999999999689e-01,1.139696900000000000e+09
1.640000000000000000e+02,3.970000000000000000e+02,5.190000000000000000e+02,9.600000000000000000e+01,9.900000000000000000e+01,5.950000000000000000e+02,7.600000000000000000e+02,8.290000000000000000e+02,5.999999999999999778e-01,1.161617000000000000e+09
1.880000000000000000e+02,4.220000000000000000e+02,5.830000000000000000e+02,1.140000000000000000e+02,1.070000000000000000e+02,6.420000000000000000e+02,8.100000000000000000e+02,8.480000000000000000e+02,6.099999999999999867e-01,1.181546800000000000e+09
1.680000000000000000e+02,3.890000000000000000e+02,5.830000000000000000e+02,1.100000000000000000e+02,1.030000000000000000e+02,7.660000000000000000e+02,7.990000000000000000e+02,7.960000000000000000e+02,6.199999999999999956e-01,1.200624000000000000e+09
1.650000000000000000e+02,3.870000000000000000e+02,6.290000000000000000e+02,1.140000000000000000e+02,1.190000000000000000e+02,8.150000000000000000e+02,8.000000000000000000e+02,7.510000000000000000e+02,6.300000000000000044e-01,1.220172100000000000e+09
1.820000000000000000e+02,3.790000000000000000e+02,6.810000000000000000e+02,1.350000000000000000e+02,1.250000000000000000e+02,8.710000000000000000e+02,8.220000000000000000e+02,6.990000000000000000e+02,6.300000000000000044e-01,1.220183900000000000e+09
1.930000000000000000e+02,3.620000000000000000e+02,6.180000000000000000e+02,1.210000000000000000e+02,1.210000000000000000e+02,9.030000000000000000e+02,8.430000000000000000e+02,6.820000000000000000e+02,6.500000000000000222e-01,1.259742200000000000e+09
1.840000000000000000e+02,3.320000000000000000e+02,6.210000000000000000e+02,1.110000000000000000e+02,1.170000000000000000e+02,8.730000000000000000e+02,7.970000000000000000e+02,7.000000000000000000e+02,6.600000000000000311e-01,1.280921300000000000e+09
1.850000000000000000e+02,3.440000000000000000e+02,6.270000000000000000e+02,1.130000000000000000e+02,1.130000000000000000e+02,8.210000000000000000e+02,7.570000000000000000e+02,7.370000000000000000e+02,6.600000000000000311e-01,1.280932400000000000e+09
1.910000000000000000e+02,3.530000000000000000e+02,6.040000000000000000e+02,1.130000000000000000e+02,9.800000000000000000e+01,9.110000000000000000e+02,7.740000000000000000e+02,7.380000000000000000e+02,6.800000000000000488e-01,1.320911300000000000e+09
1.970000000000000000e+02,3.560000000000000000e+02,5.370000000000000000e+02,8.800000000000000000e+01,9.200000000000000000e+01,9.350000000000000000e+02,8.090000000000000000e+02,7.710000000000000000e+02,6.899999999999999467e-01,1.339742100000000000e+09
1.810000000000000000e+02,3.510000000000000000e+02,5.300000000000000000e+02,8.500000000000000000e+01,8.600000000000000000e+01,9.800000000000000000e+02,8.010000000000000000e+02,7.690000000000000000e+02,6.999999999999999556e-01,1.361043900000000000e+09
1.710000000000000000e+02,3.810000000000000000e+02,4.740000000000000000e+02,8.700000000000000000e+01,8.700000000000000000e+01,1.010000000000000000e+03,8.540000000000000000e+02,7.870000000000000000e+02,7.099999999999999645e-01,1.380035300000000000e+09
1.820000000000000000e+02,3.580000000000000000e+02,4.510000000000000000e+02,8.700000000000000000e+01,9.600000000000000000e+01,9.860000000000000000e+02,8.380000000000000000e+02,7.970000000000000000e+02,7.199999999999999734e-01,1.401336300000000000e+09
1.850000000000000000e+02,3.790000000000000000e+02,4.490000000000000000e+02,8.200000000000000000e+01,1.100000000000000000e+02,9.150000000000000000e+02,8.170000000000000000e+02,8.250000000000000000e+02,7.199999999999999734e-01,1.401348000000000000e+09
1.730000000000000000e+02,4.070000000000000000e+02,3.980000000000000000e+02,7.600000000000000000e+01,1.070000000000000000e+02,9.350000000000000000e+02,8.270000000000000000e+02,9.270000000000000000e+02,7.399999999999999911e-01,1.439685000000000000e+09
2.040000000000000000e+02,4.700000000000000000e+02,4.490000000000000000e+02,8.300000000000000000e+01,1.180000000000000000e+02,9.370000000000000000e+02,8.240000000000000000e+02,8.980000000000000000e+02,7.500000000000000000e-01,1.459707300000000000e+09
2.210000000000000000e+02,4.760000000000000000e+02,4.820000000000000000e+02,8.800000000000000000e+01,1.290000000000000000e+02,1.059000000000000000e+03,7.900000000000000000e+02,8.250000000000000000e+02,7.600000000000000089e-01,1.480364800000000000e+09
2.500000000000000000e+02,5.680000000000000000e+02,4.890000000000000000e+02,8.400000000000000000e+01,1.230000000000000000e+02,1.077000000000000000e+03,8.290000000000000000e+02,8.610000000000000000e+02,7.700000000000000178e-01,1.499532500000000000e+09
2.490000000000000000e+02,5.780000000000000000e+02,4.300000000000000000e+02,8.000000000000000000e+01,1.120000000000000000e+02,1.118000000000000000e+03,8.320000000000000000e+02,8.790000000000000000e+02,7.800000000000000266e-01,1.520182600000000000e+09
2.530000000000000000e+02,5.550000000000000000e+02,4.170000000000000000e+02,8.600000000000000000e+01,1.150000000000000000e+02,1.088000000000000000e+03,7.610000000000000000e+02,7.850000000000000000e+02,7.800000000000000266e-01,1.520193700000000000e+09
2.490000000000000000e+02,5.100000000000000000e+02,3.880000000000000000e+02,7.700000000000000000e+01,1.190000000000000000e+02,1.168000000000000000e+03,7.730000000000000000e+02,7.990000000000000000e+02,8.000000000000000444e-01,1.560564500000000000e+09
2.310000000000000000e+02,4.850000000000000000e+02,4.010000000000000000e+02,6.600000000000000000e+01,1.020000000000000000e+02,1.093000000000000000e+03,8.860000000000000000e+02,8.250000000000000000e+02,8.100000000000000533e-01,1.579572300000000000e+09
1.890000000000000000e+02,3.940000000000000000e+02,4.610000000000000000e+02,6.900000000000000000e+01,1.010000000000000000e+02,1.222000000000000000e+03,9.290000000000000000e+02,8.100000000000000000e+02,8.199999999999999512e-01,1.601186600000000000e+09
1.970000000000000000e+02,4.160000000000000000e+02,4.820000000000000000e+02,7.300000000000000000e+01,1.160000000000000000e+02,1.189000000000000000e+03,1.017000000000000000e+03,8.070000000000000000e+02,8.299999999999999600e-01,1.619898200000000000e+09
2.330000000000000000e+02,5.510000000000000000e+02,4.920000000000000000e+02,8.200000000000000000e+01,1.410000000000000000e+02,1.294000000000000000e+03,1.038000000000000000e+03,8.000000000000000000e+02,8.399999999999999689e-01,1.641012700000000000e+09
2.330000000000000000e+02,6.290000000000000000e+02,4.790000000000000000e+02,9.000000000000000000e+01,1.500000000000000000e+02,1.193000000000000000e+03,1.073000000000000000e+03,8.510000000000000000e+02,8.499999999999999778e-01,1.659440800000000000e+09
2.450000000000000000e+02,6.550000000000000000e+02,4.540000000000000000e+02,9.000000000000000000e+01,1.560000000000000000e+02,1.174000000000000000e+03,9.720000000000000000e+02,8.450000000000000000e+02,8.599999999999999867e-01,1.680770000000000000e+09
2.540000000000000000e+02,6.970000000000000000e+02,4.820000000000000000e+02,9.900000000000000000e+01,1.650000000000000000e+02,1.064000000000000000e+03,9.300000000000000000e+02,8.510000000000000000e+02,8.699999999999999956e-01,1.699426500000000000e+09
2.550000000000000000e+02,7.000000000000000000e+02,4.890000000000000000e+02,9.800000000000000000e+01,1.630000000000000000e+02,1.147000000000000000e+03,8.240000000000000000e+02,9.030000000000000000e+02,8.800000000000000044e-01,1.721016500000000000e+09
2.540000000000000000e+02,6.080000000000000000e+02,4.940000000000000000e+02,9.000000000000000000e+01,1.620000000000000000e+02,1.100000000000000000e+03,8.320000000000000000e+02,9.580000000000000000e+02,8.900000000000000133e-01,1.739614400000000000e+09
2.510000000000000000e+02,5.320000000000000000e+02,4.590000000000000000e+02,8.400000000000000000e+01,1.550000000000000000e+02,1.156000000000000000e+03,8.780000000000000000e+02,1.131000000000000000e+03,9.000000000000000222e-01,1.761097100000000000e+09
3.030000000000000000e+02,5.670000000000000000e+02,4.320000000000000000e+02,8.000000000000000000e+01,1.640000000000000000e+02,1.280000000000000000e+03,9.280000000000000000e+02,1.218000000000000000e+03,9.000000000000000222e-01,1.761108000000000000e+09
3.320000000000000000e+02,5.470000000000000000e+02,3.630000000000000000e+02,8.000000000000000000e+01,1.650000000000000000e+02,1.314000000000000000e+03,1.000000000000000000e+03,1.249000000000000000e+03,9.200000000000000400e-01,1.799233700000000000e+09
3.720000000000000000e+02,5.730000000000000000e+02,3.530000000000000000e+02,9.800000000000000000e+01,1.820000000000000000e+02,1.397000000000000000e+03,1.058000000000000000e+03,1.239000000000000000e+03,9.300000000000000488e-01,1.820612200000000000e+09
3.800000000000000000e+02,6.330000000000000000e+02,3.330000000000000000e+02,1.130000000000000000e+02,1.980000000000000000e+02,1.393000000000000000e+03,1.073000000000000000e+03,1.261000000000000000e+03,9.300000000000000488e-01,1.820623800000000000e+09
4.070000000000000000e+02,6.830000000000000000e+02,3.400000000000000000e+02,1.140000000000000000e+02,2.000000000000000000e+02,1.403000000000000000e+03,1.012000000000000000e+03,1.160000000000000000e+03,9.499999999999999556e-01,1.861103200000000000e+09
3.950000000000000000e+02,6.590000000000000000e+02,3.160000000000000000e+02,1.220000000000000000e+02,2.230000000000000000e+02,1.368000000000000000e+03,9.850000000000000000e+02,1.152000000000000000e+03,9.599999999999999645e-01,1.879778300000000000e+09
3.830000000000000000e+02,7.260000000000000000e+02,2.600000000000000000e+02,1.230000000000000000e+02,2.340000000000000000e+02,1.353000000000000000e+03,8.920000000000000000e+02,1.131000000000000000e+03,9.699999999999999734e-01,1.901329400000000000e+09
3.670000000000000000e+02,6.850000000000000000e+02,2.200000000000000000e+02,1.170000000000000000e+02,2.450000000000000000e+02,1.226000000000000000e+03,8.790000000000000000e+02,1.134000000000000000e+03,9.799999999999999822e-01,1.920393000000000000e+09
4.070000000000000000e+02,6.810000000000000000e+02,3.480000000000000000e+02,1.190000000000000000e+02,2.580000000000000000e+02,1.333000000000000000e+03,9.010000000000000000e+02,1.085000000000000000e+03,9.899999999999999911e-01,1.941359200000000000e+09
4.110000000000000000e+02,6.740000000000000000e+02,4.410000000000000000e+02,1.240000000000000000e+02,2.600000000000000000e+02,1.344000000000000000e+03,9.460000000000000000e+02,1.038000000000000000e+03,9.799999999999999822e-01,1.960022800000000000e+09
4.110000000000000000e+02,6.740000000000000000e+02,5.050000000000000000e+02,1.190000000000000000e+02,2.350000000000000000e+02,1.354000000000000000e+03,9.360000000000000000e+02,9.450000000000000000e+02,9.699999999999999734e-01,1.981477800000000000e+09
4.330000000000000000e+02,5.990000000000000000e+02,6.400000000000000000e+02,1.290000000000000000e+02,2.330000000000000000e+02,1.512000000000000000e+03,9.930000000000000000e+02,1.033000000000000000e+03,9.599999999999999645e-01,1.999900000000000000e+09
4.350000000000000000e+02,5.910000000000000000e+02,6.900000000000000000e+02,1.280000000000000000e+02,2.120000000000000000e+02,1.529000000000000000e+03,9.290000000000000000e+02,9.690000000000000000e+02,9.499999999999999556e-01,2.021162300000000000e+09
3.790000000000000000e+02,5.130000000000000000e+02,6.510000000000000000e+02,1.180000000000000000e+02,1.650000000000000000e+02,1.395000000000000000e+03,8.640000000000000000e+02,9.400000000000000000e+02,9.399999999999999467e-01,2.040447400000000000e+09
3.380000000000000000e+02,4.850000000000000000e+02,7.400000000000000000e+02,1.150000000000000000e+02,1.460000000000000000e+02,1.318000000000000000e+03,7.350000000000000000e+02,8.530000000000000000e+02,9.300000000000000488e-01,2.061780800000000000e+09
2.990000000000000000e+02,4.370000000000000000e+02,7.780000000000000000e+02,1.140000000000000000e+02,1.400000000000000000e+02,1.255000000000000000e+03,6.760000000000000000e+02,7.870000000000000000e+02,9.200000000000000400e-01,2.080128700000000000e+09
2.600000000000000000e+02,4.230000000000000000e+02,7.070000000000000000e+02,9.100000000000000000e+01,1.060000000000000000e+02,1.063000000000000000e+03,5.030000000000000000e+02,6.070000000000000000e+02,9.100000000000000311e-01,2.099175800000000000e+09
2.220000000000000000e+02,4.100000000000000000e+02,7.100000000000000000e+02,8.300000000000000000e+01,7.600000000000000000e+01,9.450000000000000000e+02,5.060000000000000000e+02,6.520000000000000000e+02,9.000000000000000222e-01,2.121133300000000000e+09
1.940000000000000000e+02,4.000000000000000000e+02,7.840000000000000000e+02,1.200000000000000000e+02,7.200000000000000000e+01,8.910000000000000000e+02,4.420000000000000000e+02,5.810000000000000000e+02,8.900000000000000133e-01,2.139393000000000000e+09
1.860000000000000000e+02,3.680000000000000000e+02,7.440000000000000000e+02,1.270000000000000000e+02,8.200000000000000000e+01,8.890000000000000000e+02,4.560000000000000000e+02,5.870000000000000000e+02,8.800000000000000044e-01,2.160787800000000000e+09
1.810000000000000000e+02,3.500000000000000000e+02,8.050000000000000000e+02,1.520000000000000000e+02,8.700000000000000000e+01,7.990000000000000000e+02,4.240000000000000000e+02,5.690000000000000000e+02,8.699999999999999956e-01,2.179236300000000000e+09
1.610000000000000000e+02,2.910000000000000000e+02,8.170000000000000000e+02,1.600000000000000000e+02,9.100000000000000000e+01,7.370000000000000000e+02,4.220000000000000000e+02,4.660000000000000000e+02,8.599999999999999867e-01,2.200565900000000000e+09
1.420000000000000000e+02,3.030000000000000000e+02,7.930000000000000000e+02,1.660000000000000000e+02,8.900000000000000000e+01,6.790000000000000000e+02,3.010000000000000000e+02,2.430000000000000000e+02,8.499999999999999778e-01,2.219407000000000000e+09
1.580000000000000000e+02,3.170000000000000000e+02,7.280000000000000000e+02,1.410000000000000000e+02,8.700000000000000000e+01,6.570000000000000000e+02,2.910000000000000000e+02,2.030000000000000000e+02,8.399999999999999689e-01,2.240995200000000000e+09
1.540000000000000000e+02,3.100000000000000000e+02,6.580000000000000000e+02,1.330000000000000000e+02,7.500000000000000000e+01,5.440000000000000000e+02,2.470000000000000000e+02,1.470000000000000000e+02,8.299999999999999600e-01,2.260783000000000000e+09
1.490000000000000000e+02,3.230000000000000000e+02,6.610000000000000000e+02,1.230000000000000000e+02,6.500000000000000000e+01,5.540000000000000000e+02,2.440000000000000000e+02,1.110000000000000000e+02,8.199999999999999512e-01,2.280851800000000000e+09
1.540000000000000000e+02,3.370000000000000000e+02,6.410000000000000000e+02,1.140000000000000000e+02,6.900000000000000000e+01,5.350000000000000000e+02,2.160000000000000000e+02,1.010000000000000000e+02,8.100000000000000533e-01,2.299653700000000000e+09
1.670000000000000000e+02,3.110000000000000000e+02,6.620000000000000000e+02,1.020000000000000000e+02,6.500000000000000000e+01,5.850000000000000000e+02,2.140000000000000000e+02,9.100000000000000000e+01,8.000000000000000444e-01,2.321159100000000000e+09
1.620000000000000000e+02,2.970000000000000000e+02,7.240000000000000000e+02,1.020000000000000000e+02,5.700000000000000000e+01,5.640000000000000000e+02,2.210000000000000000e+02,1.060000000000000000e+02,7.900000000000000355e-01,2.339736800000000000e+09
1.720000000000000000e+02,2.980000000000000000e+02,7.180000000000000000e+02,1.120000000000000000e+02,5.900000000000000000e+01,6.310000000000000000e+02,1.960000000000000000e+02,1.040000000000000000e+02,7.800000000000000266e-01,2.361565600000000000e+09
1.780000000000000000e+02,2.850000000000000000e+02,6.500000000000000000e+02,9.600000000000000000e+01,6.100000000000000000e+01,5.790000000000000000e+02,1.730000000000000000e+02,1.010000000000000000e+02,7.700000000000000178e-01,2.380746700000000000e+09
1.580000000000000000e+02,2.610000000000000000e+02,7.410000000000000000e+02,9.900000000000000000e+01,5.100000000000000000e+01,6.960000000000000000e+02,1.700000000000000000e+02,1.120000000000000000e+02,7.600000000000000089e-01,2.399533400000000000e+09
1.670000000000000000e+02,2.890000000000000000e+02,7.940000000000000000e+02,1.010000000000000000e+02,5.200000000000000000e+01,6.770000000000000000e+02,1.540000000000000000e+02,1.030000000000000000e+02,7.500000000000000000e-01,2.420875000000000000e+09
1.480000000000000000e+02,2.930000000000000000e+02,7.710000000000000000e+02,1.000000000000000000e+02,5.300000000000000000e+01,6.710000000000000000e+02,1.290000000000000000e+02,8.100000000000000000e+01,7.399999999999999911e-01,2.439382400000000000e+09
1.480000000000000000e+02,3.190000000000000000e+02,8.740000000000000000e+02,8.700000000000000000e+01,4.800000000000000000e+01,5.910000000000000000e+02,1.250000000000000000e+02,7.500000000000000000e+01,7.299999999999999822e-01,2.459327200000000000e+09
1.590000000000000000e+02,3.570000000000000000e+02,8.630000000000000000e+02,8.500000000000000000e+01,4.200000000000000000e+01,5.740000000000000000e+02,1.110000000000000000e+02,7.400000000000000000e+01,7.199999999999999734e-01,2.480634600000000000e+09
1.580000000000000000e+02,3.580000000000000000e+02,8.310000000000000000e+02,8.100000000000000000e+01,4.000000000000000000e+01,3.750000000000000000e+02,8.900000000000000000e+01,8.300000000000000000e+01,7.099999999999999645e-01,2.501881400000000000e+09
1.400000000000000000e+02,3.590000000000000000e+02,9.060000000000000000e+02,8.100000000000000000e+01,4.000000000000000000e+01,3.780000000000000000e+02,8.700000000000000000e+01,7.900000000000000000e+01,6.999999999999999556e-01,2.520677000000000000e+09
1.400000000000000000e+02,3.700000000000000000e+02,8.980000000000000000e+02,7.900000000000000000e+01,4.000000000000000000e+01,3.690000000000000000e+02,8.600000000000000000e+01,7.900000000000000000e+01,6.899999999999999467e-01,2.539199200000000000e+09
1.440000000000000000e+02,3.400000000000000000e+02,8.480000000000000000e+02,9.200000000000000000e+01,4.400000000000000000e+01,3.660000000000000000e+02,8.400000000000000000e+01,7.900000000000000000e+01,6.800000000000000488e-01,2.560824400000000000e+09
1.180000000000000000e+02,3.030000000000000000e+02,8.210000000000000000e+02,9.300000000000000000e+01,4.200000000000000000e+01,3.430000000000000000e+02,7.000000000000000000e+01,7.900000000000000000e+01,6.700000000000000400e-01,2.579480200000000000e+09
1.220000000000000000e+02,3.120000000000000000e+02,7.790000000000000000e+02,1.010000000000000000e+02,4.100000000000000000e+01,2.630000000000000000e+02,6.800000000000000000e+01,4.700000000000000000e+01,6.600000000000000311e-01,2.601676100000000000e+09
1.260000000000000000e+02,2.840000000000000000e+02,6.640000000000000000e+02,1.010000000000000000e+02,4.100000000000000000e+01,1.960000000000000000e+02,6.400000000000000000e+01,4.900000000000000000e+01,6.500000000000000222e-01,2.621568800000000000e+09
1.340000000000000000e+02,2.510000000000000000e+02,6.410000000000000000e+02,1.040000000000000000e+02,4.300000000000000000e+01,1.950000000000000000e+02,6.900000000000000000e+01,6.300000000000000000e+01,6.400000000000000133e-01,2.640373200000000000e+09
1.590000000000000000e+02,2.680000000000000000e+02,6.690000000000000000e+02,1.040000000000000000e+02,4.700000000000000000e+01,2.000000000000000000e+02,8.100000000000000000e+01,7.000000000000000000e+01,6.300000000000000044e-01,2.661528600000000000e+09
1.700000000000000000e+02,3.370000000000000000e+02,7.390000000000000000e+02,1.310000000000000000e+02,5.100000000000000000e+01,1.810000000000000000e+02,7.000000000000000000e+01,7.300000000000000000e+01,6.199999999999999956e-01,2.679977100000000000e+09
1.710000000000000000e+02,3.600000000000000000e+02,7.350000000000000000e+02,1.260000000000000000e+02,5.500000000000000000e+01,1.520000000000000000e+02,7.100000000000000000e+01,7.300000000000000000e+01,6.099999999999999867e-01,2.700880800000000000e+09
1.550000000000000000e+02,3.590000000000000000e+02,6.920000000000000000e+02,1.240000000000000000e+02,5.600000000000000000e+01,1.480000000000000000e+02,6.900000000000000000e+01,7.200000000000000000e+01,5.999999999999999778e-01,2.720505100000000000e+09
1.560000000000000000e+02,3.730000000000000000e+02,8.030000000000000000e+02,1.210000000000000000e+02,5.800000000000000000e+01,1.480000000000000000e+02,6.700000000000000000e+01,5.800000000000000000e+01,5.899999999999999689e-01,2.739899100000000000e+09
1.260000000000000000e+02,3.560000000000000000e+02,8.130000000000000000e+02,1.310000000000000000e+02,5.600000000000000000e+01,1.400000000000000000e+02,6.100000000000000000e+01,7.400000000000000000e+01,5.799999999999999600e-01,2.760087900000000000e+09
1.520000000000000000e+02,3.120000000000000000e+02,8.650000000000000000e+02,1.160000000000000000e+02,5.400000000000000000e+01,1.400000000000000000e+02,6.100000000000000000e+01,7.300000000000000000e+01,5.699999999999999512e-01,2.781513100000000000e+09
1.490000000000000000e+02,2.740000000000000000e+02,8.940000000000000000e+02,1.350000000000000000e+02,5.300000000000000000e+01,1.350000000000000000e+02,6.200000000000000000e+01,7.400000000000000000e+01,5.600000000000000533e-01,2.800413200000000000e+09
1.650000000000000000e+02,2.910000000000000000e+02,9.530000000000000000e+02,1.420000000000000000e+02,5.800000000000000000e+01,1.390000000000000000e+02,1.130000000000000000e+02,7.900000000000000000e+01,5.500000000000000444e-01,2.821486100000000000e+09
1.550000000000000000e+02,2.770000000000000000e+02,8.640000000000000000e+02,1.430000000000000000e+02,5.400000000000000000e+01,1.530000000000000000e+02,1.110000000000000000e+02,7.600000000000000000e+01,5.400000000000000355e-01,2.839833500000000000e+09
1.440000000000000000e+02,2.560000000000000000e+02,8.410000000000000000e+02,1.270000000000000000e+02,5.100000000000000000e+01,1.500000000000000000e+02,1.090000000000000000e+02,5.200000000000000000e+01,5.300000000000000266e-01,2.860877500000000000e+09
1.420000000000000000e+02,2.840000000000000000e+02,8.810000000000000000e+02,1.250000000000000000e+02,5.300000000000000000e+01,1.560000000000000000e+02,1.220000000000000000e+02,5.400000000000000000e+01,5.200000000000000178e-01,2.879369200000000000e+09
1.480000000000000000e+02,3.110000000000000000e+02,9.200000000000000000e+02,1.200000000000000000e+02,6.000000000000000000e+01,1.860000000000000000e+02,1.270000000000000000e+02,5.800000000000000000e+01,5.100000000000000089e-01,2.900400400000000000e+09
1.580000000000000000e+02,3.480000000000000000e+02,9.460000000000000000e+02,1.260000000000000000e+02,6.000000000000000000e+01,2.000000000000000000e+02,9.400000000000000000e+01,5.200000000000000000e+01,5.000000000000000000e-01,2.921552900000000000e+09
1.640000000000000000e+02,3.590000000000000000e+02,9.860000000000000000e+02,1.280000000000000000e+02,5.900000000000000000e+01,2.030000000000000000e+02,1.140000000000000000e+02,7.500000000000000000e+01,4.899999999999999911e-01,2.939788200000000000e+09
1.640000000000000000e+02,3.520000000000000000e+02,9.560000000000000000e+02,1.260000000000000000e+02,5.800000000000000000e+01,2.010000000000000000e+02,1.140000000000000000e+02,7.700000000000000000e+01,4.799999999999999822e-01,2.961132100000000000e+09
1.320000000000000000e+02,3.510000000000000000e+02,9.170000000000000000e+02,1.210000000000000000e+02,5.700000000000000000e+01,2.100000000000000000e+02,1.070000000000000000e+02,7.400000000000000000e+01,4.699999999999999734e-01,2.979682300000000000e+09
1.450000000000000000e+02,3.220000000000000000e+02,9.020000000000000000e+02,1.050000000000000000e+02,4.600000000000000000e+01,1.710000000000000000e+02,1.000000000000000000e+02,7.000000000000000000e+01,4.600000000000000200e-01,3.001727200000000000e+09
1.250000000000000000e+02,2.910000000000000000e+02,8.740000000000000000e+02,1.020000000000000000e+02,4.100000000000000000e+01,1.620000000000000000e+02,1.000000000000000000e+02,7.000000000000000000e+01,4.500000000000000111e-01,3.020301000000000000e+09
1.220000000000000000e+02,3.110000000000000000e+02,8.670000000000000000e+02,1.100000000000000000e+02,3.800000000000000000e+01,1.520000000000000000e+02,7.800000000000000000e+01,4.600000000000000000e+01,4.400000000000000022e-01,3.041229500000000000e+09
1.280000000000000000e+02,3.380000000000000000e+02,9.130000000000000000e+02,1.150000000000000000e+02,4.700000000000000000e+01,1.510000000000000000e+02,7.700000000000000000e+01,4.600000000000000000e+01,4.299999999999999933e-01,3.059373200000000000e+09
1.340000000000000000e+02,3.530000000000000000e+02,8.390000000000000000e+02,1.240000000000000000e+02,5.300000000000000000e+01,1.490000000000000000e+02,8.100000000000000000e+01,4.700000000000000000e+01,4.199999999999999845e-01,3.080463500000000000e+09
1.160000000000000000e+02,3.720000000000000000e+02,8.290000000000000000e+02,1.280000000000000000e+02,5.300000000000000000e+01,1.540000000000000000e+02,9.100000000000000000e+01,4.900000000000000000e+01,4.099999999999999756e-01,3.101697600000000000e+09
1.140000000000000000e+02,3.600000000000000000e+02,8.110000000000000000e+02,1.350000000000000000e+02,5.800000000000000000e+01,1.450000000000000000e+02,8.600000000000000000e+01,8.300000000000000000e+01,4.000000000000000222e-01,3.120096700000000000e+09
1.240000000000000000e+02,3.490000000000000000e+02,7.990000000000000000e+02,1.570000000000000000e+02,6.300000000000000000e+01,1.380000000000000000e+02,8.700000000000000000e+01,9.600000000000000000e+01,3.900000000000000133e-01,3.141526100000000000e+09
1.260000000000000000e+02,3.530000000000000000e+02,8.060000000000000000e+02,1.530000000000000000e+02,6.000000000000000000e+01,1.600000000000000000e+02,9.800000000000000000e+01,9.600000000000000000e+01,3.800000000000000044e-01,3.160244200000000000e+09
1.420000000000000000e+02,3.440000000000000000e+02,8.980000000000000000e+02,1.710000000000000000e+02,6.800000000000000000e+01,3.030000000000000000e+02,1.350000000000000000e+02,1.080000000000000000e+02,3.699999999999999956e-01,3.181465200000000000e+09
1.950000000000000000e+02,3.340000000000000000e+02,8.630000000000000000e+02,1.750000000000000000e+02,6.900000000000000000e+01,3.510000000000000000e+02,1.340000000000000000e+02,1.060000000000000000e+02,3.599999999999999867e-01,3.200688400000000000e+09
2.060000000000000000e+02,3.680000000000000000e+02,8.860000000000000000e+02,1.700000000000000000e+02,6.800000000000000000e+01,3.640000000000000000e+02,1.810000000000000000e+02,9.000000000000000000e+01,3.400000000000000244e-01,3.240512200000000000e+09
2.450000000000000000e+02,4.170000000000000000e+02,9.660000000000000000e+02,1.710000000000000000e+02,8.400000000000000000e+01,4.580000000000000000e+02,3.840000000000000000e+02,1.080000000000000000e+02,3.400000000000000244e-01,3.240524200000000000e+09
2.570000000000000000e+02,4.520000000000000000e+02,9.400000000000000000e+02,1.860000000000000000e+02,8.700000000000000000e+01,4.710000000000000000e+02,4.140000000000000000e+02,1.120000000000000000e+02,3.300000000000000155e-01,3.261638100000000000e+09
2.570000000000000000e+02,4.230000000000000000e+02,8.630000000000000000e+02,1.860000000000000000e+02,8.200000000000000000e+01,3.950000000000000000e+02,4.160000000000000000e+02,9.900000000000000000e+01,3.200000000000000067e-01,3.280570000000000000e+09
2.280000000000000000e+02,4.410000000000000000e+02,9.570000000000000000e+02,2.010000000000000000e+02,9.000000000000000000e+01,3.680000000000000000e+02,4.200000000000000000e+02,1.050000000000000000e+02,3.099999999999999978e-01,3.299351900000000000e+09
2.330000000000000000e+02,4.530000000000000000e+02,9.460000000000000000e+02,2.040000000000000000e+02,9.500000000000000000e+01,3.750000000000000000e+02,4.110000000000000000e+02,1.080000000000000000e+02,2.999999999999999889e-01,3.320542000000000000e+09
1.870000000000000000e+02,4.010000000000000000e+02,9.290000000000000000e+02,1.970000000000000000e+02,8.100000000000000000e+01,3.390000000000000000e+02,2.570000000000000000e+02,9.800000000000000000e+01,2.899999999999999800e-01,3.341746100000000000e+09
1.680000000000000000e+02,3.480000000000000000e+02,1.049000000000000000e+03,1.970000000000000000e+02,8.000000000000000000e+01,3.260000000000000000e+02,2.040000000000000000e+02,1.040000000000000000e+02,2.800000000000000266e-01,3.360144100000000000e+09
1.510000000000000000e+02,3.930000000000000000e+02,1.038000000000000000e+03,1.860000000000000000e+02,8.300000000000000000e+01,3.320000000000000000e+02,1.720000000000000000e+02,1.050000000000000000e+02,2.700000000000000178e-01,3.381318500000000000e+09
1.570000000000000000e+02,4.130000000000000000e+02,1.012000000000000000e+03,1.940000000000000000e+02,9.000000000000000000e+01,3.920000000000000000e+02,1.690000000000000000e+02,1.040000000000000000e+02,2.600000000000000089e-01,3.400058700000000000e+09
1.510000000000000000e+02,4.080000000000000000e+02,1.005000000000000000e+03,1.920000000000000000e+02,8.300000000000000000e+01,3.890000000000000000e+02,1.520000000000000000e+02,9.700000000000000000e+01,2.500000000000000000e-01,3.421517800000000000e+09
1.830000000000000000e+02,5.380000000000000000e+02,9.500000000000000000e+02,2.260000000000000000e+02,9.200000000000000000e+01,3.380000000000000000e+02,1.090000000000000000e+02,8.300000000000000000e+01,2.399999999999999911e-01,3.440303000000000000e+09
1.930000000000000000e+02,5.780000000000000000e+02,8.890000000000000000e+02,2.420000000000000000e+02,9.100000000000000000e+01,3.270000000000000000e+02,1.050000000000000000e+02,7.300000000000000000e+01,2.200000000000000011e-01,3.480641900000000000e+09
2.140000000000000000e+02,5.980000000000000000e+02,1.052000000000000000e+03,2.930000000000000000e+02,9.800000000000000000e+01,3.340000000000000000e+02,1.150000000000000000e+02,8.200000000000000000e+01,2.200000000000000011e-01,3.480655000000000000e+09
2.020000000000000000e+02,6.000000000000000000e+02,1.109000000000000000e+03,2.960000000000000000e+02,1.000000000000000000e+02,2.920000000000000000e+02,1.220000000000000000e+02,8.100000000000000000e+01,2.099999999999999922e-01,3.499884900000000000e+09
1.960000000000000000e+02,6.150000000000000000e+02,1.148000000000000000e+03,3.000000000000000000e+02,1.030000000000000000e+02,2.720000000000000000e+02,1.210000000000000000e+02,8.100000000000000000e+01,2.000000000000000111e-01,3.521175300000000000e+09
1.840000000000000000e+02,5.250000000000000000e+02,1.178000000000000000e+03,2.870000000000000000e+02,1.020000000000000000e+02,2.450000000000000000e+02,1.260000000000000000e+02,8.100000000000000000e+01,1.900000000000000022e-01,3.539629200000000000e+09
1.870000000000000000e+02,5.320000000000000000e+02,1.225000000000000000e+03,2.790000000000000000e+02,1.030000000000000000e+02,2.400000000000000000e+02,1.240000000000000000e+02,8.500000000000000000e+01,1.799999999999999933e-01,3.560056700000000000e+09
1.740000000000000000e+02,5.010000000000000000e+02,1.133000000000000000e+03,2.400000000000000000e+02,9.900000000000000000e+01,2.630000000000000000e+02,1.630000000000000000e+02,8.000000000000000000e+01,1.700000000000000122e-01,3.581532300000000000e+09
1.910000000000000000e+02,5.620000000000000000e+02,1.112000000000000000e+03,2.790000000000000000e+02,1.120000000000000000e+02,2.190000000000000000e+02,1.600000000000000000e+02,9.200000000000000000e+01,1.600000000000000033e-01,3.600566000000000000e+09
2.150000000000000000e+02,5.910000000000000000e+02,1.108000000000000000e+03,3.420000000000000000e+02,1.450000000000000000e+02,2.220000000000000000e+02,1.600000000000000000e+02,1.060000000000000000e+02,1.499999999999999944e-01,3.620241000000000000e+09
2.020000000000000000e+02,5.800000000000000000e+02,1.152000000000000000e+03,3.450000000000000000e+02,1.460000000000000000e+02,2.170000000000000000e+02,1.530000000000000000e+02,9.900000000000000000e+01,1.400000000000000133e-01,3.639616700000000000e+09
1.870000000000000000e+02,5.420000000000000000e+02,1.196000000000000000e+03,3.520000000000000000e+02,1.490000000000000000e+02,2.250000000000000000e+02,1.570000000000000000e+02,9.300000000000000000e+01,1.300000000000000044e-01,3.661054500000000000e+09
2.170000000000000000e+02,5.970000000000000000e+02,1.239000000000000000e+03,3.780000000000000000e+02,1.610000000000000000e+02,2.520000000000000000e+02,1.560000000000000000e+02,1.030000000000000000e+02,1.199999999999999956e-01,3.679674000000000000e+09
2.240000000000000000e+02,5.550000000000000000e+02,1.227000000000000000e+03,4.010000000000000000e+02,1.620000000000000000e+02,2.730000000000000000e+02,1.460000000000000000e+02,1.010000000000000000e+02,1.100000000000000006e-01,3.700939200000000000e+09
2.390000000000000000e+02,6.480000000000000000e+02,1.234000000000000000e+03,3.910000000000000000e+02,1.460000000000000000e+02,2.690000000000000000e+02,1.470000000000000000e+02,1.020000000000000000e+02,1.000000000000000056e-01,3.719934000000000000e+09
2.890000000000000000e+02,7.520000000000000000e+02,1.238000000000000000e+03,4.330000000000000000e+02,1.620000000000000000e+02,2.680000000000000000e+02,1.500000000000000000e+02,1.230000000000000000e+02,8.999999999999999667e-02,3.741253500000000000e+09
2.920000000000000000e+02,7.750000000000000000e+02,1.135000000000000000e+03,4.430000000000000000e+02,1.660000000000000000e+02,2.730000000000000000e+02,1.490000000000000000e+02,1.250000000000000000e+02,8.000000000000000167e-02,3.760140100000000000e+09
2.850000000000000000e+02,7.510000000000000000e+02,1.107000000000000000e+03,4.200000000000000000e+02,1.560000000000000000e+02,1.960000000000000000e+02,1.090000000000000000e+02,1.220000000000000000e+02,7.000000000000000666e-02,3.781635000000000000e+09
2.940000000000000000e+02,7.870000000000000000e+02,1.186000000000000000e+03,4.390000000000000000e+02,1.620000000000000000e+02,1.410000000000000000e+02,1.080000000000000000e+02,1.270000000000000000e+02,5.999999999999999778e-02,3.801098500000000000e+09
2.670000000000000000e+02,6.690000000000000000e+02,1.271000000000000000e+03,4.560000000000000000e+02,1.640000000000000000e+02,1.430000000000000000e+02,9.900000000000000000e+01,1.190000000000000000e+02,5.000000000000000278e-02,3.819810700000000000e+09
2.370000000000000000e+02,6.070000000000000000e+02,1.230000000000000000e+03,4.520000000000000000e+02,1.630000000000000000e+02,2.490000000000000000e+02,1.070000000000000000e+02,1.100000000000000000e+02,4.000000000000000083e-02,3.841124200000000000e+09
2.580000000000000000e+02,6.030000000000000000e+02,1.211000000000000000e+03,4.740000000000000000e+02,1.770000000000000000e+02,2.430000000000000000e+02,1.160000000000000000e+02,1.210000000000000000e+02,2.000000000000000042e-02,3.880870900000000000e+09
2.530000000000000000e+02,6.080000000000000000e+02,1.209000000000000000e+03,4.790000000000000000e+02,1.750000000000000000e+02,2.380000000000000000e+02,1.040000000000000000e+02,1.140000000000000000e+02,2.000000000000000042e-02,3.880883800000000000e+09
2.310000000000000000e+02,5.360000000000000000e+02,1.203000000000000000e+03,4.180000000000000000e+02,1.570000000000000000e+02,3.140000000000000000e+02,1.060000000000000000e+02,1.070000000000000000e+02,1.000000000000000021e-02,3.899335600000000000e+09
2.310000000000000000e+02,5.230000000000000000e+02,1.043000000000000000e+03,3.720000000000000000e+02,1.540000000000000000e+02,5.130000000000000000e+02,1.890000000000000000e+02,2.010000000000000000e+02,0.000000000000000000e+00,3.920774800000000000e+09
2.200000000000000000e+02,5.020000000000000000e+02,1.009000000000000000e+03,3.430000000000000000e+02,1.590000000000000000e+02,5.970000000000000000e+02,2.880000000000000000e+02,3.930000000000000000e+02,1.000000000000000021e-02,3.941602300000000000e+09
2.320000000000000000e+02,4.800000000000000000e+02,9.910000000000000000e+02,3.010000000000000000e+02,1.470000000000000000e+02,6.310000000000000000e+02,3.540000000000000000e+02,4.470000000000000000e+02,2.000000000000000042e-02,3.960145600000000000e+09
2.170000000000000000e+02,4.600000000000000000e+02,9.660000000000000000e+02,2.790000000000000000e+02,1.470000000000000000e+02,7.330000000000000000e+02,4.200000000000000000e+02,5.880000000000000000e+02,2.999999999999999889e-02,3.981129200000000000e+09
2.270000000000000000e+02,4.480000000000000000e+02,7.950000000000000000e+02,2.600000000000000000e+02,1.490000000000000000e+02,8.490000000000000000e+02,4.820000000000000000e+02,7.070000000000000000e+02,4.000000000000000083e-02,3.999827300000000000e+09
2.340000000000000000e+02,4.520000000000000000e+02,8.370000000000000000e+02,2.330000000000000000e+02,1.380000000000000000e+02,8.410000000000000000e+02,5.880000000000000000e+02,7.660000000000000000e+02,5.000000000000000278e-02,4.020592800000000000e+09
2.420000000000000000e+02,4.370000000000000000e+02,8.410000000000000000e+02,1.950000000000000000e+02,1.110000000000000000e+02,8.070000000000000000e+02,5.920000000000000000e+02,7.860000000000000000e+02,5.999999999999999778e-02,4.039393600000000000e+09
2.080000000000000000e+02,4.360000000000000000e+02,7.890000000000000000e+02,1.880000000000000000e+02,9.600000000000000000e+01,9.340000000000000000e+02,5.790000000000000000e+02,8.380000000000000000e+02,7.000000000000000666e-02,4.061005000000000000e+09
2.260000000000000000e+02,3.990000000000000000e+02,7.190000000000000000e+02,1.900000000000000000e+02,9.600000000000000000e+01,9.780000000000000000e+02,6.580000000000000000e+02,8.090000000000000000e+02,8.000000000000000167e-02,4.081873300000000000e+09
2.260000000000000000e+02,4.010000000000000000e+02,7.380000000000000000e+02,1.950000000000000000e+02,1.120000000000000000e+02,1.076000000000000000e+03,7.870000000000000000e+02,8.350000000000000000e+02,8.999999999999999667e-02,4.100179300000000000e+09
2.350000000000000000e+02,4.640000000000000000e+02,6.850000000000000000e+02,2.010000000000000000e+02,1.180000000000000000e+02,1.034000000000000000e+03,8.360000000000000000e+02,8.640000000000000000e+02,1.000000000000000056e-01,4.121641300000000000e+09
2.230000000000000000e+02,4.250000000000000000e+02,6.570000000000000000e+02,1.890000000000000000e+02,1.200000000000000000e+02,1.061000000000000000e+03,9.170000000000000000e+02,8.460000000000000000e+02,1.100000000000000006e-01,4.140378400000000000e+09
2.200000000000000000e+02,4.450000000000000000e+02,6.660000000000000000e+02,1.560000000000000000e+02,1.220000000000000000e+02,9.550000000000000000e+02,9.150000000000000000e+02,8.230000000000000000e+02,1.300000000000000044e-01,4.180427700000000000e+09
2.250000000000000000e+02,4.420000000000000000e+02,6.590000000000000000e+02,1.470000000000000000e+02,1.150000000000000000e+02,8.600000000000000000e+02,9.530000000000000000e+02,8.330000000000000000e+02,1.300000000000000044e-01,4.180441200000000000e+09
2.110000000000000000e+02,4.370000000000000000e+02,6.100000000000000000e+02,1.370000000000000000e+02,9.100000000000000000e+01,6.010000000000000000e+02,9.210000000000000000e+02,8.440000000000000000e+02,1.400000000000000133e-01,4.199274300000000000e+09
2.140000000000000000e+02,4.670000000000000000e+02,6.970000000000000000e+02,1.650000000000000000e+02,8.500000000000000000e+01,6.120000000000000000e+02,8.210000000000000000e+02,8.010000000000000000e+02,1.499999999999999944e-01,4.220512100000000000e+09
2.220000000000000000e+02,5.270000000000000000e+02,7.070000000000000000e+02,1.850000000000000000e+02,8.200000000000000000e+01,5.670000000000000000e+02,7.450000000000000000e+02,7.910000000000000000e+02,1.600000000000000033e-01,4.241863100000000000e+09
2.260000000000000000e+02,4.990000000000000000e+02,6.780000000000000000e+02,1.830000000000000000e+02,7.600000000000000000e+01,5.300000000000000000e+02,7.690000000000000000e+02,7.680000000000000000e+02,1.700000000000000122e-01,4.260274200000000000e+09
2.090000000000000000e+02,5.130000000000000000e+02,6.510000000000000000e+02,1.820000000000000000e+02,7.800000000000000000e+01,5.070000000000000000e+02,6.610000000000000000e+02,7.460000000000000000e+02,1.799999999999999933e-01,4.281415700000000000e+09
2.150000000000000000e+02,5.680000000000000000e+02,6.850000000000000000e+02,2.080000000000000000e+02,8.300000000000000000e+01,5.220000000000000000e+02,5.970000000000000000e+02,6.820000000000000000e+02,1.900000000000000022e-01,4.300139300000000000e+09
2.130000000000000000e+02,5.040000000000000000e+02,5.710000000000000000e+02,1.850000000000000000e+02,8.300000000000000000e+01,5.160000000000000000e+02,7.270000000000000000e+02,8.180000000000000000e+02,2.000000000000000111e-01,4.321707100000000000e+09
1.930000000000000000e+02,4.650000000000000000e+02,5.340000000000000000e+02,1.520000000000000000e+02,7.900000000000000000e+01,5.400000000000000000e+02,7.020000000000000000e+02,7.800000000000000000e+02,2.099999999999999922e-01,4.340490500000000000e+09
2.020000000000000000e+02,4.800000000000000000e+02,5.580000000000000000e+02,1.470000000000000000e+02,8.100000000000000000e+01,5.840000000000000000e+02,7.280000000000000000e+02,7.980000000000000000e+02,2.200000000000000011e-01,4.361340600000000000e+09
1.910000000000000000e+02,4.650000000000000000e+02,6.490000000000000000e+02,1.640000000000000000e+02,8.000000000000000000e+01,5.830000000000000000e+02,7.710000000000000000e+02,7.890000000000000000e+02,2.300000000000000100e-01,4.379890600000000000e+09
2.150000000000000000e+02,4.290000000000000000e+02,6.460000000000000000e+02,1.590000000000000000e+02,7.800000000000000000e+01,5.630000000000000000e+02,7.480000000000000000e+02,7.320000000000000000e+02,2.399999999999999911e-01,4.400873200000000000e+09
1.900000000000000000e+02,4.080000000000000000e+02,6.380000000000000000e+02,1.470000000000000000e+02,6.900000000000000000e+01,5.470000000000000000e+02,6.630000000000000000e+02,5.700000000000000000e+02,2.500000000000000000e-01,4.419254000000000000e+09
1.960000000000000000e+02,3.690000000000000000e+02,6.030000000000000000e+02,1.480000000000000000e+02,7.200000000000000000e+01,4.930000000000000000e+02,7.460000000000000000e+02,5.620000000000000000e+02,2.600000000000000089e-01,4.441100900000000000e+09
1.830000000000000000e+02,3.640000000000000000e+02,6.020000000000000000e+02,1.430000000000000000e+02,6.800000000000000000e+01,5.080000000000000000e+02,7.710000000000000000e+02,5.770000000000000000e+02,2.700000000000000178e-01,4.459706900000000000e+09
1.900000000000000000e+02,3.670000000000000000e+02,6.240000000000000000e+02,1.310000000000000000e+02,6.600000000000000000e+01,4.980000000000000000e+02,7.210000000000000000e+02,6.250000000000000000e+02,2.800000000000000266e-01,4.480890500000000000e+09
1.650000000000000000e+02,3.370000000000000000e+02,6.740000000000000000e+02,9.300000000000000000e+01,5.900000000000000000e+01,4.920000000000000000e+02,7.110000000000000000e+02,6.770000000000000000e+02,2.899999999999999800e-01,4.499533800000000000e+09
1.620000000000000000e+02,3.140000000000000000e+02,6.570000000000000000e+02,8.900000000000000000e+01,5.800000000000000000e+01,4.830000000000000000e+02,7.430000000000000000e+02,6.580000000000000000e+02,2.999999999999999889e-01,4.520857800000000000e+09
1.470000000000000000e+02,3.180000000000000000e+02,6.600000000000000000e+02,8.300000000000000000e+01,5.100000000000000000e+01,4.690000000000000000e+02,6.670000000000000000e+02,6.810000000000000000e+02,3.099999999999999978e-01,4.539641800000000000e+09
1.650000000000000000e+02,3.200000000000000000e+02,6.480000000000000000e+02,8.600000000000000000e+01,5.100000000000000000e+01,4.050000000000000000e+02,7.070000000000000000e+02,6.940000000000000000e+02,3.200000000000000067e-01,4.560989100000000000e+09
1.590000000000000000e+02,3.320000000000000000e+02,5.850000000000000000e+02,7.500000000000000000e+01,5.400000000000000000e+01,4.300000000000000000e+02,7.540000000000000000e+02,6.370000000000000000e+02,3.300000000000000155e-01,4.579703300000000000e+09
1.630000000000000000e+02,3.090000000000000000e+02,4.430000000000000000e+02,6.900000000000000000e+01,5.900000000000000000e+01,4.980000000000000000e+02,7.400000000000000000e+02,6.130000000000000000e+02,3.400000000000000244e-01,4.601028700000000000e+09
1.690000000000000000e+02,3.680000000000000000e+02,4.810000000000000000e+02,6.300000000000000000e+01,6.000000000000000000e+01,5.390000000000000000e+02,6.610000000000000000e+02,5.960000000000000000e+02,3.499999999999999778e-01,4.619220300000000000e+09
1.680000000000000000e+02,3.810000000000000000e+02,4.630000000000000000e+02,6.200000000000000000e+01,6.500000000000000000e+01,5.370000000000000000e+02,7.010000000000000000e+02,6.190000000000000000e+02,3.599999999999999867e-01,4.640395200000000000e+09
1.580000000000000000e+02,3.910000000000000000e+02,4.680000000000000000e+02,6.400000000000000000e+01,7.900000000000000000e+01,6.470000000000000000e+02,5.910000000000000000e+02,6.090000000000000000e+02,3.699999999999999956e-01,4.661484600000000000e+09
1.900000000000000000e+02,3.730000000000000000e+02,3.790000000000000000e+02,6.600000000000000000e+01,7.900000000000000000e+01,6.880000000000000000e+02,4.940000000000000000e+02,6.050000000000000000e+02,3.800000000000000044e-01,4.679932100000000000e+09
1.720000000000000000e+02,3.750000000000000000e+02,3.800000000000000000e+02,6.600000000000000000e+01,7.500000000000000000e+01,6.240000000000000000e+02,4.820000000000000000e+02,5.470000000000000000e+02,3.900000000000000133e-01,4.701281200000000000e+09
1.780000000000000000e+02,3.270000000000000000e+02,3.420000000000000000e+02,6.900000000000000000e+01,7.900000000000000000e+01,5.700000000000000000e+02,5.770000000000000000e+02,6.220000000000000000e+02,4.000000000000000222e-01,4.720360100000000000e+09
1.840000000000000000e+02,3.320000000000000000e+02,3.330000000000000000e+02,6.900000000000000000e+01,7.900000000000000000e+01,6.590000000000000000e+02,5.250000000000000000e+02,5.870000000000000000e+02,4.099999999999999756e-01,4.739323200000000000e+09
1.830000000000000000e+02,2.990000000000000000e+02,3.000000000000000000e+02,6.500000000000000000e+01,6.600000000000000000e+01,5.760000000000000000e+02,5.400000000000000000e+02,5.290000000000000000e+02,4.199999999999999845e-01,4.761136300000000000e+09
1.820000000000000000e+02,3.020000000000000000e+02,2.510000000000000000e+02,5.100000000000000000e+01,6.200000000000000000e+01,5.330000000000000000e+02,5.790000000000000000e+02,5.290000000000000000e+02,4.299999999999999933e-01,4.779878300000000000e+09
1.880000000000000000e+02,2.860000000000000000e+02,2.540000000000000000e+02,5.700000000000000000e+01,7.000000000000000000e+01,5.950000000000000000e+02,5.830000000000000000e+02,5.540000000000000000e+02,4.400000000000000022e-01,4.801342900000000000e+09
1.850000000000000000e+02,2.950000000000000000e+02,2.750000000000000000e+02,4.800000000000000000e+01,7.400000000000000000e+01,6.460000000000000000e+02,6.260000000000000000e+02,4.730000000000000000e+02,4.500000000000000111e-01,4.819795700000000000e+09
1.840000000000000000e+02,2.880000000000000000e+02,3.860000000000000000e+02,5.900000000000000000e+01,6.800000000000000000e+01,5.520000000000000000e+02,6.090000000000000000e+02,4.620000000000000000e+02,4.699999999999999734e-01,4.861722600000000000e+09
1.790000000000000000e+02,2.760000000000000000e+02,4.540000000000000000e+02,7.000000000000000000e+01,7.600000000000000000e+01,5.860000000000000000e+02,6.210000000000000000e+02,5.050000000000000000e+02,4.699999999999999734e-01,4.861734200000000000e+09
1.440000000000000000e+02,2.630000000000000000e+02,5.780000000000000000e+02,7.500000000000000000e+01,7.600000000000000000e+01,5.660000000000000000e+02,6.440000000000000000e+02,5.520000000000000000e+02,4.899999999999999911e-01,4.901516500000000000e+09
1.920000000000000000e+02,2.660000000000000000e+02,5.880000000000000000e+02,8.300000000000000000e+01,7.600000000000000000e+01,5.170000000000000000e+02,7.020000000000000000e+02,6.060000000000000000e+02,4.899999999999999911e-01,4.901531000000000000e+09
2.270000000000000000e+02,3.280000000000000000e+02,6.360000000000000000e+02,9.100000000000000000e+01,7.300000000000000000e+01,4.990000000000000000e+02,5.930000000000000000e+02,7.370000000000000000e+02,5.000000000000000000e-01,4.920205600000000000e+09
2.290000000000000000e+02,3.160000000000000000e+02,6.040000000000000000e+02,8.600000000000000000e+01,7.300000000000000000e+01,4.790000000000000000e+02,6.460000000000000000e+02,7.540000000000000000e+02,5.100000000000000089e-01,4.941402400000000000e+09
2.270000000000000000e+02,3.060000000000000000e+02,5.550000000000000000e+02,7.900000000000000000e+01,6.500000000000000000e+01,4.750000000000000000e+02,6.370000000000000000e+02,7.800000000000000000e+02,5.200000000000000178e-01,4.960413600000000000e+09
2.300000000000000000e+02,3.350000000000000000e+02,4.430000000000000000e+02,7.700000000000000000e+01,6.500000000000000000e+01,4.780000000000000000e+02,6.400000000000000000e+02,7.930000000000000000e+02,5.300000000000000266e-01,4.981447100000000000e+09
2.010000000000000000e+02,3.550000000000000000e+02,4.170000000000000000e+02,6.400000000000000000e+01,6.100000000000000000e+01,4.590000000000000000e+02,6.140000000000000000e+02,7.710000000000000000e+02,5.400000000000000355e-01,5.000119600000000000e+09
1.950000000000000000e+02,3.580000000000000000e+02,3.850000000000000000e+02,5.400000000000000000e+01,5.500000000000000000e+01,4.970000000000000000e+02,6.260000000000000000e+02,7.490000000000000000e+02,5.500000000000000444e-01,5.021559400000000000e+09
2.150000000000000000e+02,3.680000000000000000e+02,3.680000000000000000e+02,5.700000000000000000e+01,6.700000000000000000e+01,5.370000000000000000e+02,6.960000000000000000e+02,7.560000000000000000e+02,5.600000000000000533e-01,5.040190400000000000e+09
2.150000000000000000e+02,3.810000000000000000e+02,3.640000000000000000e+02,5.700000000000000000e+01,7.700000000000000000e+01,5.510000000000000000e+02,6.970000000000000000e+02,7.770000000000000000e+02,5.699999999999999512e-01,5.061644400000000000e+09
2.180000000000000000e+02,3.870000000000000000e+02,3.770000000000000000e+02,5.900000000000000000e+01,7.800000000000000000e+01,5.670000000000000000e+02,6.870000000000000000e+02,7.370000000000000000e+02,5.799999999999999600e-01,5.080031900000000000e+09
2.190000000000000000e+02,3.710000000000000000e+02,4.200000000000000000e+02,6.700000000000000000e+01,7.800000000000000000e+01,5.840000000000000000e+02,6.960000000000000000e+02,7.840000000000000000e+02,5.899999999999999689e-01,5.101008200000000000e+09
1.890000000000000000e+02,3.330000000000000000e+02,4.240000000000000000e+02,7.900000000000000000e+01,8.400000000000000000e+01,5.670000000000000000e+02,6.900000000000000000e+02,7.440000000000000000e+02,5.999999999999999778e-01,5.119657100000000000e+09
1.770000000000000000e+02,3.710000000000000000e+02,4.230000000000000000e+02,8.000000000000000000e+01,7.300000000000000000e+01,5.210000000000000000e+02,6.200000000000000000e+02,7.450000000000000000e+02,6.099999999999999867e-01,5.141050900000000000e+09
1.800000000000000000e+02,4.100000000000000000e+02,4.370000000000000000e+02,8.300000000000000000e+01,6.500000000000000000e+01,4.390000000000000000e+02,6.790000000000000000e+02,6.990000000000000000e+02,6.199999999999999956e-01,5.159587900000000000e+09
1.810000000000000000e+02,4.130000000000000000e+02,4.270000000000000000e+02,8.500000000000000000e+01,6.300000000000000000e+01,4.180000000000000000e+02,6.940000000000000000e+02,7.840000000000000000e+02,6.300000000000000044e-01,5.180405500000000000e+09
1.640000000000000000e+02,4.520000000000000000e+02,4.210000000000000000e+02,8.400000000000000000e+01,6.000000000000000000e+01,4.030000000000000000e+02,6.650000000000000000e+02,7.550000000000000000e+02,6.400000000000000133e-01,5.201648700000000000e+09
1.810000000000000000e+02,4.550000000000000000e+02,3.720000000000000000e+02,7.200000000000000000e+01,6.200000000000000000e+01,5.020000000000000000e+02,7.630000000000000000e+02,8.110000000000000000e+02,6.500000000000000222e-01,5.220357200000000000e+09
1.930000000000000000e+02,4.370000000000000000e+02,3.500000000000000000e+02,6.700000000000000000e+01,6.600000000000000000e+01,5.520000000000000000e+02,7.440000000000000000e+02,8.750000000000000000e+02,6.600000000000000311e-01,5.241269900000000000e+09
2.020000000000000000e+02,4.270000000000000000e+02,4.090000000000000000e+02,6.800000000000000000e+01,6.700000000000000000e+01,6.290000000000000000e+02,6.820000000000000000e+02,8.730000000000000000e+02,6.700000000000000400e-01,5.259794500000000000e+09
2.140000000000000000e+02,4.110000000000000000e+02,4.130000000000000000e+02,6.300000000000000000e+01,6.800000000000000000e+01,6.390000000000000000e+02,7.500000000000000000e+02,9.000000000000000000e+02,6.800000000000000488e-01,5.281623100000000000e+09
2.120000000000000000e+02,3.790000000000000000e+02,3.950000000000000000e+02,6.400000000000000000e+01,6.800000000000000000e+01,6.860000000000000000e+02,7.640000000000000000e+02,9.060000000000000000e+02,6.899999999999999467e-01,5.300623500000000000e+09
2.420000000000000000e+02,3.550000000000000000e+02,4.470000000000000000e+02,7.000000000000000000e+01,6.500000000000000000e+01,6.350000000000000000e+02,7.060000000000000000e+02,8.960000000000000000e+02,7.099999999999999645e-01,5.340831200000000000e+09
2.730000000000000000e+02,3.660000000000000000e+02,4.620000000000000000e+02,7.100000000000000000e+01,7.200000000000000000e+01,6.150000000000000000e+02,7.260000000000000000e+02,8.470000000000000000e+02,7.199999999999999734e-01,5.359663000000000000e+09
2.750000000000000000e+02,3.590000000000000000e+02,3.970000000000000000e+02,7.100000000000000000e+01,7.700000000000000000e+01,5.740000000000000000e+02,7.500000000000000000e+02,8.660000000000000000e+02,7.199999999999999734e-01,5.359675400000000000e+09
2.660000000000000000e+02,3.470000000000000000e+02,3.980000000000000000e+02,7.200000000000000000e+01,8.100000000000000000e+01,6.620000000000000000e+02,6.820000000000000000e+02,7.970000000000000000e+02,7.299999999999999822e-01,5.380879600000000000e+09
2.790000000000000000e+02,4.260000000000000000e+02,4.530000000000000000e+02,7.900000000000000000e+01,9.100000000000000000e+01,6.410000000000000000e+02,6.920000000000000000e+02,8.090000000000000000e+02,7.399999999999999911e-01,5.399327000000000000e+09
2.680000000000000000e+02,4.740000000000000000e+02,4.030000000000000000e+02,7.600000000000000000e+01,8.900000000000000000e+01,6.360000000000000000e+02,6.460000000000000000e+02,7.330000000000000000e+02,7.500000000000000000e-01,5.419897200000000000e+09
2.230000000000000000e+02,4.720000000000000000e+02,3.880000000000000000e+02,8.200000000000000000e+01,9.400000000000000000e+01,6.930000000000000000e+02,6.390000000000000000e+02,7.800000000000000000e+02,7.600000000000000089e-01,5.440673100000000000e+09
2.080000000000000000e+02,4.830000000000000000e+02,4.060000000000000000e+02,7.600000000000000000e+01,9.100000000000000000e+01,7.410000000000000000e+02,6.770000000000000000e+02,8.710000000000000000e+02,7.700000000000000178e-01,5.459308800000000000e+09
2.310000000000000000e+02,5.610000000000000000e+02,4.440000000000000000e+02,1.020000000000000000e+02,9.500000000000000000e+01,7.160000000000000000e+02,6.580000000000000000e+02,8.450000000000000000e+02,7.800000000000000266e-01,5.479973500000000000e+09
2.200000000000000000e+02,5.570000000000000000e+02,4.490000000000000000e+02,1.030000000000000000e+02,9.900000000000000000e+01,7.990000000000000000e+02,6.660000000000000000e+02,8.210000000000000000e+02,7.900000000000000355e-01,5.500660900000000000e+09
1.940000000000000000e+02,5.260000000000000000e+02,4.680000000000000000e+02,1.020000000000000000e+02,9.700000000000000000e+01,7.760000000000000000e+02,7.030000000000000000e+02,8.400000000000000000e+02,8.000000000000000444e-01,5.519459600000000000e+09
2.620000000000000000e+02,5.260000000000000000e+02,4.920000000000000000e+02,9.700000000000000000e+01,9.400000000000000000e+01,8.170000000000000000e+02,6.820000000000000000e+02,8.370000000000000000e+02,8.100000000000000533e-01,5.541295000000000000e+09
2.920000000000000000e+02,5.720000000000000000e+02,5.640000000000000000e+02,1.060000000000000000e+02,9.400000000000000000e+01,8.720000000000000000e+02,6.520000000000000000e+02,7.630000000000000000e+02,8.299999999999999600e-01,5.579465400000000000e+09
2.840000000000000000e+02,4.880000000000000000e+02,5.540000000000000000e+02,8.400000000000000000e+01,8.600000000000000000e+01,8.830000000000000000e+02,6.920000000000000000e+02,8.240000000000000000e+02,8.299999999999999600e-01,5.579477500000000000e+09
3.260000000000000000e+02,4.950000000000000000e+02,6.170000000000000000e+02,1.090000000000000000e+02,7.900000000000000000e+01,9.790000000000000000e+02,6.990000000000000000e+02,9.290000000000000000e+02,8.399999999999999689e-01,5.600693500000000000e+09
3.460000000000000000e+02,4.950000000000000000e+02,6.060000000000000000e+02,1.170000000000000000e+02,9.300000000000000000e+01,1.009000000000000000e+03,6.740000000000000000e+02,9.770000000000000000e+02,8.499999999999999778e-01,5.619626300000000000e+09
3.110000000000000000e+02,5.000000000000000000e+02,5.900000000000000000e+02,1.220000000000000000e+02,1.060000000000000000e+02,1.115000000000000000e+03,7.400000000000000000e+02,9.460000000000000000e+02,8.599999999999999867e-01,5.640957100000000000e+09
3.110000000000000000e+02,4.550000000000000000e+02,5.340000000000000000e+02,1.170000000000000000e+02,1.060000000000000000e+02,1.077000000000000000e+03,8.100000000000000000e+02,9.580000000000000000e+02,8.699999999999999956e-01,5.661515600000000000e+09
3.510000000000000000e+02,5.750000000000000000e+02,6.140000000000000000e+02,1.380000000000000000e+02,1.390000000000000000e+02,1.178000000000000000e+03,8.250000000000000000e+02,9.830000000000000000e+02,8.800000000000000044e-01,5.679960800000000000e+09
3.250000000000000000e+02,5.320000000000000000e+02,5.150000000000000000e+02,1.090000000000000000e+02,1.370000000000000000e+02,1.167000000000000000e+03,8.200000000000000000e+02,9.260000000000000000e+02,8.900000000000000133e-01,5.701513500000000000e+09
3.240000000000000000e+02,5.610000000000000000e+02,4.910000000000000000e+02,9.900000000000000000e+01,1.350000000000000000e+02,1.245000000000000000e+03,8.680000000000000000e+02,9.610000000000000000e+02,9.000000000000000222e-01,5.719783900000000000e+09
3.400000000000000000e+02,5.990000000000000000e+02,4.910000000000000000e+02,1.000000000000000000e+02,1.290000000000000000e+02,1.146000000000000000e+03,8.460000000000000000e+02,1.016000000000000000e+03,9.100000000000000311e-01,5.741369700000000000e+09
3.380000000000000000e+02,6.800000000000000000e+02,6.120000000000000000e+02,1.180000000000000000e+02,1.310000000000000000e+02,1.189000000000000000e+03,8.720000000000000000e+02,9.920000000000000000e+02,9.200000000000000400e-01,5.760120300000000000e+09
3.070000000000000000e+02,6.560000000000000000e+02,5.850000000000000000e+02,1.040000000000000000e+02,1.000000000000000000e+02,1.170000000000000000e+03,8.520000000000000000e+02,1.005000000000000000e+03,9.300000000000000488e-01,5.781591200000000000e+09
3.100000000000000000e+02,6.580000000000000000e+02,6.060000000000000000e+02,1.080000000000000000e+02,1.100000000000000000e+02,1.168000000000000000e+03,8.660000000000000000e+02,9.660000000000000000e+02,9.399999999999999467e-01,5.800399400000000000e+09
3.040000000000000000e+02,6.400000000000000000e+02,6.160000000000000000e+02,1.140000000000000000e+02,1.290000000000000000e+02,1.163000000000000000e+03,9.210000000000000000e+02,9.590000000000000000e+02,9.499999999999999556e-01,5.819501700000000000e+09
3.050000000000000000e+02,6.340000000000000000e+02,6.200000000000000000e+02,1.120000000000000000e+02,1.230000000000000000e+02,1.212000000000000000e+03,9.200000000000000000e+02,9.280000000000000000e+02,9.599999999999999645e-01,5.840812400000000000e+09
3.240000000000000000e+02,5.630000000000000000e+02,4.740000000000000000e+02,9.700000000000000000e+01,1.600000000000000000e+02,1.219000000000000000e+03,8.680000000000000000e+02,1.007000000000000000e+03,9.699999999999999734e-01,5.859730200000000000e+09
3.520000000000000000e+02,5.070000000000000000e+02,4.010000000000000000e+02,9.600000000000000000e+01,1.720000000000000000e+02,1.149000000000000000e+03,9.090000000000000000e+02,1.009000000000000000e+03,9.799999999999999822e-01,5.880830600000000000e+09
3.380000000000000000e+02,5.280000000000000000e+02,3.690000000000000000e+02,9.700000000000000000e+01,1.670000000000000000e+02,1.144000000000000000e+03,8.820000000000000000e+02,1.049000000000000000e+03,9.799999999999999822e-01,5.920908100000000000e+09
3.310000000000000000e+02,5.500000000000000000e+02,3.600000000000000000e+02,1.000000000000000000e+02,1.570000000000000000e+02,1.096000000000000000e+03,7.760000000000000000e+02,1.036000000000000000e+03,9.799999999999999822e-01,5.920919400000000000e+09
3.350000000000000000e+02,5.160000000000000000e+02,3.730000000000000000e+02,1.010000000000000000e+02,1.550000000000000000e+02,9.780000000000000000e+02,8.450000000000000000e+02,1.009000000000000000e+03,9.699999999999999734e-01,5.939534000000000000e+09
3.080000000000000000e+02,4.820000000000000000e+02,4.650000000000000000e+02,1.000000000000000000e+02,1.150000000000000000e+02,9.380000000000000000e+02,8.490000000000000000e+02,9.440000000000000000e+02,9.599999999999999645e-01,5.960704600000000000e+09
2.700000000000000000e+02,5.300000000000000000e+02,5.530000000000000000e+02,8.900000000000000000e+01,9.800000000000000000e+01,9.950000000000000000e+02,7.800000000000000000e+02,8.480000000000000000e+02,9.499999999999999556e-01,5.979373400000000000e+09
2.730000000000000000e+02,5.240000000000000000e+02,5.560000000000000000e+02,8.400000000000000000e+01,9.600000000000000000e+01,9.110000000000000000e+02,7.800000000000000000e+02,7.890000000000000000e+02,9.399999999999999467e-01,6.000408600000000000e+09
2.610000000000000000e+02,4.950000000000000000e+02,5.670000000000000000e+02,8.000000000000000000e+01,8.000000000000000000e+01,8.430000000000000000e+02,7.420000000000000000e+02,6.690000000000000000e+02,9.300000000000000488e-01,6.019460100000000000e+09
2.050000000000000000e+02,4.640000000000000000e+02,7.950000000000000000e+02,1.170000000000000000e+02,7.800000000000000000e+01,8.440000000000000000e+02,5.800000000000000000e+02,6.030000000000000000e+02,9.100000000000000311e-01,6.059219900000000000e+09
1.850000000000000000e+02,4.660000000000000000e+02,9.650000000000000000e+02,1.760000000000000000e+02,8.400000000000000000e+01,7.500000000000000000e+02,4.120000000000000000e+02,4.710000000000000000e+02,9.100000000000000311e-01,6.059238400000000000e+09
1.780000000000000000e+02,4.220000000000000000e+02,9.550000000000000000e+02,1.830000000000000000e+02,8.200000000000000000e+01,6.880000000000000000e+02,3.150000000000000000e+02,4.340000000000000000e+02,9.000000000000000222e-01,6.080156500000000000e+09
1.820000000000000000e+02,3.980000000000000000e+02,9.760000000000000000e+02,1.860000000000000000e+02,7.600000000000000000e+01,6.820000000000000000e+02,1.970000000000000000e+02,3.540000000000000000e+02,8.900000000000000133e-01,6.099400100000000000e+09
1.700000000000000000e+02,3.770000000000000000e+02,1.014000000000000000e+03,2.050000000000000000e+02,7.500000000000000000e+01,6.700000000000000000e+02,1.860000000000000000e+02,2.780000000000000000e+02,8.800000000000000044e-01,6.121095000000000000e+09
1.780000000000000000e+02,3.740000000000000000e+02,9.200000000000000000e+02,1.900000000000000000e+02,7.100000000000000000e+01,6.630000000000000000e+02,1.770000000000000000e+02,2.490000000000000000e+02,8.699999999999999956e-01,6.140249300000000000e+09
1.880000000000000000e+02,3.510000000000000000e+02,7.810000000000000000e+02,1.400000000000000000e+02,5.400000000000000000e+01,6.910000000000000000e+02,1.840000000000000000e+02,2.390000000000000000e+02,8.599999999999999867e-01,6.159226800000000000e+09
1.690000000000000000e+02,3.080000000000000000e+02,7.900000000000000000e+02,1.310000000000000000e+02,4.800000000000000000e+01,6.400000000000000000e+02,2.280000000000000000e+02,1.420000000000000000e+02,8.499999999999999778e-01,6.180236900000000000e+09
1.560000000000000000e+02,2.830000000000000000e+02,7.520000000000000000e+02,1.290000000000000000e+02,4.500000000000000000e+01,5.600000000000000000e+02,2.230000000000000000e+02,1.200000000000000000e+02,8.299999999999999600e-01,6.221644900000000000e+09
1.600000000000000000e+02,3.010000000000000000e+02,7.430000000000000000e+02,1.020000000000000000e+02,4.500000000000000000e+01,5.100000000000000000e+02,2.190000000000000000e+02,9.800000000000000000e+01,8.299999999999999600e-01,6.221659200000000000e+09
1.640000000000000000e+02,3.290000000000000000e+02,7.710000000000000000e+02,1.640000000000000000e+02,5.500000000000000000e+01,5.140000000000000000e+02,2.160000000000000000e+02,8.400000000000000000e+01,8.100000000000000533e-01,6.259291000000000000e+09
1.410000000000000000e+02,3.350000000000000000e+02,7.900000000000000000e+02,1.820000000000000000e+02,5.400000000000000000e+01,5.480000000000000000e+02,2.040000000000000000e+02,7.300000000000000000e+01,8.100000000000000533e-01,6.259303700000000000e+09
1.300000000000000000e+02,3.260000000000000000e+02,8.480000000000000000e+02,1.900000000000000000e+02,5.300000000000000000e+01,5.480000000000000000e+02,1.120000000000000000e+02,6.200000000000000000e+01,8.000000000000000444e-01,6.280341800000000000e+09
1.370000000000000000e+02,3.600000000000000000e+02,9.060000000000000000e+02,1.960000000000000000e+02,5.600000000000000000e+01,5.320000000000000000e+02,8.400000000000000000e+01,5.500000000000000000e+01,7.900000000000000355e-01,6.301500500000000000e+09
1.350000000000000000e+02,3.520000000000000000e+02,9.980000000000000000e+02,2.090000000000000000e+02,6.400000000000000000e+01,5.270000000000000000e+02,8.300000000000000000e+01,5.500000000000000000e+01,7.800000000000000266e-01,6.320516400000000000e+09
1.360000000000000000e+02,3.450000000000000000e+02,9.450000000000000000e+02,1.780000000000000000e+02,5.700000000000000000e+01,5.240000000000000000e+02,7.800000000000000000e+01,5.600000000000000000e+01,7.700000000000000178e-01,6.341563400000000000e+09
1.410000000000000000e+02,3.380000000000000000e+02,1.008000000000000000e+03,1.780000000000000000e+02,6.100000000000000000e+01,4.650000000000000000e+02,8.000000000000000000e+01,5.800000000000000000e+01,7.600000000000000089e-01,6.360541200000000000e+09
1.400000000000000000e+02,3.460000000000000000e+02,9.470000000000000000e+02,1.740000000000000000e+02,6.300000000000000000e+01,4.240000000000000000e+02,7.100000000000000000e+01,5.700000000000000000e+01,7.500000000000000000e-01,6.379399500000000000e+09
1.700000000000000000e+02,3.580000000000000000e+02,1.017000000000000000e+03,1.730000000000000000e+02,6.200000000000000000e+01,4.220000000000000000e+02,7.200000000000000000e+01,5.800000000000000000e+01,7.399999999999999911e-01,6.400839200000000000e+09
1.660000000000000000e+02,3.540000000000000000e+02,9.270000000000000000e+02,1.660000000000000000e+02,5.700000000000000000e+01,4.180000000000000000e+02,7.200000000000000000e+01,5.500000000000000000e+01,7.199999999999999734e-01,6.441405200000000000e+09
1.560000000000000000e+02,3.580000000000000000e+02,9.520000000000000000e+02,1.580000000000000000e+02,6.100000000000000000e+01,3.970000000000000000e+02,7.500000000000000000e+01,4.800000000000000000e+01,7.199999999999999734e-01,6.441417600000000000e+09
1.650000000000000000e+02,4.060000000000000000e+02,9.540000000000000000e+02,1.450000000000000000e+02,7.100000000000000000e+01,4.430000000000000000e+02,1.030000000000000000e+02,5.600000000000000000e+01,7.099999999999999645e-01,6.459958900000000000e+09
1.670000000000000000e+02,3.850000000000000000e+02,9.380000000000000000e+02,1.430000000000000000e+02,6.800000000000000000e+01,3.710000000000000000e+02,1.060000000000000000e+02,5.700000000000000000e+01,6.999999999999999556e-01,6.481259900000000000e+09
1.220000000000000000e+02,3.540000000000000000e+02,8.840000000000000000e+02,1.510000000000000000e+02,6.800000000000000000e+01,3.240000000000000000e+02,1.050000000000000000e+02,5.400000000000000000e+01,6.899999999999999467e-01,6.499969500000000000e+09
1.630000000000000000e+02,3.550000000000000000e+02,8.650000000000000000e+02,1.490000000000000000e+02,6.700000000000000000e+01,3.250000000000000000e+02,1.050000000000000000e+02,5.700000000000000000e+01,6.800000000000000488e-01,6.521044900000000000e+09
2.020000000000000000e+02,3.540000000000000000e+02,9.210000000000000000e+02,1.730000000000000000e+02,6.500000000000000000e+01,3.160000000000000000e+02,1.040000000000000000e+02,5.600000000000000000e+01,6.700000000000000400e-01,6.539584000000000000e+09
1.930000000000000000e+02,3.060000000000000000e+02,8.040000000000000000e+02,1.820000000000000000e+02,5.400000000000000000e+01,1.170000000000000000e+02,7.200000000000000000e+01,4.700000000000000000e+01,6.600000000000000311e-01,6.561383600000000000e+09
2.210000000000000000e+02,3.170000000000000000e+02,8.720000000000000000e+02,1.830000000000000000e+02,5.400000000000000000e+01,1.710000000000000000e+02,7.400000000000000000e+01,4.500000000000000000e+01,6.500000000000000222e-01,6.579875400000000000e+09
2.410000000000000000e+02,3.780000000000000000e+02,8.370000000000000000e+02,1.820000000000000000e+02,5.500000000000000000e+01,2.220000000000000000e+02,8.100000000000000000e+01,5.500000000000000000e+01,6.400000000000000133e-01,6.601231600000000000e+09
2.220000000000000000e+02,3.830000000000000000e+02,8.560000000000000000e+02,1.790000000000000000e+02,5.800000000000000000e+01,2.670000000000000000e+02,9.900000000000000000e+01,5.600000000000000000e+01,6.300000000000000044e-01,6.620029800000000000e+09
1.930000000000000000e+02,3.780000000000000000e+02,7.720000000000000000e+02,1.520000000000000000e+02,5.600000000000000000e+01,3.230000000000000000e+02,1.040000000000000000e+02,5.900000000000000000e+01,6.099999999999999867e-01,6.659682400000000000e+09
2.010000000000000000e+02,3.830000000000000000e+02,7.480000000000000000e+02,1.510000000000000000e+02,5.800000000000000000e+01,3.340000000000000000e+02,1.070000000000000000e+02,6.300000000000000000e+01,6.099999999999999867e-01,6.659694500000000000e+09
1.870000000000000000e+02,4.220000000000000000e+02,6.520000000000000000e+02,1.680000000000000000e+02,5.900000000000000000e+01,3.070000000000000000e+02,1.010000000000000000e+02,6.400000000000000000e+01,5.999999999999999778e-01,6.680861200000000000e+09
1.620000000000000000e+02,3.630000000000000000e+02,6.890000000000000000e+02,1.620000000000000000e+02,6.200000000000000000e+01,3.040000000000000000e+02,1.350000000000000000e+02,6.400000000000000000e+01,5.899999999999999689e-01,6.699381900000000000e+09
1.590000000000000000e+02,3.730000000000000000e+02,7.100000000000000000e+02,1.710000000000000000e+02,6.100000000000000000e+01,3.530000000000000000e+02,1.410000000000000000e+02,6.900000000000000000e+01,5.799999999999999600e-01,6.720682400000000000e+09
1.470000000000000000e+02,3.730000000000000000e+02,7.520000000000000000e+02,1.750000000000000000e+02,6.100000000000000000e+01,3.110000000000000000e+02,1.380000000000000000e+02,8.300000000000000000e+01,5.600000000000000533e-01,6.761084300000000000e+09
1.650000000000000000e+02,3.690000000000000000e+02,7.650000000000000000e+02,1.550000000000000000e+02,5.300000000000000000e+01,3.030000000000000000e+02,1.340000000000000000e+02,8.300000000000000000e+01,5.600000000000000533e-01,6.761095800000000000e+09
1.590000000000000000e+02,3.730000000000000000e+02,8.990000000000000000e+02,1.780000000000000000e+02,6.100000000000000000e+01,3.020000000000000000e+02,1.550000000000000000e+02,8.900000000000000000e+01,5.400000000000000355e-01,6.801146200000000000e+09
1.630000000000000000e+02,3.690000000000000000e+02,8.680000000000000000e+02,1.700000000000000000e+02,5.600000000000000000e+01,2.800000000000000000e+02,1.230000000000000000e+02,8.200000000000000000e+01,5.400000000000000355e-01,6.801163200000000000e+09
1.680000000000000000e+02,3.800000000000000000e+02,8.680000000000000000e+02,1.640000000000000000e+02,5.700000000000000000e+01,2.580000000000000000e+02,1.270000000000000000e+02,7.900000000000000000e+01,5.300000000000000266e-01,6.823440000000000000e+09
1.710000000000000000e+02,3.750000000000000000e+02,8.310000000000000000e+02,1.650000000000000000e+02,6.500000000000000000e+01,2.590000000000000000e+02,1.250000000000000000e+02,6.200000000000000000e+01,5.200000000000000178e-01,6.839940900000000000e+09
1.500000000000000000e+02,3.710000000000000000e+02,8.480000000000000000e+02,1.870000000000000000e+02,7.000000000000000000e+01,2.560000000000000000e+02,1.270000000000000000e+02,5.900000000000000000e+01,5.000000000000000000e-01,6.880783000000000000e+09
1.630000000000000000e+02,3.620000000000000000e+02,7.600000000000000000e+02,1.680000000000000000e+02,6.500000000000000000e+01,2.500000000000000000e+02,1.000000000000000000e+02,5.600000000000000000e+01,5.000000000000000000e-01,6.880812400000000000e+09
1.720000000000000000e+02,3.450000000000000000e+02,8.190000000000000000e+02,1.740000000000000000e+02,6.600000000000000000e+01,2.380000000000000000e+02,1.040000000000000000e+02,5.800000000000000000e+01,4.899999999999999911e-01,6.899940700000000000e+09
1.630000000000000000e+02,3.050000000000000000e+02,7.950000000000000000e+02,1.710000000000000000e+02,6.200000000000000000e+01,1.320000000000000000e+02,9.600000000000000000e+01,6.000000000000000000e+01,4.799999999999999822e-01,6.921562000000000000e+09
1.650000000000000000e+02,3.220000000000000000e+02,8.990000000000000000e+02,1.690000000000000000e+02,6.300000000000000000e+01,1.870000000000000000e+02,1.090000000000000000e+02,6.400000000000000000e+01,4.600000000000000200e-01,6.959429300000000000e+09
1.630000000000000000e+02,3.200000000000000000e+02,1.040000000000000000e+03,1.650000000000000000e+02,6.400000000000000000e+01,1.980000000000000000e+02,1.150000000000000000e+02,6.100000000000000000e+01,4.600000000000000200e-01,6.959440500000000000e+09
1.350000000000000000e+02,2.680000000000000000e+02,9.980000000000000000e+02,1.640000000000000000e+02,6.600000000000000000e+01,2.000000000000000000e+02,1.120000000000000000e+02,5.900000000000000000e+01,4.500000000000000111e-01,6.980703900000000000e+09
1.380000000000000000e+02,2.870000000000000000e+02,9.310000000000000000e+02,1.730000000000000000e+02,6.700000000000000000e+01,1.970000000000000000e+02,1.170000000000000000e+02,6.100000000000000000e+01,4.299999999999999933e-01,7.020658200000000000e+09
1.400000000000000000e+02,3.440000000000000000e+02,9.710000000000000000e+02,1.990000000000000000e+02,7.600000000000000000e+01,2.190000000000000000e+02,1.140000000000000000e+02,6.100000000000000000e+01,4.299999999999999933e-01,7.020670100000000000e+09
1.350000000000000000e+02,3.300000000000000000e+02,9.280000000000000000e+02,1.940000000000000000e+02,7.000000000000000000e+01,2.180000000000000000e+02,1.060000000000000000e+02,5.800000000000000000e+01,4.099999999999999756e-01,7.060945100000000000e+09
1.250000000000000000e+02,3.600000000000000000e+02,8.160000000000000000e+02,2.070000000000000000e+02,7.100000000000000000e+01,2.210000000000000000e+02,9.900000000000000000e+01,5.900000000000000000e+01,4.000000000000000222e-01,7.079904300000000000e+09
1.300000000000000000e+02,4.060000000000000000e+02,9.220000000000000000e+02,1.900000000000000000e+02,6.800000000000000000e+01,2.230000000000000000e+02,1.020000000000000000e+02,5.500000000000000000e+01,4.000000000000000222e-01,7.079916100000000000e+09
1.220000000000000000e+02,4.070000000000000000e+02,1.020000000000000000e+03,1.940000000000000000e+02,6.700000000000000000e+01,2.250000000000000000e+02,1.000000000000000000e+02,5.300000000000000000e+01,3.900000000000000133e-01,7.100856900000000000e+09
1.360000000000000000e+02,3.840000000000000000e+02,9.930000000000000000e+02,1.840000000000000000e+02,6.500000000000000000e+01,2.340000000000000000e+02,9.100000000000000000e+01,4.700000000000000000e+01,3.800000000000000044e-01,7.119393700000000000e+09
1.360000000000000000e+02,3.740000000000000000e+02,1.008000000000000000e+03,1.900000000000000000e+02,7.000000000000000000e+01,2.030000000000000000e+02,9.900000000000000000e+01,4.500000000000000000e+01,3.699999999999999956e-01,7.140645300000000000e+09
1.500000000000000000e+02,3.610000000000000000e+02,1.007000000000000000e+03,2.260000000000000000e+02,7.700000000000000000e+01,1.880000000000000000e+02,9.600000000000000000e+01,5.300000000000000000e+01,3.499999999999999778e-01,7.181436000000000000e+09
1.590000000000000000e+02,3.720000000000000000e+02,9.490000000000000000e+02,2.410000000000000000e+02,8.800000000000000000e+01,1.860000000000000000e+02,9.600000000000000000e+01,5.900000000000000000e+01,3.499999999999999778e-01,7.181447200000000000e+09
1.480000000000000000e+02,4.090000000000000000e+02,9.020000000000000000e+02,2.350000000000000000e+02,8.800000000000000000e+01,1.830000000000000000e+02,8.700000000000000000e+01,5.600000000000000000e+01,3.400000000000000244e-01,7.200308200000000000e+09
1.390000000000000000e+02,4.470000000000000000e+02,8.900000000000000000e+02,2.400000000000000000e+02,9.000000000000000000e+01,1.600000000000000000e+02,1.040000000000000000e+02,6.200000000000000000e+01,3.300000000000000155e-01,7.221824000000000000e+09
1.530000000000000000e+02,5.120000000000000000e+02,8.180000000000000000e+02,2.620000000000000000e+02,9.700000000000000000e+01,1.740000000000000000e+02,9.500000000000000000e+01,7.100000000000000000e+01,3.200000000000000067e-01,7.240417300000000000e+09
1.580000000000000000e+02,5.590000000000000000e+02,8.220000000000000000e+02,2.440000000000000000e+02,9.900000000000000000e+01,1.970000000000000000e+02,1.070000000000000000e+02,7.200000000000000000e+01,3.099999999999999978e-01,7.261817900000000000e+09
1.540000000000000000e+02,6.290000000000000000e+02,8.350000000000000000e+02,2.440000000000000000e+02,1.070000000000000000e+02,2.010000000000000000e+02,1.110000000000000000e+02,7.600000000000000000e+01,2.899999999999999800e-01,7.301670300000000000e+09
1.660000000000000000e+02,6.310000000000000000e+02,8.440000000000000000e+02,2.680000000000000000e+02,1.140000000000000000e+02,2.020000000000000000e+02,1.120000000000000000e+02,8.300000000000000000e+01,2.800000000000000266e-01,7.320470900000000000e+09
1.770000000000000000e+02,6.670000000000000000e+02,1.036000000000000000e+03,2.800000000000000000e+02,1.150000000000000000e+02,1.840000000000000000e+02,9.600000000000000000e+01,8.400000000000000000e+01,2.800000000000000266e-01,7.320482000000000000e+09
1.680000000000000000e+02,6.360000000000000000e+02,1.151000000000000000e+03,2.780000000000000000e+02,1.120000000000000000e+02,1.600000000000000000e+02,9.500000000000000000e+01,7.900000000000000000e+01,2.600000000000000089e-01,7.360396900000000000e+09
1.610000000000000000e+02,6.240000000000000000e+02,1.206000000000000000e+03,2.680000000000000000e+02,1.090000000000000000e+02,1.290000000000000000e+02,8.200000000000000000e+01,7.800000000000000000e+01,2.600000000000000089e-01,7.360427800000000000e+09
1.620000000000000000e+02,5.410000000000000000e+02,1.232000000000000000e+03,2.950000000000000000e+02,1.040000000000000000e+02,1.210000000000000000e+02,7.900000000000000000e+01,7.700000000000000000e+01,2.500000000000000000e-01,7.379521700000000000e+09
1.680000000000000000e+02,5.560000000000000000e+02,1.231000000000000000e+03,3.140000000000000000e+02,1.100000000000000000e+02,1.180000000000000000e+02,8.100000000000000000e+01,8.000000000000000000e+01,2.399999999999999911e-01,7.400695100000000000e+09
1.630000000000000000e+02,5.790000000000000000e+02,1.177000000000000000e+03,3.240000000000000000e+02,1.100000000000000000e+02,1.150000000000000000e+02,6.800000000000000000e+01,7.900000000000000000e+01,2.300000000000000100e-01,7.419383900000000000e+09
1.940000000000000000e+02,6.890000000000000000e+02,1.128000000000000000e+03,3.430000000000000000e+02,1.270000000000000000e+02,1.040000000000000000e+02,7.300000000000000000e+01,9.000000000000000000e+01,2.200000000000000011e-01,7.440374700000000000e+09
1.960000000000000000e+02,6.860000000000000000e+02,1.089000000000000000e+03,3.650000000000000000e+02,1.320000000000000000e+02,1.100000000000000000e+02,7.800000000000000000e+01,9.300000000000000000e+01,2.000000000000000111e-01,7.479613800000000000e+09
2.110000000000000000e+02,7.160000000000000000e+02,1.047000000000000000e+03,3.870000000000000000e+02,1.390000000000000000e+02,1.140000000000000000e+02,8.100000000000000000e+01,9.800000000000000000e+01,2.000000000000000111e-01,7.479626100000000000e+09
2.180000000000000000e+02,7.590000000000000000e+02,1.057000000000000000e+03,3.840000000000000000e+02,1.410000000000000000e+02,1.240000000000000000e+02,8.500000000000000000e+01,9.800000000000000000e+01,1.799999999999999933e-01,7.519441800000000000e+09
2.440000000000000000e+02,7.470000000000000000e+02,1.113000000000000000e+03,4.350000000000000000e+02,1.600000000000000000e+02,1.290000000000000000e+02,9.000000000000000000e+01,1.150000000000000000e+02,1.700000000000000122e-01,7.540612200000000000e+09
2.520000000000000000e+02,7.030000000000000000e+02,1.162000000000000000e+03,4.600000000000000000e+02,1.600000000000000000e+02,1.220000000000000000e+02,8.900000000000000000e+01,1.240000000000000000e+02,1.700000000000000122e-01,7.540626000000000000e+09
2.740000000000000000e+02,7.310000000000000000e+02,1.141000000000000000e+03,4.650000000000000000e+02,1.610000000000000000e+02,1.170000000000000000e+02,9.100000000000000000e+01,1.290000000000000000e+02,1.499999999999999944e-01,7.581078700000000000e+09
3.250000000000000000e+02,8.870000000000000000e+02,1.205000000000000000e+03,5.700000000000000000e+02,1.820000000000000000e+02,1.330000000000000000e+02,1.010000000000000000e+02,1.530000000000000000e+02,1.499999999999999944e-01,7.581089900000000000e+09
3.480000000000000000e+02,9.330000000000000000e+02,1.193000000000000000e+03,6.260000000000000000e+02,2.000000000000000000e+02,1.590000000000000000e+02,1.260000000000000000e+02,1.670000000000000000e+02,1.300000000000000044e-01,7.620948000000000000e+09
3.900000000000000000e+02,1.034000000000000000e+03,1.113000000000000000e+03,6.930000000000000000e+02,2.200000000000000000e+02,1.630000000000000000e+02,1.310000000000000000e+02,1.820000000000000000e+02,1.300000000000000044e-01,7.620960700000000000e+09
4.080000000000000000e+02,1.087000000000000000e+03,1.047000000000000000e+03,7.130000000000000000e+02,2.240000000000000000e+02,1.860000000000000000e+02,1.400000000000000000e+02,1.850000000000000000e+02,1.100000000000000006e-01,7.660989300000000000e+09
4.130000000000000000e+02,1.082000000000000000e+03,1.130000000000000000e+03,7.470000000000000000e+02,2.330000000000000000e+02,2.230000000000000000e+02,1.450000000000000000e+02,1.980000000000000000e+02,1.000000000000000056e-01,7.680116200000000000e+09
3.690000000000000000e+02,9.410000000000000000e+02,1.165000000000000000e+03,6.580000000000000000e+02,2.140000000000000000e+02,2.220000000000000000e+02,1.450000000000000000e+02,1.780000000000000000e+02,1.000000000000000056e-01,7.680127200000000000e+09
3.580000000000000000e+02,9.040000000000000000e+02,1.209000000000000000e+03,6.400000000000000000e+02,2.100000000000000000e+02,2.070000000000000000e+02,1.260000000000000000e+02,1.750000000000000000e+02,8.999999999999999667e-02,7.701458600000000000e+09
3.130000000000000000e+02,8.010000000000000000e+02,1.215000000000000000e+03,5.360000000000000000e+02,1.780000000000000000e+02,2.250000000000000000e+02,1.250000000000000000e+02,1.500000000000000000e+02,7.000000000000000666e-02,7.741334600000000000e+09
2.860000000000000000e+02,6.880000000000000000e+02,1.270000000000000000e+03,4.760000000000000000e+02,1.690000000000000000e+02,2.230000000000000000e+02,1.140000000000000000e+02,1.430000000000000000e+02,5.999999999999999778e-02,7.760204600000000000e+09
2.720000000000000000e+02,6.840000000000000000e+02,1.236000000000000000e+03,4.180000000000000000e+02,1.660000000000000000e+02,2.250000000000000000e+02,1.290000000000000000e+02,1.720000000000000000e+02,5.999999999999999778e-02,7.760215300000000000e+09
2.860000000000000000e+02,7.310000000000000000e+02,1.246000000000000000e+03,4.230000000000000000e+02,1.740000000000000000e+02,2.750000000000000000e+02,1.210000000000000000e+02,1.830000000000000000e+02,4.000000000000000083e-02,7.800515700000000000e+09
3.110000000000000000e+02,7.980000000000000000e+02,1.191000000000000000e+03,3.750000000000000000e+02,1.730000000000000000e+02,3.320000000000000000e+02,1.240000000000000000e+02,1.890000000000000000e+02,4.000000000000000083e-02,7.800526300000000000e+09
3.280000000000000000e+02,8.100000000000000000e+02,1.206000000000000000e+03,4.130000000000000000e+02,1.850000000000000000e+02,3.390000000000000000e+02,1.190000000000000000e+02,1.950000000000000000e+02,2.000000000000000042e-02,7.839988400000000000e+09
3.240000000000000000e+02,8.510000000000000000e+02,1.230000000000000000e+03,4.580000000000000000e+02,1.860000000000000000e+02,3.530000000000000000e+02,1.300000000000000000e+02,2.210000000000000000e+02,1.000000000000000021e-02,7.861041400000000000e+09
3.150000000000000000e+02,8.360000000000000000e+02,1.157000000000000000e+03,4.730000000000000000e+02,1.840000000000000000e+02,3.850000000000000000e+02,1.480000000000000000e+02,1.920000000000000000e+02,1.000000000000000021e-02,7.861058100000000000e+09
2.910000000000000000e+02,7.770000000000000000e+02,1.099000000000000000e+03,4.470000000000000000e+02,1.710000000000000000e+02,4.000000000000000000e+02,1.470000000000000000e+02,1.890000000000000000e+02,1.000000000000000021e-02,7.900355600000000000e+09
2.650000000000000000e+02,7.000000000000000000e+02,1.096000000000000000e+03,4.520000000000000000e+02,1.670000000000000000e+02,3.640000000000000000e+02,1.440000000000000000e+02,1.850000000000000000e+02,2.000000000000000042e-02,7.921690300000000000e+09
2.240000000000000000e+02,6.280000000000000000e+02,1.018000000000000000e+03,4.010000000000000000e+02,1.520000000000000000e+02,4.240000000000000000e+02,1.740000000000000000e+02,1.910000000000000000e+02,2.000000000000000042e-02,7.921702700000000000e+09
1.980000000000000000e+02,5.350000000000000000e+02,8.470000000000000000e+02,3.400000000000000000e+02,1.450000000000000000e+02,6.110000000000000000e+02,2.100000000000000000e+02,2.620000000000000000e+02,2.999999999999999889e-02,7.940236100000000000e+09
1.830000000000000000e+02,4.820000000000000000e+02,9.320000000000000000e+02,2.710000000000000000e+02,1.280000000000000000e+02,6.930000000000000000e+02,2.180000000000000000e+02,3.890000000000000000e+02,5.000000000000000278e-02,7.980857100000000000e+09
1.960000000000000000e+02,5.220000000000000000e+02,9.120000000000000000e+02,2.930000000000000000e+02,1.370000000000000000e+02,6.970000000000000000e+02,2.700000000000000000e+02,4.550000000000000000e+02,5.000000000000000278e-02,7.980868200000000000e+09
1.590000000000000000e+02,4.700000000000000000e+02,8.900000000000000000e+02,2.470000000000000000e+02,1.160000000000000000e+02,7.510000000000000000e+02,3.500000000000000000e+02,5.930000000000000000e+02,5.999999999999999778e-02,8.001716900000000000e+09
1.480000000000000000e+02,4.390000000000000000e+02,8.410000000000000000e+02,2.110000000000000000e+02,1.290000000000000000e+02,7.960000000000000000e+02,4.660000000000000000e+02,6.910000000000000000e+02,8.000000000000000167e-02,8.039619000000000000e+09
1.660000000000000000e+02,4.580000000000000000e+02,8.340000000000000000e+02,1.970000000000000000e+02,1.220000000000000000e+02,7.640000000000000000e+02,6.640000000000000000e+02,8.100000000000000000e+02,8.000000000000000167e-02,8.039655800000000000e+09
1.740000000000000000e+02,5.280000000000000000e+02,7.900000000000000000e+02,2.040000000000000000e+02,1.210000000000000000e+02,7.370000000000000000e+02,7.290000000000000000e+02,8.140000000000000000e+02,1.000000000000000056e-01,8.079441700000000000e+09
1.760000000000000000e+02,5.210000000000000000e+02,7.240000000000000000e+02,1.880000000000000000e+02,1.140000000000000000e+02,7.810000000000000000e+02,7.910000000000000000e+02,1.006000000000000000e+03,1.100000000000000006e-01,8.101389800000000000e+09
2.100000000000000000e+02,4.540000000000000000e+02,6.860000000000000000e+02,1.720000000000000000e+02,1.230000000000000000e+02,7.560000000000000000e+02,8.260000000000000000e+02,9.650000000000000000e+02,1.100000000000000006e-01,8.101401400000000000e+09
2.800000000000000000e+02,5.590000000000000000e+02,7.170000000000000000e+02,1.900000000000000000e+02,1.110000000000000000e+02,7.700000000000000000e+02,8.120000000000000000e+02,9.190000000000000000e+02,1.300000000000000044e-01,8.140903800000000000e+09
2.850000000000000000e+02,5.650000000000000000e+02,8.140000000000000000e+02,1.960000000000000000e+02,1.220000000000000000e+02,7.750000000000000000e+02,7.200000000000000000e+02,9.200000000000000000e+02,1.400000000000000133e-01,8.160823900000000000e+09
2.840000000000000000e+02,5.010000000000000000e+02,7.630000000000000000e+02,1.810000000000000000e+02,1.240000000000000000e+02,7.470000000000000000e+02,7.100000000000000000e+02,9.100000000000000000e+02,1.499999999999999944e-01,8.179582200000000000e+09
2.790000000000000000e+02,4.950000000000000000e+02,7.110000000000000000e+02,1.600000000000000000e+02,1.270000000000000000e+02,7.700000000000000000e+02,7.010000000000000000e+02,6.930000000000000000e+02,1.600000000000000033e-01,8.201190900000000000e+09
2.690000000000000000e+02,5.030000000000000000e+02,7.110000000000000000e+02,1.500000000000000000e+02,1.210000000000000000e+02,8.930000000000000000e+02,7.950000000000000000e+02,7.490000000000000000e+02,1.700000000000000122e-01,8.220298800000000000e+09
2.280000000000000000e+02,4.710000000000000000e+02,7.500000000000000000e+02,1.610000000000000000e+02,1.180000000000000000e+02,8.200000000000000000e+02,7.870000000000000000e+02,7.680000000000000000e+02,1.700000000000000122e-01,8.220316400000000000e+09
2.250000000000000000e+02,4.540000000000000000e+02,7.530000000000000000e+02,1.600000000000000000e+02,1.050000000000000000e+02,7.230000000000000000e+02,7.450000000000000000e+02,6.900000000000000000e+02,1.799999999999999933e-01,8.241318100000000000e+09
2.230000000000000000e+02,4.640000000000000000e+02,7.100000000000000000e+02,1.560000000000000000e+02,1.010000000000000000e+02,7.280000000000000000e+02,7.160000000000000000e+02,6.760000000000000000e+02,2.000000000000000111e-01,8.281116900000000000e+09
2.450000000000000000e+02,4.340000000000000000e+02,7.050000000000000000e+02,1.520000000000000000e+02,9.500000000000000000e+01,6.880000000000000000e+02,7.750000000000000000e+02,7.560000000000000000e+02,2.000000000000000111e-01,8.281128900000000000e+09
2.220000000000000000e+02,4.440000000000000000e+02,7.040000000000000000e+02,1.520000000000000000e+02,7.800000000000000000e+01,4.900000000000000000e+02,6.700000000000000000e+02,7.080000000000000000e+02,2.200000000000000011e-01,8.321329800000000000e+09
2.100000000000000000e+02,4.230000000000000000e+02,6.570000000000000000e+02,1.770000000000000000e+02,8.500000000000000000e+01,4.940000000000000000e+02,6.570000000000000000e+02,7.100000000000000000e+02,2.300000000000000100e-01,8.339806400000000000e+09
2.010000000000000000e+02,4.730000000000000000e+02,5.180000000000000000e+02,1.750000000000000000e+02,1.000000000000000000e+02,5.250000000000000000e+02,6.880000000000000000e+02,6.530000000000000000e+02,2.300000000000000100e-01,8.339819700000000000e+09
2.150000000000000000e+02,4.640000000000000000e+02,4.830000000000000000e+02,1.720000000000000000e+02,9.900000000000000000e+01,5.210000000000000000e+02,7.410000000000000000e+02,7.080000000000000000e+02,2.399999999999999911e-01,8.361465400000000000e+09
1.920000000000000000e+02,4.570000000000000000e+02,4.840000000000000000e+02,1.710000000000000000e+02,9.200000000000000000e+01,4.760000000000000000e+02,7.000000000000000000e+02,6.230000000000000000e+02,2.600000000000000089e-01,8.401542400000000000e+09
1.930000000000000000e+02,4.730000000000000000e+02,5.750000000000000000e+02,1.800000000000000000e+02,9.500000000000000000e+01,4.580000000000000000e+02,6.610000000000000000e+02,6.010000000000000000e+02,2.600000000000000089e-01,8.401553600000000000e+09
1.970000000000000000e+02,4.240000000000000000e+02,5.410000000000000000e+02,1.120000000000000000e+02,7.900000000000000000e+01,4.560000000000000000e+02,7.470000000000000000e+02,5.620000000000000000e+02,2.800000000000000266e-01,8.441619700000000000e+09
2.570000000000000000e+02,3.920000000000000000e+02,5.520000000000000000e+02,8.700000000000000000e+01,5.500000000000000000e+01,4.320000000000000000e+02,7.570000000000000000e+02,5.950000000000000000e+02,2.899999999999999800e-01,8.461442200000000000e+09
2.910000000000000000e+02,4.100000000000000000e+02,5.640000000000000000e+02,9.300000000000000000e+01,5.300000000000000000e+01,3.630000000000000000e+02,6.930000000000000000e+02,5.230000000000000000e+02,2.999999999999999889e-01,8.480074100000000000e+09
3.220000000000000000e+02,4.180000000000000000e+02,5.490000000000000000e+02,9.500000000000000000e+01,5.700000000000000000e+01,3.560000000000000000e+02,6.830000000000000000e+02,5.240000000000000000e+02,3.099999999999999978e-01,8.501712400000000000e+09
3.430000000000000000e+02,4.210000000000000000e+02,5.010000000000000000e+02,8.600000000000000000e+01,5.600000000000000000e+01,3.590000000000000000e+02,6.950000000000000000e+02,4.860000000000000000e+02,3.200000000000000067e-01,8.520477100000000000e+09
3.470000000000000000e+02,4.200000000000000000e+02,4.890000000000000000e+02,8.900000000000000000e+01,5.700000000000000000e+01,3.680000000000000000e+02,5.810000000000000000e+02,4.720000000000000000e+02,3.300000000000000155e-01,8.539276900000000000e+09
3.060000000000000000e+02,4.250000000000000000e+02,4.470000000000000000e+02,1.010000000000000000e+02,6.100000000000000000e+01,3.390000000000000000e+02,5.500000000000000000e+02,4.130000000000000000e+02,3.400000000000000244e-01,8.560894200000000000e+09
2.620000000000000000e+02,4.250000000000000000e+02,4.340000000000000000e+02,9.800000000000000000e+01,6.600000000000000000e+01,3.760000000000000000e+02,6.300000000000000000e+02,4.010000000000000000e+02,3.499999999999999778e-01,8.579450900000000000e+09
2.260000000000000000e+02,4.160000000000000000e+02,4.270000000000000000e+02,9.400000000000000000e+01,6.200000000000000000e+01,3.840000000000000000e+02,5.860000000000000000e+02,3.910000000000000000e+02,3.599999999999999867e-01,8.600607900000000000e+09
2.270000000000000000e+02,3.800000000000000000e+02,3.300000000000000000e+02,8.300000000000000000e+01,5.800000000000000000e+01,3.960000000000000000e+02,6.280000000000000000e+02,4.200000000000000000e+02,3.599999999999999867e-01,8.600624000000000000e+09
2.240000000000000000e+02,3.800000000000000000e+02,3.910000000000000000e+02,8.700000000000000000e+01,5.700000000000000000e+01,4.090000000000000000e+02,6.540000000000000000e+02,4.170000000000000000e+02,3.800000000000000044e-01,8.640974200000000000e+09
2.160000000000000000e+02,3.540000000000000000e+02,3.660000000000000000e+02,7.000000000000000000e+01,5.700000000000000000e+01,4.150000000000000000e+02,6.440000000000000000e+02,4.270000000000000000e+02,3.900000000000000133e-01,8.659886500000000000e+09
2.360000000000000000e+02,3.840000000000000000e+02,3.710000000000000000e+02,7.000000000000000000e+01,5.200000000000000000e+01,5.120000000000000000e+02,5.880000000000000000e+02,4.300000000000000000e+02,4.000000000000000222e-01,8.681079400000000000e+09
2.440000000000000000e+02,3.830000000000000000e+02,3.840000000000000000e+02,6.600000000000000000e+01,5.400000000000000000e+01,5.010000000000000000e+02,5.630000000000000000e+02,3.710000000000000000e+02,4.099999999999999756e-01,8.699610900000000000e+09
2.610000000000000000e+02,3.890000000000000000e+02,4.420000000000000000e+02,6.400000000000000000e+01,5.600000000000000000e+01,5.120000000000000000e+02,5.440000000000000000e+02,3.660000000000000000e+02,4.199999999999999845e-01,8.720812200000000000e+09
2.580000000000000000e+02,3.720000000000000000e+02,4.360000000000000000e+02,5.200000000000000000e+01,5.500000000000000000e+01,4.860000000000000000e+02,5.180000000000000000e+02,4.120000000000000000e+02,4.299999999999999933e-01,8.739269700000000000e+09
2.640000000000000000e+02,3.820000000000000000e+02,4.680000000000000000e+02,7.000000000000000000e+01,5.300000000000000000e+01,5.020000000000000000e+02,5.160000000000000000e+02,4.140000000000000000e+02,4.400000000000000022e-01,8.760968000000000000e+09
2.580000000000000000e+02,3.630000000000000000e+02,4.950000000000000000e+02,7.600000000000000000e+01,5.500000000000000000e+01,5.050000000000000000e+02,5.200000000000000000e+02,4.140000000000000000e+02,4.500000000000000111e-01,8.779393500000000000e+09
2.650000000000000000e+02,3.630000000000000000e+02,4.870000000000000000e+02,7.700000000000000000e+01,5.600000000000000000e+01,4.930000000000000000e+02,5.520000000000000000e+02,4.600000000000000000e+02,4.600000000000000200e-01,8.801570600000000000e+09
2.540000000000000000e+02,3.460000000000000000e+02,4.360000000000000000e+02,7.600000000000000000e+01,6.100000000000000000e+01,4.930000000000000000e+02,4.940000000000000000e+02,4.650000000000000000e+02,4.699999999999999734e-01,8.820132500000000000e+09
2.300000000000000000e+02,3.490000000000000000e+02,3.940000000000000000e+02,8.000000000000000000e+01,6.400000000000000000e+01,5.400000000000000000e+02,5.230000000000000000e+02,4.610000000000000000e+02,4.799999999999999822e-01,8.841325500000000000e+09
2.290000000000000000e+02,3.300000000000000000e+02,4.070000000000000000e+02,6.900000000000000000e+01,6.500000000000000000e+01,5.870000000000000000e+02,5.620000000000000000e+02,4.600000000000000000e+02,4.799999999999999822e-01,8.841336100000000000e+09
2.390000000000000000e+02,3.070000000000000000e+02,4.140000000000000000e+02,6.700000000000000000e+01,6.500000000000000000e+01,4.840000000000000000e+02,5.900000000000000000e+02,5.270000000000000000e+02,5.000000000000000000e-01,8.881453000000000000e+09
2.270000000000000000e+02,3.080000000000000000e+02,4.290000000000000000e+02,6.600000000000000000e+01,6.900000000000000000e+01,5.660000000000000000e+02,5.940000000000000000e+02,5.500000000000000000e+02,5.100000000000000089e-01,8.900008400000000000e+09
2.030000000000000000e+02,3.190000000000000000e+02,4.640000000000000000e+02,6.700000000000000000e+01,6.800000000000000000e+01,5.700000000000000000e+02,5.940000000000000000e+02,6.000000000000000000e+02,5.200000000000000178e-01,8.921401200000000000e+09
2.140000000000000000e+02,3.300000000000000000e+02,5.360000000000000000e+02,7.200000000000000000e+01,6.700000000000000000e+01,5.280000000000000000e+02,6.070000000000000000e+02,5.880000000000000000e+02,5.300000000000000266e-01,8.939790200000000000e+09
2.090000000000000000e+02,3.260000000000000000e+02,5.120000000000000000e+02,7.000000000000000000e+01,6.500000000000000000e+01,4.970000000000000000e+02,6.620000000000000000e+02,5.930000000000000000e+02,5.400000000000000355e-01,8.961092800000000000e+09
2.030000000000000000e+02,3.740000000000000000e+02,4.780000000000000000e+02,6.700000000000000000e+01,6.300000000000000000e+01,5.100000000000000000e+02,6.210000000000000000e+02,5.230000000000000000e+02,5.400000000000000355e-01,8.961104500000000000e+09
2.160000000000000000e+02,3.740000000000000000e+02,4.680000000000000000e+02,6.600000000000000000e+01,5.700000000000000000e+01,4.570000000000000000e+02,6.780000000000000000e+02,5.160000000000000000e+02,5.600000000000000533e-01,9.000633500000000000e+09
2.140000000000000000e+02,4.030000000000000000e+02,4.320000000000000000e+02,6.700000000000000000e+01,6.400000000000000000e+01,5.480000000000000000e+02,7.440000000000000000e+02,5.390000000000000000e+02,5.699999999999999512e-01,9.019255600000000000e+09
2.270000000000000000e+02,4.090000000000000000e+02,3.810000000000000000e+02,6.000000000000000000e+01,7.000000000000000000e+01,6.010000000000000000e+02,7.390000000000000000e+02,5.940000000000000000e+02,5.799999999999999600e-01,9.040404800000000000e+09
2.460000000000000000e+02,4.130000000000000000e+02,4.020000000000000000e+02,6.400000000000000000e+01,7.300000000000000000e+01,6.730000000000000000e+02,6.990000000000000000e+02,6.560000000000000000e+02,5.899999999999999689e-01,9.059549500000000000e+09
2.320000000000000000e+02,3.650000000000000000e+02,4.380000000000000000e+02,6.100000000000000000e+01,7.600000000000000000e+01,7.130000000000000000e+02,7.110000000000000000e+02,7.140000000000000000e+02,5.999999999999999778e-01,9.079680500000000000e+09
2.220000000000000000e+02,3.660000000000000000e+02,4.340000000000000000e+02,6.000000000000000000e+01,7.800000000000000000e+01,6.950000000000000000e+02,6.300000000000000000e+02,7.190000000000000000e+02,6.099999999999999867e-01,9.100753500000000000e+09
2.300000000000000000e+02,3.700000000000000000e+02,4.630000000000000000e+02,6.700000000000000000e+01,7.100000000000000000e+01,6.960000000000000000e+02,6.040000000000000000e+02,7.280000000000000000e+02,6.199999999999999956e-01,9.119464200000000000e+09
2.270000000000000000e+02,3.450000000000000000e+02,4.490000000000000000e+02,6.200000000000000000e+01,7.100000000000000000e+01,7.380000000000000000e+02,5.870000000000000000e+02,6.730000000000000000e+02,6.300000000000000044e-01,9.140583800000000000e+09
2.150000000000000000e+02,3.550000000000000000e+02,4.970000000000000000e+02,7.800000000000000000e+01,7.800000000000000000e+01,7.100000000000000000e+02,5.850000000000000000e+02,6.830000000000000000e+02,6.300000000000000044e-01,9.140597800000000000e+09
2.260000000000000000e+02,3.730000000000000000e+02,4.820000000000000000e+02,8.100000000000000000e+01,7.700000000000000000e+01,7.350000000000000000e+02,6.170000000000000000e+02,6.390000000000000000e+02,6.500000000000000222e-01,9.180362900000000000e+09
2.360000000000000000e+02,3.700000000000000000e+02,5.110000000000000000e+02,8.400000000000000000e+01,8.400000000000000000e+01,7.630000000000000000e+02,7.090000000000000000e+02,7.070000000000000000e+02,6.600000000000000311e-01,9.199967700000000000e+09
2.200000000000000000e+02,3.110000000000000000e+02,5.440000000000000000e+02,8.000000000000000000e+01,8.700000000000000000e+01,7.820000000000000000e+02,7.400000000000000000e+02,6.630000000000000000e+02,6.700000000000000400e-01,9.219617800000000000e+09
2.130000000000000000e+02,2.900000000000000000e+02,5.310000000000000000e+02,7.900000000000000000e+01,8.500000000000000000e+01,7.200000000000000000e+02,7.370000000000000000e+02,6.990000000000000000e+02,6.800000000000000488e-01,9.240442400000000000e+09
2.070000000000000000e+02,2.700000000000000000e+02,5.030000000000000000e+02,6.300000000000000000e+01,8.700000000000000000e+01,7.120000000000000000e+02,7.370000000000000000e+02,6.780000000000000000e+02,6.899999999999999467e-01,9.259317100000000000e+09
2.110000000000000000e+02,2.500000000000000000e+02,5.130000000000000000e+02,6.500000000000000000e+01,9.000000000000000000e+01,6.980000000000000000e+02,7.490000000000000000e+02,6.820000000000000000e+02,6.999999999999999556e-01,9.280656800000000000e+09
1.980000000000000000e+02,3.620000000000000000e+02,5.030000000000000000e+02,6.300000000000000000e+01,9.200000000000000000e+01,7.160000000000000000e+02,7.230000000000000000e+02,6.050000000000000000e+02,7.099999999999999645e-01,9.299636700000000000e+09
2.120000000000000000e+02,4.200000000000000000e+02,4.770000000000000000e+02,6.200000000000000000e+01,8.800000000000000000e+01,6.250000000000000000e+02,7.200000000000000000e+02,6.560000000000000000e+02,7.199999999999999734e-01,9.321104100000000000e+09
2.080000000000000000e+02,4.510000000000000000e+02,4.500000000000000000e+02,5.700000000000000000e+01,8.500000000000000000e+01,6.430000000000000000e+02,7.710000000000000000e+02,6.870000000000000000e+02,7.199999999999999734e-01,9.321115200000000000e+09
2.220000000000000000e+02,4.450000000000000000e+02,3.900000000000000000e+02,5.400000000000000000e+01,8.500000000000000000e+01,7.160000000000000000e+02,7.740000000000000000e+02,6.990000000000000000e+02,7.399999999999999911e-01,9.360779100000000000e+09
2.330000000000000000e+02,4.780000000000000000e+02,3.600000000000000000e+02,6.300000000000000000e+01,1.020000000000000000e+02,7.010000000000000000e+02,7.700000000000000000e+02,7.290000000000000000e+02,7.500000000000000000e-01,9.379328600000000000e+09
2.630000000000000000e+02,4.420000000000000000e+02,4.100000000000000000e+02,7.800000000000000000e+01,1.230000000000000000e+02,8.080000000000000000e+02,7.580000000000000000e+02,7.240000000000000000e+02,7.600000000000000089e-01,9.400405900000000000e+09
2.960000000000000000e+02,4.250000000000000000e+02,3.910000000000000000e+02,7.900000000000000000e+01,1.320000000000000000e+02,8.890000000000000000e+02,8.220000000000000000e+02,7.620000000000000000e+02,7.700000000000000178e-01,9.419547500000000000e+09
3.180000000000000000e+02,4.670000000000000000e+02,4.010000000000000000e+02,8.800000000000000000e+01,1.400000000000000000e+02,9.990000000000000000e+02,8.180000000000000000e+02,7.820000000000000000e+02,7.800000000000000266e-01,9.441012500000000000e+09
3.080000000000000000e+02,5.170000000000000000e+02,4.090000000000000000e+02,9.000000000000000000e+01,1.410000000000000000e+02,9.900000000000000000e+02,8.470000000000000000e+02,7.680000000000000000e+02,7.800000000000000266e-01,9.441024400000000000e+09
2.960000000000000000e+02,5.330000000000000000e+02,3.960000000000000000e+02,8.500000000000000000e+01,1.510000000000000000e+02,1.110000000000000000e+03,8.980000000000000000e+02,7.580000000000000000e+02,8.000000000000000444e-01,9.481168800000000000e+09
3.060000000000000000e+02,5.380000000000000000e+02,3.180000000000000000e+02,7.700000000000000000e+01,1.430000000000000000e+02,1.131000000000000000e+03,9.530000000000000000e+02,8.530000000000000000e+02,8.100000000000000533e-01,9.499961200000000000e+09
3.010000000000000000e+02,5.730000000000000000e+02,2.950000000000000000e+02,8.100000000000000000e+01,1.700000000000000000e+02,1.258000000000000000e+03,8.850000000000000000e+02,9.090000000000000000e+02,8.199999999999999512e-01,9.520952700000000000e+09
3.320000000000000000e+02,5.740000000000000000e+02,2.930000000000000000e+02,7.400000000000000000e+01,1.700000000000000000e+02,1.227000000000000000e+03,9.460000000000000000e+02,9.070000000000000000e+02,8.299999999999999600e-01,9.539765500000000000e+09
3.620000000000000000e+02,5.910000000000000000e+02,2.970000000000000000e+02,8.600000000000000000e+01,1.790000000000000000e+02,1.304000000000000000e+03,9.890000000000000000e+02,9.570000000000000000e+02,8.399999999999999689e-01,9.560987200000000000e+09
4.520000000000000000e+02,6.380000000000000000e+02,3.870000000000000000e+02,1.080000000000000000e+02,1.850000000000000000e+02,1.243000000000000000e+03,1.052000000000000000e+03,1.001000000000000000e+03,8.499999999999999778e-01,9.579464900000000000e+09
4.480000000000000000e+02,6.380000000000000000e+02,4.190000000000000000e+02,1.230000000000000000e+02,2.050000000000000000e+02,1.268000000000000000e+03,1.031000000000000000e+03,1.015000000000000000e+03,8.599999999999999867e-01,9.601525000000000000e+09
