58,266,675,68,30,28,28,252,0.2,456615000
60,260,614,63,27,34,37,276,0.22,489019200
61,260,761,75,32,40,45,224,0.23,504718300
57,222,776,77,33,38,45,224,0.24,528113300
58,183,747,84,35,37,45,227,0.25,552438700
57,168,710,83,36,37,45,227,0.26,567461800
60,160,715,88,38,31,36,210,0.27,596846300
57,154,590,84,37,25,24,194,0.27,596857500
54,124,606,75,33,26,26,199,0.29,625327300
55,172,666,77,32,26,26,219,0.3,651059100
60,283,715,96,40,30,29,224,0.31,665995500
87,358,757,125,55,37,34,189,0.32,684771700
99,385,830,148,65,58,61,290,0.33,710112400
102,420,755,153,70,81,72,294,0.34,724670300
99,418,715,149,69,170,93,316,0.35,744430400
100,388,793,159,69,201,100,321,0.36,764775200
96,430,890,169,65,235,173,415,0.38,804786500
110,425,792,147,75,489,390,552,0.38,804840800
113,392,781,143,79,594,547,618,0.39,824851900
139,384,747,143,97,768,625,702,0.4,844731000
150,379,587,125,124,936,798,779,0.41,864898300
146,268,437,76,125,997,930,805,0.42,885493500
153,364,490,102,124,1017,985,754,0.43,905302100
157,389,467,115,143,1080,1079,861,0.44,926595700
161,389,488,115,160,1100,1128,902,0.45,944822000
214,377,481,122,170,1034,1142,964,0.46,965866600
251,455,511,156,191,1024,1176,944,0.47,986487600
264,451,464,163,215,1073,1215,926,0.48,1006388000
306,443,473,155,231,1097,1174,864,0.49,1025523200
300,460,451,157,221,1033,1220,808,0.5,1050700300
311,520,468,153,223,1115,1240,877,0.51,1065080300
373,516,419,136,226,1301,1163,943,0.52,1086238100
389,549,450,119,222,1260,1149,980,0.53,1106435900
369,606,467,115,199,1255,1221,982,0.54,1124506900
406,660,481,116,203,1276,1213,1011,0.55,1147671700
390,657,546,116,185,1319,1156,956,0.56,1167022700
368,640,574,135,181,1221,1216,1015,0.57,1201136800
368,661,594,135,160,1277,1214,1070,0.57,1201148900
372,670,583,139,162,1321,1104,1062,0.59,1226794500
339,648,597,140,162,1304,1095,1100,0.6,1244921600
347,676,601,137,164,1212,1124,1232,0.61,1265274800
284,744,603,105,161,1273,1164,1216,0.62,1284809500
275,707,572,106,173,1289,1107,1173,0.63,1305394300
321,671,561,118,228,1287,1095,1166,0.64,1326048800
365,726,552,124,235,1323,1063,1157,0.65,1346920200
377,757,538,124,239,1368,1019,974,0.66,1366203000
445,733,564,144,251,1301,956,965,0.67,1387525700
522,792,623,155,256,1292,1005,948,0.68,1407616800
525,866,673,153,216,1317,1087,1081,0.69,1427407500
510,910,721,161,215,1310,1124,1022,0.7,1446985600
532,901,671,166,234,1260,1120,1003,0.71,1466798700
519,896,589,156,224,1283,1159,1014,0.72,1486362300
460,862,566,149,231,1302,1130,1124,0.73,1505871900
481,836,533,145,238,1163,1093,1077,0.74,1524684000
587,903,464,152,278,1152,1111,1184,0.75,1545268000
648,936,507,183,297,1142,1138,1258,0.76,1565752700
697,1055,504,181,306,1109,1066,1212,0.77,1586695100
786,1078,490,214,315,1123,1123,1147,0.78,1604555200
846,1056,491,214,320,1230,1085,1094,0.79,1624990400
813,1062,510,202,290,1249,1036,1014,0.8,1644736100
769,1071,621,199,293,1361,1039,956,0.81,1666051500
730,952,698,200,283,1395,1026,919,0.82,1686298800
670,988,660,158,261,1411,924,973,0.83,1706213200
557,1039,700,168,256,1383,945,979,0.84,1725930100
515,890,735,165,241,1362,876,1003,0.85,1746872300
485,883,641,130,200,1357,851,1018,0.86,1767759600
453,890,582,119,188,1422,865,1025,0.87,1784805300
379,794,594,121,172,1327,869,951,0.88,1805136300
412,780,548,107,165,1283,835,997,0.89,1824942500
384,789,509,107,172,1308,961,977,0.9,1845539000
384,782,476,110,145,1189,967,996,0.92,1885467400
380,826,540,127,150,1080,902,1001,0.92,1885480300
368,862,525,119,154,1111,874,948,0.93,1904885900
460,858,495,112,148,1150,874,878,0.94,1927545500
466,920,493,110,140,1110,749,868,0.95,1947004100
448,870,521,118,164,1258,674,727,0.96,1968848300
446,856,481,133,166,1222,750,753,0.97,1986917100
476,813,481,135,165,1220,755,811,0.98,2007706300
337,761,505,133,146,1189,702,780,0.99,2025254600
330,725,473,137,150,1177,722,740,0.98,2045793500
349,693,569,141,129,1048,733,852,0.97,2066122000
380,641,561,110,128,1094,666,825,0.96,2085728500
331,618,533,109,125,952,636,756,0.94,2125075300
317,682,543,109,126,951,616,713,0.94,2125086500
322,631,697,121,126,973,656,816,0.93,2144707800
312,640,599,98,126,1047,675,751,0.92,2164957300
255,682,540,95,102,1004,669,711,0.91,2185365700
254,709,602,110,110,1091,682,736,0.9,2205846300
275,667,652,119,114,1114,701,801,0.89,2226466500
255,700,624,126,108,1069,575,641,0.88,2246807000
225,705,784,151,112,937,466,563,0.87,2264540500
211,617,808,169,113,888,416,527,0.86,2287581700
224,585,836,166,104,880,351,462,0.85,2307300100
192,525,851,165,91,854,297,320,0.84,2327242200
175,531,846,149,82,852,248,255,0.82,2366997600
178,531,740,134,66,821,283,292,0.82,2367011800
191,554,734,109,66,787,277,261,0.81,2387004600
169,551,664,100,60,754,277,255,0.8,2411443900
163,585,604,102,63,663,282,270,0.79,2427492400
177,496,518,98,70,604,277,284,0.78,2445020000
159,499,476,89,65,572,225,260,0.76,2486307600
164,498,569,138,69,518,212,259,0.76,2486318700
158,516,701,155,78,485,216,260,0.75,2506736700
159,565,732,150,77,445,187,217,0.74,2527065900
166,590,805,158,68,428,200,209,0.73,2546776400
189,598,855,157,71,516,204,208,0.72,2566612100
169,576,831,124,68,563,212,210,0.71,2584838500
179,595,795,114,67,500,212,202,0.7,2607543200
202,580,769,118,65,479,217,204,0.69,2627652300
185,580,660,114,63,507,196,187,0.68,2645229100
178,528,605,138,62,463,181,163,0.67,2666263200
197,559,695,153,63,480,184,193,0.66,2686643200
189,542,716,153,59,449,155,187,0.64,2729106200
167,475,768,158,58,473,149,183,0.63,2749107700
170,458,803,152,67,508,146,182,0.63,2749131700
217,480,825,131,71,471,166,174,0.62,2765672100
201,441,826,155,68,383,145,143,0.61,2787944000
200,415,799,164,65,465,144,140,0.6,2807866000
200,399,739,167,68,541,140,140,0.59,2827886400
238,435,784,169,58,518,174,215,0.58,2844491900
187,419,759,177,51,500,156,188,0.57,2865060900
199,438,629,142,53,504,165,196,0.56,2886959200
199,454,596,136,62,529,170,199,0.55,2908133800
218,478,675,140,60,468,169,201,0.54,2924634400
206,449,611,144,65,429,130,127,0.53,2945192600
204,435,638,143,66,433,114,120,0.52,2965066500
187,392,769,147,72,545,113,201,0.51,2985456600
193,382,812,158,70,467,138,210,0.5,3005688400
181,370,742,145,69,420,134,214,0.48,3047875600
154,371,761,162,69,411,131,211,0.48,3047887000
147,362,873,162,71,414,140,210,0.47,3064616000
158,396,860,157,68,352,136,120,0.46,3084998000
158,399,816,138,62,336,105,100,0.45,3105516300
181,375,872,145,61,335,103,86,0.44,3126707300
174,362,941,142,61,336,117,80,0.43,3147285100
187,359,904,156,68,351,110,83,0.42,3167706000
203,325,956,165,61,242,96,75,0.41,3184862400
196,290,1003,168,60,211,103,67,0.4,3204465300
181,292,1063,172,70,295,125,65,0.39,3224586400
181,349,1107,173,69,316,113,68,0.38,3247328200
173,354,1078,175,67,323,106,69,0.37,3266981900
140,361,1038,165,70,354,103,74,0.36,3287572800
146,384,997,192,78,366,91,75,0.35,3304410500
121,401,935,197,76,315,62,76,0.34,3325092700
153,470,904,279,108,293,70,90,0.33,3347906500
157,551,975,292,121,287,113,90,0.32,3365171200
163,599,961,329,130,310,115,88,0.31,3385462600
162,593,1013,318,130,306,114,88,0.3,3405149300
159,582,1094,322,130,294,126,85,0.29,3425073500
146,510,1017,286,130,306,130,83,0.28,3444478800
140,433,1044,298,122,325,103,80,0.27,3467296200
154,401,1065,272,121,426,125,81,0.25,3507289400
149,448,1188,277,119,441,127,93,0.25,3507332200
177,517,1131,288,122,446,120,99,0.24,3524867200
163,551,1197,275,107,438,112,90,0.23,3545807600
177,613,1251,312,111,403,116,91,0.22,3567026400
164,620,1234,321,107,329,123,89,0.21,3587785600
168,622,1130,355,116,332,128,80,0.2,3604623800
151,676,1149,392,128,333,123,80,0.19,3627501400
180,734,1225,413,136,347,128,91,0.17,3665705200
202,865,1175,391,143,342,125,106,0.17,3665746900
216,866,1245,426,151,255,111,107,0.16,3685011300
229,895,1242,405,145,211,102,108,0.15,3704852800
236,861,1240,384,147,194,105,111,0.14,3726885900
251,872,1217,409,146,163,108,121,0.12,3764445300
252,696,1281,428,153,151,103,123,0.12,3764456200
268,745,1266,432,176,121,93,133,0.11,3787754000
258,716,1303,458,184,116,94,135,0.09,3825212200
263,750,1362,471,181,126,90,137,0.09,3825222900
247,656,1329,506,199,143,85,131,0.08,3844626200
232,677,1197,483,186,152,81,121,0.07,3867456800
238,666,1202,463,167,141,73,119,0.06,3887227600
244,683,1217,449,167,142,76,118,0.05,3906692200
274,630,1120,480,185,142,88,133,0.04,3926230800
287,671,1056,440,175,139,91,132,0.02,3965836300
291,672,1023,513,195,152,91,133,0.02,3965850800
280,632,1001,513,194,156,90,129,0.01,3986158600
289,682,1102,533,205,160,93,129,0,4006933500
309,838,1128,571,215,164,97,130,0.01,4024509600
280,809,1166,546,204,153,94,118,0.02,4045895500
267,788,1154,471,184,151,106,230,0.03,4065680000
243,798,1115,453,176,225,129,322,0.04,4090421500
246,795,986,424,160,234,133,329,0.05,4107180600
182,632,1019,355,128,244,141,340,0.06,4126725800
230,646,956,376,146,250,151,361,0.07,4146620900
226,638,936,377,152,435,206,392,0.09,4187691500
230,601,842,366,149,605,356,455,0.09,4187705300
226,552,695,361,153,753,450,579,0.1,4204646900
214,499,563,296,141,765,468,675,0.11,4225855800
177,428,482,235,118,803,569,700,0.12,4244694000
222,427,506,215,121,766,651,737,0.13,4265323200
248,453,543,217,118,659,599,769,0.14,4284953500
239,366,596,188,100,673,601,838,0.15,4304530100
281,407,565,150,108,776,626,819,0.16,4327516800
302,406,592,204,132,845,628,879,0.17,4347262600
284,405,583,209,125,838,544,877,0.18,4367049400
264,538,713,221,131,824,552,889,0.19,4392282100
279,573,764,219,138,757,558,873,0.2,4414644100
248,545,781,230,131,663,606,976,0.21,4425340600
238,572,848,166,99,578,528,952,0.22,4446212500
257,617,924,165,98,631,536,976,0.23,4466712300
270,478,846,159,95,670,513,947,0.24,4487005900
260,416,767,154,88,680,488,932,0.25,4506687200
257,411,728,136,82,711,515,892,0.26,4526338000
256,497,690,136,81,711,539,902,0.27,4544788600
282,485,691,136,74,640,577,857,0.28,4564575800
276,532,678,128,65,615,639,810,0.29,4587582700
276,551,658,125,59,552,674,744,0.31,4627856300
268,555,642,126,53,551,609,727,0.31,4627867900
263,546,676,145,60,523,684,780,0.32,4645189600
244,567,571,138,66,537,682,832,0.33,4665770000
257,544,539,121,70,526,698,848,0.35,4706356700
260,534,520,122,67,498,702,850,0.35,4706379600
253,512,514,122,71,447,750,767,0.37,4747366700
252,442,414,93,63,439,711,649,0.37,4747377800
248,489,481,107,54,432,718,615,0.38,4766942300
228,474,464,109,65,575,774,611,0.39,4786989700
226,471,457,107,69,604,731,613,0.4,4806585200
232,489,461,105,67,641,720,697,0.41,4826163900
236,472,446,104,69,674,698,743,0.42,4851429500
228,366,375,66,72,672,661,703,0.44,4886315000
227,360,364,65,61,574,588,761,0.44,4886327900
217,344,366,62,67,654,646,803,0.45,4906990200
214,325,384,65,68,630,595,698,0.46,4927756200
185,329,356,64,75,617,635,758,0.48,4964493900
173,292,413,68,75,629,661,799,0.48,4964504600
186,328,459,65,86,706,697,791,0.49,4987057800
176,336,446,67,79,744,669,837,0.51,5026781000
200,334,421,66,83,735,767,910,0.51,5026796400
214,362,433,64,79,790,720,861,0.53,5067336100
210,380,473,52,74,823,707,823,0.53,5067347300
194,383,429,57,59,747,707,856,0.54,5084932000
204,402,465,58,69,640,820,925,0.56,5126753800
187,400,495,56,66,729,821,952,0.56,5126765300
178,398,555,62,62,656,894,957,0.57,5147425100
165,412,461,61,69,654,912,972,0.59,5185831700
179,441,450,52,69,690,850,961,0.6,5205737800
205,456,430,52,72,799,741,809,0.6,5205751200
233,518,421,54,70,757,667,787,0.62,5244945500
277,528,377,68,85,865,668,787,0.62,5244957200
286,613,360,71,80,875,745,804,0.63,5265229000
276,596,377,72,85,984,764,770,0.65,5308447200
263,626,430,84,84,1000,767,841,0.65,5308461700
239,604,420,91,97,1120,753,811,0.66,5325672700
213,628,359,78,94,1218,748,855,0.68,5366745500
282,638,343,80,98,1215,668,945,0.68,5366760900
313,619,350,92,105,1203,857,989,0.69,5387507500
325,633,408,104,112,1272,900,945,0.7,5407473700
358,683,436,105,112,1244,955,963,0.71,5427272900
351,643,499,108,135,1181,991,969,0.72,5447198300
328,532,522,109,145,1180,1131,941,0.74,5485697000
327,573,546,102,146,1290,1028,932,0.74,5485740300
350,547,467,82,168,1299,1012,972,0.75,5505914100
337,461,431,76,176,1334,1019,1000,0.76,5527064000
368,533,424,80,163,1351,1021,976,0.78,5565087700
389,607,415,81,171,1361,991,972,0.78,5565107600
434,660,378,90,248,1265,1025,992,0.8,5610777400
433,679,362,97,251,1196,1075,996,0.8,5610788500
474,798,375,106,284,1271,1063,1056,0.82,5647649400
472,770,380,115,304,1314,1064,1072,0.82,5647661200
481,718,373,124,329,1447,995,1060,0.84,5684774200
482,715,376,124,320,1541,965,1063,0.84,5684785300
499,732,405,142,355,1632,988,1045,0.86,5725037500
583,670,407,156,352,1587,1037,931,0.87,5746045800
646,893,503,186,367,1535,1025,960,0.88,5765252400
671,987,510,191,363,1561,1030,910,0.89,5785733700
715,979,510,198,332,1504,1043,837,0.9,5807030000
736,1011,508,187,297,1406,1022,955,0.9,5807041700
705,1026,535,190,294,1429,1051,981,0.91,5827013800
837,952,415,157,275,1536,1055,939,0.93,5866044900
927,937,434,150,247,1445,1051,1025,0.93,5866055800
959,972,526,182,275,1422,1169,1143,0.95,5905393200
984,959,531,182,267,1436,1221,1078,0.96,5927350100
1031,931,505,185,270,1388,1164,1112,0.96,5927361100
916,842,531,199,276,1309,1164,1161,0.98,5965863400
823,830,536,199,282,1354,1140,1152,0.99,5986097000
721,775,561,175,251,1309,1019,1155,0.99,5986108100
679,741,551,180,242,1305,887,1179,0.98,6007723800
535,912,560,161,208,1320,920,1140,0.96,6045264200
489,983,547,147,167,1301,885,1179,0.95,6066988200
415,1000,563,154,149,1167,871,1143,0.95,6066998600
400,1025,454,140,141,1192,850,1036,0.93,6106892400
357,1026,438,131,147,1239,894,983,0.93,6106903100
336,862,407,122,139,1260,813,959,0.91,6145792400
314,863,348,114,133,1186,816,810,0.9,6166315700
289,776,275,95,131,1195,826,762,0.9,6166327200
298,712,255,92,118,1141,768,688,0.89,6186809600
239,660,436,86,95,1117,642,554,0.87,6228289100
221,641,639,89,86,913,566,478,0.87,6228300200
166,430,690,105,81,840,406,379,0.85,6265931300
175,393,761,171,108,884,297,240,0.84,6285802300
143,382,842,168,114,858,236,195,0.83,6312404800
156,415,904,178,109,605,229,159,0.83,6312416500
154,386,914,184,107,610,227,141,0.81,6346223700
149,380,898,188,108,622,223,121,0.81,6346234500
149,381,864,144,78,489,159,87,0.8,6367021000
147,342,803,145,70,479,154,100,0.78,6404982800
142,482,688,140,70,493,163,112,0.78,6404993800
176,516,603,131,68,483,160,112,0.76,6447054100
180,528,698,121,58,500,167,108,0.75,6467632500
164,533,718,131,61,589,165,108,0.75,6467643300
162,521,795,135,58,520,162,82,0.73,6504941200
154,377,788,128,52,510,146,58,0.72,6526100700
123,390,765,146,60,514,143,58,0.71,6545926400
131,400,750,166,65,487,136,64,0.7,6566882900
142,390,744,162,60,321,120,67,0.69,6586942900
181,423,763,201,68,317,89,64,0.68,6604763000
183,433,848,208,71,298,80,63,0.67,6625756600
181,367,805,200,64,265,90,58,0.66,6646067400
174,338,758,191,64,189,69,46,0.65,6672159600
166,315,736,193,61,146,61,37,0.65,6672171300
104,277,707,152,54,124,63,34,0.63,6706642500
108,227,602,143,53,125,63,40,0.62,6726204900
104,324,668,143,53,101,39,37,0.61,6747059100
105,324,695,122,50,109,61,48,0.6,6767172100
101,336,739,102,50,128,63,52,0.59,6786634300
104,331,716,114,50,126,66,55,0.58,6806062000
104,358,782,114,48,126,66,55,0.57,6825487600
116,382,871,137,60,134,72,67,0.56,6846955400
107,394,841,138,58,170,67,62,0.56,6846966100
135,396,848,136,58,163,68,59,0.54,6885061600
133,402,820,122,55,164,62,57,0.53,6905381800
129,365,772,123,56,170,66,63,0.52,6925369500
113,330,619,92,42,165,60,49,0.51,6944709600
120,318,649,93,43,105,50,53,0.5,6967514900
93,318,654,103,58,141,52,55,0.49,6985764900
92,337,688,115,59,170,52,59,0.48,7005007800
89,376,727,155,61,165,50,51,0.47,7024878500
91,318,828,159,61,183,55,52,0.46,7044887000
88,334,889,159,63,206,54,55,0.45,7065955700
87,329,869,151,49,177,68,200,0.44,7086142900
85,306,915,147,46,161,70,207,0.43,7107450000
94,282,953,140,57,163,73,214,0.42,7126192200
97,337,873,133,57,144,73,227,0.41,7147416000
99,335,883,138,58,126,80,228,0.41,7147427300
97,335,920,141,59,130,72,127,0.39,7186911000
100,347,907,156,61,162,82,116,0.38,7206324100
92,344,862,131,49,164,84,103,0.38,7206338200
126,363,895,139,54,162,81,83,0.36,7245919100
142,481,936,138,55,151,77,82,0.35,7266679300
145,490,955,147,57,158,90,78,0.35,7266719600
149,492,987,141,61,156,87,88,0.33,7306210500
151,497,995,141,66,181,86,88,0.32,7327406500
123,477,988,147,65,183,84,79,0.32,7327417900
123,473,974,190,74,179,81,75,0.3,7364914100
124,484,975,191,76,175,74,82,0.29,7384438100
114,478,981,194,75,210,66,75,0.28,7406989100
114,498,1015,209,71,191,64,73,0.27,7431585200
116,502,1047,216,76,189,67,73,0.26,7445138100
112,445,973,222,74,191,66,73,0.25,7464914600
120,446,943,235,84,186,50,67,0.24,7485612000
144,529,990,250,89,99,66,73,0.23,7506161400
154,574,1004,263,96,90,69,78,0.22,7527277500
151,552,1027,254,96,116,75,75,0.21,7547705900
150,518,1103,247,94,110,75,78,0.2,7564769500
141,556,1096,240,94,106,74,86,0.19,7587324000
122,534,1132,228,87,114,69,76,0.18,7607039900
136,574,1125,206,84,112,65,81,0.17,7626677600
178,678,1132,256,104,90,64,97,0.16,7646159600
206,765,1085,319,129,98,78,106,0.15,7666083900
283,864,1148,474,179,133,95,127,0.14,7685563600
313,983,1114,499,191,130,93,144,0.13,7706152800
333,971,1141,543,208,152,104,159,0.12,7726789100
321,913,1172,542,209,151,102,154,0.11,7746712600
329,947,1198,532,213,171,100,159,0.1,7767287100
311,902,1213,496,204,161,98,154,0.09,7784461100
336,886,1182,567,225,170,147,166,0.08,7804902300
382,1063,1119,618,242,162,169,172,0.07,7827622900
394,1081,1195,653,254,169,190,179,0.06,7847032800
410,1039,1266,698,267,155,197,188,0.05,7866546500
398,1056,1245,665,255,145,212,180,0.04,7887692100
356,1014,1277,602,231,141,202,158,0.03,7907648500
286,798,1339,525,201,124,188,134,0.02,7924958000
260,797,1214,471,177,115,214,119,0.01,7946183500
220,817,1110,393,146,118,269,126,0,7967082000
200,803,1109,355,132,120,288,121,0.01,7987553700
193,717,1042,329,131,124,316,136,0.02,8005386000
174,684,914,295,122,341,384,316,0.03,8026256100
185,671,841,275,128,441,739,546,0.04,8044454900
162,587,848,219,114,574,877,613,0.05,8067587600
166,493,707,196,101,601,879,683,0.06,8087101600
167,459,603,180,95,644,939,731,0.07,8106487900
175,448,647,166,97,634,985,817,0.08,8125685900
196,435,674,183,91,654,822,772,0.09,8146661700
190,442,608,174,86,568,772,785,0.1,8167318000
172,403,621,164,85,541,773,752,0.11,8185175000
181,406,780,190,96,507,741,849,0.12,8215118400
171,395,729,196,92,572,687,789,0.12,8215129600
148,347,709,178,83,530,708,749,0.15,8266772900
146,292,737,178,79,508,656,707,0.15,8266783900
162,304,793,195,86,519,676,703,0.16,8286389100
160,337,641,175,81,528,659,555,0.17,8305880300
171,327,643,166,79,415,723,545,0.18,8325255400
153,332,624,158,77,448,657,590,0.19,8346719100
163,360,669,190,93,473,607,570,0.2,8367265400
139,344,577,165,87,480,614,568,0.21,8386152300
162,302,537,149,83,508,609,625,0.22,8404502100
164,302,518,147,83,513,576,727,0.23,8426129000
164,296,553,147,81,488,681,675,0.24,8447842100
161,341,471,96,61,474,668,672,0.25,8464623400
174,334,526,67,52,481,646,771,0.26,8484715900
175,330,562,64,44,443,633,752,0.27,8507379100
282,335,563,67,48,436,656,643,0.28,8526645900
297,328,545,66,46,405,566,697,0.29,8547223900
298,333,497,70,44,390,588,707,0.3,8567277800
293,388,482,80,47,367,609,584,0.31,8584593200
278,404,491,82,49,381,654,580,0.32,8604969500
173,435,502,83,43,399,610,552,0.33,8625740900
158,436,489,83,50,371,666,489,0.34,8648463800
152,449,452,67,47,377,677,538,0.35,8666006400
170,395,462,74,51,384,651,654,0.36,8686170400
194,424,414,73,50,345,586,652,0.37,8706672400
179,393,396,69,48,433,581,637,0.38,8726591300
168,395,381,71,44,442,545,701,0.39,8746588600
183,330,401,68,44,434,536,770,0.4,8766037000
177,365,364,77,44,423,584,754,0.41,8785735000
143,334,343,81,42,478,651,751,0.42,8804537600
160,374,333,83,45,356,683,819,0.43,8825523500
175,398,334,79,43,364,665,819,0.44,8846056400
167,361,294,82,46,426,668,743,0.45,8867469400
156,400,286,60,44,491,664,708,0.46,8887867400
168,416,266,54,51,483,719,713,0.47,8904665000
180,382,277,51,49,475,674,655,0.48,8927503300
192,375,272,53,58,562,680,615,0.49,8951763100
208,422,254,51,61,542,702,664,0.5,8964648800
223,381,167,44,58,537,664,643,0.51,8987039900
218,358,231,42,58,553,572,627,0.52,9007559400
202,454,250,44,67,548,567,611,0.53,9025666500
208,450,287,52,69,529,577,641,0.54,9047104900
185,429,292,54,70,573,614,607,0.55,9067284100
172,435,334,53,75,609,688,693,0.56,9087424800
169,436,313,57,73,613,729,736,0.57,9106899700
169,347,337,57,71,625,760,835,0.58,9126947100
157,372,389,60,74,649,772,844,0.59,9146522600
171,438,390,63,79,650,753,893,0.6,9166063300
171,438,356,66,85,656,775,910,0.61,9185383300
189,478,337,64,88,710,794,956,0.62,9204862100
205,528,287,64,94,967,803,985,0.63,9227473900
210,518,162,55,91,978,780,1009,0.64,9247498600
221,480,147,52,90,997,802,1036,0.65,9266631400
279,467,130,54,108,1125,841,1004,0.66,9287131300
301,471,138,55,126,1159,851,965,0.67,9307965900
308,445,198,62,140,1157,867,875,0.68,9325344400
323,457,199,62,149,1189,847,853,0.69,9345809300
341,434,227,64,168,1263,879,816,0.7,9365470900
308,442,245,64,160,1214,886,835,0.71,9385252100
299,433,274,65,152,1236,849,868,0.72,9406799100
290,473,244,66,141,1120,885,872,0.73,9426376100
313,522,323,86,149,1153,972,906,0.74,9446454600
312,568,322,87,159,1281,989,981,0.75,9466887700
363,598,324,99,184,1256,949,1006,0.76,9487547000
398,601,309,107,225,1334,991,965,0.77,9504554600
407,561,339,108,230,1321,1009,972,0.78,9526089400
391,644,293,100,243,1302,1025,1023,0.79,9546843800
387,821,338,110,261,1241,1056,1000,0.8,9565505100
412,856,362,120,256,1230,1112,992,0.81,9585202000
430,925,377,127,233,1142,1126,1024,0.83,9627430700
447,969,360,140,263,1241,1084,1043,0.83,9627466800
453,923,351,141,242,1285,1105,992,0.84,9647146300
480,742,319,138,212,1251,1035,929,0.86,9688185600
450,742,331,142,252,1317,977,967,0.86,9688199500
475,696,307,134,256,1330,1001,957,0.87,9710687200
474,671,305,124,245,1367,1025,1027,0.89,9747505200
466,661,321,134,276,1432,947,994,0.89,9747542400
445,775,388,138,291,1449,1007,1082,0.9,9764524900
453,874,399,148,289,1484,1094,1049,0.91,9785704400
505,975,413,162,325,1536,1068,1066,0.92,9805299100
580,985,405,176,371,1508,1080,1062,0.93,9824965700
626,993,501,192,413,1488,1081,1095,0.94,9847539600
651,1035,553,206,416,1441,1020,1063,0.95,9865933800
626,926,585,195,396,1429,997,1031,0.96,9885407200
557,807,573,181,360,1318,959,1120,0.97,9905708200
488,831,619,175,326,1320,959,1069,0.98,9925776400
428,883,585,148,244,1267,951,1026,0.99,9946849700
402,731,604,125,231,1419,965,969,0.98,9967206000
413,766,642,121,212,1402,884,1018,0.97,9987247200
425,780,667,121,201,1367,861,872,0.96,10004515900
404,736,681,112,138,1242,750,775,0.95,10026557400
387,630,704,129,127,1107,668,698,0.94,10046408600
347,642,636,136,88,846,567,596,0.93,10066668600
324,585,569,126,83,682,435,369,0.92,10086076100
242,503,603,130,81,663,330,202,0.91,10105437400
235,467,588,137,77,657,273,166,0.9,10126996500
251,491,570,139,83,784,254,141,0.89,10144896400
271,485,703,170,84,710,215,172,0.88,10167150200
263,442,777,177,81,699,210,156,0.87,10185286700
281,534,817,173,78,719,271,238,0.86,10206589800
270,540,857,167,79,693,272,242,0.85,10226784400
248,506,883,153,72,551,269,253,0.84,10246179400
261,488,799,111,60,537,259,228,0.83,10266114500
274,498,759,102,58,449,268,224,0.82,10285897500
313,445,681,103,57,373,180,133,0.81,10305731700
313,491,663,96,54,329,173,126,0.8,10327129400
340,504,717,101,47,307,161,99,0.79,10347623700
310,501,784,100,43,228,155,91,0.78,10364719000
295,529,795,107,42,234,114,87,0.77,10384918200
230,498,820,109,40,231,102,70,0.76,10405581600
224,471,817,105,42,234,92,68,0.75,10426701600
240,472,829,127,58,248,87,67,0.74,10447351800
249,513,755,130,57,256,70,74,0.73,10468470800
246,486,787,131,62,270,64,71,0.72,10485274100
240,477,777,130,63,270,68,69,0.7,10527423500
285,464,834,134,63,278,71,67,0.7,10527436300
255,534,764,104,48,221,68,62,0.69,10547355800
267,523,856,119,54,179,67,59,0.68,10564446500
326,564,856,119,51,121,68,58,0.67,10585341300
336,556,852,117,50,122,62,59,0.66,10606376600
295,540,767,123,54,177,62,64,0.65,10625232400
280,442,765,132,62,335,68,65,0.64,10645788600
268,395,699,105,54,360,63,60,0.63,10666014300
254,349,624,96,51,373,61,61,0.62,10685496000
229,338,802,95,52,378,62,62,0.61,10705318000
228,337,895,93,52,349,63,58,0.6,10724804900
227,339,901,85,47,316,60,54,0.59,10747595700
222,372,860,85,46,309,60,50,0.58,10764674100
228,337,974,94,48,299,60,48,0.57,10787018400
237,380,842,127,55,296,63,54,0.56,10807243200
225,362,901,138,55,323,78,54,0.55,10827790500
219,353,885,133,52,235,79,56,0.54,10847728400
208,326,880,140,56,239,90,57,0.53,10864540900
137,324,754,141,58,249,91,58,0.52,10884804300
209,295,839,120,51,245,88,54,0.51,10904442600
214,335,882,118,54,204,76,57,0.5,10925977300
227,365,938,129,60,221,99,54,0.49,10946098000
232,386,987,129,62,241,88,57,0.47,10984859300
265,381,1041,132,64,233,89,57,0.47,10984881300
206,355,963,128,63,236,91,54,0.46,11005186100
203,381,961,129,57,235,84,52,0.45,11025879900
205,369,910,149,59,207,62,55,0.44,11047929100
199,345,886,145,57,296,84,52,0.43,11065769400
163,368,882,150,53,307,84,53,0.42,11084556300
173,380,923,169,64,309,86,57,0.41,11104866100
178,322,856,211,77,310,86,56,0.4,11124597400
170,296,927,223,87,304,77,57,0.39,11147445100
173,290,911,231,87,281,81,55,0.38,11167123800
154,313,907,234,89,274,84,53,0.37,11186366800
137,363,982,246,92,275,85,53,0.36,11205869200
162,503,974,236,89,277,85,53,0.35,11224723700
160,507,898,219,77,275,85,53,0.34,11245269900
161,520,982,223,77,160,70,53,0.33,11265465900
161,512,997,226,80,143,71,57,0.32,11285859500
172,489,986,246,77,129,70,62,0.31,11307010800
144,333,913,230,74,118,67,58,0.29,11346604100
143,340,976,231,73,113,69,62,0.29,11346643500
146,380,1036,241,82,83,60,68,0.28,11366376900
151,428,1097,279,98,70,53,72,0.26,11407026400
167,445,1061,292,104,84,50,71,0.26,11407038000
176,461,1109,298,114,91,56,77,0.25,11426597300
188,489,1211,329,124,92,60,84,0.24,11445338600
211,522,1142,360,131,100,63,94,0.23,11467677300
203,458,1113,333,119,107,60,89,0.22,11486794300
183,579,1153,311,115,103,59,84,0.21,11505813400
199,661,1146,362,133,112,66,94,0.2,11526142900
199,659,1004,352,137,111,64,94,0.18,11566980800
207,697,1122,385,147,113,68,98,0.18,11566994200
231,840,1134,408,159,112,72,104,0.17,11586380800
268,844,1165,427,169,113,81,116,0.15,11625091800
260,826,1170,412,162,107,76,112,0.14,11647851000
281,844,1244,457,167,155,86,122,0.14,11647889400
291,854,1214,504,177,156,85,121,0.12,11686492100
328,826,1254,626,211,172,98,145,0.12,11686502800
335,785,1221,691,229,224,104,156,0.1,11724422700
413,949,1297,817,240,242,111,181,0.1,11724433900
427,963,1244,869,238,225,109,181,0.09,11745421800
425,1014,1219,868,230,229,113,185,0.08,11766168000
406,1056,1163,826,218,225,107,173,0.07,11786033000
392,1170,1105,789,215,189,106,170,0.06,11805788600
352,1070,1047,710,232,179,112,163,0.05,11827101100
349,1091,1031,678,259,175,115,165,0.04,11847042300
348,1009,993,644,267,189,112,166,0.03,11866690700
353,971,1004,638,266,187,114,174,0.02,11886988100
355,869,1009,627,257,182,106,164,0.01,11907428300
310,874,1020,558,229,168,90,143,0,11925216000
291,846,1005,462,187,162,76,150,0.02,11966930300
279,825,960,417,166,142,76,139,0.02,11966972500
250,727,833,312,127,272,180,294,0.03,11985780200
240,624,841,249,102,384,262,465,0.04,12005842300
234,507,676,208,98,469,544,586,0.05,12029546700
203,503,675,220,102,590,638,669,0.06,12046565300
241,468,738,197,127,785,745,766,0.07,12066665600
249,506,844,199,154,917,986,857,0.08,12086572800
239,556,876,191,155,972,1096,872,0.09,12107067000
256,541,941,194,146,1092,1095,827,0.1,12129939200
283,512,935,189,152,1104,1173,855,0.11,12147414100
235,595,864,209,125,1035,1145,812,0.12,12164486800
215,594,789,197,91,964,966,714,0.14,12205257300
210,560,715,193,93,888,867,664,0.14,12205268400
188,593,658,204,92,741,829,732,0.15,12224730100
142,608,631,202,79,688,731,649,0.17,12267341200
181,542,607,174,80,604,690,772,0.17,12267369800
184,481,680,162,73,484,675,783,0.18,12285251000
183,445,658,154,67,461,672,758,0.2,12325424300
200,478,657,137,78,479,644,737,0.21,12346524800
198,408,651,116,69,491,617,811,0.21,12346536000
167,396,710,109,62,528,634,656,0.22,12366922300
209,399,584,109,65,583,663,626,0.23,12387248100
222,466,585,110,63,599,697,750,0.24,12407553600
238,623,611,111,71,629,708,705,0.26,12446555200
252,672,663,114,79,748,707,680,0.26,12446568100
248,675,575,109,84,769,764,735,0.27,12466311900
249,713,609,116,85,733,796,799,0.29,12504969100
244,674,601,115,86,786,855,783,0.29,12504988900
212,455,522,106,69,710,793,769,0.3,12524571200
207,393,453,107,61,532,743,788,0.32,12566090400
218,417,467,101,60,508,742,798,0.32,12566103100
200,386,446,98,73,539,787,776,0.33,12587741600
201,454,456,93,72,444,731,678,0.35,12627192600
219,473,525,89,72,432,764,693,0.35,12627203800
211,488,499,88,70,407,769,657,0.36,12646753200
209,457,457,85,67,408,713,658,0.38,12685269400
187,426,424,76,53,451,654,689,0.38,12685281300
183,447,374,73,52,437,590,661,0.39,12704612300
166,466,363,63,46,473,581,744,0.4,12727149100
171,473,416,67,68,532,664,737,0.42,12766256800
152,477,421,68,72,520,710,831,0.42,12766268100
165,499,424,69,80,513,727,816,0.44,12807077800
157,442,422,74,90,598,727,907,0.44,12807092300
156,417,306,70,96,676,712,857,0.46,12845393100
137,376,211,54,88,740,632,877,0.47,12865892400
143,437,217,52,89,783,648,802,0.47,12865905400
137,433,356,57,85,833,605,746,0.48,12886908600
139,449,367,60,114,974,577,681,0.49,12906940600
163,445,369,69,119,976,632,681,0.51,12946098800
187,433,370,66,123,1000,717,656,0.51,12946110000
188,409,440,68,125,1107,667,584,0.53,12985236900
184,389,334,64,126,1099,683,697,0.54,13005946700
180,409,325,60,105,1011,683,737,0.54,13005958400
150,418,341,52,98,1172,625,762,0.55,13027271200
185,461,339,60,97,1180,569,831,0.57,13067385300
184,472,246,60,94,1095,578,862,0.57,13067396900
183,489,248,60,88,1079,679,818,0.59,13107304300
195,464,242,56,79,1159,693,913,0.6,13126968300
208,526,314,59,87,1120,774,1024,0.6,13126978900
172,517,300,53,77,1147,803,965,0.62,13166341600
181,507,298,53,78,1172,819,1003,0.63,13190655900
196,523,356,59,91,1204,800,991,0.63,13190666500
204,666,380,69,92,1222,839,928,0.65,13225066100
209,628,327,67,85,1111,812,841,0.66,13246087300
211,615,322,69,101,1082,829,898,0.66,13246103600
205,700,309,71,126,1129,869,831,0.68,13286627200
201,706,253,67,138,1206,850,871,0.69,13306961500
186,633,481,103,149,1129,926,847,0.69,13306973500
189,727,488,115,170,1209,948,799,0.7,13326405400
200,726,490,116,178,1302,1033,785,0.72,13364480400
227,632,501,119,174,1340,1035,816,0.73,13387175000
228,627,499,123,179,1405,1055,824,0.74,13406765400
237,583,297,94,193,1499,1033,837,0.75,13427249800
243,592,259,96,223,1479,1039,932,0.75,13427261000
232,678,247,98,225,1498,978,984,0.77,13465391000
252,694,265,103,228,1468,982,1100,0.78,13486250500
248,747,280,101,225,1414,997,1145,0.79,13505011000
289,775,265,108,247,1441,1025,1174,0.8,13525574900
332,688,278,106,234,1498,1068,1208,0.81,13545382600
375,703,336,110,227,1485,1064,1209,0.81,13545394000
385,747,323,116,230,1441,1048,1099,0.83,13587714200
423,765,319,124,256,1409,1051,1059,0.84,13607046400
436,797,390,123,235,1312,1020,1093,0.84,13607058500
430,838,401,122,229,1323,988,1048,0.85,13626553800
434,776,365,125,262,1447,992,1057,0.87,13666400300
431,749,362,118,265,1530,982,1123,0.87,13666411000
442,712,396,112,231,1496,947,1183,0.88,13687017600
431,672,380,119,246,1518,1076,1156,0.9,13725642900
447,693,393,136,251,1451,1104,1113,0.9,13725655900
434,849,485,133,229,1285,1097,1037,0.91,13746740000
464,897,528,133,229,1234,1118,1002,0.93,13786230700
455,955,493,137,235,1273,1120,1000,0.93,13786242200
445,940,462,127,209,1265,1000,987,0.94,13807541300
484,928,453,128,236,1444,990,988,0.96,13846473900
486,952,375,128,244,1368,1001,990,0.96,13846484900
463,978,382,145,250,1361,987,1037,0.97,13867091700
468,996,388,145,258,1325,978,950,0.99,13905250300
520,1070,414,148,271,1358,944,958,0.99,13905266500
520,1063,434,122,231,1261,883,1079,0.98,13927783800
505,910,446,119,212,1354,881,1087,0.97,13949506600
476,800,470,95,195,1417,927,1031,0.96,13967204700
442,718,480,87,183,1485,945,1049,0.95,13987277100
381,744,460,96,181,1399,949,1072,0.93,14026600900
298,690,472,98,174,1299,919,899,0.93,14026630300
277,677,465,100,159,1188,824,839,0.91,14065329200
273,672,520,111,145,1045,686,759,0.9,14085372000
253,596,653,125,138,936,518,637,0.89,14107397900
213,347,687,114,101,1020,399,394,0.89,14107409500
143,433,720,115,84,914,349,320,0.87,14146541300
155,542,762,115,86,867,314,257,0.86,14167316000
150,569,768,123,88,802,301,222,0.86,14167326500
152,570,738,138,94,759,316,236,0.84,14204528400
162,573,807,139,87,567,285,209,0.83,14227487800
181,581,768,138,86,540,230,232,0.83,14227498300
178,573,751,135,83,519,228,232,0.82,14252182100
175,589,762,125,81,560,228,231,0.8,14285907100
166,591,778,96,73,551,250,191,0.79,14306295700
147,599,673,91,69,495,233,159,0.78,14326832500
133,550,655,90,67,492,222,85,0.77,14347683200
106,455,652,93,66,495,225,80,0.77,14347696100
121,424,606,96,80,595,234,89,0.75,14385803400
140,423,529,107,71,538,167,87,0.74,14404723200
172,401,518,107,69,504,155,87,0.73,14424795800
158,381,606,106,70,502,152,65,0.72,14447409800
167,428,686,110,75,502,141,70,0.71,14464438200
166,541,768,106,57,282,89,55,0.7,14487245600
152,534,728,96,53,260,106,65,0.69,14507104100
105,531,734,98,55,263,105,66,0.68,14524543100
129,516,777,128,63,259,105,70,0.67,14544621500
136,527,690,131,55,253,106,66,0.66,14567528200
132,504,611,130,59,383,108,128,0.65,14584798700
129,539,719,144,61,394,90,126,0.64,14605438500
130,535,722,146,63,389,89,128,0.63,14626506100
112,529,683,139,60,389,85,128,0.62,14646032800
100,524,756,142,62,385,81,128,0.61,14665540200
99,471,818,163,56,304,88,67,0.6,14684889500
102,431,773,146,58,363,90,67,0.59,14706556300
109,439,783,162,67,377,91,66,0.59,14706566600
116,496,818,183,73,385,92,72,0.57,14745058400
124,457,780,178,78,382,87,70,0.56,14766648300
126,413,683,153,79,397,76,67,0.56,14766668800
132,410,671,163,76,296,60,67,0.54,14804463800
125,396,721,147,67,280,56,62,0.53,14825239300
116,350,689,100,56,267,59,51,0.52,14845525700
111,368,746,108,50,262,79,58,0.51,14866657300
126,371,773,116,48,154,76,53,0.5,14886540000
116,381,802,120,50,147,81,44,0.5,14886551000
116,384,747,130,52,172,82,45,0.48,14925646700
115,395,740,136,50,169,82,46,0.47,14945129600
116,399,795,129,50,151,60,45,0.45,14985708600
105,427,808,148,58,151,74,54,0.45,14985745900
110,414,806,139,60,259,73,59,0.44,15011720200
110,426,859,129,59,280,73,69,0.43,15025799400
121,446,875,134,63,291,71,74,0.42,15046898500
114,416,828,137,62,298,72,72,0.41,15064498800
96,362,828,109,53,296,55,66,0.4,15084915800
98,364,879,110,52,215,62,62,0.39,15104604600
109,425,976,120,55,228,65,52,0.38,15127451300
94,378,1050,119,52,224,66,44,0.37,15146880500
91,382,1095,113,51,218,64,42,0.36,15165248800
101,409,1042,122,53,217,64,43,0.35,15185840500
95,408,1010,120,50,208,53,43,0.34,15206641400
100,387,1047,130,58,131,62,51,0.33,15228014600
111,384,1009,134,58,110,64,57,0.32,15245494200
109,399,989,139,59,114,66,59,0.31,15266044100
101,382,1026,143,63,109,67,58,0.3,15286684800
105,382,1092,170,69,90,69,63,0.29,15306766800
88,337,959,171,65,98,55,55,0.28,15325023100
82,321,947,179,69,94,53,53,0.27,15344477400
94,369,858,180,72,82,55,56,0.26,15367602100
110,400,891,206,75,92,54,58,0.25,15387179900
131,464,822,215,81,92,51,63,0.24,15404585900
157,530,1026,218,96,87,58,73,0.23,15425518400
157,529,990,203,92,91,54,69,0.22,15446487700
153,523,1102,216,90,89,50,67,0.21,15465330800
161,595,1171,213,94,92,51,68,0.2,15486137200
159,623,1259,225,101,99,50,71,0.19,15507046100
163,587,1127,267,121,98,56,79,0.18,15526561300
161,633,1194,272,126,101,59,80,0.17,15546661500
163,630,1143,320,142,107,60,84,0.16,15566551100
153,606,1152,319,141,106,61,83,0.15,15586115600
159,567,1089,325,143,116,64,84,0.14,15605398600
149,586,1175,316,129,118,58,77,0.13,15627641300
173,679,1176,391,140,114,57,85,0.12,15645016200
232,745,1163,434,159,129,73,107,0.11,15665940400
251,764,1170,458,169,126,76,117,0.1,15687109600
255,849,1118,469,176,127,75,118,0.09,15704400000
293,881,1106,533,209,133,85,130,0.08,15724819100
307,919,1104,499,206,135,90,137,0.07,15744452300
323,1019,1147,555,226,131,97,148,0.06,15769360300
314,1048,1129,533,221,128,94,143,0.05,15785865200
355,1025,1136,631,254,153,103,163,0.04,15805726600
336,1029,1126,573,226,146,97,157,0.03,15826443400
316,943,1079,564,224,143,93,149,0.02,15847941000
271,792,1029,490,198,137,80,127,0.01,15865524200
267,679,922,494,195,140,79,128,0,15886127200
207,623,974,375,153,117,68,100,0.01,15906506800
176,538,860,360,146,109,63,96,0.02,15925431600
168,476,781,358,142,123,72,106,0.03,15946450400
169,431,769,307,126,187,181,260,0.04,15966148700
187,493,833,321,134,242,191,360,0.05,15985839300
175,429,767,269,115,438,241,429,0.06,16005338100
188,402,737,267,125,722,367,644,0.07,16024916000
226,384,716,251,127,816,435,736,0.08,16047549800
219,462,713,243,119,858,453,769,0.09,16072557200
213,423,729,245,120,861,468,850,0.09,16072568500
209,421,795,226,111,859,480,824,0.11,16106905600
219,417,853,220,101,747,540,808,0.12,16127339400
181,413,853,218,94,704,576,775,0.13,16147636400
182,363,837,199,90,652,572,716,0.14,16165009100
193,373,806,147,76,649,578,611,0.15,16184660000
203,384,721,137,75,575,563,677,0.16,16207403200
184,385,639,139,75,639,497,688,0.17,16225433100
183,396,637,136,78,638,460,674,0.18,16245547500
187,368,653,199,91,630,429,673,0.19,16265640200
163,472,524,194,87,616,415,691,0.2,16285536500
143,476,458,193,83,617,433,709,0.21,16306130600
134,473,423,192,78,406,468,614,0.22,16326642000
177,490,451,208,76,312,502,639,0.23,16347948300
171,516,461,172,75,298,513,647,0.24,16364862100
170,398,606,163,72,323,534,631,0.25,16386749200
174,392,607,163,84,499,609,745,0.26,16406758400
176,397,610,160,82,513,545,708,0.27,16426340000
128,378,585,137,79,513,485,660,0.28,16445706300
131,358,534,98,71,515,468,681,0.29,16464941200
129,326,434,112,76,514,470,781,0.3,16484700700
128,361,430,109,64,345,464,679,0.31,16505159200
126,363,429,108,64,337,503,780,0.32,16527353800
127,351,438,111,62,316,497,800,0.33,16544660000
109,358,413,98,54,314,513,775,0.34,16565564000
130,386,462,83,47,297,499,754,0.35,16587231000
142,353,477,86,53,303,409,766,0.36,16607850100
156,348,467,87,51,386,409,724,0.37,16624949700
165,358,457,83,51,403,433,833,0.38,16644787800
172,354,500,63,45,406,429,846,0.39,16664478400
167,330,367,59,46,424,437,776,0.4,16686523800
167,313,341,60,40,501,465,717,0.41,16706253000
162,336,342,58,40,499,432,755,0.42,16727502400
162,358,343,58,44,496,410,683,0.43,16744970500
151,303,204,53,46,503,431,693,0.44,16767296100
142,355,267,51,49,531,437,820,0.45,16784567500
158,411,285,50,54,420,478,903,0.46,16804803400
167,410,282,49,60,487,512,890,0.47,16830615700
166,404,270,54,84,619,546,921,0.48,16847665600
171,397,264,55,88,683,634,983,0.49,16867389300
173,353,200,57,92,698,710,890,0.5,16887326700
156,325,344,97,96,752,698,835,0.51,16906543400
166,308,371,109,101,691,849,822,0.52,16926249300
175,353,372,107,86,760,833,791,0.53,16946736000
183,363,372,110,88,811,831,735,0.54,16967354300
186,442,358,106,83,835,796,746,0.55,16986371200
185,476,268,87,77,860,764,784,0.56,17006962100
179,479,232,77,64,876,641,795,0.57,17027276600
181,525,236,76,65,771,674,775,0.58,17044419800
186,524,233,74,72,699,599,796,0.59,17067625800
196,479,231,74,78,710,579,841,0.6,17087605700
192,482,126,52,76,632,612,821,0.61,17104384500
183,489,109,46,81,680,699,836,0.62,17127088600
180,403,128,51,81,673,670,869,0.63,17145529400
164,431,146,56,74,807,795,881,0.64,17165373700
156,479,274,68,69,810,884,810,0.65,17186402300
175,434,289,75,76,922,873,780,0.66,17207120900
179,459,303,77,75,948,784,748,0.67,17228032900
186,507,291,75,72,982,872,821,0.68,17245385200
191,514,326,72,79,933,860,810,0.69,17265812000
201,468,236,60,81,1059,799,874,0.7,17287272200
192,487,226,56,79,1001,853,876,0.71,17307008000
219,512,251,72,96,1061,931,900,0.72,17326479600
203,476,280,74,99,1117,994,835,0.73,17345836700
215,483,258,74,95,1129,951,861,0.74,17365384900
210,578,260,78,120,1080,950,871,0.75,17385822400
221,586,266,74,136,1186,955,899,0.76,17406663100
213,568,299,61,132,1234,918,832,0.77,17427222300
231,564,272,58,135,1209,846,802,0.78,17445997100
241,603,254,62,145,1245,832,782,0.79,17466506300
247,598,251,61,143,1267,820,789,0.8,17487239500
273,608,279,77,135,1237,864,815,0.81,17507257400
277,705,236,76,135,1176,906,914,0.82,17526792100
372,746,237,83,145,1228,886,953,0.83,17546361500
408,756,236,85,142,1378,971,935,0.84,17565666000
427,729,238,90,143,1316,987,918,0.85,17590178600
447,751,389,98,147,1344,988,924,0.86,17607574500
450,760,410,100,155,1425,966,1038,0.87,17624758600
441,826,413,120,217,1467,1025,982,0.88,17646305200
410,789,418,128,232,1352,986,1008,0.89,17666465300
414,763,423,128,242,1429,1070,1048,0.9,17686760500
387,798,325,129,272,1450,1056,1036,0.91,17704468900
428,785,322,133,270,1369,1059,932,0.92,17724693800
375,706,317,111,238,1435,1017,976,0.93,17747509900
450,720,337,126,264,1420,1008,1038,0.94,17767068000
463,780,365,127,269,1490,954,1048,0.95,17786711300
500,877,408,132,245,1428,911,1026,0.96,17806268600
529,876,405,149,270,1506,954,1051,0.98,17847935800
552,940,426,161,293,1457,994,1087,0.98,17847946800
542,983,418,155,286,1433,1069,1102,0.99,17865167900
565,954,468,158,267,1343,1166,1105,0.98,17885866900
559,847,440,158,289,1428,1194,1160,0.97,17904842200
509,852,522,163,296,1345,1187,1112,0.96,17925099800
484,875,531,161,297,1359,1173,1135,0.95,17945377800
444,878,548,148,275,1393,1149,1102,0.94,17964866000
389,927,533,143,275,1344,1059,1050,0.92,18004502600
376,933,554,133,262,1259,1067,1003,0.92,18004544400
393,890,451,112,254,1309,1013,1063,0.91,18027245100
417,858,443,105,211,1254,1023,1013,0.9,18045965600
402,800,419,111,225,1286,972,974,0.89,18066748200
381,734,379,105,225,1326,964,903,0.88,18086993800
333,688,298,93,197,1255,883,840,0.87,18104412500
269,705,384,85,152,1202,826,641,0.86,18125092400
197,638,540,110,143,1072,675,508,0.85,18145542400
155,602,658,152,93,918,553,334,0.84,18165090700
143,548,732,164,92,861,368,312,0.83,18184718700
130,505,736,164,89,868,324,241,0.82,18206273600
122,417,720,175,84,717,253,196,0.81,18225758500
104,329,638,163,70,676,224,131,0.8,18245413500
110,295,541,129,81,719,230,96,0.78,18286245900
108,297,505,117,76,755,218,84,0.78,18286256700
105,382,503,126,78,795,187,73,0.77,18306452900
107,375,531,115,76,787,155,61,0.76,18326839200
98,393,504,109,76,784,144,54,0.75,18348730700
78,399,569,102,61,694,126,53,0.74,18366423900
84,424,558,113,56,555,95,53,0.73,18386216800
92,340,655,121,63,449,86,57,0.72,18406083000
120,364,670,140,66,435,77,58,0.71,18425341200
121,374,695,140,67,427,71,59,0.7,18444373200
121,384,641,139,67,397,74,62,0.69,18467518400
112,365,597,134,59,332,76,59,0.68,18488002300
104,418,522,127,47,300,76,55,0.67,18507158800
76,482,480,106,41,300,76,55,0.66,18524478600
74,477,460,114,40,258,77,54,0.65,18545354200
70,475,530,116,40,243,56,47,0.63,18585228200
90,498,577,132,50,172,56,55,0.63,18585240100
95,470,601,148,51,136,53,54,0.62,18606629000
94,351,609,156,56,129,54,54,0.61,18627728400
91,337,581,146,54,129,53,53,0.6,18649904500
88,313,521,141,51,97,50,50,0.59,18666639300
67,268,577,129,43,98,33,38,0.58,18686313900
58,282,596,103,40,92,31,37,0.57,18706893500
43,284,606,77,33,91,29,31,0.56,18727352600
43,250,708,95,37,78,29,31,0.55,18744522500
53,267,765,108,42,77,32,34,0.54,18765677500
56,308,753,101,40,73,32,34,0.53,18786065500
55,270,794,103,42,82,34,32,0.52,18804772900
58,278,811,108,41,78,32,33,0.51,18825010900
65,278,844,132,53,75,33,36,0.5,18844769300
59,274,882,124,51,74,36,32,0.49,18867514600
52,219,889,129,50,71,35,29,0.48,18886816100
58,214,858,135,51,58,33,32,0.47,18906543900
58,208,822,135,52,53,34,33,0.46,18927574800
54,241,881,110,42,48,33,33,0.45,18944968000
57,252,859,109,40,49,30,36,0.44,18964597400
62,266,851,103,39,55,29,36,0.42,19005458400
60,302,816,102,37,69,36,33,0.41,19025603300
69,307,842,132,42,71,37,36,0.41,19025637200
66,431,835,130,37,85,37,33,0.4,19045552400
86,509,837,150,52,97,41,40,0.39,19065169200
83,510,846,158,54,96,49,39,0.37,19106183400
88,495,857,167,61,89,47,45,0.37,19106195100
85,489,873,152,70,105,47,45,0.36,19126510800
98,418,787,173,75,98,48,48,0.35,19147052200
89,343,776,164,67,86,45,44,0.34,19164503300
92,358,879,166,70,80,38,46,0.33,19185403500
90,362,933,159,67,81,35,44,0.32,19206126000
94,428,940,177,65,64,34,44,0.3,19247191400
103,398,999,169,70,61,40,50,0.3,19247205900
109,427,995,175,78,63,44,52,0.29,19265884400
118,422,908,181,81,89,44,56,0.27,19304600800
122,470,904,194,84,106,56,59,0.27,19304612700
120,423,932,192,81,104,55,57,0.26,19324420600
123,445,886,210,79,104,54,58,0.24,19366939800
136,423,927,220,85,118,58,69,0.24,19366951000
142,457,975,216,83,116,57,69,0.23,19387592700
142,449,1094,232,86,102,48,67,0.22,19409551800
159,527,1097,234,89,113,51,73,0.21,19426719400
163,590,1160,316,112,133,49,76,0.2,19447368800
187,636,1099,327,114,125,49,80,0.19,19467542000
186,620,1087,337,120,112,52,81,0.18,19487325000
212,758,984,368,137,140,61,95,0.17,19507118600
214,765,1013,420,152,148,67,99,0.16,19526539900
242,789,959,417,151,139,75,106,0.15,19545990500
233,845,1007,438,158,146,72,106,0.14,19566925500
320,1089,1075,464,181,150,83,130,0.13,19587425000
332,1111,1094,473,175,139,82,131,0.12,19604736300
353,1180,1166,463,173,133,80,135,0.1,19647505400
350,1213,1314,487,185,140,78,136,0.1,19647531400
364,1236,1361,520,208,162,92,146,0.09,19664834700
350,1115,1280,575,218,163,98,154,0.08,19685245300
405,1175,1277,687,294,184,119,183,0.07,19705184300
418,1222,1232,693,296,182,122,187,0.06,19726746600
439,1213,1111,677,305,183,128,199,0.05,19746568400
425,1203,1094,666,289,163,122,190,0.04,19766578800
394,1165,1137,630,277,164,113,174,0.03,19786381000
338,1061,1145,523,197,125,92,144,0.01,19827494000
312,925,1112,519,190,122,90,138,0.01,19827528900
290,917,1100,539,176,114,86,126,0.01,19867653200
320,897,1077,544,190,114,88,138,0.01,19867664000
299,884,1076,518,177,116,83,131,0.02,19884768500
315,869,1079,520,192,125,87,142,0.03,19905318600
299,828,1043,484,184,118,95,173,0.05,19944899100
278,773,978,403,157,162,118,273,0.05,19944911200
239,716,946,365,138,252,160,373,0.07,19987384600
247,702,851,363,140,365,305,549,0.07,19987397000
204,690,795,318,118,456,335,711,0.08,20007107600
272,746,883,401,159,550,435,761,0.1,20046533900
270,701,836,396,157,563,442,743,0.1,20046545100
265,638,754,364,147,553,496,781,0.11,20067822400
255,590,758,336,140,531,470,747,0.13,20105526300
238,501,770,285,127,483,461,647,0.14,20125980900
157,395,591,143,71,414,395,609,0.14,20125992300
151,395,606,137,77,433,393,760,0.15,20145557500
150,402,617,123,80,536,518,785,0.17,20186449900
149,405,672,133,80,515,513,753,0.17,20186462500
151,424,643,145,83,531,540,736,0.19,20225790500
149,477,636,121,79,529,534,794,0.2,20245836400
148,462,589,119,73,609,580,741,0.2,20245855400
159,498,667,127,72,537,519,676,0.21,20267567200
204,587,660,152,75,522,502,659,0.23,20306072500
209,629,593,147,72,507,465,666,0.23,20306085000
208,596,579,163,82,524,483,632,0.24,20325290900
207,591,578,162,84,567,568,689,0.25,20346772000
201,617,499,167,85,555,487,693,0.26,20366251700
202,647,475,184,95,564,506,778,0.28,20404825400
199,589,484,183,94,549,526,785,0.29,20424671700
214,585,482,174,99,567,579,823,0.29,20424682600
211,571,470,171,96,411,585,763,0.3,20447612200
204,580,578,176,94,373,611,733,0.31,20470100900
165,503,658,153,86,355,593,676,0.33,20504894500
162,531,648,133,80,462,607,738,0.34,20525096800
136,512,644,127,67,426,580,723,0.35,20546644700
153,532,671,128,67,456,539,685,0.36,20566512600
164,594,712,126,65,515,500,709,0.37,20586196900
159,580,658,104,58,514,518,738,0.37,20586209500
171,524,621,101,60,477,513,704,0.38,20605985600
188,547,634,104,58,523,480,765,0.39,20627321000
183,547,608,103,54,496,576,843,0.4,20646896400
191,575,474,87,56,435,573,828,0.41,20666746400
199,583,399,97,62,440,578,794,0.42,20687007200
188,598,411,99,64,525,566,767,0.44,20725182900
168,583,390,97,72,523,595,641,0.45,20746696300
149,589,384,98,79,581,457,647,0.45,20746707400
134,431,362,94,78,618,493,691,0.47,20784994600
125,549,408,88,70,614,479,667,0.48,20804670800
129,547,445,88,64,542,528,668,0.48,20804681800
165,553,458,86,53,503,612,700,0.49,20827446100
167,544,468,84,45,468,608,568,0.51,20866500300
185,611,444,86,46,429,614,565,0.51,20866511900
188,467,424,66,46,436,609,619,0.53,20906528700
191,489,472,98,58,397,619,641,0.54,20924949200
163,499,460,102,57,384,628,669,0.54,20924960300
166,510,452,103,60,450,607,763,0.56,20966373900
186,502,439,99,64,558,607,818,0.57,20986790400
198,524,366,97,68,570,686,848,0.57,20986801400
198,521,255,81,69,673,672,840,0.58,21007583000
200,594,294,79,69,682,644,815,0.6,21047023800
196,638,293,80,70,625,676,719,0.6,21047066700
165,587,289,75,66,578,685,666,0.61,21066779300
151,577,331,74,65,573,705,642,0.63,21104648500
149,587,360,61,71,564,759,664,0.63,21104659500
159,512,329,59,80,599,780,745,0.65,21147095900
166,486,330,59,76,628,811,856,0.66,21164694200
173,496,323,61,77,620,858,929,0.66,21164704800
185,506,266,56,79,760,810,977,0.68,21206019100
210,502,310,74,71,703,825,1073,0.69,21227956900
225,518,340,77,68,767,755,1064,0.69,21227968600
241,473,362,79,76,812,816,1010,0.71,21267225700
251,540,373,79,85,871,816,1010,0.72,21286622100
301,536,380,89,102,869,923,960,0.73,21306408300
294,543,432,91,118,901,881,833,0.73,21306418600
286,585,454,94,116,854,909,789,0.75,21346212700
293,643,439,99,114,870,852,814,0.75,21346223400
292,688,442,102,111,954,827,760,0.76,21366492100
243,734,453,94,94,959,776,854,0.78,21406457600
245,781,379,87,84,1036,785,896,0.78,21406468200
274,738,347,82,94,1139,813,935,0.8,21444960700
258,778,374,85,116,1193,846,978,0.81,21467963900
290,714,370,87,123,1126,980,1055,0.81,21467976600
296,721,350,88,123,1137,945,1022,0.82,21487522100
292,725,274,76,126,1145,977,1046,0.84,21524421500
267,725,330,91,134,1165,981,1007,0.84,21524432000
280,693,333,89,125,1146,1015,988,0.85,21546235600
265,668,321,86,126,1245,903,882,0.87,21584444900
318,653,318,96,163,1272,1018,976,0.87,21584455900
330,646,373,100,163,1296,1075,937,0.89,21626011200
343,716,451,107,160,1257,1089,951,0.9,21646858000
376,681,471,117,160,1280,1031,885,0.91,21666898000
376,675,483,117,168,1352,1023,964,0.91,21666908700
376,695,489,114,155,1385,930,839,0.93,21705400300
450,647,451,115,164,1395,829,908,0.94,21725000800
455,639,313,105,172,1404,837,941,0.95,21744603900
459,684,289,99,194,1394,835,1055,0.96,21767671400
459,764,296,107,220,1351,847,1038,0.97,21787757300
459,713,347,121,234,1274,909,1078,0.97,21787767800
460,729,353,122,241,1310,939,1101,0.99,21825277200
493,767,342,129,254,1417,954,1205,0.98,21848059100
511,774,371,130,248,1411,1052,1154,0.98,21848071200
544,838,418,127,236,1387,1133,1147,0.96,21885797900
564,826,376,133,263,1475,1093,1229,0.95,21905266400
512,806,442,139,249,1407,1109,1258,0.94,21924918000
515,772,570,169,245,1362,1080,1163,0.93,21944739900
520,818,706,212,249,1395,1062,1147,0.92,21967269800
488,796,736,226,246,1356,1002,1103,0.92,21967285300
474,873,754,217,194,1212,950,981,0.9,22005949400
471,906,736,219,207,1182,880,885,0.89,22026336900
426,867,662,190,185,1152,836,820,0.89,22026348700
350,837,515,147,159,1071,703,753,0.87,22067687000
316,775,605,162,132,992,561,691,0.86,22084593400
238,701,699,178,122,962,509,566,0.85,22104721000
192,622,701,169,94,920,440,373,0.84,22124574900
151,603,744,170,81,714,367,263,0.83,22145843200
141,492,801,192,87,609,272,224,0.82,22165775100
136,372,734,167,80,580,250,183,0.81,22185690900
111,445,729,146,75,636,274,132,0.8,22205326600
115,607,781,147,69,643,268,104,0.79,22226175200
107,628,770,163,76,610,217,81,0.78,22246245500
101,622,741,174,73,581,207,67,0.77,22268142900
102,644,791,177,75,560,206,61,0.77,22268154900
134,553,747,179,69,524,170,191,0.76,22289570200
131,434,702,184,71,405,169,201,0.74,22327097900
133,434,714,167,61,419,157,210,0.74,22327108300
132,456,797,128,51,427,154,215,0.72,22365680500
133,416,763,126,52,414,162,217,0.71,22385045800
88,422,779,131,56,419,136,119,0.7,22404927500
120,347,804,124,52,414,105,99,0.69,22424552800
118,382,770,126,52,393,96,74,0.68,22446477200
134,477,649,124,53,375,92,63,0.68,22446488700
132,495,715,155,50,306,87,56,0.66,22484951300
126,490,706,160,41,194,77,47,0.65,22505967100
90,497,683,160,43,154,80,44,0.64,22526352900
89,481,784,166,50,145,77,43,0.63,22547404600
73,370,837,167,49,141,76,38,0.62,22566768800
110,358,825,144,51,135,57,44,0.61,22585859800
118,356,832,157,56,110,50,47,0.6,22607282700
123,353,853,158,57,103,50,50,0.59,22626892600
127,306,790,157,54,107,51,51,0.58,22646365600
127,287,796,146,52,111,60,47,0.57,22666975400
95,265,723,132,48,100,58,41,0.56,22684735300
91,274,721,99,45,90,53,38,0.55,22705958200
106,299,708,158,59,90,51,50,0.54,22726702800
101,295,822,168,63,87,50,49,0.53,22746535800
97,305,835,208,68,78,39,52,0.51,22786582700
97,315,856,218,71,76,43,51,0.51,22786617500
102,325,916,227,70,83,52,54,0.5,22806360400
85,327,996,201,61,76,45,40,0.49,22826111300
91,316,956,208,62,87,49,44,0.48,22845844900
93,321,933,176,59,90,46,44,0.47,22865387800
93,320,923,161,54,87,43,45,0.46,22885791000
88,361,853,156,57,82,35,44,0.45,22904852100
84,360,850,141,52,98,64,46,0.44,22925300900
75,399,891,112,46,91,63,41,0.43,22946281100
77,446,879,108,54,108,66,42,0.42,22967004800
76,445,893,112,55,114,69,42,0.41,22984833700
77,438,955,104,56,133,87,45,0.4,23004823900
79,420,923,117,67,153,73,53,0.39,23024823300
78,398,791,124,66,157,73,54,0.38,23049664300
93,367,819,123,59,154,75,58,0.37,23066590000
98,368,815,124,56,149,74,59,0.36,23085924900
96,325,712,127,52,149,53,79,0.35,23106240200
113,359,750,153,61,119,51,78,0.34,23126668200
113,428,1038,156,64,116,48,79,0.33,23147286500
113,426,1088,164,68,103,42,77,0.32,23164799900
114,466,1118,173,73,106,42,76,0.31,23185511700
140,532,1239,252,93,87,47,66,0.3,23207457800
165,678,1292,254,97,100,57,71,0.29,23227441100
168,671,1203,263,99,107,59,70,0.28,23246934600
172,695,1161,266,106,130,60,103,0.27,23266604800
185,700,1198,277,115,152,79,128,0.26,23286293600
172,685,1208,263,111,158,75,124,0.25,23305555800
144,620,1144,289,114,154,69,122,0.24,23326106700
143,606,1070,286,118,153,71,125,0.23,23351910500
147,601,1112,315,123,134,71,100,0.22,23365725200
171,668,1128,332,124,142,68,84,0.21,23386344500
236,806,1072,394,152,145,85,121,0.2,23407060400
274,852,1097,451,176,142,92,135,0.19,23425101900
292,878,1148,483,196,144,100,141,0.18,23444919500
288,922,1152,482,195,146,101,143,0.17,23467411400
314,937,1200,542,220,155,104,153,0.16,23487144600
332,912,1313,521,217,159,112,151,0.15,23505254900
350,855,1373,569,235,171,119,172,0.14,23524866300
456,962,1347,634,273,201,149,202,0.13,23545942000
477,990,1339,676,297,217,160,234,0.12,23567820100
451,938,1251,632,282,194,154,225,0.11,23584918000
413,869,1147,630,276,193,146,214,0.1,23605694800
418,963,1021,604,269,189,145,201,0.09,23626145100
322,922,1052,579,246,169,116,176,0.08,23646305600
315,871,1040,549,227,150,105,162,0.07,23667595700
314,868,986,540,223,155,101,169,0.06,23686876000
399,925,906,617,266,162,121,207,0.05,23706479600
364,821,946,564,245,154,112,200,0.04,23725901000
342,723,860,495,216,151,138,253,0.03,23745523000
316,656,752,452,201,259,170,353,0.02,23767438500
313,611,719,438,198,269,249,414,0,23807421900
195,486,757,262,119,431,270,427,0,23807432700
181,509,618,225,118,534,362,548,0.01,23825290800
170,486,664,214,106,551,379,584,0.02,23846186800
166,504,671,211,108,607,526,750,0.03,23866336300
200,524,701,220,113,682,601,784,0.04,23885511000
196,525,610,193,109,649,620,789,0.05,23905252600
208,450,713,183,99,581,586,835,0.06,23925064500
205,434,693,178,97,566,572,809,0.07,23944809200
216,408,684,178,99,543,506,690,0.08,23966548300
175,407,656,158,86,556,518,664,0.09,23987409700
186,465,679,156,86,504,502,700,0.1,24004579800
176,451,572,140,72,505,490,552,0.11,24025183000
168,442,474,119,71,509,499,561,0.12,24045917300
169,460,482,114,68,528,492,599,0.13,24066722900
177,437,522,108,63,426,371,605,0.14,24087155100
149,387,554,142,66,413,362,561,0.15,24111907800
143,460,596,163,70,409,359,570,0.17,24145093600
147,467,576,167,68,407,351,575,0.17,24145141100
134,455,552,166,61,390,330,550,0.18,24164635700
133,459,479,166,60,390,396,520,0.2,24207795300
133,450,459,145,59,383,387,491,0.2,24207806700
115,400,488,104,45,391,389,499,0.21,24224846300
108,398,496,104,49,386,393,470,0.22,24245670700
105,397,501,100,43,268,366,474,0.24,24286264700
100,390,543,100,44,245,462,518,0.24,24286278700
103,430,517,85,39,330,479,548,0.25,24306689800
98,411,459,78,37,314,489,540,0.26,24327626300
95,411,451,69,34,317,481,573,0.27,24346938000
103,402,443,70,33,303,468,493,0.28,24366562900
100,403,397,68,32,333,289,594,0.29,24386475700
110,469,412,98,50,320,263,589,0.3,24406164200
124,524,422,111,55,321,253,599,0.31,24425128300
130,516,448,112,54,321,273,621,0.32,24446183100
119,524,448,112,58,357,255,645,0.33,24466535700
119,532,444,112,61,347,419,560,0.34,24486783800
103,389,359,81,53,298,418,574,0.35,24507406400
112,333,326,57,45,281,422,603,0.36,24524585500
102,393,337,52,50,301,658,567,0.37,24544527500
104,399,345,52,50,292,752,583,0.38,24568993900
117,391,349,52,46,289,719,555,0.39,24585633300
124,387,338,44,41,284,722,567,0.4,24605595600
108,398,279,55,47,287,725,585,0.41,24625372200
113,359,304,55,40,267,531,602,0.42,24646155700
125,354,314,56,39,268,505,575,0.43,24667020200
113,354,309,56,40,268,529,574,0.44,24684701100
110,359,301,55,39,253,528,637,0.45,24706154000
139,306,331,44,36,253,535,605,0.46,24725118900
135,293,286,49,36,238,529,584,0.47,24746489400
123,275,378,49,32,217,457,580,0.48,24765862700
122,266,386,46,32,174,350,557,0.49,24785408900
130,292,392,48,32,171,395,493,0.5,24804734000
100,290,369,43,29,227,465,506,0.51,24827603400
113,303,366,40,34,289,454,549,0.52,24846831200
109,449,332,41,34,278,449,600,0.53,24872515000
123,468,331,42,33,283,484,594,0.54,24886855500
121,482,322,42,41,310,492,639,0.55,24907554400
125,472,336,44,46,351,457,647,0.56,24925131200
112,453,330,40,44,351,484,658,0.57,24945748500
161,433,237,41,45,442,533,625,0.58,24966199500
163,449,220,40,49,468,585,706,0.59,24986024200
164,423,229,46,55,509,645,658,0.6,25005886400
171,443,214,47,60,594,729,699,0.61,25027403600
181,470,241,49,63,652,740,782,0.62,25046993100
156,465,250,48,64,705,806,821,0.63,25066735900
151,463,261,51,66,733,757,774,0.64,25086485200
150,453,331,49,60,731,772,809,0.65,25107101700
158,515,333,47,54,713,707,813,0.66,25127626300
158,505,285,46,55,736,803,756,0.67,25144433400
161,415,271,46,55,738,790,743,0.68,25165667100
187,395,268,49,77,747,848,780,0.69,25185462100
201,531,174,50,87,759,805,830,0.7,25205373200
191,530,250,61,91,704,864,803,0.71,25225350200
201,597,261,59,90,645,848,790,0.72,25244936900
196,642,264,61,110,638,840,789,0.73,25264821700
173,672,257,57,96,722,827,784,0.74,25284780700
163,636,251,56,103,946,873,864,0.75,25304906300
201,626,144,51,118,1130,929,894,0.76,25328540900
230,583,118,69,137,1194,906,924,0.77,25346296800
343,618,152,90,166,1265,910,951,0.78,25366901100
382,620,299,107,181,1269,967,945,0.79,25384761300
384,600,325,111,194,1214,1001,813,0.8,25405176600
382,588,329,113,196,1133,914,801,0.81,25425085000
362,563,330,108,188,1171,905,904,0.82,25444925600
317,535,314,95,167,1082,910,920,0.83,25467760500
293,500,195,84,166,1136,831,967,0.84,25486158700
347,555,151,82,157,1292,793,1074,0.86,25526249500
433,586,148,86,190,1325,856,1148,0.86,25526260900
477,714,199,98,204,1394,875,1041,0.87,25544556800
485,885,269,112,234,1506,987,1045,0.88,25565832500
502,928,434,147,284,1510,1063,1074,0.89,25586600700
515,966,456,156,320,1408,1093,1086,0.9,25607016800
513,963,461,163,314,1429,1141,1031,0.91,25630831900
554,958,471,173,319,1457,1187,1062,0.92,25645364500
578,768,474,171,303,1398,1117,1081,0.93,25666469900
586,822,335,148,267,1343,1121,1090,0.94,25686946800
577,765,368,144,227,1411,1149,1056,0.95,25704684800
527,733,375,134,215,1388,1057,1053,0.96,25725544700
467,697,342,120,231,1375,1089,1104,0.97,25747260500
430,769,334,112,223,1351,1038,1050,0.98,25765687800
389,704,443,105,202,1371,949,957,0.99,25786149400
347,645,407,98,188,1220,802,838,0.98,25805167200
319,635,418,92,173,1177,758,830,0.97,25827537200
315,642,441,84,119,1002,543,683,0.96,25846077600
253,566,427,82,99,968,444,594,0.95,25864656600
238,537,312,74,92,840,385,525,0.94,25885802100
221,545,417,114,99,851,380,486,0.93,25905601800
207,606,427,118,99,814,323,349,0.92,25925119500
130,532,414,113,89,886,272,267,0.91,25946773100
133,533,402,110,86,843,247,246,0.9,25967550600
132,524,420,114,87,871,221,241,0.89,25984831600
119,514,497,106,72,778,139,226,0.88,26005344200
139,446,558,115,60,723,147,122,0.87,26026034300
136,429,596,119,51,543,134,103,0.86,26046839000
108,401,687,124,49,503,125,86,0.85,26067112800
134,352,720,119,46,448,121,70,0.84,26085147000
136,356,688,106,43,423,120,58,0.83,26104830000
119,342,727,91,45,423,111,46,0.82,26127629000
122,326,725,88,48,463,149,63,0.81,26147005100
122,332,671,82,47,450,150,63,0.8,26166568800
91,385,643,84,48,445,154,64,0.79,26186949700
93,525,582,57,41,430,152,63,0.78,26204602300
82,530,473,58,45,458,152,64,0.76,26247367800
83,541,471,71,49,418,130,44,0.76,26247379400
96,550,465,71,51,402,133,44,0.75,26264633500
100,517,451,69,48,403,129,43,0.74,26285061400
94,374,490,70,49,388,127,38,0.72,26327692100
94,375,555,78,44,288,139,38,0.72,26327733700
97,394,618,86,53,335,116,44,0.71,26347164800
96,408,628,89,53,394,109,51,0.69,26388036700
91,394,673,92,54,388,107,50,0.69,26388071100
93,390,707,105,56,388,106,52,0.68,26405088200
132,410,679,99,56,369,64,50,0.66,26447376800
126,368,663,80,38,267,54,47,0.66,26447394000
118,318,753,85,36,153,52,38,0.65,26465080200
120,333,732,87,36,154,51,37,0.63,26506354600
117,350,795,81,31,143,51,35,0.63,26506366200
84,355,807,88,33,118,51,40,0.61,26547290800
83,342,798,94,39,84,37,37,0.61,26547301000
88,360,704,121,49,76,36,44,0.59,26587147300
86,369,751,122,50,73,35,44,0.58,26607535500
87,328,661,127,53,72,37,45,0.57,26624648800
85,288,665,144,54,64,37,42,0.57,26624660900
99,343,700,166,57,63,37,48,0.56,26645293300
90,326,710,146,53,76,35,41,0.55,26666150700
90,305,687,148,52,75,35,40,0.54,26691793500
87,317,710,149,50,75,31,40,0.52,26727146300
81,331,816,141,52,68,29,38,0.52,26727164900
75,308,901,120,49,70,30,34,0.5,26765440200
84,321,971,141,50,59,30,41,0.5,26765451000
81,317,943,135,52,64,38,40,0.49,26785718200
97,342,935,169,66,86,47,46,0.48,26806057200
94,333,854,175,68,86,49,48,0.47,26825409600
121,355,796,223,79,102,62,62,0.46,26847073300
126,425,840,218,79,139,75,62,0.44,26885985300
127,446,864,221,80,165,74,76,0.43,26906517100
128,459,935,211,72,163,72,82,0.43,26906531000
129,440,943,204,67,176,72,82,0.41,26947496500
112,469,886,175,60,178,67,73,0.41,26947507400
103,409,874,176,60,157,51,72,0.4,26967299800
107,435,922,179,60,166,57,61,0.39,26986901000
97,412,870,169,64,195,57,49,0.38,27005290400
98,437,903,183,68,184,59,48,0.37,27024863300
110,443,1003,196,74,179,56,54,0.36,27047668600
119,459,1027,205,77,176,60,55,0.35,27065153000
117,436,1002,207,79,165,59,51,0.34,27086356100
109,429,1012,204,73,123,55,48,0.33,27106748100
105,498,1013,191,69,127,53,47,0.32,27127160600
97,452,948,186,65,127,54,47,0.31,27145825900
85,443,842,184,55,126,49,42,0.29,27185838600
89,443,861,195,60,98,43,46,0.29,27185886900
98,479,824,188,58,121,47,51,0.28,27205347800
124,443,925,211,70,115,49,58,0.27,27224694900
139,421,1040,211,79,112,51,62,0.26,27246154400
167,526,1131,238,99,113,61,76,0.25,27265960300
210,599,1202,328,124,113,73,96,0.23,27305409900
220,578,1344,349,133,87,71,99,0.23,27305421600
216,620,1317,383,139,105,73,100,0.22,27326000700
213,652,1299,402,152,104,73,101,0.21,27346358000
236,740,1263,466,159,110,74,111,0.19,27386992400
244,806,1193,482,161,118,73,109,0.19,27387036600
240,839,1201,513,168,124,78,110,0.18,27407005800
267,882,1221,529,168,123,82,119,0.16,27451318100
299,951,1212,521,155,120,83,127,0.16,27451330800
390,1028,1325,587,241,166,109,170,0.14,27487400100
421,1116,1336,615,251,168,116,182,0.14,27487412700
466,1210,1212,613,268,170,123,199,0.13,27504576400
473,1230,1177,607,273,176,125,200,0.12,27525371400
499,1285,1117,721,304,190,140,219,0.1,27567153300
463,1236,1054,689,258,172,123,197,0.1,27567164900
440,1235,1072,646,263,171,120,192,0.09,27584554800
408,1363,1204,629,245,162,113,179,0.07,27626803600
395,1374,1236,722,252,176,113,180,0.07,27626848400
355,1299,1274,630,218,192,97,153,0.06,27646185200
400,1321,1205,636,228,207,111,157,0.04,27684705000
420,1202,1249,657,226,207,116,163,0.03,27704392400
430,975,1168,691,234,225,117,163,0.03,27704469900
438,1016,1112,600,221,228,116,165,0.01,27747450500
427,1030,1098,598,227,202,114,163,0,27766629700
337,926,1095,519,194,167,111,143,0,27766640900
302,940,1065,500,194,194,112,122,0.01,27787442700
289,982,1038,438,179,173,111,120,0.02,27804735700
272,890,1077,407,183,149,107,110,0.03,27827043500
282,894,1028,403,177,337,274,268,0.05,27866263200
271,844,976,385,172,503,392,491,0.05,27866274100
251,805,970,333,137,590,446,578,0.06,27884967700
239,773,933,358,143,640,487,600,0.07,27908685400
221,674,803,338,136,690,491,681,0.08,27927417300
203,592,729,282,136,780,609,780,0.09,27946387900
218,595,695,265,135,828,591,756,0.11,27987809700
208,645,670,230,133,873,592,745,0.11,27987836200
196,556,599,169,260,896,595,806,0.13,28027934800
203,547,647,150,280,957,699,873,0.14,28047512500
183,548,770,133,285,954,740,856,0.14,28047523100
178,556,850,159,285,881,805,811,0.16,28085939100
195,482,780,161,287,840,786,775,0.17,28104907200
199,465,768,151,173,868,783,801,0.17,28104940900
193,497,697,136,136,890,727,770,0.18,28124864300
248,519,593,209,136,772,639,712,0.2,28164882800
244,499,552,240,149,785,508,702,0.2,28164928800
233,494,578,241,144,829,525,740,0.22,28211549600
226,481,576,249,147,820,564,697,0.22,28211560700
223,451,580,246,142,730,591,643,0.23,28225705100
174,387,605,190,115,780,574,611,0.25,28266782600
158,475,584,132,92,754,575,626,0.27,28306678200
154,449,500,122,82,816,559,711,0.27,28306726600
142,429,492,100,72,813,576,729,0.27,28306746400
139,410,489,96,69,784,546,741,0.29,28346162000
146,550,446,90,71,748,625,730,0.3,28367383400
138,516,460,84,68,718,630,737,0.3,28367394300
148,528,447,89,75,617,729,677,0.32,28405706100
154,532,427,89,76,535,689,627,0.33,28426228100
161,553,417,94,77,542,738,570,0.33,28426239000
158,440,407,96,69,522,639,706,0.35,28468021000
188,453,376,95,72,559,640,692,0.36,28484884800
180,465,421,85,59,477,589,702,0.36,28484895600
184,461,421,86,50,529,727,723,0.38,28526078200
188,500,419,81,56,590,747,828,0.39,28546197900
205,565,391,76,61,598,779,799,0.39,28546210200
175,543,358,69,57,576,821,803,0.41,28585346000
189,540,286,66,60,624,816,773,0.42,28605690400
180,572,286,66,64,601,774,843,0.42,28605701500
174,544,281,63,58,519,758,800,0.44,28646467000
146,480,253,50,54,506,725,729,0.45,28669454100
160,459,181,45,53,510,687,726,0.45,28669465600
157,464,299,86,68,457,748,732,0.47,28706652100
168,441,337,92,67,428,700,633,0.48,28728511600
176,429,335,93,70,422,686,644,0.48,28728522600
168,406,335,94,72,436,686,702,0.49,28747543400
173,403,369,98,73,470,746,842,0.51,28786902600
160,395,305,70,63,570,814,855,0.51,28786913500
152,375,349,71,70,580,819,857,0.53,28825468300
139,403,356,71,69,635,914,843,0.54,28846115200
139,499,352,69,70,732,958,853,0.55,28866599700
128,483,290,62,71,724,963,760,0.56,28887650000
131,523,292,56,90,811,891,811,0.57,28904845500
123,541,244,44,86,870,882,901,0.58,28925544600
133,591,243,47,95,965,862,915,0.59,28945162100
142,615,259,47,100,968,937,881,0.6,28964931000
132,629,296,53,97,964,899,832,0.61,28987292500
148,623,309,51,76,860,928,813,0.62,29007061000
180,634,258,50,86,818,988,763,0.63,29026516200
179,577,253,52,85,799,921,727,0.63,29026527800
180,526,251,55,87,828,794,725,0.65,29067757700
184,576,213,50,93,833,855,783,0.66,29085511500
177,626,390,74,118,909,831,789,0.66,29085529300
168,708,424,74,120,1120,732,830,0.68,29125263800
199,771,426,74,125,1111,754,880,0.69,29146433600
236,764,458,82,134,1120,856,970,0.7,29165926500
256,780,466,86,139,1247,898,1046,0.71,29186382800
297,791,316,82,140,1258,982,1083,0.72,29204491300
329,802,272,83,136,1093,1040,1108,0.73,29227625000
368,812,303,96,155,1165,1040,1161,0.74,29247552400
369,818,349,102,178,1239,1043,1193,0.75,29264642500
415,815,455,109,192,1276,967,1107,0.76,29287667400
392,770,472,110,188,1363,909,1066,0.76,29287679300
446,716,497,138,190,1375,1001,1068,0.78,29324914100
423,690,488,138,191,1385,1038,1027,0.79,29345498200
487,760,421,143,209,1393,1113,929,0.8,29365851600
491,862,300,143,211,1331,1211,1021,0.81,29385821200
596,858,270,147,225,1257,1214,1092,0.82,29406076500
692,979,305,159,279,1367,1151,1097,0.83,29427265300
710,999,371,157,283,1296,1306,1085,0.84,29446975800
704,946,376,153,278,1284,1264,1120,0.85,29466454600
722,901,428,169,313,1371,1214,1099,0.85,29466464700
668,956,484,168,330,1414,1216,1063,0.87,29504845000
557,979,536,150,304,1391,1262,1101,0.88,29525126600
560,1022,674,176,300,1451,1090,1140,0.89,29545896000
587,1066,707,179,295,1423,1063,1114,0.9,29566711800
598,1090,691,171,269,1404,1048,1173,0.91,29585160000
644,1062,662,167,247,1393,1064,1160,0.92,29604764800
607,1023,593,155,239,1364,1014,1163,0.93,29624662500
617,1073,434,156,269,1309,1022,1112,0.94,29647523000
572,1042,405,151,254,1353,1029,1142,0.94,29647533800
556,1013,377,149,241,1253,1070,1066,0.96,29685966900
529,1046,349,149,233,1187,1056,1058,0.97,29706321700
566,1021,356,150,232,1233,1016,988,0.97,29706333400
526,879,374,117,184,1246,1005,1017,0.98,29731910000
545,857,366,108,167,1114,990,959,0.98,29767976300
492,773,364,96,151,1202,952,993,0.98,29767988300
511,745,361,97,167,1255,954,1012,0.96,29806586000
526,764,358,94,144,1254,908,922,0.95,29826183800
520,796,265,83,138,1253,850,844,0.95,29826256900
470,802,297,86,142,1310,759,824,0.93,29865134800
464,800,333,86,136,1241,670,768,0.92,29886835200
355,759,348,77,94,1169,510,647,0.92,29886845900
242,601,343,82,88,1034,480,613,0.9,29926816600
224,567,384,89,90,976,391,539,0.89,29947302300
197,531,334,93,87,910,322,470,0.88,29964614500
179,542,333,108,76,847,250,259,0.87,29985782000
206,487,319,122,76,758,207,165,0.86,30006560000
196,544,454,168,86,727,202,132,0.85,30024666100
192,602,535,188,87,826,206,105,0.84,30046253100
173,585,565,185,86,820,187,97,0.83,30065926700
156,616,647,175,86,793,195,128,0.82,30085233700
121,666,792,186,88,761,173,123,0.81,30104992700
125,625,836,149,76,743,170,130,0.8,30124625200
124,523,801,122,74,659,157,130,0.79,30144997100
141,573,832,143,71,554,165,130,0.78,30165298100
176,558,791,150,70,535,192,88,0.77,30188097400
194,531,708,153,71,527,197,79,0.76,30205453300
192,529,674,147,67,508,197,70,0.75,30225825300
200,545,759,151,61,393,211,70,0.74,30246081900
198,486,765,141,66,514,184,75,0.73,30266278300
167,414,767,136,67,506,141,65,0.72,30286243300
154,403,783,112,58,517,135,66,0.71,30305760700
156,375,706,110,58,519,130,61,0.7,30325457500
144,344,679,102,52,489,122,66,0.69,30346779700
135,370,689,92,46,413,134,66,0.68,30367614200
142,363,690,88,44,383,134,66,0.67,30384778000
105,354,686,93,38,370,137,63,0.66,30405883200
120,371,734,166,47,370,137,67,0.65,30427199700
117,362,707,173,54,484,121,56,0.64,30447434500
128,326,743,180,69,484,134,58,0.63,30464491100
160,326,744,184,72,477,135,60,0.62,30491965200
159,321,819,196,77,480,130,64,0.61,30505433300
148,293,850,147,72,476,129,60,0.6,30525257400
160,284,806,141,70,306,114,59,0.59,30545310400
151,271,794,139,59,206,68,48,0.58,30564969900
112,273,804,143,58,192,61,44,0.57,30585508500
106,243,722,129,54,174,61,38,0.56,30607350000
105,241,731,130,54,166,57,42,0.55,30624807900
101,289,841,152,59,173,82,75,0.54,30646898400
97,288,800,146,52,141,75,91,0.53,30664583500
94,308,795,150,58,138,77,95,0.51,30705261100
97,308,809,153,63,177,78,100,0.51,30705271200
97,309,793,144,73,212,92,104,0.5,30724705200
77,296,757,122,68,196,66,83,0.48,30767065200
91,341,851,140,69,198,69,68,0.48,30767092800
93,339,898,146,69,203,66,67,0.47,30786454300
91,368,849,161,73,281,77,62,0.46,30805423400
91,348,871,167,69,316,76,59,0.45,30826630000
102,369,846,170,70,321,77,61,0.44,30847092500
100,364,780,197,75,321,76,58,0.43,30867722800
115,371,806,225,80,329,81,64,0.42,30884825200
117,352,810,219,74,252,70,63,0.41,30905828600
125,372,836,242,80,187,63,61,0.4,30925623800
119,329,843,244,82,243,87,71,0.39,30946853200
115,298,838,214,76,273,93,76,0.38,30966884900
121,357,938,219,77,272,95,73,0.37,30986786500
141,479,1028,233,77,274,99,78,0.36,31006744100
146,554,970,221,72,298,97,79,0.35,31027336900
159,613,1023,241,81,260,88,79,0.34,31045490300
157,607,1048,248,85,256,87,76,0.33,31066156200
148,623,1096,220,76,252,100,74,0.32,31086600300
138,570,1087,212,81,259,95,72,0.31,31106532100
127,523,1160,207,80,237,97,86,0.3,31127505400
144,568,1225,233,86,221,97,84,0.29,31147618600
156,585,1235,245,96,242,103,101,0.28,31167111400
152,525,1188,253,102,238,89,103,0.27,31186411800
147,519,1175,255,100,221,91,104,0.26,31206597900
155,532,1134,251,100,200,87,94,0.25,31226124800
183,595,1040,286,122,242,113,129,0.23,31264713700
212,762,1073,299,130,206,110,134,0.23,31264750700
228,792,1033,318,141,213,110,139,0.22,31286478000
229,812,1097,310,141,213,109,137,0.21,31307257000
236,834,1231,386,152,211,117,137,0.2,31324523900
220,783,1277,362,137,169,92,103,0.19,31344740500
212,750,1288,374,149,151,90,96,0.18,31365088600
221,822,1309,422,155,140,91,97,0.17,31384914800
315,905,1333,564,217,147,114,148,0.16,31408935900
323,910,1310,542,220,178,117,172,0.15,31425655200
315,902,1292,558,223,168,120,193,0.14,31445012600
333,836,1248,584,216,158,115,197,0.13,31465849300
332,789,1292,579,215,170,114,199,0.12,31486400700
290,843,1237,509,183,174,101,177,0.11,31506977900
328,913,1247,622,205,183,104,183,0.1,31524401100
346,910,1238,643,213,219,97,194,0.08,31566122700
387,1033,1274,675,247,254,115,220,0.08,31566134400
394,1053,1259,670,250,249,119,220,0.06,31605642600
436,1092,1277,695,272,278,134,235,0.05,31625072300
447,1077,1178,663,269,282,136,231,0.05,31625082800
512,1143,1149,718,274,257,137,222,0.03,31667389500
539,1157,1204,711,255,275,135,228,0.03,31667400300
568,1221,1196,738,266,275,139,251,0.02,31685014700
625,1198,1231,790,290,253,151,284,0.01,31710474300
622,1194,1256,752,281,236,147,277,0,31724735100
582,1193,1252,700,286,272,150,266,0.01,31745265000
526,1114,1157,685,285,234,148,252,0.02,31766155200
482,1064,1065,657,275,254,139,253,0.03,31786205800
347,951,974,547,225,290,124,247,0.04,31806251100
296,902,867,520,231,551,180,340,0.05,31825510500
306,918,882,505,227,612,203,518,0.06,31845015300
293,891,861,486,223,661,226,569,0.08,31886095000
293,820,820,443,209,662,245,628,0.08,31886117700
267,788,806,391,186,704,459,698,0.09,31907435000
268,760,859,362,171,812,547,834,0.1,31924880200
256,717,790,288,164,913,719,800,0.12,31966279400
275,691,777,202,138,933,763,805,0.12,31966290400
292,720,857,194,148,989,876,831,0.14,32006991400
299,710,787,180,148,1000,955,851,0.14,32007003000
303,797,738,173,134,833,973,794,0.15,32024898500
247,687,755,205,108,834,947,809,0.16,32044691400
203,716,804,196,107,812,944,830,0.17,32064503600
182,707,676,216,100,840,921,914,0.18,32087040900
185,701,662,209,102,926,847,862,0.19,32106275200
197,644,667,208,106,986,826,877,0.2,32126265800
219,684,723,275,112,918,740,896,0.21,32147114100
214,676,610,281,107,959,746,873,0.22,32165825400
199,655,639,260,114,1040,688,820,0.23,32186614800
208,695,640,263,122,1025,616,854,0.24,32207792900
184,726,610,263,126,951,623,762,0.26,32247525300
167,740,617,174,118,905,623,670,0.26,32247538400
187,698,632,153,121,878,735,782,0.27,32267793500
199,663,573,150,112,806,796,756,0.28,32287035300
203,629,556,146,96,762,813,772,0.29,32306780900
207,616,550,140,86,748,773,755,0.3,32324937000
208,564,571,105,75,750,753,802,0.31,32345030200
206,570,559,106,77,823,631,905,0.32,32365386400
201,571,567,102,74,779,595,897,0.33,32386036100
188,540,582,91,69,723,539,846,0.35,32427001900
184,502,569,84,68,751,508,906,0.35,32427015300
188,561,527,89,69,719,530,881,0.36,32447599600
179,634,545,89,84,728,605,690,0.37,32469193100
175,632,527,89,85,690,555,756,0.38,32487320800
155,632,513,89,85,668,602,813,0.4,32527633500
135,638,546,90,87,662,625,793,0.4,32527647200
140,612,517,87,94,711,692,794,0.41,32546677700
151,491,495,80,75,564,651,732,0.42,32567541600
177,496,492,81,69,604,641,694,0.43,32585080300
203,514,490,83,76,684,658,668,0.44,32606782500
214,517,440,84,73,670,671,609,0.45,32625133600
224,538,403,77,58,634,615,589,0.46,32645654300
218,529,477,111,78,649,588,685,0.47,32666105700
200,518,473,117,80,580,658,612,0.48,32685664200
198,522,495,115,70,467,641,573,0.49,32705572300
207,472,491,116,77,619,665,613,0.5,32725082200
204,441,508,115,86,688,680,685,0.51,32745098500
203,477,443,82,86,810,716,644,0.52,32764971000
199,515,454,74,84,846,690,658,0.53,32787643900
198,501,438,75,90,912,693,725,0.54,32805923400
186,484,424,71,89,838,728,723,0.55,32826070900
168,462,268,53,83,833,741,797,0.56,32846226500
214,474,270,47,86,878,709,859,0.57,32867558500
238,540,343,79,99,1014,737,868,0.58,32887474100
240,544,350,83,100,1046,749,879,0.59,32904435500
261,674,398,86,111,1116,796,909,0.6,32926280400
259,676,415,90,115,1203,825,855,0.61,32946810800
248,688,373,92,106,1147,889,846,0.62,32966900500
243,626,297,75,106,1079,878,898,0.63,32994170900
248,653,278,76,119,1190,910,888,0.64,33004515700
245,524,246,74,119,1196,851,891,0.65,33025573900
251,518,252,78,124,1258,883,943,0.66,33046138100
249,526,244,78,131,1287,931,928,0.67,33067040700
261,594,244,82,135,1293,1018,960,0.68,33086546300
280,730,266,86,127,1307,1035,968,0.69,33107099900
334,772,224,86,125,1358,1132,995,0.7,33126831300
344,763,192,87,137,1355,1121,981,0.71,33146573100
354,781,468,99,136,1346,1106,982,0.72,33166098900
411,809,571,104,154,1390,1121,993,0.73,33185434800
453,693,564,106,164,1301,1115,1053,0.74,33205648900
441,728,574,110,162,1281,1050,1017,0.75,33230900600
472,785,655,123,159,1200,1037,984,0.76,33245864500
529,768,592,118,174,1192,961,1079,0.77,33266299800
515,698,516,111,167,1122,880,1095,0.78,33287338900
497,739,525,121,172,1097,840,1038,0.79,33304596500
543,666,561,133,213,1249,878,1128,0.8,33325117500
585,679,482,121,232,1351,965,1139,0.81,33344875900
596,767,376,132,257,1422,979,1075,0.83,33385743700
599,838,386,163,294,1522,995,1050,0.83,33385769700
659,923,409,170,299,1569,1009,1030,0.84,33405530200
703,946,470,177,288,1472,1001,966,0.85,33425110700
696,938,519,191,278,1368,925,957,0.86,33445317800
670,970,524,188,246,1320,981,959,0.87,33465846100
673,978,538,166,213,1270,934,903,0.89,33507392000
664,1003,537,158,199,1212,984,991,0.89,33507406700
605,1099,442,144,204,1221,999,970,0.9,33527834200
658,1051,483,145,242,1256,1004,983,0.91,33546996200
657,1006,520,152,281,1392,937,973,0.92,33566676000
645,1037,539,146,277,1436,980,998,0.93,33586064100
617,934,625,160,348,1497,923,935,0.94,33605964100
620,865,653,155,345,1524,846,1069,0.95,33626592600
545,940,618,138,318,1548,850,1134,0.96,33646098500
534,906,617,133,309,1491,887,1189,0.97,33666481100
544,854,666,147,319,1444,843,1234,0.98,33688235900
538,896,634,133,249,1413,817,1237,0.99,33705592100
569,966,602,133,241,1388,902,1157,0.98,33726559100
550,974,560,133,246,1368,865,1088,0.97,33747173100
522,962,509,119,216,1275,819,1037,0.96,33767468400
534,981,373,101,189,1253,849,930,0.95,33787265800
481,919,349,83,166,1206,852,855,0.93,33825828900
361,769,392,85,153,1130,712,758,0.93,33825839800
307,695,474,85,119,1043,659,667,0.92,33847345400
317,731,485,86,112,1061,660,556,0.91,33866794200
231,658,482,79,87,1048,639,585,0.9,33886932400
253,636,581,157,88,990,568,554,0.89,33907759100
250,636,689,178,92,871,539,547,0.88,33924420500
245,615,650,181,100,861,514,521,0.87,33945200700
216,519,743,193,93,873,455,468,0.86,33966265300
195,507,837,202,93,799,269,300,0.85,33991266200
198,522,804,163,93,769,236,272,0.84,34004650300
196,517,795,146,79,787,191,185,0.83,34024577200
198,516,799,137,79,769,200,157,0.82,34044502400
200,520,777,143,76,682,204,127,0.81,34067520400
191,447,783,135,72,587,186,90,0.8,34087360100
157,433,819,150,79,583,187,85,0.78,34125231500
192,445,769,154,75,541,176,69,0.78,34125243100
198,460,849,162,72,527,118,74,0.77,34147476600
191,434,901,151,71,408,98,65,0.76,34164809600
199,447,978,203,75,405,92,59,0.75,34185752400
193,425,905,186,75,406,90,56,0.74,34206240200
152,446,880,177,75,396,89,66,0.73,34226054500
137,487,1011,179,73,345,116,105,0.72,34245385800
122,480,930,178,72,288,110,106,0.71,34264997700
137,481,801,154,75,272,108,110,0.7,34284640300
138,495,831,174,65,255,108,112,0.69,34306458100
135,436,884,179,65,264,121,107,0.68,34326866400
143,374,646,173,65,440,117,84,0.67,34347395500
145,427,661,166,66,443,122,84,0.65,34384900500
124,425,733,134,55,450,121,81,0.65,34384911200
116,394,766,140,58,457,122,79,0.63,34426217000
116,372,745,153,60,457,113,78,0.63,34426243800
119,412,750,153,59,283,77,51,0.61,34467357600
118,358,820,154,55,276,71,46,0.61,34467368500
132,368,793,162,57,263,67,40,0.6,34486985300
134,379,809,137,58,257,64,40,0.58,34526436000
151,409,855,124,59,238,64,47,0.58,34526456200
151,433,893,124,52,191,79,60,0.57,34547040600
148,435,841,128,55,211,117,64,0.56,34567327900
129,416,807,113,51,230,121,65,0.55,34584610600
136,458,837,110,47,225,122,66,0.54,34607389800
123,457,796,112,47,231,123,67,0.52,34645642600
125,362,735,124,55,216,114,60,0.52,34645653700
128,352,783,121,66,355,79,57,0.5,34685035100
135,345,860,118,71,367,74,56,0.5,34685054200
162,304,940,118,73,368,73,51,0.49,34707851600
169,302,977,126,73,366,71,54,0.48,34727478000
162,294,1100,120,70,365,64,46,0.47,34751670700
165,328,1099,127,62,206,66,47,0.46,34767119500
155,351,1043,134,68,276,68,50,0.45,34787434100
109,365,917,135,71,295,71,54,0.44,34804956500
133,421,947,161,79,301,66,59,0.43,34825599300
146,444,906,174,84,296,83,59,0.42,34845616000
158,422,925,195,93,317,84,62,0.41,34865772900
163,435,949,202,88,304,108,64,0.4,34890110200
178,535,1016,211,87,310,107,67,0.38,34927815100
181,555,1007,187,79,306,107,59,0.38,34927844200
197,554,933,193,84,307,97,65,0.36,34966680500
210,617,906,200,82,265,112,72,0.35,34987882900
224,653,986,236,99,295,105,79,0.35,34987894800
216,578,903,240,100,301,104,91,0.34,35004966800
210,564,861,262,107,303,104,95,0.32,35046426900
199,657,919,273,107,301,103,98,0.32,35046438200
222,649,998,269,107,367,101,95,0.31,35065323100
221,705,1122,241,102,472,105,91,0.3,35085952000
222,717,1141,240,102,481,109,76,0.28,35124953400
221,765,1156,255,115,492,118,82,0.28,35125005800
217,745,1194,251,114,497,118,75,0.27,35144852700
181,786,1140,262,112,457,120,72,0.25,35184434900
184,729,984,278,125,421,132,76,0.25,35184445800
191,737,999,292,129,428,134,81,0.24,35209179200
176,705,1100,311,126,416,126,74,0.22,35246066600
191,653,1044,355,143,413,130,88,0.22,35246078700
206,613,1059,365,156,410,120,95,0.21,35267038200
196,580,1059,361,144,255,97,92,0.19,35305775400
197,616,1079,356,147,177,95,92,0.19,35305786000
207,611,1128,337,144,171,94,93,0.18,35325274000
202,698,1197,311,136,161,91,93,0.16,35366196300
181,672,1254,319,131,152,88,90,0.16,35366210900
240,767,1271,399,169,234,98,115,0.15,35386107700
236,722,1242,404,173,239,95,114,0.13,35426021900
227,789,1139,406,174,244,98,114,0.13,35426032900
218,813,1078,381,163,250,93,102,0.12,35446285600
226,839,1047,394,168,254,89,104,0.1,35487981200
181,854,1027,344,133,148,67,83,0.1,35488007900
177,842,1067,350,131,153,93,83,0.09,35509690600
211,781,1096,389,146,145,96,94,0.07,35545497100
235,760,1147,438,169,142,105,106,0.07,35545508100
260,753,1173,469,177,155,110,119,0.06,35565597900
264,732,1150,482,189,168,111,122,0.04,35604483100
265,809,1164,482,190,165,94,124,0.04,35604521100
265,816,1084,463,180,165,89,119,0.03,35624450200
268,757,1001,432,174,167,87,121,0.01,35666763800
273,822,996,409,173,170,89,122,0.01,35666800200
260,769,1073,360,153,153,86,123,0,35687446100
260,677,966,333,141,161,110,209,0.02,35724968200
228,599,927,281,127,192,192,304,0.02,35724981500
201,592,938,268,104,310,248,354,0.03,35745554200
144,429,831,171,67,416,268,465,0.05,35785272700
142,373,617,156,61,495,328,485,0.05,35785305100
131,369,676,161,71,557,393,600,0.06,35810361700
149,382,752,176,76,685,508,694,0.07,35827498700
147,432,766,182,83,688,505,677,0.08,35847170500
151,476,771,172,75,629,505,639,0.09,35867329100
141,468,801,166,81,670,571,656,0.11,35905442400
152,468,757,160,91,662,619,600,0.12,35925985100
140,486,777,149,89,535,530,461,0.12,35925996300
156,446,713,135,87,496,518,458,0.13,35946609600
178,454,668,152,97,491,530,450,0.15,35985600700
183,466,627,160,94,441,614,645,0.15,35985637600
182,455,600,157,79,514,625,696,0.17,36024535200
215,486,451,153,78,520,618,735,0.18,36047627700
213,478,584,153,73,499,613,741,0.18,36047639300
191,433,548,136,61,548,619,809,0.2,36086992500
202,402,552,137,81,599,554,757,0.21,36107281600
205,425,558,140,79,502,637,668,0.22,36126072500
216,395,545,134,78,492,652,650,0.23,36146693300
211,448,466,108,79,494,672,708,0.24,36167424100
210,467,495,102,82,540,692,760,0.25,36184377000
203,468,491,82,68,428,669,729,0.26,36207266600
213,449,507,75,69,499,562,750,0.27,36226544800
209,497,586,83,71,495,552,721,0.27,36226555500
234,539,559,109,81,536,550,669,0.28,36246260500
246,519,507,113,77,536,527,609,0.3,36285172500
245,519,509,115,85,681,501,629,0.3,36285182700
240,530,509,116,86,653,560,622,0.32,36327049500
215,553,443,119,88,651,584,668,0.33,36348386900
190,498,582,107,79,639,605,684,0.33,36348398900
186,513,649,103,80,608,673,604,0.35,36386100500
187,519,654,101,66,473,723,515,0.36,36406137300
176,537,637,99,59,458,625,565,0.36,36406148500
174,488,622,90,58,459,628,603,0.38,36447559000
172,434,496,65,50,481,666,647,0.39,36467305700
158,448,419,64,50,469,599,669,0.39,36467329000
150,491,398,61,47,441,507,675,0.4,36486720100
165,463,390,65,53,462,583,727,0.42,36526708500
154,401,346,59,48,509,693,728,0.42,36526720700
182,407,236,64,49,473,660,708,0.43,36547373700
197,391,325,66,51,479,766,744,0.45,36586822200
210,376,370,69,66,605,880,868,0.45,36586835500
215,376,377,67,67,612,899,873,0.47,36625720300
225,421,391,71,66,608,824,923,0.48,36645816300
198,410,404,68,69,617,842,955,0.48,36645837100
180,395,370,87,75,658,828,969,0.5,36684873900
165,353,313,87,64,577,778,909,0.51,36707634300
149,425,309,87,67,598,702,930,0.51,36707665700
160,412,299,87,75,616,786,866,0.53,36746389600
173,443,329,82,72,646,740,829,0.54,36766569000
172,566,278,55,68,760,674,782,0.55,36785249100
178,600,299,55,67,781,671,738,0.56,36807293800
173,562,294,56,65,806,734,638,0.57,36824768000
185,637,284,56,75,826,749,730,0.58,36845048300
183,689,196,52,85,895,844,812,0.59,36864408300
221,661,173,54,91,832,918,863,0.6,36885678600
255,723,232,78,96,843,929,962,0.61,36905299600
277,761,259,80,94,901,925,971,0.62,36924875800
269,737,264,79,109,1024,901,1055,0.63,36944485200
279,660,302,83,118,1118,913,1061,0.64,36964729100
332,665,315,96,164,1167,905,1078,0.65,36985412400
365,606,334,83,182,1140,846,1036,0.66,37007688500
418,674,341,89,225,1261,945,1064,0.67,37029516000
459,737,416,102,236,1275,945,932,0.67,37029527400
508,842,410,124,264,1274,911,863,0.69,37067469000
518,870,564,141,269,1320,904,888,0.7,37086606800
579,903,534,152,279,1392,924,981,0.7,37086617600
554,869,520,150,256,1273,874,955,0.72,37125346500
593,982,510,150,273,1315,964,976,0.73,37144549600
644,927,531,167,274,1406,1000,1118,0.74,37167428100
687,875,365,156,253,1352,1039,1111,0.75,37186601600
671,910,349,160,267,1373,1075,1052,0.76,37204678800
707,983,369,163,266,1402,1099,1075,0.77,37225553700
696,871,514,192,247,1334,1039,1135,0.78,37245462000
630,946,510,170,228,1172,1089,1018,0.79,37266478400
594,947,542,172,244,1158,1152,959,0.8,37286896400
575,908,548,159,220,1114,1187,981,0.81,37306722700
575,833,591,166,224,1104,1144,968,0.82,37326750400
531,846,466,126,211,1071,1109,983,0.82,37326761300
532,853,481,128,205,1117,1039,988,0.84,37364564100
518,872,476,121,207,1160,906,1010,0.85,37387346000
475,895,477,141,217,1236,807,973,0.85,37387356700
467,940,440,137,205,1218,803,994,0.87,37425232800
512,910,423,150,224,1245,885,883,0.89,37466600400
543,873,383,139,221,1260,858,876,0.89,37466613400
535,916,393,146,211,1356,830,854,0.9,37486322200
540,937,463,125,180,1292,866,788,0.91,37504533100
551,1055,506,128,201,1405,870,794,0.92,37527106100
510,1046,525,117,179,1375,793,880,0.93,37546970100
482,1005,523,119,170,1369,872,859,0.94,37566650700
452,958,497,104,147,1341,958,872,0.94,37566661300
449,873,438,105,141,1307,893,865,0.96,37606176900
402,625,425,100,130,1213,871,826,0.97,37626327300
431,643,383,93,126,1225,878,778,0.98,37645645200
421,690,369,93,141,1145,782,816,0.99,37666486500
439,817,356,94,137,1091,665,762,0.98,37687041500
474,896,350,90,141,1055,676,757,0.98,37687052800
470,903,289,89,136,1131,675,704,0.96,37725732500
456,833,269,85,128,1147,661,688,0.95,37745403400
489,890,280,84,105,1186,681,694,0.94,37765921900
472,777,259,83,118,1070,696,750,0.93,37790674000
418,710,273,77,118,1079,686,718,0.92,37807235700
388,692,283,59,102,906,614,711,0.91,37826940900
351,742,441,65,97,801,498,590,0.9,37847365500
284,685,499,67,99,768,386,444,0.89,37864932700
264,702,643,107,81,852,247,281,0.88,37885718500
251,711,859,204,96,826,209,252,0.87,37906389800
226,692,978,224,100,782,182,175,0.86,37926988800
228,653,942,224,99,801,183,153,0.85,37945996100
199,568,946,227,99,721,167,133,0.84,37965918000
185,516,903,222,97,584,150,84,0.83,37985298100
186,494,728,140,72,565,145,79,0.82,38005023900
186,543,622,127,58,540,142,76,0.81,38024735300
162,578,654,145,61,460,141,83,0.8,38044403700
135,540,646,141,61,498,188,86,0.79,38064702600
136,493,614,126,61,495,177,132,0.78,38085063900
180,507,652,153,65,491,185,133,0.77,38107633800
196,551,643,141,65,486,186,132,0.76,38125355700
229,508,675,141,64,442,172,131,0.75,38146156800
228,511,712,142,56,327,102,122,0.74,38166660000
224,510,807,138,51,227,93,65,0.73,38186233700
184,437,842,107,45,218,75,62,0.72,38206002300
175,417,867,139,50,203,68,62,0.71,38225690600
124,407,863,124,50,183,63,55,0.7,38247033800
130,424,851,123,49,97,54,46,0.69,38267293800
127,473,786,131,49,151,60,47,0.68,38284604200
125,470,777,144,53,158,67,47,0.67,38305051500
113,391,727,124,50,155,66,47,0.66,38325388300
112,390,738,135,46,167,66,49,0.65,38345767700
112,433,809,158,51,165,70,56,0.64,38365938100
171,385,783,155,50,109,67,56,0.63,38386307800
172,399,791,157,48,103,59,57,0.62,38404917600
183,374,872,151,45,106,71,55,0.61,38424850100
183,385,899,156,53,133,72,58,0.6,38444689400
180,338,1029,146,54,141,71,53,0.58,38487514600
147,345,1036,150,58,141,67,52,0.58,38487526300
145,341,1064,142,61,137,66,52,0.57,38504615500
133,374,1009,151,69,164,57,51,0.56,38525894200
127,325,1047,131,64,205,64,45,0.55,38545167500
124,354,849,154,71,215,60,44,0.54,38565917600
93,408,962,170,72,215,60,45,0.53,38586937100
120,422,892,166,70,226,60,43,0.52,38606606500
114,395,870,157,60,210,64,41,0.51,38626308200
115,390,739,166,63,155,63,41,0.5,38646042000
120,425,845,152,56,146,66,45,0.49,38665625100
126,395,768,151,58,156,69,42,0.48,38686767000
101,383,786,149,61,200,85,60,0.47,38705019400
109,400,848,159,66,213,101,70,0.46,38726394000
115,412,987,162,65,221,106,70,0.45,38746780100
138,342,944,196,64,256,108,74,0.44,38766850800
140,309,901,193,62,252,107,74,0.43,38789989100
142,299,874,204,63,209,98,61,0.42,38808203400
147,301,880,210,69,273,79,59,0.41,38825120000
148,297,944,209,75,348,72,63,0.4,38845297800
157,340,989,201,89,339,68,62,0.39,38865600400
163,365,1066,206,93,345,69,63,0.38,38885334100
172,423,1086,216,95,415,85,69,0.37,38904800200
170,438,1115,212,91,399,87,63,0.36,38927526200
183,483,1023,246,95,341,83,64,0.35,38944706000
198,540,964,272,97,321,88,74,0.34,38965118300
216,564,915,324,106,317,99,83,0.33,38985097000
221,542,889,322,105,278,95,82,0.32,39004639100
218,528,875,322,105,328,106,82,0.31,39025492200
237,548,859,353,126,326,114,99,0.3,39045535600
234,572,930,358,130,337,115,103,0.29,39065417000
261,595,1072,361,147,337,112,113,0.28,39085013200
255,648,1154,384,153,304,108,113,0.27,39107464900
264,690,1178,408,159,199,99,118,0.26,39127199400
262,710,1155,409,153,224,99,112,0.25,39148245300
248,703,1162,390,147,207,93,106,0.24,39166451900
227,765,1088,409,147,205,88,102,0.23,39187327200
239,776,1122,429,157,191,97,109,0.22,39205080300
270,850,1135,429,161,200,280,124,0.21,39226031500
267,864,1148,456,158,142,320,128,0.2,39246320700
278,841,1139,497,183,169,323,138,0.19,39267629300
273,899,1087,508,186,175,328,136,0.18,39287529500
276,1003,1083,506,204,173,369,137,0.17,39305762600
270,985,1008,518,212,159,274,128,0.16,39325275600
290,1047,1046,492,225,163,228,127,0.15,39345313200
344,1131,1105,602,257,156,237,150,0.14,39364698500
400,1153,1090,698,294,161,251,189,0.13,39385289500
415,1058,1068,726,292,156,183,194,0.12,39406166700
419,1074,1047,786,297,172,160,201,0.11,39427007300
428,990,1015,822,310,181,157,209,0.1,39449272500
408,984,978,766,284,164,140,197,0.09,39467115200
360,920,1121,669,251,164,100,167,0.08,39487551300
333,926,1164,617,228,165,93,155,0.07,39507246500
307,903,1233,524,210,147,122,144,0.06,39527016200
265,949,1230,449,170,135,115,126,0.05,39547094400
214,882,1273,402,160,135,117,107,0.04,39566576100
196,827,1162,390,151,142,120,100,0.03,39585836000
211,794,1079,392,155,146,119,100,0.02,39604658000
221,769,1016,397,163,142,86,105,0.01,39626264400
231,777,1032,392,169,135,86,109,0,39646831800
239,809,877,364,158,163,76,112,0.02,39685324900
228,781,880,340,142,143,65,104,0.02,39685337100
218,808,811,353,145,132,66,105,0.03,39705360400
209,772,764,334,135,132,70,120,0.04,39725277900
178,694,657,315,123,138,102,113,0.06,39766693400
157,598,703,302,116,123,124,116,0.06,39766706400
157,689,763,298,118,130,137,158,0.07,39786441500
163,666,745,275,114,202,227,251,0.09,39827095500
154,660,739,258,114,432,263,458,0.09,39827141500
211,642,809,289,143,511,287,522,0.1,39844538900
219,605,837,266,141,527,301,552,0.11,39864955400
210,455,743,218,127,581,330,595,0.12,39885351800
201,432,842,237,128,602,297,630,0.14,39924929700
210,427,846,232,122,562,372,569,0.14,39924944800
175,431,755,182,86,533,374,551,0.15,39944757000
177,489,662,199,76,537,385,566,0.16,39967373200
197,497,620,204,75,499,434,668,0.17,39987027400
204,475,441,159,71,513,580,666,0.18,40006748100
213,464,633,168,71,451,526,644,0.19,40026307500
217,442,709,162,71,417,518,618,0.2,40046720800
197,454,701,128,70,460,596,619,0.21,40066065800
199,507,732,119,69,472,571,623,0.23,40107848500
183,486,750,113,59,448,549,679,0.23,40107862100
173,503,646,128,65,409,568,703,0.24,40125752600
160,557,628,121,62,409,559,759,0.25,40146144300
166,526,623,116,58,343,581,786,0.26,40165771300
143,441,585,111,62,319,623,731,0.27,40185218500
240,457,608,116,70,315,573,758,0.28,40206735800
266,534,656,113,68,329,581,761,0.29,40226371400
260,531,691,100,64,316,585,727,0.3,40245819000
262,521,641,99,70,405,488,677,0.31,40266669600
262,541,640,98,68,457,485,654,0.32,40284781900
186,553,591,94,57,416,486,517,0.33,40305774300
195,480,594,79,53,404,499,431,0.34,40327427500
196,469,598,131,61,416,542,423,0.35,40344435400
194,515,602,135,57,483,650,532,0.37,40386998200
195,498,601,137,64,494,731,610,0.37,40387033000
186,470,600,136,65,561,816,636,0.38,40406533600
134,447,534,131,63,568,815,654,0.39,40425989600
154,523,372,86,58,581,803,664,0.4,40445811700
146,472,362,79,58,461,833,676,0.41,40465255400
140,472,350,75,47,522,741,614,0.42,40485697900
154,485,354,74,52,492,668,639,0.43,40511504900
168,544,304,85,59,490,648,643,0.45,40546703200
155,464,410,87,58,472,691,697,0.45,40546714700
167,459,423,88,57,610,539,708,0.46,40567357700
169,454,422,89,66,588,507,741,0.47,40585102600
161,452,426,89,62,576,459,757,0.48,40606036100
167,390,376,62,54,571,587,773,0.49,40626078700
176,354,345,64,56,576,603,770,0.5,40645640800
193,406,401,88,60,437,654,736,0.51,40666860700
196,494,404,89,53,442,781,755,0.52,40687010800
202,480,398,89,58,496,844,707,0.53,40704866800
177,507,384,88,57,501,765,761,0.54,40725864200
178,545,319,76,55,514,753,730,0.55,40746991700
165,549,325,56,61,598,854,749,0.57,40785311100
160,493,318,54,58,528,813,682,0.57,40785322700
160,513,311,53,56,481,728,703,0.58,40806239200
170,556,303,55,57,517,764,673,0.6,40847040300
168,546,295,58,61,542,828,700,0.6,40847071600
159,522,201,46,50,522,786,643,0.61,40866943100
162,600,195,45,63,606,748,691,0.62,40886167500
187,591,199,47,67,677,806,817,0.63,40905905400
175,589,245,46,67,673,782,829,0.64,40927340200
168,548,246,44,69,662,700,835,0.65,40944831300
174,569,215,47,71,699,660,856,0.66,40967281100
175,473,221,47,65,682,670,805,0.67,40986172500
164,517,265,48,66,634,699,684,0.68,41007166000
239,509,314,72,75,666,723,683,0.69,41027251900
238,560,319,79,73,666,744,641,0.7,41046881900
273,530,324,81,73,663,709,692,0.71,41066839600
290,535,370,84,80,697,766,752,0.72,41086166000
279,499,402,91,74,693,744,803,0.74,41127020700
229,467,349,78,73,795,768,742,0.74,41127032300
230,446,338,72,76,816,774,772,0.75,41147547500
187,458,347,68,83,895,840,745,0.76,41164667800
178,616,299,65,86,903,818,723,0.77,41185095000
202,670,212,53,99,1000,795,737,0.78,41207078100
189,666,223,50,101,1004,866,776,0.79,41224427300
189,677,257,51,97,1067,894,875,0.8,41244959300
187,741,261,56,96,1117,842,960,0.82,41287278200
222,664,255,56,105,1179,821,950,0.82,41287321400
229,711,260,62,104,1185,829,914,0.83,41306975300
255,817,245,65,114,1228,718,920,0.84,41326933400
296,878,205,74,129,1265,772,850,0.85,41346679300
310,878,183,75,129,1221,813,710,0.86,41366694000
291,913,210,80,134,1364,853,797,0.87,41387352200
287,844,201,77,137,1354,924,844,0.88,41404667100
307,823,200,74,138,1349,989,836,0.89,41427609300
305,743,210,77,135,1351,1000,851,0.9,41445040100
351,717,276,97,142,1343,1053,957,0.91,41465249800
387,728,327,99,143,1232,1085,1002,0.92,41485024700
386,761,373,102,149,1304,1130,1017,0.93,41504433100
408,732,385,121,234,1329,1098,1170,0.94,41527360500
430,847,486,150,258,1309,1078,1209,0.95,41546656200
417,849,487,156,286,1340,1067,1176,0.97,41585516500
425,813,455,173,311,1311,1020,1154,0.97,41585528500
539,833,439,204,352,1304,1000,1224,0.98,41606919700
580,826,553,201,341,1454,1008,1130,0.98,41644838000
567,781,485,186,346,1523,1010,1171,0.98,41644850100
581,839,474,186,339,1550,998,1192,0.97,41665331000
648,1039,493,191,345,1548,997,1179,0.96,41685963600
613,1147,504,168,322,1590,903,1081,0.95,41705871400
591,1137,411,165,288,1384,970,1032,0.94,41725454900
619,1156,507,185,302,1368,1032,970,0.92,41764552900
651,1229,516,175,291,1335,980,941,0.92,41764572600
581,1058,516,155,248,1290,973,841,0.91,41787510700
522,944,494,147,231,1289,1012,847,0.9,41804970400
486,970,476,141,221,1333,918,852,0.89,41826447500
460,891,350,102,166,1359,807,807,0.88,41847503800
409,698,347,92,149,1253,746,724,0.87,41865022600
373,676,360,127,148,1188,667,718,0.86,41884697800
373,611,419,186,123,961,513,593,0.85,41905347800
346,509,468,198,116,912,445,517,0.84,41924883900
315,519,479,213,90,689,229,343,0.83,41944770900
237,480,499,215,85,685,242,280,0.82,41964629700
214,474,586,227,86,681,231,218,0.81,41987635200
195,516,635,221,84,679,227,161,0.8,42007058400
191,508,646,237,73,542,202,129,0.79,42029819300
140,495,710,233,84,518,199,89,0.78,42047432600
181,484,758,233,84,529,135,73,0.77,42064720500
197,474,798,220,77,507,123,70,0.76,42085261500
196,468,866,240,82,488,117,68,0.75,42106241800
206,446,906,217,79,447,109,60,0.74,42126248100
218,436,850,212,69,319,60,55,0.73,42145952400
188,503,815,214,67,214,64,55,0.72,42165870700
169,499,730,202,68,215,64,68,0.71,42187631500
185,502,603,121,54,203,69,63,0.7,42207162200
177,502,589,117,50,141,68,63,0.69,42226703500
169,485,592,102,43,132,64,61,0.68,42247224100
165,427,648,106,49,144,53,62,0.67,42265226000
177,440,675,104,45,108,49,46,0.66,42285852900
159,360,682,113,45,100,38,51,0.65,42306708300
152,369,656,116,45,97,36,49,0.64,42332416900
146,372,726,124,47,92,36,52,0.63,42346603500
143,378,765,119,42,66,35,49,0.62,42366314000
125,345,879,122,46,75,32,48,0.61,42385786900
105,327,888,113,47,72,30,40,0.59,42424979800
106,308,851,125,50,66,30,44,0.59,42424990900
112,323,798,122,48,85,31,43,0.58,42447527600
113,289,693,116,46,87,33,40,0.57,42464547600
113,268,467,111,42,77,34,41,0.55,42508414500
136,290,472,118,42,75,36,41,0.55,42508426400
126,271,594,104,44,80,36,41,0.53,42546610000
136,250,736,119,46,57,40,44,0.52,42567597700
138,312,792,143,59,65,49,49,0.52,42567609600
137,318,815,141,57,66,48,46,0.5,42606916100
125,315,843,145,56,75,48,53,0.49,42626560400
128,350,781,155,56,71,48,55,0.49,42626573400
128,341,721,160,58,95,63,57,0.48,42645228500
125,288,703,144,48,93,58,53,0.46,42685150100
124,307,728,152,54,109,59,56,0.45,42705613100
113,299,767,143,51,105,59,50,0.44,42726766100
117,351,793,136,52,106,62,53,0.43,42748027800
118,384,797,124,55,101,45,50,0.43,42748038900
123,400,840,141,57,101,58,51,0.42,42765047300
128,407,905,136,53,154,60,50,0.41,42788011900
141,429,934,148,63,163,65,58,0.4,42804923000
131,467,1136,178,67,168,62,57,0.39,42824752500
151,535,1195,211,70,161,70,61,0.38,42847419400
155,544,1223,243,78,163,68,64,0.36,42886510400
164,560,1274,287,84,111,70,69,0.36,42886521200
160,581,1256,286,80,130,69,66,0.34,42925054700
159,544,1197,287,77,165,75,64,0.34,42925065800
158,490,1335,293,88,172,71,74,0.33,42947664500
173,554,1354,271,86,173,64,76,0.31,42985994800
168,607,1284,242,84,169,59,74,0.31,42986006700
165,580,1308,241,86,159,64,72,0.3,43006429400
168,581,1254,244,100,122,59,74,0.28,43046444800
139,653,1024,254,94,113,65,66,0.28,43046487200
137,607,949,261,104,108,74,80,0.26,43090922900
147,690,1023,309,115,114,78,88,0.26,43090933800
161,723,980,345,121,100,72,94,0.25,43104670500
176,814,1051,347,112,95,73,97,0.24,43128119300
182,800,1141,326,109,118,87,94,0.22,43166166900
186,849,1132,316,95,115,80,90,0.22,43166206400
210,762,1018,328,112,117,85,101,0.21,43186398900
248,824,1061,326,123,133,93,115,0.19,43225038500
242,790,1006,324,126,141,94,113,0.18,43246576300
249,810,1103,319,127,121,75,114,0.17,43266827500
234,752,1156,319,127,129,72,103,0.16,43286227500
211,816,1282,277,110,124,63,87,0.16,43286239700
169,809,1265,236,94,107,53,62,0.15,43306425100
176,780,1225,267,103,106,57,73,0.13,43346294800
159,736,1128,288,102,107,59,69,0.13,43346307100
221,778,1111,446,170,120,83,106,0.12,43367153300
242,753,1084,478,178,125,89,116,0.11,43387550300
259,741,1146,530,197,131,95,126,0.09,43424842000
271,869,1153,553,203,129,94,124,0.09,43424853100
296,839,1191,550,209,128,93,132,0.07,43464858200
277,813,1297,490,173,118,78,116,0.06,43484778100
271,816,1239,483,174,124,75,116,0.06,43484789100
253,794,1267,456,156,116,65,107,0.05,43507350500
322,701,1295,551,191,143,89,143,0.03,43548262900
317,775,1246,567,195,147,89,140,0.03,43548274100
309,806,1136,554,204,155,96,141,0.01,43585749100
313,800,1138,553,199,146,96,140,0,43606548200
331,886,1131,549,200,160,103,148,0,43606559500
244,805,1138,391,147,128,79,107,0.02,43644763400
243,769,1097,367,137,123,82,118,0.03,43665052700
233,750,1093,309,106,120,93,191,0.03,43665064900
204,742,1171,258,94,144,178,236,0.05,43704828100
179,618,1032,211,85,236,206,245,0.06,43724623900
179,607,920,210,89,276,431,356,0.07,43747393400
167,556,913,186,81,339,503,394,0.07,43747405700
172,526,826,187,85,364,570,567,0.09,43787649300
183,477,632,152,104,618,596,603,0.09,43787659800
180,464,551,138,106,675,658,803,0.1,43807988300
219,587,690,163,126,790,631,862,0.12,43851638800
252,709,677,178,133,846,618,899,0.12,43851650300
253,694,716,163,135,912,616,829,0.14,43887194300
250,668,736,157,120,909,676,859,0.15,43907055700
252,649,866,164,118,867,664,720,0.15,43907098400
228,579,818,141,91,782,605,643,0.17,43946373600
218,463,807,125,78,741,589,666,0.18,43965932600
234,456,762,128,79,778,591,743,0.18,43965942800
236,423,704,129,72,645,628,745,0.2,44007970400
224,451,560,126,71,642,586,737,0.21,44025306300
228,479,601,153,86,613,603,705,0.21,44025317400
199,437,550,140,89,611,614,686,0.23,44066816100
174,433,565,137,91,513,672,656,0.24,44087432200
176,449,567,133,92,567,594,690,0.24,44087443200
209,546,646,184,103,549,633,696,0.25,44107409400
200,515,499,165,93,564,600,718,0.27,44146641600
201,518,474,162,88,531,611,708,0.27,44146653600
198,523,439,160,82,544,601,727,0.29,44184384900
226,559,493,163,84,454,647,665,0.3,44207469400
199,504,458,97,69,445,615,643,0.3,44207508900
221,501,570,104,72,421,645,669,0.31,44227596900
226,542,598,101,73,494,671,737,0.33,44265951900
235,547,596,101,68,476,613,732,0.33,44265963100
207,524,554,94,59,470,531,773,0.35,44305429700
214,475,571,99,56,480,514,784,0.36,44326484800
187,452,521,106,56,483,507,748,0.36,44326495800
188,405,535,110,58,408,556,680,0.38,44365430400
177,392,540,111,49,363,582,704,0.39,44384971500
219,377,537,115,54,449,696,647,0.4,44405164200
213,383,420,106,56,442,705,626,0.41,44425848700
215,436,357,73,50,457,706,655,0.42,44446338900
212,456,335,78,49,442,637,641,0.43,44465170200
230,475,344,77,49,442,637,515,0.44,44485799200
187,452,346,72,45,348,527,575,0.45,44506577000
192,439,342,69,43,347,586,595,0.46,44527030200
194,410,353,73,48,333,570,566,0.46,44527043700
195,378,409,58,46,322,669,662,0.48,44567024600
175,355,416,60,49,290,656,724,0.49,44586910900
173,358,413,61,57,290,662,752,0.5,44610897000
162,396,411,62,59,326,641,769,0.5,44610908300
165,398,359,60,58,314,683,847,0.52,44646222100
155,414,255,66,60,428,603,849,0.53,44666781100
153,424,214,62,62,503,654,882,0.54,44684418100
174,456,213,63,59,502,737,925,0.55,44704983100
179,412,209,65,59,576,801,937,0.56,44725892500
172,429,288,73,68,653,808,935,0.57,44746324800
175,416,266,67,70,601,809,939,0.58,44765276800
181,417,283,73,70,545,756,866,0.59,44785455300
174,444,286,72,71,591,704,758,0.6,44804835900
177,499,323,78,78,593,638,773,0.61,44824425400
180,475,379,87,73,576,604,708,0.62,44844844100
181,506,402,90,74,615,661,647,0.63,44865394500
188,549,393,86,82,733,819,758,0.64,44885784500
202,534,393,87,82,729,836,823,0.65,44906138300
202,537,372,83,75,690,881,834,0.66,44925854900
200,561,259,62,74,722,891,977,0.67,44946810600
202,529,211,63,87,761,878,1005,0.68,44967140400
209,544,208,67,110,896,826,973,0.69,44984852200
195,616,269,72,114,948,883,973,0.7,45004593400
217,592,299,75,119,1077,892,994,0.71,45027454200
234,607,338,85,126,1077,914,948,0.72,45047376400
245,636,358,84,129,1133,941,949,0.73,45065252700
269,676,373,86,116,1073,1028,968,0.74,45085092000
303,652,342,94,132,1107,1001,1035,0.75,45105766900
304,655,429,95,141,1065,972,984,0.76,45126734300
298,673,470,103,150,1152,1002,929,0.77,45147085600
304,695,471,115,165,1230,984,970,0.78,45164415400
350,643,479,121,191,1234,948,1010,0.79,45184706900
352,660,484,121,209,1216,1003,934,0.8,45205005500
398,700,383,121,236,1340,1060,1024,0.81,45226206900
434,708,344,114,246,1382,1068,1022,0.82,45245737800
500,738,458,121,250,1393,1126,991,0.83,45265566100
505,771,493,135,249,1361,1037,1027,0.84,45285576700
552,862,508,146,273,1435,1055,1046,0.85,45304832300
648,905,511,165,291,1401,1035,985,0.86,45326492400
746,975,507,176,306,1356,1045,986,0.87,45347044700
742,983,435,172,307,1306,951,972,0.88,45368831500
795,1003,434,179,301,1352,962,962,0.89,45386624000
775,896,444,167,275,1421,863,1000,0.9,45407326500
706,904,545,182,292,1389,837,1044,0.91,45427476100
649,863,575,180,309,1409,909,1095,0.92,45446552300
643,865,568,179,318,1534,1020,1068,0.93,45466181100
576,922,697,194,323,1504,1060,1015,0.94,45485736200
585,1053,765,215,369,1477,1153,998,0.95,45506114800
581,1023,703,195,339,1530,1181,1023,0.96,45527494800
626,1052,720,198,321,1547,1145,1043,0.97,45544793800
625,1031,721,193,300,1387,1114,1033,0.98,45566304600
623,1024,597,157,293,1389,1071,1145,0.99,45587466500
594,895,498,124,219,1312,992,1113,0.98,45604857100
591,889,509,126,190,1276,914,1020,0.97,45625562500
523,800,413,100,142,1195,871,945,0.96,45646201800
500,809,401,97,134,1193,759,916,0.95,45670752800
473,714,383,91,105,1259,699,668,0.94,45687312200
466,695,403,94,99,1214,637,634,0.93,45707434000
425,718,408,72,94,1072,634,665,0.92,45726949000
383,687,397,67,93,1120,574,679,0.91,45746420100
359,657,376,78,92,1066,562,678,0.9,45766440700
322,681,336,90,91,913,549,650,0.89,45787407600
329,693,282,91,91,918,523,578,0.88,45804912700
306,585,242,91,86,1010,478,481,0.87,45824426500
239,573,322,110,77,908,373,327,0.86,45845585300
196,593,513,157,80,859,347,285,0.85,45866737500
191,517,626,168,80,857,322,254,0.84,45886176100
258,475,681,180,100,883,234,361,0.83,45905799600
269,508,738,190,100,837,258,423,0.82,45925889400
290,528,730,180,100,775,263,418,0.81,45945617100
312,473,644,138,91,782,262,418,0.8,45964991800
317,452,649,143,101,800,269,417,0.79,45986965900
236,440,608,143,78,694,236,277,0.78,46007572800
223,384,609,136,76,535,187,152,0.77,46025109800
223,340,598,140,75,516,154,101,0.75,46065190400
240,349,721,161,82,491,145,92,0.75,46065205500
240,328,639,151,80,510,135,89,0.74,46085888200
234,346,679,142,73,491,124,71,0.73,46105503100
245,367,644,138,74,494,117,68,0.72,46129845800
235,429,697,137,76,489,115,115,0.71,46146572700
212,421,596,115,70,479,122,114,0.7,46166080600
197,417,646,101,54,356,98,114,0.69,46185880200
202,398,617,94,53,332,92,113,0.68,46206698600
184,408,687,105,52,329,93,112,0.67,46227585100
147,362,678,144,52,339,103,64,0.66,46244755900
96,479,654,165,61,474,157,116,0.65,46265063400
119,583,594,173,69,477,167,237,0.64,46287941700
110,593,589,190,72,432,176,239,0.63,46309322800
114,576,542,195,75,435,178,259,0.61,46345886100
115,571,572,175,75,459,176,265,0.61,46345900700
117,503,627,175,77,458,124,268,0.6,46365676300
111,427,683,172,68,500,111,233,0.59,46385242700
116,437,717,165,65,504,94,236,0.58,46404524500
110,465,797,178,64,501,101,217,0.57,46425120000
114,484,764,180,67,482,105,224,0.56,46447743300
116,444,770,165,56,375,105,201,0.55,46464850800
99,425,795,164,57,292,119,131,0.54,46485356300
147,502,788,149,61,283,121,122,0.53,46506551600
151,474,675,117,61,285,117,119,0.52,46526637600
158,445,692,137,64,343,123,89,0.51,46546074100
151,422,702,131,60,321,119,83,0.5,46565729600
152,410,653,133,58,267,92,64,0.49,46587212600
112,331,679,145,55,274,95,57,0.48,46606970100
151,362,694,155,54,293,90,56,0.47,46624553400
145,409,719,139,48,288,82,57,0.46,46647787800
149,427,700,137,55,292,86,50,0.45,46665771500
151,430,705,137,60,296,86,50,0.44,46686371300
146,415,731,144,61,302,102,48,0.43,46707974400
97,391,809,133,64,425,113,50,0.42,46725267500
105,368,819,141,70,396,106,65,0.41,46747159200
140,356,777,152,70,394,104,64,0.39,46787199200
159,374,778,166,68,392,107,68,0.39,46787210600
162,345,747,154,66,378,87,67,0.38,46807150400
162,360,672,164,62,229,80,67,0.37,46826645900
158,352,720,153,62,322,96,65,0.36,46846319800
127,360,844,143,59,333,93,74,0.35,46867280200
131,353,881,127,57,335,91,79,0.34,46889577100
135,429,887,136,61,335,87,79,0.33,46907386900
142,438,900,155,70,326,95,80,0.31,46945562200
138,419,849,151,67,288,120,68,0.31,46945573900
139,416,784,155,67,274,123,58,0.3,46966132100
111,396,833,151,67,267,122,47,0.29,46985857300
97,353,931,154,65,270,124,47,0.28,47005640100
121,346,972,124,54,274,124,46,0.27,47024911700
130,380,1008,139,47,191,84,45,0.26,47046531300
138,417,1124,171,61,205,83,52,0.25,47066106500
176,514,1125,233,87,218,84,66,0.24,47086545400
184,518,1060,236,90,214,96,69,0.23,47106935900
173,567,1024,255,93,202,81,71,0.22,47124828200
192,652,1067,275,106,190,86,82,0.21,47144993500
210,682,1017,309,117,165,92,95,0.2,47165672800
178,628,1000,273,103,154,92,87,0.19,47191081700
168,613,1045,269,100,149,74,84,0.18,47204776600
160,599,1096,256,97,126,67,81,0.17,47224555300
142,509,1107,239,99,118,65,71,0.16,47247295200
125,479,1142,179,84,106,57,55,0.15,47267024800
154,581,1202,246,100,105,66,70,0.14,47287231400
165,619,1227,260,108,120,76,75,0.13,47304506400
183,645,1186,275,121,129,78,83,0.12,47324993200
217,671,1123,391,140,122,79,97,0.1,47365689400
249,716,1134,456,178,140,80,113,0.1,47365718900
245,685,1128,488,184,140,75,111,0.08,47406385000
255,686,1101,546,201,136,73,116,0.07,47426465300
252,644,1116,555,199,130,77,117,0.07,47426479300
231,702,1164,517,186,124,74,108,0.06,47446156200
203,751,1143,469,164,108,70,94,0.05,47465765100
229,778,1050,438,161,107,73,103,0.04,47485265000
242,811,1122,402,161,99,73,107,0.03,47507399700
257,934,1155,443,175,99,74,113,0.02,47524746600
263,925,1119,410,174,107,72,116,0,47566119100
280,891,1113,424,172,102,77,125,0,47566131400
261,876,1258,403,168,99,78,116,0.01,47586655500
304,899,1213,511,197,113,91,134,0.02,47607438300
318,761,1264,479,194,114,90,134,0.03,47624498600
334,768,1300,582,212,113,102,146,0.04,47649137600
330,833,1290,613,213,120,100,141,0.05,47666145200
326,789,1156,616,209,120,96,140,0.06,47685718700
287,798,1081,520,169,107,84,128,0.07,47705324700
298,829,961,563,177,131,139,150,0.08,47725582700
275,754,854,449,155,293,190,227,0.09,47747693300
247,595,700,382,149,517,265,291,0.11,47785820500
258,611,690,360,146,523,329,327,0.11,47785834700
239,503,717,338,140,534,405,429,0.13,47826054800
206,528,701,224,111,575,557,609,0.13,47826066500
204,577,691,207,122,706,674,641,0.14,47845816700
235,651,687,188,134,814,719,687,0.15,47866445400
282,677,736,179,141,968,827,864,0.16,47886232300
300,662,673,147,141,1024,885,852,0.17,47906090400
307,656,660,131,134,1026,806,830,0.19,47946574900
297,600,629,125,119,954,783,865,0.19,47946586800
300,593,604,144,99,820,764,877,0.2,47966246600
240,651,555,141,82,653,653,759,0.22,48007595100
229,639,532,140,71,579,547,731,0.22,48007606400
218,598,506,138,73,572,672,652,0.23,48025030000
239,670,503,139,77,549,699,721,0.24,48045707600
215,776,710,146,66,490,682,667,0.25,48066604400
234,722,730,159,73,487,672,608,0.26,48085788300
222,723,719,160,83,518,674,666,0.27,48106862600
210,693,706,153,82,513,651,712,0.28,48127038900
204,630,696,149,76,532,616,639,0.29,48147053200
231,555,555,145,79,512,669,647,0.3,48166562000
220,555,504,121,74,564,667,684,0.31,48187268100
211,547,514,104,75,655,747,772,0.32,48211840900
265,559,516,112,87,784,748,817,0.33,48226710300
265,549,520,112,84,745,716,781,0.34,48247765400
236,407,438,77,77,759,683,776,0.36,48284533600
246,394,476,108,74,753,671,753,0.36,48284550900
266,393,453,104,61,660,625,682,0.37,48307276200
212,371,450,97,56,521,552,639,0.38,48326772400
202,376,445,97,62,501,559,678,0.39,48346342600
201,355,459,91,66,507,618,697,0.4,48366125800
185,424,382,76,66,434,674,721,0.41,48385558700
197,481,388,87,71,470,638,659,0.42,48411402700
183,501,368,87,57,439,652,674,0.43,48425425900
195,493,355,87,62,488,674,692,0.44,48446293200
210,564,316,88,61,488,701,736,0.45,48467081100
209,509,290,104,65,504,701,716,0.46,48487466800
194,488,295,100,64,450,704,748,0.47,48505013300
195,475,312,99,66,452,774,762,0.48,48524651900
188,478,324,102,64,502,756,760,0.49,48544575700
171,413,333,102,65,592,700,731,0.5,48566034800
160,424,295,71,76,692,764,786,0.51,48585612300
160,460,323,68,76,683,815,799,0.52,48604998000
170,464,321,72,77,728,764,716,0.53,48624691700
166,493,313,67,74,716,833,808,0.54,48645496900
182,475,314,69,80,651,818,802,0.55,48666772700
195,433,307,69,88,686,805,761,0.56,48687226600
198,478,332,97,88,765,818,778,0.57,48704925500
222,514,348,98,90,769,815,796,0.58,48727840200
221,540,359,99,87,780,760,689,0.59,48747166200
214,566,353,97,83,934,759,733,0.6,48767141700
219,558,333,95,64,892,717,774,0.61,48786778300
212,499,260,61,60,856,665,770,0.63,48825470400
190,451,399,90,64,882,639,805,0.63,48825481800
220,437,448,94,75,970,622,805,0.64,48845066600
233,421,454,95,84,896,698,778,0.65,48868089600
249,489,451,95,90,937,684,766,0.66,48886719100
260,477,449,101,94,961,728,854,0.68,48928335400
258,549,350,71,94,1046,782,859,0.68,48928346700
282,562,328,64,87,923,833,832,0.69,48946772400
286,665,316,63,82,943,775,897,0.7,48964621500
270,653,308,55,83,934,790,934,0.71,48987451700
278,677,427,68,84,988,819,844,0.72,49007126800
286,774,543,112,93,962,908,861,0.73,49025024000
248,790,543,123,120,1064,913,970,0.74,49044667800
253,734,563,126,137,1086,905,935,0.75,49067549300
256,828,570,131,139,1127,953,931,0.76,49085133200
257,809,518,124,145,1114,998,974,0.77,49106194200
250,759,381,87,138,1030,866,941,0.78,49126739300
261,757,445,88,130,1133,854,876,0.79,49147567200
277,769,440,101,136,1131,948,843,0.8,49166503300
341,777,441,97,134,1141,908,821,0.81,49186886900
357,814,404,95,136,1221,852,841,0.82,49206682000
365,850,381,97,141,1287,933,960,0.83,49226315700
407,887,382,102,142,1236,914,1018,0.84,49246237200
389,921,390,93,157,1268,844,1112,0.85,49265528300
339,860,395,92,161,1326,880,1113,0.86,49285477300
335,891,449,99,161,1270,907,1096,0.87,49305655100
355,833,555,117,163,1268,918,984,0.88,49324679800
412,782,522,122,187,1336,1020,929,0.9,49365044700
457,775,539,130,201,1312,1062,838,0.9,49365056000
509,744,575,153,231,1310,1125,871,0.91,49385502400
523,846,550,157,266,1384,1109,848,0.92,49406234500
528,877,460,155,281,1393,1077,910,0.93,49425887700
487,919,553,152,293,1387,1008,928,0.94,49445597100
464,912,544,152,290,1388,972,960,0.95,49470013300
487,903,507,160,327,1430,962,1007,0.96,49486647600
488,771,500,157,314,1432,1048,1111,0.97,49506624400
554,733,643,173,325,1435,1085,1110,0.98,49527885100
566,747,543,180,336,1476,1115,1151,0.99,49545417000
572,764,532,174,322,1499,1143,1132,0.98,49566254600
562,863,524,152,272,1445,1072,1120,0.97,49586663500
556,916,552,152,272,1473,976,1113,0.96,49607489700
470,991,442,120,242,1455,919,1108,0.94,49645295600
418,932,476,96,182,1283,855,975,0.94,49645342700
380,893,503,96,177,1324,803,935,0.93,49664856200
299,769,599,115,156,1254,750,816,0.92,49684419100
272,696,617,124,119,1065,689,699,0.91,49707110500
