55,271,422,53,28,31,42,246,0.21,472992600
58,289,447,58,27,34,36,223,0.22,492620800
58,321,567,77,29,37,60,251,0.23,508130400
95,335,556,93,33,41,65,344,0.24,531952800
95,333,524,90,34,42,64,345,0.25,547873000
100,346,531,91,34,41,65,349,0.26,571423200
96,291,541,93,34,39,67,353,0.27,587277100
96,263,422,83,34,37,47,340,0.28,612994300
66,263,410,66,32,32,47,259,0.29,630812100
66,243,441,63,32,70,72,312,0.3,652792700
62,217,566,73,33,79,73,310,0.31,668437100
64,262,531,72,36,80,72,306,0.32,690684100
67,375,599,67,32,85,71,293,0.33,707229600
72,379,731,79,36,90,69,238,0.34,734269400
74,431,753,88,38,65,44,144,0.35,746755200
124,492,727,91,39,59,56,296,0.36,768197200
136,501,736,120,46,66,65,299,0.37,789306900
159,505,822,142,52,60,67,331,0.38,807140200
185,563,769,175,69,123,74,332,0.4,847799800
189,534,749,173,71,319,312,485,0.4,847834700
185,485,669,169,78,486,523,473,0.41,870602100
180,516,624,147,83,657,754,652,0.42,888653100
166,540,413,136,157,861,1064,776,0.43,907902500
278,553,273,93,202,947,1137,847,0.44,928102300
330,633,235,117,257,993,1261,890,0.45,948788800
336,664,320,164,316,1187,1283,989,0.46,969388600
390,707,327,193,418,1260,1263,977,0.47,986882300
416,711,334,206,468,1388,1101,1040,0.49,1028149000
414,778,551,255,475,1427,1094,1089,0.49,1028161800
494,791,615,258,472,1483,1027,1107,0.5,1050119400
498,840,662,244,442,1381,1026,1126,0.51,1067281100
483,811,676,235,392,1559,1000,1100,0.52,1087727100
489,841,743,229,316,1442,967,1050,0.53,1108280200
505,781,789,208,312,1518,972,1029,0.54,1128462500
416,768,793,200,296,1511,958,988,0.55,1149491500
431,782,820,226,291,1522,903,879,0.56,1166344600
472,817,848,228,247,1283,923,891,0.57,1187209000
464,781,795,226,235,1264,957,826,0.58,1208063500
424,755,683,193,201,1194,923,871,0.59,1229352100
419,807,627,193,205,1229,874,861,0.6,1248752900
419,788,513,150,219,1253,949,928,0.61,1266375800
416,812,448,131,224,1323,937,967,0.62,1286384500
427,851,472,127,235,1335,954,1030,0.63,1310937200
432,868,548,178,241,1353,989,926,0.64,1328691700
482,874,571,173,217,1284,971,960,0.65,1353809800
507,877,551,173,205,1272,910,957,0.66,1368103400
497,912,545,171,191,1232,873,926,0.67,1388667200
552,890,566,183,177,1209,822,869,0.68,1409355900
543,947,501,142,157,1191,844,947,0.69,1426418100
538,912,472,150,167,1284,933,961,0.7,1447425500
517,947,486,150,188,1322,1008,1041,0.71,1468326500
519,948,573,173,191,1313,1079,1056,0.72,1488303600
468,936,601,170,195,1268,1089,1081,0.73,1506389000
459,886,562,179,216,1254,1030,1059,0.75,1546968400
434,892,553,173,208,1143,966,1019,0.75,1546986800
431,826,589,176,239,1196,914,963,0.77,1588504200
393,776,548,154,226,1202,830,963,0.77,1588515800
495,791,564,193,289,1318,899,1014,0.78,1608482700
505,798,564,188,318,1355,1039,1032,0.79,1628583600
597,744,594,189,337,1468,1124,1106,0.8,1649148500
599,789,613,200,335,1461,1109,1104,0.81,1671626100
622,784,658,231,349,1474,1126,1202,0.82,1693048700
642,852,680,213,325,1434,1119,1162,0.83,1707359000
753,880,670,228,319,1438,1070,1137,0.84,1726444300
779,939,676,239,335,1374,1028,1188,0.86,1767537400
800,970,709,241,319,1252,1028,1192,0.86,1767547700
838,1038,650,217,355,1264,1003,1082,0.87,1788981300
799,965,592,267,376,1259,949,1033,0.89,1826345200
744,931,619,266,377,1310,908,1070,0.89,1826356000
659,949,639,263,379,1287,909,953,0.9,1846478800
683,1032,615,270,411,1386,1012,933,0.91,1867335500
636,937,821,292,406,1400,1093,960,0.92,1887327700
600,969,804,239,372,1379,1130,980,0.93,1907223800
596,995,797,231,422,1323,1103,903,0.94,1927248900
610,1007,826,237,415,1340,1071,871,0.95,1947668900
570,899,840,214,375,1230,974,911,0.96,1970397300
588,942,716,199,379,1222,936,876,0.97,1986696800
582,921,738,184,382,1367,901,951,0.98,2007442800
579,1043,695,165,310,1286,937,997,0.98,2048094500
537,1022,619,209,280,1217,912,1008,0.98,2048105900
520,1018,593,220,290,1305,896,906,0.97,2067853500
474,1025,613,208,229,1303,849,910,0.96,2086984000
461,1018,577,205,202,1115,875,789,0.94,2129037300
390,835,602,220,188,1107,841,776,0.94,2129049800
373,805,645,272,257,1231,838,714,0.93,2149032400
391,751,603,281,245,1162,807,740,0.92,2168967800
380,691,556,280,243,1183,793,744,0.91,2189264700
384,671,649,286,257,1250,718,785,0.9,2206415600
361,772,693,277,240,1276,734,793,0.89,2226429300
351,860,663,177,194,1169,704,772,0.88,2246307200
361,845,632,320,273,1163,759,733,0.87,2268201200
355,823,546,352,300,1066,706,752,0.86,2288109900
326,823,469,354,297,1098,662,726,0.85,2307869400
318,752,377,355,324,1178,665,685,0.84,2327306400
324,611,321,355,317,1159,650,721,0.83,2347103700
306,695,316,216,262,1206,642,757,0.82,2366419500
297,802,327,164,259,1163,626,624,0.81,2389288700
296,830,210,150,261,1086,642,564,0.8,2413765200
293,808,222,193,232,895,541,498,0.79,2427285800
295,805,236,191,228,854,513,427,0.78,2446731700
273,840,281,276,206,693,336,239,0.77,2466673300
329,728,367,367,169,706,317,214,0.76,2486371900
319,645,464,449,167,586,218,193,0.75,2509063700
328,633,590,434,170,570,180,149,0.74,2527723400
373,583,756,448,139,653,228,133,0.73,2547236100
333,430,787,441,135,593,216,116,0.72,2568419100
297,391,777,389,126,488,195,99,0.71,2588378900
318,404,928,297,104,456,198,95,0.7,2608590200
301,376,897,315,103,598,196,91,0.69,2628559400
240,391,880,297,103,468,124,69,0.68,2648171700
249,336,901,239,111,503,117,70,0.67,2668494000
217,335,931,192,115,603,138,70,0.66,2688234600
264,337,787,194,111,687,164,69,0.65,2708181800
280,372,886,167,100,585,159,65,0.64,2727046300
295,408,806,166,101,586,161,72,0.63,2747323300
293,427,896,246,93,611,162,71,0.62,2767115000
292,451,987,266,94,591,160,80,0.61,2786512000
239,444,1008,255,87,508,129,76,0.6,2806677400
230,429,912,252,85,496,128,78,0.59,2826483700
203,393,921,257,89,625,125,83,0.58,2846610900
206,449,927,194,91,588,132,85,0.57,2867828200
223,478,930,235,88,514,107,76,0.56,2887701500
208,481,939,263,105,505,96,78,0.55,2907255400
200,481,1024,286,102,511,108,76,0.54,2926894200
211,553,1116,313,113,405,115,147,0.53,2946720100
200,505,1043,303,111,418,112,150,0.52,2966555500
177,458,919,263,103,405,109,157,0.51,2987079800
199,453,936,348,110,401,113,166,0.5,3006884600
216,508,849,346,110,461,103,169,0.49,3028118900
205,425,752,325,99,422,85,109,0.48,3047574200
209,420,781,345,105,404,85,110,0.47,3067800600
215,428,891,372,130,396,89,100,0.46,3087383900
196,441,891,297,123,397,86,93,0.45,3107233100
161,392,903,313,140,307,89,93,0.44,3126993200
156,426,1000,336,148,352,91,92,0.43,3147355000
145,435,1037,324,162,429,99,88,0.42,3168824100
135,432,1004,306,205,449,95,85,0.41,3188909200
138,519,1075,314,216,454,96,80,0.4,3208521100
144,502,1122,291,207,442,89,76,0.39,3228031900
138,504,1012,262,209,403,96,73,0.37,3267544000
151,510,1005,292,202,369,88,67,0.37,3267555400
145,529,1117,286,144,355,92,73,0.35,3307266600
146,471,1046,278,125,342,94,74,0.35,3307279500
158,547,1092,291,130,358,101,75,0.34,3329035200
168,566,1174,312,124,337,97,78,0.33,3348700000
178,623,1187,307,119,271,91,109,0.32,3368367800
204,728,1141,349,131,249,93,112,0.31,3387964400
211,806,1162,346,133,252,91,115,0.29,3427123700
211,838,1139,355,136,227,88,122,0.29,3427134600
213,868,1145,343,131,212,80,123,0.28,3446516900
256,941,1190,421,163,188,84,115,0.26,3486821600
274,944,1250,474,179,218,89,123,0.26,3486833700
311,928,1317,578,229,269,102,137,0.25,3506821700
336,956,1271,603,233,265,104,134,0.23,3546501400
352,1020,1288,645,252,286,111,144,0.23,3546512500
331,1022,1221,643,237,328,104,137,0.22,3569559400
365,993,1184,705,237,313,102,154,0.21,3589292400
350,999,1173,656,203,401,89,147,0.2,3608901900
412,979,1220,806,247,424,107,196,0.19,3627819400
465,1032,1247,862,282,418,125,228,0.17,3668233300
587,1069,1264,962,335,430,166,271,0.17,3668254700
610,1172,1214,938,382,435,182,281,0.16,3688216400
629,1214,1149,975,582,345,205,306,0.14,3727892800
597,1235,1210,946,883,389,203,291,0.14,3727926600
618,1156,1147,976,1032,422,203,288,0.13,3747636000
545,1074,1149,974,1135,409,194,274,0.12,3771912400
482,993,1125,932,1139,420,183,254,0.1,3807936500
464,1021,1128,924,1052,415,162,228,0.1,3807946800
464,997,959,903,802,378,171,231,0.08,3847230200
459,1101,1014,892,573,353,167,228,0.08,3847251800
427,1140,1128,792,260,341,146,206,0.07,3866770900
472,1163,1137,813,123,320,147,221,0.05,3906411800
487,1227,1238,797,316,310,149,231,0.05,3906425600
476,1244,1274,710,377,336,133,223,0.04,3927974600
396,1126,1209,572,383,366,123,216,0.03,3948198200
367,1078,1078,517,392,341,135,352,0.02,3967918900
309,979,1058,450,395,547,167,427,0.01,3987853600
243,761,886,352,252,584,221,524,0.01,4027144500
218,701,838,297,140,672,230,551,0.01,4027158400
232,696,804,300,161,690,429,600,0.02,4046910600
235,616,709,264,189,952,567,641,0.04,4087871700
241,615,703,290,199,948,720,702,0.04,4087883200
253,629,760,291,206,984,789,754,0.05,4107481600
270,587,776,294,233,915,813,830,0.07,4146559700
240,511,740,304,227,908,754,954,0.07,4146570900
237,523,808,296,218,760,779,984,0.08,4169490400
234,503,732,254,214,665,762,1012,0.09,4189069100
238,499,677,244,209,620,727,968,0.1,4208848000
220,437,717,217,236,631,743,1051,0.11,4230685900
214,431,722,140,257,827,883,1006,0.13,4266550800
219,409,640,127,244,801,845,931,0.15,4308466400
206,436,724,173,250,817,895,857,0.15,4308477900
222,360,784,193,254,852,908,876,0.15,4308487800
204,435,797,194,206,847,976,795,0.17,4347418900
226,453,772,198,163,732,999,773,0.18,4368516600
218,471,767,195,163,697,1015,811,0.19,4386662800
234,510,797,176,141,667,908,773,0.2,4406715800
225,498,723,145,126,592,938,801,0.2,4406726800
242,434,625,142,123,692,952,797,0.21,4429491500
239,414,611,133,115,595,827,790,0.23,4469161500
236,429,615,133,85,583,762,784,0.23,4469179100
263,446,545,137,102,625,838,836,0.24,4489237100
255,453,461,126,109,726,888,816,0.26,4528237200
255,465,462,125,114,706,886,783,0.26,4528247700
236,479,444,124,120,737,1076,859,0.28,4569247400
272,509,462,132,120,713,1110,820,0.29,4588895100
233,463,513,116,105,692,1078,806,0.3,4608926100
234,462,538,110,85,595,1103,893,0.31,4626557400
219,454,520,109,77,625,1058,890,0.32,4646810000
217,546,513,108,72,575,928,821,0.33,4667207500
188,570,652,157,86,564,943,868,0.34,4688430600
204,551,656,173,99,567,987,878,0.35,4708659300
200,566,629,173,102,660,889,784,0.36,4728757800
198,583,641,176,101,589,1016,779,0.37,4748639400
223,560,648,178,103,720,1024,720,0.38,4768280600
225,500,585,145,96,767,975,790,0.38,4768292000
215,554,564,101,81,813,957,768,0.39,4787845000
203,570,573,106,86,797,939,789,0.41,4827229000
243,572,570,105,92,810,811,798,0.41,4827239600
249,507,574,103,85,745,798,918,0.42,4849143300
254,563,561,98,82,749,855,861,0.44,4888456600
270,503,553,135,91,792,812,924,0.44,4888467700
266,461,585,143,86,767,916,963,0.45,4908121900
267,506,608,144,90,758,900,982,0.47,4947581400
300,633,602,144,104,749,873,935,0.47,4947592100
295,673,516,132,117,873,829,928,0.49,4992178300
290,688,423,110,114,851,846,945,0.49,4992188700
311,722,388,96,116,876,814,864,0.5,5008973700
294,715,344,89,113,960,864,878,0.51,5028520200
243,628,335,86,107,971,806,852,0.53,5068138200
238,638,389,91,96,1023,808,891,0.53,5068149700
219,656,361,69,108,1065,799,855,0.54,5088110800
221,664,321,63,130,1088,819,981,0.56,5127320800
242,688,343,71,157,1192,776,986,0.56,5127350200
244,728,349,79,159,1355,802,1018,0.57,5148958100
255,649,350,83,167,1273,868,977,0.59,5187932500
276,762,401,93,164,1279,929,1030,0.6,5207334500
331,868,396,97,156,1279,892,944,0.61,5227047200
360,864,367,95,137,1215,872,880,0.62,5246914100
433,818,370,92,138,1133,863,804,0.63,5266990900
530,838,291,83,131,1149,811,779,0.64,5286824300
526,730,203,74,128,1196,712,678,0.65,5307916200
487,640,194,67,125,1244,669,730,0.66,5328034400
495,672,185,61,118,1163,735,775,0.66,5328045100
465,694,274,68,142,1130,777,801,0.68,5367606500
361,717,280,71,145,1201,785,840,0.69,5387077500
433,739,286,79,152,1175,835,863,0.7,5407339300
444,691,351,84,159,1142,952,842,0.71,5427296400
452,727,353,90,231,1283,1015,852,0.72,5448594700
494,894,282,89,242,1324,1080,969,0.73,5468541800
512,921,294,116,319,1319,1102,990,0.74,5488602400
479,954,359,123,329,1328,1139,1066,0.75,5508578800
517,995,341,131,332,1369,1082,1050,0.75,5508589900
490,975,363,136,319,1291,1055,1071,0.77,5548305000
495,902,374,147,311,1215,1089,1055,0.78,5568192800
507,980,363,132,274,1180,1113,1047,0.78,5568203600
509,952,329,140,300,1244,1131,1000,0.8,5606255400
577,921,313,155,333,1240,1088,980,0.81,5629360800
614,926,304,152,336,1430,1056,970,0.81,5629371600
606,914,361,143,352,1495,1008,905,0.83,5668254100
687,775,426,147,329,1535,1043,960,0.84,5688202600
761,793,414,155,333,1505,978,940,0.85,5708080700
733,865,404,154,339,1463,1070,1075,0.86,5727470800
743,850,423,169,331,1357,1105,1100,0.87,5749023900
798,849,401,182,344,1322,1068,1103,0.87,5749039600
755,909,433,202,366,1292,1019,1139,0.89,5788583700
686,891,445,195,365,1337,1034,1136,0.9,5808215200
767,851,446,200,336,1344,972,1065,0.9,5808225800
745,825,512,194,320,1279,1014,991,0.92,5847540800
660,791,499,187,301,1317,1063,973,0.93,5867390100
703,710,423,161,280,1301,1047,946,0.93,5867401100
689,809,413,156,264,1385,1055,923,0.95,5908594700
547,784,459,132,253,1411,1060,1004,0.96,5928546100
555,850,387,137,268,1433,924,1014,0.96,5928555900
554,871,384,140,275,1548,921,1015,0.98,5968377200
437,912,422,139,260,1515,1000,990,0.99,5988441700
449,853,509,140,229,1326,971,1018,0.99,5988452200
471,1002,462,133,235,1367,951,935,0.97,6027759700
445,994,449,137,252,1332,985,946,0.96,6047195600
444,1032,469,125,213,1230,944,964,0.95,6068417000
428,1024,541,124,208,1311,838,864,0.94,6087822000
417,999,479,123,216,1372,795,825,0.93,6107094200
401,988,478,123,205,1345,769,739,0.92,6126433900
435,946,465,97,147,1286,788,715,0.91,6146370600
406,946,440,95,138,1225,684,642,0.9,6169546300
387,929,432,107,137,1128,622,632,0.89,6189047400
355,888,535,109,110,987,582,561,0.88,6208299700
304,669,701,125,102,962,537,493,0.87,6228241200
164,626,780,145,95,955,370,381,0.86,6248724000
140,501,831,157,93,864,342,262,0.85,6268646400
128,489,829,159,89,843,304,241,0.84,6288301100
133,488,757,159,86,903,325,243,0.83,6308066400
139,499,740,152,71,815,281,218,0.82,6327965600
138,524,732,136,72,800,267,209,0.81,6347430200
134,487,721,124,76,877,257,204,0.8,6369320300
138,469,698,110,74,845,272,243,0.79,6389265300
140,531,752,100,73,871,228,300,0.78,6408551100
142,548,676,109,82,855,210,308,0.77,6428249000
140,633,742,136,77,843,202,354,0.76,6447500900
152,621,742,149,70,746,223,356,0.75,6467213800
151,618,721,152,67,692,206,337,0.74,6486750500
149,579,666,146,73,648,266,280,0.73,6511401000
138,562,717,138,58,581,281,275,0.72,6528114400
138,482,617,122,56,569,289,235,0.71,6547530600
177,509,716,122,55,492,261,234,0.7,6567724800
182,587,731,124,55,526,266,231,0.69,6587800000
176,595,765,130,49,456,256,280,0.68,6607678000
182,609,756,130,50,454,235,278,0.67,6628266600
182,593,758,123,48,440,234,259,0.66,6649195900
133,603,633,104,45,521,236,260,0.65,6667843000
137,550,625,113,57,520,230,226,0.64,6687625200
150,545,597,111,55,487,186,114,0.63,6707614500
167,545,536,106,59,476,174,102,0.62,6727513200
163,510,531,114,62,458,166,97,0.61,6747355800
160,500,568,116,64,449,176,74,0.6,6767185900
166,450,576,97,62,413,154,59,0.59,6786327700
155,461,700,120,60,346,134,42,0.58,6809397400
129,426,808,123,62,358,130,45,0.57,6827620600
139,410,795,125,63,447,134,46,0.56,6847271700
157,401,838,133,71,400,114,101,0.55,6866944800
155,487,824,146,69,388,111,103,0.54,6888895600
165,529,747,188,70,383,103,110,0.53,6909243500
163,568,620,197,67,372,103,112,0.52,6928808000
172,600,633,185,68,383,107,113,0.51,6948400100
166,677,568,177,61,359,102,74,0.5,6969908300
151,625,663,175,60,356,93,74,0.5,6969920100
138,556,788,169,66,365,100,71,0.48,7006225600
138,546,812,162,70,403,111,67,0.47,7029091700
109,527,819,166,67,315,95,63,0.46,7048874000
132,391,826,180,73,285,87,60,0.45,7068643300
138,362,866,196,76,271,97,64,0.44,7088409200
134,376,793,154,70,269,105,56,0.43,7108228400
132,362,856,159,74,411,100,57,0.42,7129639400
139,331,827,161,76,413,98,59,0.41,7148988100
121,315,824,151,69,410,106,54,0.4,7168703000
122,323,802,185,73,414,96,52,0.39,7188488000
122,311,799,191,85,462,106,59,0.38,7207862100
138,304,852,189,79,323,98,56,0.37,7227116100
142,351,987,199,81,296,103,56,0.36,7246718400
144,361,1005,199,83,297,93,59,0.35,7266674900
140,353,970,145,77,316,102,58,0.34,7288473200
147,369,976,136,65,255,75,58,0.33,7308361000
142,376,965,138,73,320,91,73,0.32,7328271800
144,357,878,146,69,344,85,71,0.31,7347661500
149,446,924,168,73,349,88,72,0.3,7367370600
151,494,1005,178,71,370,82,71,0.29,7386780500
159,534,1001,196,80,389,94,69,0.28,7406516700
161,573,1042,202,79,468,116,70,0.26,7447359700
161,582,1091,219,88,469,120,81,0.26,7447372300
186,533,1061,275,111,482,131,104,0.25,7467383100
224,559,1066,328,127,455,135,127,0.24,7487426300
225,541,1122,357,142,441,129,131,0.23,7507404500
242,540,1050,390,151,262,97,131,0.22,7527477600
240,568,1041,404,152,266,93,125,0.21,7547246400
273,605,1158,458,179,237,87,132,0.2,7567146200
278,684,1209,444,182,229,79,122,0.19,7588671300
353,790,1247,602,196,210,93,153,0.18,7608378200
388,929,1296,660,203,207,110,165,0.17,7627957800
433,1070,1283,679,218,178,117,189,0.16,7647853700
404,1076,1219,653,191,189,113,176,0.15,7667503200
409,1096,1182,704,183,228,116,182,0.13,7707569200
373,1080,1205,698,210,214,113,167,0.13,7707580300
420,1059,1230,740,252,248,118,184,0.12,7728864200
430,1057,1304,796,267,267,138,227,0.11,7748972400
469,1110,1323,886,287,266,159,277,0.1,7768543500
528,1123,1268,978,325,315,173,305,0.09,7788426700
618,1123,1175,1090,370,327,209,353,0.08,7807976200
588,1190,1076,1051,344,339,217,480,0.07,7827779500
624,1212,975,1043,351,440,292,667,0.06,7847358700
607,1213,959,971,339,460,363,690,0.05,7866892100
576,1188,967,899,326,421,378,715,0.02,7928436400
472,1206,979,661,238,437,376,698,0.02,7928449200
457,1083,1019,625,240,607,415,641,0.02,8007608100
371,963,1065,562,205,561,377,430,0.02,8007644500
429,995,1041,630,239,555,333,410,0.02,8007656600
430,963,1012,585,271,595,327,356,0.02,8007666400
473,904,993,676,310,641,344,400,0.03,8032344000
464,836,907,664,307,634,526,473,0.03,8032354100
458,773,836,650,304,660,547,490,0.04,8050393500
379,668,866,552,269,735,540,490,0.05,8067617600
319,614,824,492,201,737,554,616,0.06,8087448900
298,621,770,312,160,861,746,787,0.07,8106985700
291,656,824,309,145,794,667,796,0.08,8126992900
273,685,872,283,135,854,763,826,0.1,8166400400
289,653,761,261,143,846,821,917,0.1,8166429700
296,642,765,258,162,865,956,961,0.11,8187811400
250,585,728,226,156,835,930,948,0.14,8246929400
255,579,704,195,154,800,943,959,0.14,8246941900
263,606,588,170,161,735,872,973,0.14,8246951200
254,609,594,158,151,707,883,910,0.15,8266943000
258,587,553,124,133,731,819,874,0.16,8286552200
236,595,571,146,104,667,781,771,0.17,8309609200
264,631,587,179,103,703,732,760,0.18,8329248400
288,556,558,171,103,686,904,830,0.19,8347015900
292,531,510,166,101,717,1031,867,0.2,8366545100
287,540,516,168,109,682,1041,806,0.21,8386283500
289,581,689,228,118,583,1002,818,0.22,8408648600
243,555,658,202,124,641,1009,810,0.23,8427988100
253,593,651,204,171,842,1150,795,0.25,8466944400
250,573,651,206,178,946,1049,794,0.25,8466978900
262,584,637,206,172,937,1006,804,0.27,8506380400
251,533,578,120,163,941,975,769,0.27,8506393300
256,526,602,132,157,919,970,761,0.28,8527217200
209,469,611,123,97,794,672,753,0.29,8547143500
199,455,611,118,84,612,655,719,0.3,8566895100
171,520,609,117,77,577,654,689,0.31,8587197900
183,519,525,126,80,580,668,675,0.32,8607388700
171,559,567,111,89,528,783,784,0.33,8627267800
185,548,564,109,79,466,774,738,0.34,8648939400
243,593,550,108,82,511,821,775,0.35,8669183200
256,641,553,105,80,523,814,801,0.36,8688908200
248,639,554,104,69,511,817,790,0.37,8708380800
257,563,380,95,64,524,806,726,0.38,8728109000
255,598,450,94,66,535,767,697,0.4,8766957600
211,556,460,91,59,470,735,728,0.4,8766969600
207,495,469,94,62,453,758,812,0.41,8791549800
207,537,432,68,59,458,767,877,0.43,8827693400
201,572,443,68,62,492,768,824,0.43,8827730500
188,553,353,67,61,480,795,872,0.44,8847158500
195,585,338,68,64,496,757,773,0.45,8866922400
206,503,341,63,61,546,715,710,0.46,8887287000
201,488,287,52,68,679,772,674,0.47,8906952600
207,502,340,60,67,708,705,721,0.48,8929267100
243,544,358,70,66,709,685,795,0.49,8946766000
224,498,356,69,71,824,690,832,0.5,8966622700
210,570,329,70,78,805,768,875,0.51,8986418100
226,531,389,75,77,762,738,918,0.52,9006262200
252,482,404,80,78,759,745,902,0.53,9026184500
226,498,399,81,83,797,827,834,0.55,9067206500
283,570,409,84,88,757,854,911,0.56,9087169600
311,551,407,82,86,808,850,903,0.56,9087183000
296,550,325,77,90,940,851,880,0.57,9108496300
283,631,279,67,85,941,830,867,0.58,9129691200
282,616,279,57,88,999,832,841,0.59,9146646400
226,619,275,54,82,1003,788,776,0.6,9169327300
219,643,278,59,92,1017,790,785,0.61,9188813500
241,686,278,58,89,987,847,754,0.62,9208398800
282,662,211,56,93,1058,887,744,0.63,9228294900
290,653,214,64,110,1048,897,795,0.64,9246291600
300,656,275,68,124,1102,940,850,0.65,9269403000
282,693,294,71,126,1169,939,904,0.66,9286578500
290,664,293,81,134,1217,937,958,0.67,9306621400
275,682,305,84,157,1275,924,977,0.68,9329429700
294,679,291,83,169,1252,857,979,0.69,9349315900
320,709,289,90,200,1274,818,1019,0.71,9388439000
338,691,320,95,204,1271,838,993,0.71,9388452500
394,767,344,101,216,1206,870,1011,0.72,9406678900
420,744,326,105,249,1254,989,1024,0.73,9426235400
471,800,342,122,288,1325,1018,1049,0.74,9449600000
506,778,348,126,283,1284,1087,987,0.75,9469263300
582,749,341,141,307,1302,1122,1003,0.77,9508266800
556,741,341,158,321,1422,1084,962,0.77,9508281100
556,883,469,164,320,1368,976,942,0.78,9528223500
570,902,464,160,309,1365,984,993,0.79,9552699400
596,1029,457,159,312,1359,967,1096,0.8,9566329900
606,1198,448,160,316,1332,898,1054,0.81,9589429600
695,1231,549,143,303,1254,963,1111,0.82,9608873800
723,1181,490,149,300,1192,1103,1144,0.83,9628764200
683,1200,542,156,311,1297,1120,1084,0.84,9649258800
766,1125,523,169,332,1337,1145,1039,0.86,9689149400
736,986,576,165,317,1392,1141,1013,0.86,9689174200
684,961,507,163,332,1404,1171,989,0.87,9707629000
660,914,488,158,339,1496,1123,943,0.88,9727860700
704,862,496,162,323,1384,1147,940,0.89,9747717900
581,871,585,162,293,1436,1122,911,0.9,9767268600
610,820,530,157,303,1461,1107,933,0.92,9806304800
659,848,496,165,290,1426,1104,981,0.92,9806345900
711,908,508,185,277,1346,1058,1021,0.93,9827507500
702,905,477,184,295,1523,977,1031,0.94,9848635100
716,925,416,188,313,1493,956,1018,0.95,9870016200
685,958,434,189,317,1503,1040,1024,0.96,9887089300
619,916,423,178,309,1489,907,989,0.97,9911512600
601,901,419,151,293,1480,914,1011,0.98,9929135000
567,870,440,135,255,1302,934,970,0.99,9948788500
519,821,386,105,220,1227,916,938,0.98,9968581100
490,807,372,91,174,1079,828,936,0.97,9988434200
446,763,449,88,160,1030,802,845,0.96,10009484000
336,729,446,78,130,1109,712,797,0.95,10026618600
374,779,375,89,121,1078,687,789,0.94,10049312500
367,759,439,88,107,1081,630,750,0.93,10068642200
333,717,516,104,104,1045,570,643,0.91,10108557500
330,693,489,125,102,986,542,610,0.9,10128429900
310,625,501,151,120,931,522,511,0.9,10128443000
224,566,572,144,100,899,450,391,0.89,10147629800
218,481,581,159,110,808,394,278,0.88,10169405200
204,425,610,191,129,765,343,218,0.87,10189099800
198,402,651,203,144,850,359,186,0.86,10208438200
205,390,722,195,135,776,313,173,0.85,10228281300
183,440,714,204,135,793,308,213,0.84,10247763700
198,461,702,195,129,826,331,207,0.83,10268289400
210,462,692,197,108,863,328,223,0.82,10288082500
215,477,717,190,89,790,316,220,0.81,10307644300
203,473,642,181,82,831,307,207,0.8,10326241700
243,367,611,176,73,746,243,150,0.79,10349320600
220,364,708,205,75,712,200,147,0.78,10366201100
237,366,674,167,72,680,202,134,0.76,10409143100
242,348,657,154,73,696,181,135,0.75,10428990500
256,328,758,156,71,555,158,140,0.75,10429037100
225,311,759,150,69,517,132,99,0.74,10449078200
217,264,716,120,60,494,132,99,0.73,10467015400
173,284,763,115,55,463,122,81,0.72,10487126500
168,295,807,120,57,485,117,72,0.71,10506544000
150,330,756,128,57,429,115,59,0.7,10529343000
120,340,780,137,55,414,111,53,0.69,10549148900
111,325,741,129,54,415,103,46,0.68,10568778600
123,321,680,137,56,418,111,61,0.67,10588972000
121,328,631,125,51,361,92,61,0.66,10608621300
126,370,598,111,47,326,90,60,0.65,10626749300
141,402,572,112,52,309,89,66,0.63,10669718800
139,407,664,109,51,310,114,69,0.63,10669729900
128,381,679,95,47,289,120,54,0.61,10709143700
135,429,714,103,47,227,116,58,0.6,10728958900
132,386,783,111,47,211,114,59,0.6,10728994300
124,391,806,93,44,213,118,59,0.59,10748590800
124,388,706,86,45,193,97,59,0.58,10773263800
125,415,716,100,47,196,72,63,0.56,10809401800
121,353,733,116,46,188,63,60,0.56,10809412500
135,370,696,178,54,178,64,60,0.55,10828960800
132,361,717,191,54,174,56,52,0.54,10848605200
130,361,721,190,51,169,60,49,0.53,10868283600
130,326,722,182,48,182,77,44,0.52,10887880300
136,342,655,186,58,273,90,51,0.5,10928419900
148,304,645,133,57,287,88,49,0.49,10948502200
157,333,621,116,57,286,92,55,0.49,10948513400
160,346,681,120,60,297,87,55,0.47,10987622200
160,362,709,124,60,373,85,63,0.45,11028038600
140,350,708,101,61,444,73,60,0.45,11028050100
149,403,738,127,66,446,75,70,0.44,11048175300
164,376,809,135,65,456,69,69,0.44,11048192600
167,401,864,172,69,447,70,74,0.43,11068421000
168,405,858,169,72,419,70,67,0.41,11106568500
172,422,856,181,70,366,87,66,0.41,11106579600
137,371,966,168,60,375,85,57,0.4,11129310300
116,376,907,173,63,368,87,57,0.38,11168567600
151,416,899,161,64,377,88,65,0.38,11168580800
160,422,937,180,67,348,89,68,0.37,11188259900
164,414,997,170,60,247,74,70,0.35,11229172900
164,414,887,157,61,227,74,70,0.35,11229184500
163,379,917,163,63,221,80,72,0.33,11268443000
132,390,872,162,72,269,91,65,0.33,11268453600
135,389,876,151,71,308,79,61,0.31,11307624800
126,386,950,151,71,306,75,54,0.31,11307635600
130,443,990,186,82,325,86,57,0.3,11327544500
137,530,1067,185,84,325,80,54,0.29,11347402200
142,529,1133,185,80,311,85,56,0.28,11367210900
150,549,1128,242,96,254,107,69,0.27,11388916400
189,630,1016,302,118,258,114,89,0.26,11408516400
200,623,1079,299,114,262,118,88,0.25,11428206500
213,586,1101,340,129,384,131,110,0.24,11448004800
208,584,1151,351,134,376,118,108,0.23,11468162200
211,615,1216,331,132,369,100,109,0.22,11487999300
208,669,1284,373,145,368,102,108,0.21,11507523000
213,770,1290,408,153,346,90,115,0.2,11532089300
225,827,1270,481,171,225,85,116,0.19,11549546200
276,859,1283,602,179,203,94,136,0.17,11588528400
315,838,1227,665,211,213,107,152,0.16,11608089300
384,909,1254,704,231,212,110,171,0.15,11628158900
398,948,1254,710,251,212,115,178,0.14,11647541100
413,999,1332,662,242,216,114,178,0.14,11647551800
451,1068,1371,602,287,260,121,189,0.13,11667274200
476,1250,1430,667,297,264,131,201,0.12,11688942000
474,1203,1349,721,321,264,137,199,0.11,11708958600
536,1178,1274,906,371,274,160,237,0.1,11728616200
537,1172,1226,916,371,280,161,252,0.09,11748236100
548,1155,1087,991,395,262,171,282,0.08,11766854100
566,1063,1100,1085,429,296,184,312,0.07,11786593900
569,1101,1159,1024,401,305,181,304,0.06,11809257500
546,1058,1218,883,363,334,173,335,0.05,11833284100
571,1080,1170,907,383,348,182,335,0.03,11869477200
612,1057,1168,861,369,370,184,318,0.03,11869495700
589,1094,1179,668,313,370,159,275,0.01,11908935000
557,994,1208,654,310,395,174,285,0.01,11908951000
553,1034,1200,657,312,464,177,304,0,11928691200
529,927,1123,637,291,520,187,409,0.02,11968175000
452,916,1122,619,243,515,174,436,0.02,11968186400
413,818,984,587,240,535,173,436,0.04,12009265700
409,826,863,571,234,649,315,504,0.05,12029375300
358,707,754,498,205,808,548,586,0.06,12048967600
356,731,775,460,185,914,578,578,0.07,12068529500
327,705,713,406,171,954,644,598,0.08,12088000200
332,588,688,389,150,1032,730,678,0.08,12088010000
319,540,640,370,201,1075,797,760,0.09,12107917100
346,549,592,374,202,1003,844,781,0.11,12146966000
323,554,537,334,219,1009,869,785,0.11,12146977200
314,545,537,256,224,1086,962,828,0.13,12186478600
297,576,515,215,225,1054,942,790,0.14,12206473100
281,589,562,207,175,991,919,762,0.14,12206484500
251,614,585,196,165,1005,800,696,0.15,12229413100
228,567,649,184,145,1004,803,674,0.17,12268335700
197,609,679,155,119,934,673,658,0.17,12268374000
188,607,662,138,111,929,658,677,0.19,12306647400
180,623,648,109,104,986,704,634,0.2,12329401600
154,826,736,155,89,913,664,625,0.21,12349126800
180,839,756,195,92,811,640,621,0.22,12368664100
178,760,705,194,92,888,714,611,0.23,12388602100
207,727,678,197,90,862,789,671,0.24,12407952900
208,715,644,195,83,752,678,686,0.25,12427029300
200,460,552,155,76,741,719,667,0.26,12449183100
192,458,551,116,62,701,721,760,0.26,12449196100
186,450,526,115,72,632,728,862,0.27,12468580500
157,447,529,106,78,670,638,830,0.29,12507097900
161,423,544,106,78,677,643,803,0.29,12507109300
155,496,590,132,84,647,594,798,0.31,12546460100
168,458,468,129,85,636,556,801,0.32,12569086700
177,444,486,120,67,550,502,719,0.32,12569103500
182,452,486,122,61,449,519,737,0.33,12590881000
178,507,470,121,60,410,535,786,0.35,12628061600
190,502,420,124,65,420,555,801,0.35,12628074400
173,519,447,135,76,492,597,711,0.36,12648669700
158,523,404,134,80,503,563,710,0.38,12686407200
159,541,406,134,78,554,647,656,0.38,12686423400
170,549,409,139,82,589,661,617,0.39,12709521300
158,478,313,100,71,621,646,651,0.41,12747288500
143,480,395,86,61,596,622,634,0.41,12747299300
134,477,404,85,56,583,662,581,0.43,12786981800
152,480,403,84,63,571,608,626,0.44,12806711000
151,443,394,75,62,605,614,608,0.45,12826541100
178,469,395,73,64,579,627,575,0.46,12846380800
182,486,367,77,61,537,647,571,0.47,12869249600
189,477,379,81,62,497,613,550,0.48,12893930500
174,452,375,82,57,504,677,519,0.48,12893947500
164,421,373,82,54,513,697,486,0.5,12926825400
129,440,345,79,53,537,678,434,0.51,12946350900
132,357,280,50,51,541,658,444,0.52,12968801000
138,418,260,50,55,606,651,518,0.53,12989273600
149,459,268,48,54,589,574,524,0.54,13009303700
151,455,313,51,53,557,509,589,0.54,13009315100
156,364,333,52,59,538,666,636,0.56,13046944700
153,467,274,52,62,565,710,681,0.57,13067131100
144,439,359,66,59,532,667,622,0.58,13087068900
120,407,373,70,56,586,699,618,0.59,13106590000
121,451,338,68,53,536,777,555,0.6,13126360200
113,468,318,68,51,597,690,563,0.61,13146342500
114,377,318,67,51,697,722,503,0.62,13169513100
125,474,294,56,52,739,766,552,0.63,13189544200
140,518,285,51,54,717,721,627,0.63,13189555100
157,558,285,49,58,729,668,660,0.65,13227635500
164,588,285,49,56,730,630,722,0.66,13247185900
166,593,331,48,55,678,566,863,0.67,13267078300
175,544,374,62,58,740,590,858,0.68,13286808800
175,571,381,63,59,731,599,800,0.69,13306525600
169,495,388,64,62,822,572,854,0.7,13329303100
172,456,387,64,61,845,669,830,0.71,13347660700
169,518,366,68,67,874,708,749,0.72,13367748600
158,506,251,46,66,809,727,762,0.72,13367760500
205,435,218,45,74,878,750,879,0.74,13407242300
210,550,215,50,97,929,754,845,0.75,13427121800
247,578,207,50,98,944,758,826,0.76,13447006400
278,591,158,50,102,905,755,819,0.77,13466993300
302,630,188,58,126,957,810,858,0.78,13486751500
279,632,254,63,127,965,841,854,0.79,13508485600
289,697,280,60,111,980,890,872,0.8,13528125600
289,716,291,65,122,1056,898,908,0.81,13547370400
272,692,302,73,137,1152,906,975,0.82,13566848000
261,755,286,79,123,1190,957,974,0.83,13586504900
306,793,237,83,142,1233,972,981,0.84,13607923200
347,729,225,97,171,1246,950,968,0.84,13607934200
374,759,219,103,198,1274,957,940,0.86,13649423800
391,755,246,105,216,1421,1009,923,0.87,13669305400
402,715,333,106,246,1427,972,912,0.87,13669344000
427,788,354,115,257,1391,957,927,0.89,13708927600
439,802,337,117,270,1370,946,935,0.9,13728245100
430,760,338,127,273,1426,954,1041,0.91,13747921700
480,781,334,135,292,1342,935,1046,0.92,13767621300
600,835,290,143,304,1475,879,1080,0.93,13786807400
601,774,311,153,307,1507,909,1052,0.94,13808375600
617,793,354,180,317,1531,1036,1133,0.95,13828186600
698,852,451,185,311,1435,1017,1086,0.96,13847641500
709,836,483,177,299,1461,1013,1102,0.97,13867608900
636,786,550,180,303,1363,1039,1108,0.98,13886852000
704,873,558,185,329,1354,1023,1163,0.99,13906667000
679,968,663,172,316,1413,932,1084,0.98,13926484500
598,1033,629,176,359,1479,967,1095,0.97,13946421700
574,1064,602,179,344,1419,971,1024,0.96,13967751200
589,1080,547,173,327,1356,967,954,0.95,13987377200
460,1055,552,158,285,1388,977,869,0.94,14006992900
463,944,471,137,269,1302,1007,893,0.93,14026291800
514,805,468,119,199,1269,968,868,0.92,14049183300
565,805,473,119,208,1293,936,845,0.91,14068416800
534,735,436,106,185,1284,899,856,0.9,14088431800
542,626,402,98,190,1274,870,830,0.89,14106348000
531,586,412,110,186,1190,767,745,0.88,14129016400
459,559,497,105,169,1053,683,635,0.87,14148977200
349,495,665,121,147,950,586,599,0.86,14168819600
301,491,794,123,138,912,485,503,0.85,14188768200
275,533,909,136,120,781,325,326,0.84,14208607500
225,502,946,173,106,744,258,261,0.83,14228167800
209,532,943,196,110,744,244,200,0.82,14247836900
177,512,867,189,100,649,241,164,0.81,14269249300
172,478,866,190,101,714,241,130,0.8,14289250400
157,447,792,191,93,670,207,111,0.79,14306219600
180,428,787,188,93,681,205,105,0.78,14329351200
194,395,778,183,91,757,177,97,0.77,14348775300
178,352,899,183,96,865,184,194,0.76,14368598800
178,406,836,193,89,751,151,197,0.75,14388203500
204,407,813,184,90,723,143,204,0.74,14409240100
196,404,832,169,93,780,174,208,0.73,14429091400
186,404,819,147,79,851,187,209,0.72,14449271900
191,418,649,133,67,707,185,189,0.71,14468663600
206,452,614,114,58,708,194,192,0.7,14488407200
199,472,657,155,59,728,196,189,0.69,14507716400
190,481,601,161,61,713,199,185,0.68,14527873800
175,497,698,166,65,520,186,180,0.67,14547299500
209,515,686,171,64,497,161,105,0.66,14568771000
205,467,722,174,65,462,148,88,0.65,14589145400
191,416,721,138,60,453,145,74,0.64,14608489300
189,394,677,105,58,534,130,67,0.63,14628294500
183,376,554,100,52,520,130,64,0.62,14648294600
172,343,569,96,58,521,133,61,0.61,14668522300
173,308,606,161,71,528,149,57,0.6,14687957300
173,361,620,198,81,628,172,57,0.59,14713092100
176,407,666,197,81,576,173,62,0.58,14726253800
177,408,678,199,80,580,165,56,0.57,14746334200
150,440,757,203,82,581,164,55,0.56,14769311800
177,471,764,162,74,587,151,56,0.55,14789246300
185,437,711,117,75,572,123,64,0.54,14808796800
180,390,701,113,72,504,92,58,0.53,14828647700
181,377,687,123,72,475,88,57,0.52,14848643900
199,392,722,127,70,479,87,56,0.51,14866835700
166,411,756,150,72,485,90,62,0.5,14886727200
154,396,768,147,65,438,94,49,0.49,14906398400
157,398,845,148,63,394,75,47,0.48,14928870900
153,404,884,147,64,419,83,49,0.47,14948511200
117,362,874,140,68,420,82,44,0.46,14968454600
137,330,931,125,61,402,84,38,0.45,14988530900
140,351,925,130,82,430,90,60,0.44,15008439500
137,347,818,136,81,470,97,59,0.43,15026665100
140,381,882,164,83,484,89,61,0.42,15046420100
138,392,855,198,82,499,91,66,0.41,15066766000
113,398,815,207,82,598,129,70,0.4,15086268300
103,363,924,204,58,519,123,54,0.39,15109000600
108,399,962,203,61,478,124,60,0.38,15128596500
107,395,932,186,61,437,126,61,0.37,15148087000
154,382,991,167,57,430,133,56,0.36,15169303800
153,349,968,142,64,337,116,53,0.35,15189276900
162,350,883,143,63,320,122,54,0.34,15209011500
163,320,913,181,69,320,121,54,0.33,15228628800
184,353,890,249,88,322,124,71,0.32,15248284900
168,397,813,268,90,371,117,74,0.31,15267839800
193,418,849,287,103,465,146,85,0.3,15287175200
197,493,994,313,109,471,145,86,0.29,15306819000
195,496,978,316,106,477,141,84,0.28,15327883200
180,499,946,270,95,480,137,71,0.27,15347528700
163,524,1059,262,104,454,139,73,0.26,15367397200
135,526,1015,269,91,366,99,63,0.25,15386987400
120,451,906,245,87,364,90,59,0.24,15407311800
130,449,866,217,85,358,93,60,0.23,15427200700
130,462,1008,242,89,363,98,60,0.22,15448796200
133,458,908,235,77,344,98,58,0.2,15487019300
134,486,973,210,75,296,84,56,0.2,15487032700
156,562,1086,270,93,272,80,66,0.19,15507138500
205,649,1163,404,140,305,87,94,0.18,15526986900
220,669,1131,454,149,299,86,105,0.17,15546750100
261,706,1242,555,186,293,88,125,0.16,15569275000
310,772,1180,621,204,265,98,149,0.15,15588897200
318,850,1214,646,216,251,107,151,0.14,15608035300
315,875,1222,587,212,216,114,149,0.13,15626318800
332,915,1272,554,215,203,113,149,0.11,15667182200
338,944,1195,529,217,202,111,145,0.11,15667192600
341,1029,1245,559,263,223,131,145,0.1,15687264300
377,1011,1166,551,269,260,149,160,0.07,15747110000
367,974,1123,558,258,256,144,152,0.07,15747120900
383,960,1078,627,278,268,154,160,0.07,15747129100
390,923,1093,660,280,256,155,172,0.06,15766890100
396,883,1171,608,244,236,142,173,0.05,15788581200
420,866,1223,654,272,210,140,196,0.04,15808125600
424,904,1226,688,277,209,133,200,0.03,15827719300
420,898,1177,701,281,221,127,203,0.02,15847447800
394,887,1169,648,262,213,129,190,0.01,15867213600
398,861,1098,668,262,231,125,191,0,15886791400
331,803,1031,593,212,217,102,158,0.01,15906586300
331,759,1071,547,203,215,110,152,0.02,15930708700
317,787,1060,574,196,247,112,149,0.04,15967046300
300,742,1004,536,185,258,112,142,0.04,15967059300
349,728,999,583,224,280,127,165,0.05,15986786200
362,819,935,588,231,330,129,186,0.07,16029340500
343,804,837,582,230,331,123,194,0.07,16029395700
320,696,817,441,196,377,157,198,0.08,16048982200
328,703,845,442,202,496,200,326,0.09,16069257500
222,581,797,282,130,624,227,397,0.1,16087496000
187,430,811,256,116,668,298,516,0.12,16127628700
198,440,786,241,109,694,409,610,0.12,16127639600
194,438,783,222,105,662,425,678,0.13,16147034900
187,474,743,193,88,634,534,710,0.14,16166772300
208,462,670,167,75,581,538,695,0.15,16186410300
212,492,636,126,59,573,518,667,0.16,16208924700
223,466,669,124,66,594,596,677,0.17,16233247400
255,496,643,155,75,620,712,662,0.19,16269341000
267,487,607,153,77,594,647,638,0.19,16269373700
248,515,577,167,78,527,704,723,0.2,16289450000
273,493,516,176,89,555,719,718,0.22,16326683300
257,447,539,158,80,546,642,683,0.22,16326726400
240,447,518,153,85,520,600,711,0.23,16346422200
232,431,490,149,86,552,604,735,0.24,16369570300
211,471,487,133,86,621,549,663,0.25,16387558400
178,435,543,133,79,596,620,700,0.26,16407356700
206,484,510,172,90,570,605,675,0.28,16446934400
220,512,496,144,81,577,539,653,0.28,16446948100
208,488,482,143,84,547,541,698,0.29,16466452300
235,402,452,141,80,618,671,732,0.3,16489239300
261,400,349,128,79,577,641,703,0.31,16508998600
245,366,478,85,73,583,629,689,0.32,16528627100
242,339,515,124,72,593,618,717,0.33,16546865400
248,334,508,133,66,647,670,694,0.34,16566946100
233,347,510,136,73,585,565,681,0.35,16586753600
199,367,514,134,66,565,515,686,0.36,16606639800
199,430,354,129,64,580,513,730,0.37,16629326500
186,395,379,99,62,596,534,738,0.38,16649153800
189,426,374,88,58,524,507,704,0.39,16669142400
194,422,372,83,56,423,521,760,0.4,16687037800
191,459,353,84,54,420,558,795,0.41,16707235000
182,494,336,69,43,366,558,760,0.42,16727476200
182,569,202,65,45,276,540,785,0.43,16747334700
186,582,207,65,46,289,520,826,0.44,16767058200
175,577,204,67,44,331,471,769,0.45,16786783700
189,548,206,64,46,343,454,726,0.46,16806720800
196,458,180,61,47,354,490,764,0.47,16826208800
185,375,275,53,44,368,478,739,0.48,16847521900
160,302,303,50,61,489,604,703,0.49,16867628600
158,320,315,53,63,479,614,739,0.5,16887171600
159,319,314,56,65,544,704,881,0.51,16906633800
170,315,311,57,69,590,716,892,0.52,16929187400
172,292,212,52,77,622,752,871,0.53,16948986200
182,334,216,50,65,555,692,881,0.54,16968608300
179,329,207,42,65,627,765,884,0.55,16990121000
176,338,207,42,67,668,731,840,0.56,17007312400
179,340,235,44,68,698,801,896,0.57,17028139100
187,335,337,66,62,666,792,878,0.58,17047492200
192,347,357,65,70,667,850,957,0.59,17067579500
209,375,355,66,71,666,791,924,0.6,17087220400
204,383,357,66,76,703,777,873,0.61,17106817200
200,391,346,67,78,683,832,927,0.62,17126240500
239,478,240,46,74,844,852,991,0.63,17148009100
240,497,229,43,73,890,796,927,0.64,17168292300
245,500,381,58,78,922,813,928,0.65,17188257600
259,482,386,74,88,931,896,987,0.66,17207860100
285,506,387,75,91,1049,788,970,0.67,17227602800
289,508,389,81,109,1053,754,964,0.68,17247049500
344,523,368,99,123,1043,779,981,0.69,17267144900
339,533,224,93,125,1018,828,1016,0.7,17299631600
436,650,288,103,155,1068,769,964,0.7,17299642700
421,679,379,119,214,1164,927,961,0.73,17348949300
431,729,406,124,228,1205,1085,985,0.74,17368316400
425,738,392,114,231,1261,1096,927,0.74,17368330800
465,766,394,121,237,1298,1124,947,0.75,17388587500
444,735,427,119,225,1260,1124,944,0.76,17407998200
488,756,382,121,198,1147,1003,1042,0.77,17427702800
479,750,352,133,219,1109,1072,1010,0.78,17448930900
481,889,359,136,229,1103,1099,1031,0.79,17468393100
516,966,345,139,245,1185,1108,1141,0.8,17487889800
520,954,250,134,257,1283,1131,1189,0.81,17507433200
557,1117,248,137,275,1409,1170,1033,0.82,17526930300
567,1108,267,133,258,1454,1012,1045,0.83,17546703100
618,1017,286,148,288,1595,974,1125,0.84,17568974700
667,949,306,158,287,1547,954,1035,0.85,17593549400
666,928,375,179,313,1566,955,1047,0.87,17626665800
691,737,419,171,311,1535,893,1106,0.88,17647202900
733,723,431,172,321,1639,887,1119,0.89,17667315800
732,696,516,174,295,1506,942,1107,0.89,17667327000
687,691,600,169,287,1464,900,1092,0.9,17687542600
720,791,625,150,259,1447,858,1076,0.91,17707386300
694,720,604,162,247,1389,936,1150,0.92,17726756400
667,721,634,156,229,1193,952,1148,0.93,17747914900
604,791,565,135,216,1165,914,1048,0.94,17767451200
572,765,482,127,215,1237,928,1059,0.95,17786960300
517,705,399,132,210,1147,918,1005,0.96,17806833600
446,768,352,111,190,1151,844,933,0.97,17827080600
425,724,264,110,198,1156,891,925,0.98,17846853900
419,770,274,108,193,1121,818,991,0.99,17866576000
390,794,268,105,184,1060,791,935,0.98,17886860400
347,777,303,88,169,1024,770,993,0.97,17908204900
346,765,364,93,159,984,781,1023,0.96,17927972100
304,753,359,80,132,1027,607,964,0.95,17947414200
305,594,326,83,127,1017,592,886,0.94,17967011500
289,651,309,82,112,1047,503,843,0.93,17987134300
252,658,314,78,96,1079,437,759,0.92,18007116400
230,666,269,71,78,987,372,556,0.91,18026907700
194,674,365,76,69,858,392,520,0.9,18048664600
164,665,427,102,66,874,351,503,0.89,18068453800
164,579,422,100,71,785,345,490,0.88,18088758600
147,504,434,100,66,687,327,361,0.87,18108198400
131,463,663,158,71,743,283,296,0.86,18127927800
160,468,862,199,72,756,221,239,0.85,18147336300
163,454,879,189,70,751,216,229,0.84,18166694700
150,414,942,188,63,755,231,200,0.82,18208165500
162,497,1040,206,66,703,222,197,0.82,18208177200
163,472,923,170,64,644,185,175,0.81,18228069800
143,443,841,143,67,688,190,170,0.8,18247131800
145,449,854,143,65,657,169,163,0.79,18267271800
139,444,841,148,67,601,134,98,0.78,18287088800
121,364,764,129,62,596,134,85,0.77,18307024500
109,360,809,123,65,647,140,65,0.76,18327269600
99,340,735,92,56,552,117,60,0.75,18348906900
114,360,683,86,53,494,110,55,0.74,18368980500
106,382,678,85,51,475,111,51,0.73,18388930900
109,380,701,82,50,475,109,53,0.72,18408351300
105,335,656,85,55,361,128,66,0.71,18427876100
104,335,587,91,60,408,154,71,0.7,18447308600
67,315,711,99,66,399,157,74,0.68,18486554700
66,384,761,102,69,403,154,76,0.67,18507722800
114,523,882,189,79,395,156,81,0.66,18527502600
139,544,984,218,82,403,126,78,0.65,18547335900
144,563,1032,220,81,384,104,84,0.65,18547348200
142,549,945,218,77,384,102,82,0.64,18567256900
165,550,889,246,84,394,108,93,0.62,18609375100
137,426,748,187,78,406,107,92,0.62,18609388700
112,394,688,151,65,350,105,85,0.61,18628992400
103,370,625,148,61,338,90,68,0.6,18652838600
104,370,666,147,63,328,88,65,0.59,18666860500
116,313,661,118,55,314,80,47,0.58,18687970200
117,297,668,126,49,302,79,44,0.56,18727273000
117,287,589,130,49,294,67,42,0.56,18727284100
121,301,675,130,54,227,64,50,0.55,18746985900
120,297,649,127,52,264,63,62,0.53,18786326800
66,236,640,94,46,274,62,59,0.53,18786338500
59,277,603,80,43,271,63,57,0.52,18808344400
56,283,683,80,43,273,65,55,0.5,18846974900
53,294,679,82,33,236,86,52,0.49,18866327800
57,299,717,85,33,315,98,60,0.49,18866338300
64,319,771,87,37,328,105,62,0.47,18909492300
59,316,734,85,38,338,103,60,0.47,18909502900
66,381,780,82,41,340,101,61,0.46,18929273200
70,384,850,105,46,330,97,59,0.45,18948735200
66,383,863,106,50,265,87,35,0.44,18967454400
62,357,824,107,47,261,79,33,0.43,18987607800
72,355,869,110,54,245,79,37,0.41,19026783500
121,380,862,176,65,238,79,53,0.41,19026794100
138,390,798,204,72,248,54,61,0.4,19046986500
145,404,827,221,72,209,77,63,0.39,19068434900
146,404,819,226,74,195,88,63,0.38,19087919300
147,382,827,234,73,206,87,63,0.37,19109427100
112,369,786,195,63,212,90,52,0.36,19128940100
93,369,806,162,54,210,87,45,0.35,19147236800
85,379,865,160,57,202,69,45,0.34,19166951300
91,386,915,161,60,214,67,52,0.32,19206992000
99,415,911,159,60,246,72,54,0.32,19207033400
128,421,1095,179,66,242,72,65,0.31,19226789700
137,472,1116,174,69,255,82,70,0.29,19267762200
137,472,1062,169,69,268,84,69,0.28,19287267500
141,554,1130,172,70,376,85,77,0.28,19287279700
137,542,1161,172,69,374,85,78,0.26,19326696700
119,491,987,173,72,385,89,75,0.26,19326734500
135,442,960,195,81,384,92,76,0.25,19346259300
136,457,952,191,78,372,91,76,0.24,19369373800
140,420,956,195,80,307,97,73,0.22,19413598800
146,443,962,201,80,313,101,72,0.22,19413610000
170,503,961,265,97,297,110,77,0.2,19446839600
173,588,961,271,95,281,102,80,0.19,19466304600
194,635,1019,308,112,340,116,93,0.18,19486181500
208,646,962,319,111,298,107,96,0.17,19509090900
223,714,1099,336,124,294,116,103,0.16,19528816100
228,730,1102,304,123,301,112,103,0.15,19548412500
225,719,1168,325,132,305,110,103,0.14,19566361000
228,764,1178,321,132,249,93,103,0.13,19586553400
249,791,1172,350,151,237,99,115,0.13,19586564100
339,809,1060,448,199,216,107,152,0.11,19628776800
334,825,1102,478,204,240,99,153,0.1,19648751600
371,912,1154,524,217,233,101,167,0.1,19648763200
374,895,1166,530,222,222,106,166,0.08,19687660800
359,870,1216,517,219,229,103,157,0.07,19707800100
285,854,1269,451,183,215,85,127,0.07,19707837300
317,889,1322,460,196,190,96,140,0.06,19729770500
279,829,1226,410,186,186,98,126,0.04,19766478100
267,794,1165,409,180,188,97,122,0.04,19766488400
258,798,1140,409,173,184,91,120,0.02,19806223300
237,756,1039,389,162,242,81,108,0.01,19829136200
195,726,965,332,128,244,81,109,0.01,19829149700
205,689,977,336,129,259,81,117,0.01,19869570200
195,672,963,296,116,305,80,149,0.02,19886269800
191,630,850,269,116,490,166,267,0.02,19886281300
183,621,827,245,109,502,238,377,0.04,19927274200
172,574,768,232,126,628,399,474,0.05,19949829000
166,529,674,181,115,628,433,578,0.05,19949840000
182,501,709,182,117,624,455,674,0.06,19968385300
192,490,720,183,146,735,613,699,0.08,20006420700
204,594,723,213,159,837,745,843,0.08,20006432800
210,637,809,202,151,789,755,881,0.1,20046572800
210,624,820,180,148,861,867,862,0.11,20066667300
202,645,759,181,151,929,968,922,0.11,20066678400
220,682,778,186,121,837,896,921,0.13,20106461100
217,597,752,145,104,792,836,814,0.14,20129174900
206,573,660,149,94,770,767,792,0.14,20129229700
195,575,681,151,91,709,658,821,0.15,20148709800
205,581,653,139,86,695,635,765,0.16,20173311700
194,555,618,123,87,696,760,830,0.17,20187080200
185,655,657,133,86,658,707,790,0.19,20226236800
183,695,652,158,92,643,754,797,0.2,20246376100
184,673,618,169,98,730,792,809,0.2,20246386600
169,656,596,172,96,677,778,779,0.21,20268951400
152,660,589,169,94,673,725,669,0.23,20308146200
196,611,609,186,95,615,739,651,0.23,20308157400
202,586,592,147,87,619,748,649,0.25,20347016200
204,622,574,132,79,516,719,687,0.26,20366660600
212,640,586,128,76,557,699,688,0.27,20386376300
216,620,579,128,68,448,630,756,0.28,20406303900
178,584,580,101,65,452,606,751,0.29,20429151000
176,510,496,102,73,483,559,709,0.3,20449149200
197,565,441,93,71,497,654,703,0.31,20468977600
192,540,425,90,73,473,611,707,0.32,20486969300
231,594,427,91,72,475,653,722,0.33,20506639100
236,570,249,66,66,475,674,795,0.34,20526627700
230,549,353,57,56,539,688,789,0.35,20546457600
205,528,368,51,56,567,587,742,0.36,20569662500
222,536,374,51,52,542,611,731,0.37,20589368400
177,492,381,48,57,598,612,779,0.38,20609227300
178,592,398,53,58,610,606,767,0.39,20626940300
190,599,305,72,62,591,590,799,0.4,20646943600
184,536,287,72,54,565,627,796,0.41,20666665500
198,508,265,72,54,589,587,770,0.42,20686310600
203,555,251,73,46,527,598,679,0.43,20706268500
216,460,242,71,52,591,602,654,0.44,20729184400
219,441,328,75,56,561,589,667,0.45,20749504800
217,476,388,95,60,583,510,619,0.45,20749517800
193,503,404,98,65,650,589,701,0.47,20787764000
189,437,405,96,69,682,578,777,0.48,20807894100
192,441,382,96,73,754,622,783,0.49,20828138200
191,530,302,77,70,831,676,799,0.5,20848273300
204,550,227,55,71,849,712,814,0.51,20868308300
201,566,235,55,73,841,697,813,0.52,20888574000
228,592,237,58,93,981,677,767,0.53,20909085500
220,575,235,55,89,958,643,845,0.54,20934187400
223,511,205,57,96,984,680,839,0.54,20934199300
235,487,209,56,101,1076,704,854,0.56,20967670600
238,477,173,61,112,1152,698,845,0.57,20987586200
224,501,162,65,107,1095,752,848,0.58,21008811900
219,462,160,69,146,1238,790,785,0.59,21029634400
201,446,158,69,154,1203,750,726,0.6,21046590500
191,502,165,75,161,1225,881,779,0.61,21066266300
203,643,200,73,173,1223,938,799,0.62,21088083100
227,733,207,77,200,1245,948,912,0.63,21108279800
244,760,228,77,184,1112,1070,947,0.64,21128785800
304,847,257,80,185,1252,1125,1068,0.65,21148525800
341,844,236,77,206,1321,1113,1058,0.66,21167913000
351,737,224,79,222,1337,1059,1036,0.67,21187975300
411,669,411,95,219,1407,1088,982,0.68,21207859400
417,763,476,99,222,1429,1029,979,0.69,21227195300
406,714,476,120,267,1342,1021,946,0.7,21248440600
389,727,475,124,262,1231,956,1017,0.71,21267693500
397,824,599,131,251,1246,1001,1016,0.72,21286847200
392,803,523,133,253,1232,970,1054,0.73,21306375800
409,801,495,142,289,1341,1025,1062,0.74,21329217200
462,862,499,134,269,1370,1010,1059,0.75,21348948700
515,887,510,145,303,1483,1028,1053,0.76,21368212000
523,819,342,136,322,1538,1055,1116,0.77,21386294100
513,919,342,128,328,1529,1064,1079,0.78,21406457800
606,961,301,138,329,1460,1029,1133,0.79,21426323700
658,972,362,146,377,1499,1038,1119,0.8,21449186400
680,943,363,140,372,1453,1056,1047,0.81,21468598600
713,961,545,159,371,1363,1117,1026,0.82,21488088800
792,963,536,163,356,1331,1068,1051,0.83,21507664400
730,1024,548,156,335,1310,1088,968,0.84,21527616100
669,991,512,146,277,1306,1139,1015,0.85,21548918200
605,965,507,141,237,1276,1131,1115,0.86,21568588100
580,979,337,130,214,1326,1010,1099,0.87,21588320200
450,930,324,133,214,1368,1035,1118,0.88,21608929600
482,839,301,140,243,1379,1055,1195,0.89,21628635600
538,926,393,166,322,1354,1004,1186,0.9,21648563100
624,992,523,188,355,1396,1035,1142,0.91,21668730400
598,981,553,199,360,1296,1030,1141,0.92,21690359700
661,942,550,189,368,1272,1061,1069,0.93,21707817200
761,980,564,200,397,1295,1013,1009,0.94,21729802600
734,985,628,191,348,1291,1033,921,0.95,21747763100
718,980,635,180,336,1301,976,948,0.96,21769343800
780,1036,607,165,343,1368,1011,959,0.97,21788021800
741,1103,609,168,333,1368,1000,986,0.98,21809690900
620,1042,603,139,277,1373,977,966,0.99,21827642600
593,951,550,132,260,1441,967,1092,0.98,21846557000
560,934,506,116,239,1421,989,1018,0.97,21866571500
471,835,501,112,225,1448,951,1034,0.96,21889509000
445,832,508,112,217,1429,916,968,0.95,21906223300
415,766,490,104,191,1384,822,921,0.94,21929084600
430,804,391,80,158,1281,740,805,0.93,21949006700
360,778,255,78,141,1156,606,729,0.92,21968614500
340,815,230,93,104,1038,565,570,0.91,21993352900
300,714,263,127,104,994,465,532,0.91,21993364400
265,704,464,159,105,928,472,483,0.89,22026299600
198,604,530,188,107,937,409,288,0.88,22048806900
228,587,600,284,137,996,402,264,0.87,22068322100
227,663,623,479,230,1145,614,220,0.86,22088539300
231,646,659,574,340,1199,671,213,0.85,22108745700
255,738,651,655,368,1229,673,281,0.84,22128348500
234,735,635,654,372,1168,674,284,0.83,22146462600
222,721,569,652,366,1141,663,296,0.82,22166738700
226,602,752,553,332,965,435,289,0.81,22186314100
244,607,858,454,232,816,324,261,0.8,22209256700
238,486,790,311,180,751,254,180,0.79,22229388300
237,507,775,306,169,731,278,164,0.78,22249076400
224,533,884,233,157,722,308,140,0.77,22268415300
216,508,741,176,114,757,340,119,0.76,22288093400
262,498,752,191,85,739,329,89,0.75,22306667800
244,491,800,198,86,772,334,74,0.74,22326635700
240,491,837,189,100,877,310,140,0.73,22346453200
242,414,779,186,98,792,274,163,0.72,22366658500
240,450,808,174,99,711,214,173,0.71,22386521800
171,451,634,148,93,703,219,175,0.7,22406640200
191,453,671,162,106,771,258,177,0.69,22426464900
212,410,644,158,93,687,262,137,0.68,22451191500
203,472,683,155,93,682,263,104,0.67,22467904100
206,537,751,167,96,711,260,84,0.66,22487248600
185,524,794,175,95,877,284,83,0.65,22507382100
160,504,762,162,84,821,232,75,0.64,22527338100
132,500,772,169,86,747,210,64,0.63,22547011600
152,511,747,166,89,744,199,63,0.62,22567240300
173,464,670,176,113,805,195,66,0.61,22586654400
176,478,663,168,110,675,166,58,0.6,22608304600
178,494,689,168,107,591,148,60,0.59,22628290900
170,479,675,162,106,579,142,55,0.58,22648197300
162,506,712,185,106,609,153,64,0.57,22668631400
165,480,775,187,87,572,157,60,0.56,22688374000
154,563,774,176,93,591,146,61,0.55,22708549000
148,548,766,176,94,592,144,60,0.54,22728351500
146,567,807,190,97,591,139,61,0.53,22752523000
148,532,755,181,90,574,131,56,0.52,22766433300
112,513,751,145,76,581,147,57,0.51,22789176700
142,399,791,147,67,488,128,50,0.5,22808630100
144,417,772,167,70,475,125,51,0.49,22828237200
158,477,814,157,67,454,120,51,0.48,22848395200
147,430,809,143,71,587,129,52,0.47,22869779600
145,432,933,139,84,593,118,53,0.46,22886884000
127,430,923,141,85,606,117,55,0.45,22908269700
138,529,953,226,80,605,114,52,0.44,22928426700
142,577,926,290,85,612,128,58,0.43,22948155300
136,577,933,290,85,555,133,62,0.42,22967859100
137,568,741,294,85,496,133,68,0.41,22987426100
135,579,726,302,83,469,137,67,0.4,23007749100
133,486,711,229,80,464,139,72,0.39,23027644400
151,413,850,160,76,454,140,70,0.38,23047383500
156,411,850,164,79,529,125,64,0.37,23068852600
154,407,896,159,68,541,133,56,0.36,23088789000
152,488,927,146,72,551,132,58,0.35,23109076100
155,555,944,157,72,564,130,53,0.34,23129113900
120,522,823,131,69,563,116,49,0.33,23149080800
113,542,792,119,69,560,125,44,0.32,23168703200
116,556,751,127,74,510,128,49,0.31,23188745200
111,463,740,115,71,501,125,47,0.29,23226276400
92,389,656,128,69,495,130,46,0.29,23226318700
149,445,686,133,68,494,132,50,0.28,23249167600
153,420,735,132,64,401,127,56,0.27,23268523200
155,417,738,140,60,462,118,57,0.26,23288284500
161,477,797,197,68,457,121,59,0.25,23307653500
159,493,857,195,72,444,121,58,0.24,23327825600
129,420,859,232,80,449,117,62,0.23,23347178100
124,402,924,237,77,354,110,58,0.22,23368740200
129,405,1045,247,87,370,100,61,0.21,23388584600
126,388,1061,222,80,379,98,62,0.2,23407963200
129,362,1121,213,81,386,94,66,0.19,23427736600
118,437,1089,198,78,374,95,62,0.18,23447219900
130,459,1119,223,81,358,98,64,0.17,23467121100
133,514,1053,226,71,201,78,63,0.16,23486416900
140,532,1043,244,86,239,94,69,0.15,23511087100
158,548,1200,266,93,265,92,71,0.14,23527956200
154,501,1218,255,91,264,93,71,0.13,23547673900
148,500,1234,235,89,278,77,70,0.12,23567117700
139,451,1360,237,95,258,86,65,0.11,23586558200
147,431,1348,226,87,205,64,60,0.1,23606722300
132,464,1169,207,81,203,71,56,0.09,23626231500
130,487,1188,207,82,226,72,58,0.08,23646184800
133,596,1178,204,85,209,72,58,0.07,23667711200
171,703,1092,274,99,205,62,75,0.06,23687447600
160,706,1114,261,96,219,63,73,0.05,23707236700
154,692,1137,275,98,197,59,71,0.04,23727010000
162,758,1220,313,111,173,54,74,0.02,23766428000
161,732,1142,316,111,168,71,76,0.02,23766438800
126,652,1104,256,95,235,79,60,0.01,23786284500
131,622,1070,281,100,265,78,62,0,23809280400
150,591,1086,264,95,251,74,64,0.01,23827378700
162,492,978,221,91,393,139,201,0.02,23847532300
172,471,970,233,114,511,236,222,0.03,23867668800
175,448,903,224,108,512,239,278,0.04,23887349000
175,484,855,195,102,495,242,285,0.05,23906936300
180,502,759,190,102,536,278,326,0.06,23926450700
199,472,684,188,102,514,425,369,0.07,23949133800
196,390,637,166,85,452,487,488,0.08,23970473600
197,414,603,145,88,434,570,624,0.09,23987657400
201,431,645,128,88,512,684,787,0.1,24007635000
190,440,609,122,91,522,781,820,0.11,24027287400
168,440,621,102,87,576,777,825,0.12,24047550700
167,435,618,95,99,718,841,820,0.13,24067333100
167,382,637,94,99,759,824,742,0.14,24086838500
207,464,730,213,117,734,824,644,0.15,24106727700
218,446,738,224,115,712,742,597,0.16,24128337200
209,456,734,219,106,644,699,606,0.17,24148075300
207,496,735,221,83,463,601,627,0.18,24167776600
236,558,770,229,84,494,805,635,0.19,24187173000
192,477,722,121,54,471,724,582,0.2,24206679600
174,457,774,112,54,457,721,584,0.21,24226245200
179,438,731,110,60,490,756,553,0.23,24272950600
179,403,712,104,69,597,774,552,0.24,24289365600
139,415,734,90,64,535,523,583,0.25,24309339100
144,389,653,114,69,526,517,637,0.25,24309352700
153,389,570,106,66,547,510,661,0.26,24328881400
147,390,581,103,60,485,416,653,0.27,24348670400
159,380,581,101,59,335,407,641,0.28,24368560600
189,365,498,91,59,327,402,631,0.29,24388522600
194,404,516,99,60,319,400,594,0.3,24407831000
191,412,469,91,61,278,388,573,0.31,24429269800
185,420,455,90,66,384,401,600,0.32,24449285800
175,419,471,90,61,419,385,551,0.33,24468856800
155,375,481,96,60,411,479,481,0.34,24488355700
142,321,370,59,50,407,517,458,0.35,24508437600
154,306,375,56,48,411,539,456,0.36,24528337100
149,307,371,55,45,383,565,422,0.38,24567511900
142,319,436,61,42,365,519,454,0.38,24567523900
116,332,350,55,45,367,471,534,0.39,24589244000
143,330,333,48,53,399,552,541,0.4,24608924400
130,410,372,53,57,422,557,564,0.41,24628684000
154,414,382,57,57,440,567,576,0.42,24648581900
157,399,281,54,56,462,565,606,0.43,24668260100
155,362,259,52,54,486,558,612,0.44,24688432400
133,390,288,56,51,570,497,594,0.45,24714033400
142,358,229,52,47,562,483,564,0.46,24729472300
124,360,217,48,47,538,500,553,0.47,24746603100
134,436,207,47,50,506,565,528,0.48,24766307100
146,441,362,53,48,475,559,487,0.49,24786543100
153,454,351,46,45,347,592,580,0.5,24806417500
145,488,351,46,55,368,595,776,0.51,24829565100
143,496,354,46,63,419,617,805,0.53,24869189600
130,440,375,46,59,422,577,807,0.53,24869201600
153,464,247,37,63,473,573,788,0.54,24887608800
147,443,210,36,66,563,511,752,0.55,24907290100
156,456,210,36,60,556,548,603,0.56,24927103200
160,440,234,36,50,505,501,582,0.57,24947112000
168,481,214,36,53,532,495,598,0.58,24966644700
146,453,245,38,52,537,496,627,0.59,24986171200
149,451,258,40,47,437,465,673,0.6,25008558600
142,434,285,39,48,496,428,648,0.61,25033481900
152,458,264,44,56,532,538,626,0.62,25046599700
171,442,254,44,64,623,589,591,0.63,25069142000
173,478,245,42,68,631,601,575,0.64,25089246500
164,455,300,42,71,676,625,557,0.65,25109263200
157,435,372,52,73,673,659,591,0.66,25129148000
157,419,375,50,75,663,601,638,0.68,25168790300
139,376,375,50,75,661,587,685,0.68,25168807400
145,449,356,53,70,741,675,725,0.69,25187109600
153,520,321,52,70,758,689,768,0.7,25207422500
154,501,186,43,68,765,666,747,0.71,25226333500
162,551,179,44,61,836,698,820,0.72,25249445700
159,603,300,48,54,927,706,818,0.73,25268985700
158,542,318,45,59,917,640,781,0.74,25288962300
167,557,301,44,61,900,645,703,0.75,25309371100
168,600,302,48,91,989,760,820,0.76,25326435100
148,582,308,50,106,1017,813,782,0.77,25347892100
146,609,203,48,114,1013,840,768,0.78,25367544400
130,610,168,48,114,1027,868,867,0.79,25387082300
135,679,214,49,114,1073,850,889,0.8,25407203000
154,692,215,47,95,1041,771,861,0.81,25427053800
173,693,212,44,111,1117,700,872,0.82,25447527300
198,648,195,52,138,1155,759,933,0.84,25488802300
232,659,222,61,147,1221,729,934,0.84,25488816300
231,590,187,62,157,1268,892,963,0.85,25508575800
244,562,191,64,163,1320,999,989,0.86,25528294200
311,590,186,75,158,1318,1051,1063,0.87,25547575800
353,618,238,85,159,1234,1076,1051,0.88,25567690700
373,646,246,85,168,1379,1121,1011,0.89,25587116600
402,738,240,86,177,1347,1031,1102,0.9,25606946500
456,812,357,111,253,1391,1018,1014,0.91,25626801000
475,837,385,121,287,1352,1037,987,0.92,25648685000
490,812,375,127,296,1360,1034,1009,0.93,25668217300
541,798,405,153,347,1212,1077,1031,0.94,25687472900
582,775,417,167,370,1332,1129,927,0.95,25707167400
572,782,329,162,340,1305,1078,1067,0.96,25726726000
647,867,337,169,360,1425,1077,1002,0.97,25746662300
678,980,347,184,384,1530,1028,959,0.99,25788743500
752,1004,337,173,386,1642,973,991,0.99,25788754500
760,1036,362,190,411,1613,995,1063,0.98,25808914700
786,1036,405,201,427,1659,1028,1007,0.97,25829017800
734,936,396,194,399,1555,953,1052,0.96,25848757200
705,920,393,180,388,1545,1003,1156,0.95,25868962900
608,948,382,176,356,1419,1000,1135,0.94,25888582500
562,875,348,149,309,1395,1008,1081,0.92,25927772300
562,793,316,124,267,1318,1065,1041,0.92,25927785200
499,766,320,113,255,1370,1078,988,0.91,25949394600
453,772,458,100,208,1216,974,795,0.89,25986752400
392,678,485,90,170,1091,918,679,0.89,25986771700
361,594,527,121,144,953,761,557,0.88,26006356400
218,659,579,120,138,844,513,435,0.87,26029339300
205,682,591,132,113,623,374,281,0.86,26048958200
181,567,570,162,103,582,304,193,0.85,26068614500
161,553,669,173,97,596,234,152,0.84,26089369500
132,577,859,150,78,592,205,124,0.83,26109376200
108,452,959,152,70,553,180,182,0.82,26128592100
112,419,1005,144,65,637,169,276,0.81,26148568700
126,346,1016,113,57,692,144,289,0.8,26168173900
126,434,969,110,49,656,127,299,0.78,26207381300
125,412,821,127,52,635,122,305,0.77,26227420500
119,404,692,123,50,593,118,267,0.77,26227431300
134,382,734,141,62,455,117,179,0.76,26248901600
139,378,668,139,66,388,116,170,0.75,26268465100
147,285,618,125,65,374,117,157,0.74,26287947900
150,295,664,150,72,371,115,146,0.73,26307460400
150,311,687,150,72,351,108,141,0.71,26346691100
134,320,598,131,53,307,78,107,0.71,26346702100
119,311,642,127,53,353,78,82,0.7,26369010000
131,311,670,127,53,377,66,63,0.68,26407740100
125,295,603,79,39,365,66,55,0.68,26407764600
145,361,759,111,47,384,68,47,0.67,26427792800
141,356,764,122,52,373,65,41,0.66,26448144100
135,350,741,120,47,242,55,39,0.65,26468033500
104,322,845,140,48,211,59,45,0.63,26507230500
113,309,837,145,47,195,57,45,0.62,26526733000
106,223,649,127,41,140,56,44,0.62,26526745600
106,278,662,126,35,136,51,43,0.61,26548545900
106,268,660,143,46,200,57,43,0.59,26588970100
112,313,550,140,46,202,65,41,0.59,26588984000
104,315,591,151,50,209,67,40,0.58,26608799400
89,346,709,157,56,217,65,43,0.57,26628619100
106,294,674,150,56,231,65,49,0.56,26648894600
121,340,656,141,50,176,61,66,0.54,26688932600
122,319,657,128,49,165,46,69,0.54,26688951100
123,311,672,128,50,163,45,70,0.53,26707483600
119,296,599,116,47,186,55,70,0.52,26727526800
117,440,712,153,58,175,55,74,0.5,26766872500
100,430,802,145,58,184,61,63,0.5,26766890900
96,423,817,147,61,188,64,55,0.48,26807275400
94,434,809,133,60,184,66,57,0.47,26826535800
92,424,804,132,62,169,59,54,0.46,26848038100
114,289,792,96,51,181,73,41,0.45,26867776100
116,296,870,111,50,148,65,37,0.44,26887504800
121,339,863,114,49,149,66,40,0.44,26887516000
123,345,847,125,47,147,66,38,0.43,26907013000
131,342,907,130,46,254,70,42,0.41,26946509600
103,363,912,127,46,264,63,44,0.41,26946522700
99,339,804,127,49,273,64,44,0.4,26966175200
94,275,861,120,51,270,60,45,0.39,26988942700
103,325,973,136,53,292,74,50,0.37,27026699800
94,347,1049,135,48,205,81,45,0.37,27026711700
88,303,1021,139,52,183,75,46,0.36,27049492900
86,296,1015,129,46,170,74,44,0.34,27088798800
84,329,986,129,44,170,75,44,0.34,27088813000
82,336,946,126,54,144,59,43,0.32,27127970800
77,312,850,132,53,156,62,47,0.31,27152548900
86,333,862,150,56,148,61,47,0.31,27152559900
93,365,882,168,59,163,62,50,0.29,27189043100
89,342,835,170,58,166,61,48,0.28,27208526800
97,284,764,171,51,158,65,49,0.28,27208537600
100,281,688,172,55,114,47,47,0.27,27228188700
99,270,720,172,53,130,48,49,0.25,27267618900
101,286,757,174,57,128,50,51,0.25,27267629900
102,289,822,176,57,161,59,51,0.23,27308473100
94,434,858,168,55,205,52,47,0.22,27328831500
93,519,948,176,52,210,53,45,0.22,27328851500
105,643,969,176,53,218,52,44,0.2,27367641400
101,635,1003,179,51,210,50,40,0.19,27387439300
137,741,1054,214,63,196,39,54,0.19,27387450400
142,699,1193,248,68,158,40,56,0.17,27426809800
155,692,1203,268,72,152,43,62,0.16,27446567000
157,600,1167,278,81,121,50,70,0.16,27446578400
177,675,1132,304,98,140,53,79,0.15,27467826600
169,678,1122,317,106,128,56,79,0.13,27507200000
164,745,996,300,106,115,58,79,0.13,27507214400
156,729,1010,279,105,127,56,76,0.11,27549123000
153,767,1125,305,104,146,53,74,0.1,27569187100
132,694,1110,272,90,130,50,67,0.1,27569234300
170,729,1155,299,105,137,57,81,0.09,27588945200
198,700,1194,347,118,164,58,93,0.06,27646274600
240,757,1152,415,156,170,72,113,0.06,27646308200
237,763,1141,401,159,163,73,110,0.05,27666862800
241,784,1154,414,162,165,74,111,0.04,27686683100
212,691,1045,368,146,164,67,99,0.04,27686703200
199,738,1042,341,143,142,67,91,0.03,27707750900
180,679,1099,304,125,127,64,85,0.01,27747996500
198,673,981,336,126,139,67,93,0.01,27748007400
203,656,943,354,134,136,78,103,0.01,27789254400
205,683,998,386,144,127,82,107,0.02,27809309500
193,578,918,364,134,120,81,108,0.02,27809340900
178,606,855,352,119,130,75,123,0.03,27828797600
154,564,816,301,106,135,71,122,0.05,27867648100
138,560,778,258,91,196,78,214,0.06,27887327500
120,481,643,203,69,257,157,383,0.07,27906817100
139,479,632,198,72,274,255,492,0.08,27928580100
138,474,639,174,65,301,269,545,0.09,27948507900
138,447,739,167,67,331,296,606,0.1,27968206400
172,434,780,162,78,426,361,711,0.11,27988545000
184,437,782,159,98,655,440,839,0.12,28007804100
186,423,789,152,107,682,426,823,0.12,28007814900
201,404,867,118,108,730,429,804,0.14,28047975800
207,456,767,119,112,765,430,786,0.15,28069514500
182,457,728,116,109,850,421,739,0.15,28069525800
192,456,725,117,134,857,430,572,0.17,28109274400
224,520,815,184,143,916,440,524,0.18,28128799300
217,474,629,170,141,925,455,512,0.19,28148475000
235,445,632,170,143,932,460,499,0.2,28168618900
239,452,619,172,139,876,455,483,0.21,28188465500
239,458,665,175,107,716,366,436,0.21,28188478600
211,404,565,139,86,634,340,534,0.23,28226632800
212,473,638,146,83,595,332,537,0.24,28246969600
189,465,622,151,78,549,349,551,0.25,28266859000
185,454,624,150,76,477,425,577,0.26,28286598400
204,476,630,147,66,471,431,557,0.27,28306404900
190,440,662,109,61,445,422,456,0.28,28329246400
160,364,580,98,59,438,413,487,0.29,28348654700
182,340,567,72,50,554,481,463,0.3,28366492900
194,330,546,68,54,527,516,409,0.31,28386749400
165,329,526,67,50,516,500,444,0.32,28407216300
174,394,548,82,54,509,509,467,0.33,28428175400
180,399,519,91,54,489,520,425,0.34,28447703400
169,412,527,92,56,371,488,492,0.35,28467523500
164,418,530,93,53,356,399,500,0.36,28487497300
179,384,476,87,53,335,439,535,0.36,28487507600
170,334,311,82,47,332,423,519,0.38,28528386900
165,321,416,94,50,325,437,575,0.39,28548373400
152,310,409,99,54,352,451,576,0.39,28548384200
145,313,405,101,61,380,466,597,0.41,28587708600
126,309,409,103,61,383,482,548,0.42,28607254100
134,325,359,95,61,426,518,646,0.43,28626710500
148,329,241,97,63,537,552,628,0.44,28646263600
152,375,227,95,57,512,559,644,0.45,28670792100
163,431,258,98,54,508,646,631,0.45,28670803000
156,424,251,100,59,517,695,659,0.47,28707613300
157,407,223,91,55,496,709,630,0.48,28726781300
161,436,249,91,53,373,702,608,0.49,28746433900
157,393,337,86,51,370,702,605,0.5,28766573500
187,367,335,83,44,470,688,581,0.51,28789520500
204,378,339,78,40,543,645,640,0.51,28789530900
198,410,342,79,47,597,670,636,0.53,28827714100
220,400,305,50,47,585,678,726,0.54,28847297000
229,411,209,49,56,597,667,722,0.55,28867107300
243,434,178,45,59,603,630,751,0.56,28886825100
224,434,321,60,63,614,640,717,0.57,28907394000
241,419,439,75,62,590,615,698,0.58,28927315500
237,406,465,87,61,638,625,643,0.59,28946687400
237,431,481,97,65,636,636,682,0.6,28971140800
196,462,478,94,66,597,592,676,0.61,28988119600
204,476,390,88,63,527,578,686,0.62,29007665100
185,458,270,76,60,518,625,714,0.63,29027303600
161,503,423,92,68,514,617,706,0.64,29048674800
182,530,426,89,67,587,672,659,0.65,29068661000
171,502,430,90,68,708,737,691,0.66,29088803300
170,625,429,89,69,781,755,652,0.67,29108565500
192,636,415,90,68,763,727,594,0.68,29126496900
197,623,218,62,62,756,822,607,0.69,29146692300
169,595,257,58,60,719,759,604,0.7,29166267200
179,582,285,67,67,682,792,649,0.71,29189047400
193,435,292,68,71,661,823,784,0.72,29208381800
181,492,296,67,78,760,809,867,0.73,29227971300
250,515,285,67,81,764,751,927,0.74,29247588900
262,534,214,63,81,767,751,957,0.75,29267740000
267,533,159,55,86,818,726,942,0.76,29288964500
265,581,171,53,89,877,730,1029,0.77,29308660500
270,603,220,54,96,895,756,1054,0.78,29328614400
213,619,230,51,97,1004,730,1010,0.79,29348306200
208,728,234,55,103,1059,830,1062,0.8,29367953600
227,743,249,57,108,1124,803,1083,0.81,29387959900
240,727,242,62,128,1255,845,933,0.82,29407238900
260,713,212,72,137,1306,837,926,0.83,29428099700
271,683,207,71,144,1301,845,974,0.84,29447777600
307,540,271,82,150,1291,880,939,0.85,29467436600
298,555,274,88,146,1247,970,949,0.86,29487311000
349,556,268,91,131,1198,914,1009,0.87,29506931500
344,534,317,84,117,1237,914,1002,0.88,29526792400
366,577,325,98,121,1298,977,988,0.89,29546572800
359,596,272,92,124,1319,936,1059,0.9,29569383800
364,661,257,84,126,1335,866,1077,0.91,29587847300
377,686,285,95,159,1310,934,1096,0.92,29608207200
389,679,240,97,177,1303,988,1090,0.93,29627478400
397,756,238,98,245,1243,1003,1162,0.94,29646895500
430,820,251,117,286,1419,1023,1104,0.95,29666790200
529,770,367,139,305,1426,1007,1039,0.96,29689208800
537,874,367,149,322,1470,1048,993,0.97,29706285700
535,957,365,154,336,1453,1001,1011,0.98,29734164400
553,988,369,154,308,1409,1006,1019,0.98,29734175800
597,1060,376,145,272,1323,1058,1002,0.98,29767467600
541,1106,323,137,254,1302,1067,1143,0.97,29787349500
523,1046,308,119,223,1336,1019,1133,0.96,29807250300
616,1091,310,137,225,1333,1026,1091,0.95,29827164800
606,994,322,129,192,1336,926,973,0.94,29847224200
529,877,391,125,181,1225,748,905,0.93,29867304500
488,798,427,122,172,1134,664,645,0.92,29888411800
457,738,446,144,163,1014,570,534,0.91,29907983900
299,633,439,119,110,984,529,430,0.9,29928185300
219,702,425,129,106,927,491,318,0.89,29947940300
198,668,427,154,107,847,454,272,0.88,29967767100
193,645,530,155,106,826,449,230,0.87,29987658300
150,643,586,144,95,707,330,190,0.86,30007255100
159,544,632,151,79,603,297,130,0.85,30027113300
146,402,688,181,80,682,249,91,0.84,30046839000
150,453,678,197,81,674,234,83,0.83,30068161000
160,469,571,203,76,672,228,76,0.82,30087378700
176,460,642,196,67,702,216,67,0.81,30108409300
143,443,616,191,74,719,183,52,0.8,30128445500
151,430,622,157,70,739,182,52,0.79,30148523700
143,361,703,106,59,731,186,46,0.78,30168687100
135,353,711,105,56,706,187,43,0.77,30190264000
121,367,630,114,55,611,186,41,0.76,30206642900
125,341,773,139,43,516,119,37,0.75,30229395900
117,315,758,141,45,407,96,39,0.74,30248555600
115,295,674,139,46,415,100,46,0.73,30269410300
163,328,697,123,45,414,97,47,0.72,30289315100
158,341,760,122,45,392,95,51,0.71,30309074300
171,390,739,202,75,347,90,61,0.7,30328453500
172,402,775,217,76,261,90,61,0.69,30346375100
174,401,789,215,75,242,74,54,0.68,30366257000
127,367,827,217,76,239,64,52,0.67,30389179600
133,321,843,236,79,238,70,49,0.66,30409070900
116,306,872,204,66,189,75,43,0.65,30426225700
125,343,862,190,66,180,78,48,0.64,30449543900
131,383,858,200,65,144,64,49,0.63,30469095400
157,371,856,206,70,162,75,52,0.62,30493699200
141,354,805,178,67,154,69,50,0.61,30506819600
148,364,761,146,61,152,64,53,0.6,30526284900
154,389,817,173,75,151,65,57,0.59,30548974400
148,377,816,165,78,174,66,57,0.58,30568352500
121,388,779,159,78,229,73,56,0.57,30588199900
139,409,767,160,80,272,81,58,0.56,30607818900
153,421,703,148,79,279,81,56,0.55,30627136500
144,451,592,115,66,280,82,53,0.54,30648659600
153,455,717,134,70,295,85,57,0.53,30668408800
156,453,709,146,77,335,119,63,0.52,30687774000
141,448,758,145,73,321,117,62,0.51,30707181000
121,458,857,145,66,318,117,56,0.5,30728175900
127,388,906,157,68,326,116,57,0.49,30748013900
123,435,852,165,67,319,115,55,0.48,30767664100
142,491,938,159,56,242,78,50,0.47,30786985000
167,487,936,166,65,302,84,59,0.46,30808582300
161,445,907,158,65,315,86,59,0.45,30828439800
157,512,1029,169,65,312,84,57,0.44,30848648400
193,555,1065,177,69,293,83,57,0.43,30868266300
222,629,1106,292,109,279,81,82,0.42,30888470400
205,646,1131,307,106,199,71,76,0.41,30907979400
218,692,1113,333,117,166,76,84,0.4,30927583500
221,660,1033,331,120,159,77,85,0.38,30968376400
211,619,1000,345,123,187,79,91,0.38,30968389200
187,561,999,299,117,170,71,82,0.37,30988274700
197,576,1011,301,123,167,72,87,0.36,31007509200
222,619,1062,335,141,189,76,98,0.35,31027242600
243,657,1051,364,154,189,80,108,0.34,31047104100
243,688,1069,355,160,167,83,110,0.33,31067011800
247,725,1097,355,161,183,88,118,0.32,31086682400
252,717,1168,392,166,170,87,120,0.31,31108206900
256,753,1173,411,173,179,88,125,0.3,31128227700
299,808,1206,506,206,197,99,143,0.29,31147549500
325,850,1265,551,219,212,107,159,0.28,31167271400
317,806,1212,560,213,206,102,152,0.27,31186939600
354,869,1124,598,225,222,117,172,0.26,31206509800
398,922,1159,678,248,237,131,194,0.25,31229315000
366,884,1203,694,244,262,128,187,0.24,31246356300
412,958,1173,741,241,256,124,195,0.23,31268070600
455,1025,1261,882,273,268,131,215,0.22,31287537400
465,985,1312,934,310,289,135,221,0.21,31307082800
458,966,1282,887,292,284,123,208,0.2,31326975600
492,1109,1231,857,291,274,126,210,0.19,31346684800
516,1084,1225,847,314,297,127,209,0.18,31369432000
496,1087,1190,748,316,304,129,199,0.17,31389392600
481,1086,1113,726,279,275,118,187,0.16,31407102600
462,1050,1063,767,296,282,122,190,0.15,31427088600
458,992,1211,761,285,254,123,192,0.14,31446864000
525,1084,1208,895,336,267,152,231,0.13,31466802800
533,1050,1151,913,326,270,152,232,0.12,31486731400
534,1137,1196,882,327,284,155,228,0.11,31506230700
553,1125,1248,885,336,275,150,228,0.09,31548001600
559,1036,1096,884,339,285,142,220,0.09,31548013800
451,893,1074,728,272,250,117,172,0.08,31566212400
456,896,1048,681,281,252,119,175,0.07,31589121500
434,787,977,629,273,234,129,168,0.06,31608982800
395,796,899,542,236,234,133,160,0.05,31628556500
351,756,828,493,224,429,147,227,0.04,31648497400
297,737,826,423,202,470,213,299,0.03,31668399200
264,739,784,358,166,496,272,370,0.02,31688808800
263,712,759,337,164,594,545,452,0.01,31710304000
261,622,684,310,157,644,727,629,0,31727829900
244,672,748,308,152,562,741,642,0.01,31747418400
309,651,659,280,143,593,843,702,0.02,31766984700
318,629,621,237,123,661,958,782,0.03,31786520500
362,614,674,233,118,626,862,778,0.05,31826452300
377,694,683,189,97,624,795,722,0.05,31826465200
373,633,543,130,83,632,904,845,0.06,31849151900
313,554,519,112,81,650,844,817,0.07,31867559100
316,527,600,193,100,641,719,745,0.08,31886987600
306,688,565,261,120,605,707,721,0.09,31906630000
276,596,549,281,125,555,660,803,0.1,31929166000
279,606,555,285,127,557,548,705,0.11,31949280600
286,625,621,294,129,482,506,716,0.12,31968653200
281,625,630,264,116,380,484,715,0.13,31988371200
239,463,568,194,86,379,470,752,0.14,32013337900
226,452,551,166,93,490,536,705,0.15,32026908700
239,456,569,159,82,576,626,701,0.16,32046275200
253,545,637,165,84,581,688,698,0.17,32068736100
249,506,586,148,77,573,676,675,0.18,32088405400
244,490,582,135,85,636,700,706,0.19,32106307500
259,485,577,130,77,578,672,637,0.2,32126376000
251,478,553,128,75,453,578,633,0.21,32149354000
287,342,634,101,73,420,490,607,0.22,32167599800
264,400,666,81,73,408,542,702,0.23,32187666500
271,402,677,90,64,349,595,693,0.24,32207624600
267,394,683,90,69,464,606,687,0.25,32227761800
302,436,688,117,74,475,595,744,0.26,32247281300
274,515,603,136,72,481,591,722,0.27,32267249100
287,551,634,143,74,500,548,635,0.28,32286598500
293,536,619,141,81,574,480,634,0.29,32306353000
297,547,622,142,70,507,454,654,0.3,32327758300
268,514,627,122,64,494,519,575,0.31,32348172800
244,490,565,101,68,492,504,585,0.32,32368130600
222,366,482,114,72,563,563,677,0.33,32388137600
218,372,499,111,64,518,586,665,0.34,32407582600
210,409,493,109,61,505,680,669,0.35,32427089200
225,426,481,111,64,521,694,766,0.36,32446980300
224,390,394,112,62,522,701,892,0.37,32468551200
270,405,285,85,54,422,671,847,0.38,32488327400
266,414,250,82,55,444,691,859,0.39,32507695800
276,368,239,85,60,439,637,943,0.4,32527152500
265,337,237,81,60,544,575,853,0.41,32546526300
271,376,215,82,69,655,621,836,0.42,32569345200
241,391,313,75,67,683,702,877,0.43,32588863300
231,382,323,77,68,651,705,845,0.44,32608490300
225,384,308,73,64,679,732,802,0.45,32626743800
227,404,300,73,67,646,726,899,0.46,32646786300
235,364,386,62,53,582,735,894,0.47,32666361000
227,345,322,64,71,616,717,854,0.48,32686743900
244,405,326,62,74,697,712,916,0.49,32706628200
254,448,329,70,94,828,627,942,0.5,32729304800
297,428,336,81,100,826,693,1015,0.51,32749157300
325,426,259,88,108,868,740,1009,0.52,32766824700
355,514,336,84,100,890,677,1076,0.53,32786623100
352,604,393,92,104,827,694,1052,0.54,32806747600
352,674,414,93,99,783,772,1083,0.55,32829234900
311,721,481,98,113,1010,794,955,0.56,32849475000
281,717,491,100,123,1040,787,941,0.57,32866623500
258,667,442,103,145,1104,862,912,0.59,32909595400
283,689,384,95,143,1181,866,950,0.59,32909607600
321,617,388,96,153,1243,881,856,0.6,32927825400
317,603,302,84,162,1274,933,930,0.61,32947318800
327,712,257,74,165,1311,900,1012,0.62,32966937400
309,714,246,71,155,1330,920,1012,0.63,32986829300
283,656,242,84,179,1313,933,1024,0.64,33006596300
271,731,392,86,313,1320,921,1108,0.66,33046596200
292,780,421,87,321,1188,849,1057,0.66,33046639200
340,776,424,98,328,1207,891,960,0.67,33068129600
386,854,413,104,351,1303,851,941,0.68,33088438700
412,877,452,100,354,1298,949,961,0.69,33108862000
422,835,361,119,288,1281,982,910,0.7,33128500600
413,853,396,137,307,1374,1035,993,0.72,33167698800
451,847,432,145,362,1459,1067,1080,0.72,33167727200
479,785,440,155,389,1432,1124,1095,0.73,33187984200
519,739,417,184,427,1436,1167,1061,0.74,33207727900
553,763,419,175,406,1439,1201,1050,0.75,33226369400
591,836,462,168,391,1372,1230,1004,0.76,33246259000
581,805,480,180,357,1237,1251,959,0.77,33269329800
567,816,490,173,318,1262,1260,968,0.78,33288921300
546,857,485,153,306,1388,1158,1093,0.79,33308922800
542,870,456,159,328,1494,1088,1082,0.8,33328539800
568,774,489,173,343,1584,1039,1084,0.81,33348391400
556,788,501,166,327,1601,1001,1055,0.82,33369587000
590,761,516,181,333,1520,990,1087,0.83,33386678400
608,722,522,177,292,1418,983,977,0.84,33406650000
566,682,526,166,250,1304,980,973,0.85,33429130300
531,727,450,146,217,1174,949,985,0.86,33449257400
490,712,469,124,196,1300,888,960,0.87,33469080300
440,817,449,96,161,1294,782,881,0.88,33488567300
386,798,435,76,135,1308,779,827,0.89,33508742300
393,820,425,74,133,1252,710,789,0.9,33526876300
355,759,378,61,115,1213,641,691,0.91,33546762300
361,711,298,63,109,1043,601,656,0.92,33566333000
318,664,325,79,123,1051,609,644,0.93,33589290600
309,739,365,84,125,1008,552,611,0.94,33608830400
301,728,359,82,119,1049,534,572,0.95,33628570100
298,690,347,95,113,1004,494,538,0.97,33672907400
275,682,309,97,110,914,472,477,0.97,33672919000
264,793,254,80,75,837,442,469,0.98,33686302100
252,720,184,75,64,804,353,413,0.98,33730000600
205,667,159,101,67,622,318,361,0.98,33730011800
193,701,166,129,69,586,300,355,0.96,33766524500
190,728,435,197,79,650,308,349,0.95,33789305100
180,515,503,209,79,636,227,236,0.95,33789343100
191,510,504,208,81,618,211,283,0.94,33808874500
300,576,505,198,80,638,252,330,0.92,33846610400
305,529,532,194,78,646,252,332,0.92,33846622100
315,541,595,167,91,684,228,339,0.91,33866421200
315,553,619,170,97,686,229,372,0.89,33909261200
295,600,628,172,95,631,219,341,0.89,33909308100
190,533,639,175,94,598,162,294,0.88,33928933600
177,511,675,188,98,597,163,280,0.87,33952940800
153,455,599,206,89,516,144,276,0.86,33966944200
137,428,609,195,88,564,140,228,0.85,33988401500
171,430,678,206,87,584,123,171,0.83,34026885000
180,440,701,210,90,583,118,147,0.83,34026898800
167,439,823,191,88,564,105,128,0.82,34046479800
164,426,786,140,74,503,113,112,0.81,34069439700
176,438,815,137,58,313,95,96,0.8,34089137000
138,362,791,117,56,252,78,67,0.79,34109020900
125,370,773,111,52,246,79,58,0.77,34146945300
125,371,723,117,40,259,76,48,0.77,34146959700
120,368,715,108,40,295,73,58,0.76,34166697100
123,397,616,110,42,244,66,58,0.74,34207306000
124,482,629,128,52,236,68,60,0.74,34207318300
107,463,702,131,54,269,66,60,0.73,34227205800
128,465,601,110,52,245,65,57,0.71,34266587800
140,486,638,119,57,198,56,50,0.71,34266602200
124,453,666,117,54,220,64,51,0.7,34288027100
134,344,793,111,46,224,66,48,0.68,34327609400
135,350,744,102,44,182,65,48,0.68,34327620400
128,376,740,104,45,177,65,49,0.67,34346850500
117,343,672,89,37,159,54,35,0.65,34386320200
116,323,652,92,42,108,43,45,0.65,34386331100
112,318,462,86,51,119,40,41,0.64,34409354100
137,307,551,111,51,116,43,46,0.63,34430514500
131,319,595,122,54,121,47,48,0.62,34447308200
146,321,675,139,56,123,46,48,0.61,34467219800
156,353,759,152,60,157,49,43,0.59,34507017000
162,353,832,160,54,156,56,50,0.59,34507042500
145,343,785,145,52,153,58,49,0.58,34526680700
140,308,758,135,50,166,55,48,0.56,34566282100
127,440,808,147,50,186,57,52,0.55,34587598100
124,455,778,142,49,159,56,51,0.54,34607354100
125,453,807,135,54,145,46,48,0.53,34627015700
123,454,825,134,55,161,61,49,0.52,34646542000
119,469,827,137,59,184,78,50,0.52,34646552600
128,423,773,130,63,171,78,53,0.5,34686587900
118,388,767,126,59,172,77,49,0.49,34706489900
98,374,687,128,55,196,78,49,0.49,34706501400
100,375,752,131,55,184,68,46,0.48,34734223600
146,354,765,128,51,171,49,51,0.46,34768815200
158,379,714,109,47,195,49,46,0.46,34768826400
163,403,775,119,52,205,53,49,0.45,34788754900
176,400,766,125,50,180,51,49,0.43,34828317900
178,409,705,140,58,192,56,53,0.43,34828330800
144,404,735,141,59,196,57,46,0.41,34868037800
191,296,817,158,55,164,56,46,0.4,34886285400
193,233,757,148,54,172,52,42,0.39,34906406700
195,266,725,143,54,173,52,44,0.38,34929244600
198,261,758,139,49,158,41,42,0.37,34948921300
210,381,817,210,69,157,52,56,0.37,34948933500
147,388,768,203,70,159,52,57,0.36,34968497400
170,411,851,203,69,168,72,59,0.34,35008444000
173,428,848,199,70,165,71,58,0.34,35008456000
174,440,797,207,74,183,76,62,0.32,35048613400
164,379,771,147,62,164,68,61,0.31,35068212000
164,376,787,149,63,227,86,62,0.31,35068224300
137,363,730,162,72,320,85,66,0.3,35088239200
120,342,802,168,75,343,87,64,0.28,35127884100
130,423,888,183,79,340,85,61,0.28,35127895500
125,425,906,178,73,348,88,53,0.26,35166467800
124,436,930,171,73,372,92,53,0.25,35190720300
118,440,963,160,67,292,81,45,0.25,35190731200
117,479,981,160,64,276,81,48,0.23,35227411300
101,399,963,136,68,273,79,52,0.22,35247298200
143,414,987,206,81,268,77,60,0.22,35247309200
153,454,1077,229,87,194,66,60,0.2,35286446000
166,439,1041,245,100,207,75,69,0.19,35309394600
160,383,1050,261,102,197,79,67,0.19,35309408800
174,440,1013,266,97,194,83,66,0.18,35328627400
160,482,1016,247,100,213,83,68,0.16,35367037600
162,514,902,245,106,207,102,76,0.16,35367048700
171,558,986,272,107,216,96,78,0.14,35407146100
186,570,1027,267,116,254,104,86,0.13,35427462700
191,595,1198,357,147,262,106,99,0.12,35447680000
185,564,1262,373,148,251,105,95,0.11,35467604100
201,549,1360,407,156,248,81,97,0.1,35487340800
189,597,1376,417,153,222,99,96,0.1,35487351500
220,661,1415,439,165,196,96,106,0.09,35508934000
215,658,1379,425,144,184,95,98,0.07,35548057000
213,693,1283,411,137,173,95,96,0.06,35567324600
259,771,1209,469,168,176,104,117,0.05,35587178000
304,844,1211,500,197,184,100,137,0.04,35606869100
315,928,1157,520,195,163,101,140,0.03,35629225200
326,911,1280,509,196,185,101,142,0.03,35629244000
337,946,1338,552,209,187,107,150,0.01,35666918200
310,927,1378,512,197,177,99,135,0,35689456900
294,945,1376,500,181,174,92,120,0,35689480300
285,887,1340,520,195,204,105,118,0.02,35728882700
299,909,1138,509,196,200,102,120,0.03,35748656300
320,956,1074,482,193,197,105,133,0.03,35748669900
342,962,1017,528,194,193,114,151,0.05,35787780800
337,873,948,566,198,183,110,151,0.06,35807215600
330,873,1030,559,190,192,92,143,0.07,35827463800
322,933,1040,555,195,188,107,147,0.08,35847053000
333,879,1084,558,201,215,112,143,0.09,35866727900
305,828,1180,530,198,230,106,129,0.1,35886521400
287,786,1117,446,180,304,123,158,0.11,35906333300
266,698,1053,382,161,301,200,216,0.12,35929576900
245,593,1057,366,146,364,326,271,0.12,35929588200
198,497,959,320,124,486,381,404,0.14,35967246000
173,476,816,211,90,619,440,456,0.15,35987108400
180,473,821,195,88,631,560,525,0.16,36006924200
189,514,739,184,93,713,669,606,0.17,36026719100
192,457,676,162,95,760,677,764,0.18,36046521900
177,483,665,132,88,717,745,806,0.19,36066454300
206,460,576,129,93,726,723,885,0.2,36089149800
214,501,689,165,97,708,730,893,0.21,36107117200
249,468,770,170,92,690,646,872,0.22,36127510100
250,528,917,162,94,780,713,816,0.23,36147195800
272,492,984,175,99,820,645,897,0.24,36166704300
287,569,993,180,91,751,673,834,0.25,36186253100
302,611,1013,192,103,756,583,810,0.26,36208975500
267,654,968,193,104,699,557,826,0.27,36228747900
259,603,786,195,99,557,449,752,0.27,36228758400
231,582,671,192,92,531,629,715,0.29,36266522300
190,497,634,185,92,536,632,744,0.3,36289376100
186,500,532,152,67,521,626,737,0.3,36289388400
189,468,553,134,58,517,627,683,0.32,36326249400
185,460,533,122,61,490,609,738,0.33,36349283900
185,474,522,111,61,476,489,630,0.33,36349296000
179,477,545,109,59,429,471,587,0.35,36388232700
157,396,588,75,53,430,470,592,0.36,36413059800
164,487,607,77,55,470,502,629,0.36,36413070800
171,501,614,75,51,509,497,673,0.38,36446254500
172,482,620,69,49,470,528,787,0.39,36466288000
171,454,604,65,46,510,546,827,0.4,36486284100
232,442,475,57,49,550,562,855,0.41,36509136000
267,309,412,82,62,702,556,888,0.42,36529322900
269,303,475,89,59,672,559,868,0.43,36549133100
269,299,468,89,57,667,561,770,0.44,36567084600
277,350,458,91,60,648,616,777,0.45,36587194300
253,374,445,113,63,601,625,755,0.46,36606998700
212,369,467,97,48,430,663,772,0.47,36626788800
213,393,465,95,49,412,687,750,0.48,36646778000
210,393,464,95,54,443,645,776,0.49,36666203000
210,370,470,94,54,441,622,748,0.5,36686518000
191,322,456,60,48,458,613,803,0.51,36706348100
211,424,540,107,54,427,571,818,0.52,36727707700
207,420,509,112,65,524,650,852,0.53,36748602900
214,427,509,111,63,587,683,861,0.54,36768698100
205,435,501,113,63,589,683,906,0.55,36788357700
177,444,502,113,64,605,750,870,0.56,36807786300
162,344,283,67,60,585,816,831,0.58,36846539900
177,325,217,53,54,656,786,885,0.58,36846555400
165,354,287,55,64,618,786,873,0.59,36868371000
171,430,298,57,66,732,781,905,0.6,36888757000
174,465,296,59,72,748,822,931,0.61,36908309300
179,465,285,60,78,875,817,938,0.62,36927867200
166,544,261,60,83,891,778,845,0.63,36947402700
170,568,160,61,84,911,710,824,0.64,36967200200
178,525,136,56,88,1004,727,795,0.65,36987252000
207,506,162,62,116,1234,762,822,0.66,37007027400
223,491,159,63,118,1236,730,872,0.67,37028607400
228,480,156,62,117,1274,834,980,0.68,37048823200
252,517,171,64,121,1338,954,1004,0.69,37068141400
259,524,189,67,123,1273,962,980,0.7,37087615800
241,565,203,62,102,1095,947,1012,0.71,37107256700
228,636,216,60,103,1188,1027,927,0.72,37126761700
228,720,278,66,100,1068,1002,781,0.73,37146286600
227,715,340,72,105,1071,931,699,0.74,37167961500
239,696,351,78,107,1126,1021,782,0.75,37188631100
261,766,341,83,99,1175,974,739,0.76,37208415800
265,724,345,81,100,1077,961,848,0.77,37228140700
272,591,303,80,125,1210,906,906,0.78,37247977900
314,618,289,103,126,1219,971,1008,0.79,37267805200
362,666,298,103,124,1170,952,1066,0.8,37287095100
380,681,335,109,192,1289,1040,1088,0.81,37306686700
386,769,337,122,234,1367,1025,1089,0.82,37328031000
402,851,440,149,247,1353,1100,1088,0.83,37348449500
370,845,447,146,249,1337,1071,1047,0.84,37367818700
375,842,427,144,259,1359,986,1010,0.85,37387575800
400,851,466,146,249,1313,964,1098,0.86,37407389600
427,802,575,158,253,1315,952,1126,0.87,37427069100
499,839,568,144,280,1365,940,1153,0.88,37446692400
517,867,544,138,286,1384,1008,1162,0.89,37470878300
501,893,562,153,300,1376,1092,1126,0.9,37488023600
494,933,539,152,292,1329,1042,1003,0.91,37507676700
532,1016,461,150,305,1486,1133,981,0.92,37527901700
496,1046,423,159,283,1438,1118,998,0.93,37547140700
545,1036,443,160,295,1423,1021,1021,0.94,37566487300
590,1086,553,160,321,1568,1020,960,0.95,37586451500
610,976,522,157,313,1549,1130,975,0.96,37609468100
620,978,534,154,283,1339,1036,947,0.97,37627661500
608,1011,534,146,280,1358,1069,848,0.98,37648988200
598,962,605,143,279,1335,1114,852,0.99,37666339600
560,937,533,143,270,1259,1131,925,0.98,37689161300
518,994,610,159,274,1231,1015,956,0.97,37709109500
475,920,592,150,260,1193,1058,945,0.96,37728848200
455,778,580,141,246,1221,1014,1004,0.95,37748481800
463,829,501,135,235,1264,1004,981,0.94,37772707700
454,836,541,129,181,1180,980,1039,0.94,37772718200
473,765,490,104,156,1267,988,956,0.92,37808536900
428,745,458,97,149,1315,1028,938,0.91,37828192000
409,811,433,87,139,1198,988,921,0.9,37847747800
308,800,464,96,116,1225,949,840,0.89,37867113800
293,714,470,86,101,1144,818,671,0.88,37886811900
228,729,452,108,99,980,731,641,0.87,37906553200
227,707,561,122,92,842,459,547,0.86,37927990200
271,649,615,133,104,961,413,425,0.85,37947755500
268,577,655,145,87,760,313,399,0.84,37967317300
251,547,609,196,93,739,278,264,0.83,37986881100
259,483,638,201,90,745,243,202,0.82,38006619200
260,492,611,198,97,809,261,165,0.81,38029203900
207,374,607,204,81,640,220,108,0.8,38048825800
223,452,648,200,79,612,166,94,0.79,38068616000
195,463,747,178,72,615,173,83,0.78,38086997600
230,465,725,175,73,622,169,76,0.77,38106689700
226,460,677,168,71,577,144,164,0.76,38129511800
242,516,769,161,71,526,137,165,0.75,38149194000
235,475,706,150,71,523,134,169,0.73,38189045900
227,492,602,137,73,486,131,170,0.73,38189057700
197,513,617,125,67,442,160,182,0.72,38208902400
190,484,691,129,58,430,196,123,0.71,38226714500
196,459,599,117,52,379,213,122,0.7,38246630000
202,471,584,126,52,384,214,121,0.69,38269535900
207,493,629,126,49,397,209,114,0.68,38289532200
178,470,681,134,59,415,199,99,0.67,38306370800
181,491,672,141,59,335,189,82,0.66,38329032200
217,474,712,147,60,325,170,80,0.65,38349110100
201,469,694,139,61,323,169,70,0.64,38368613600
208,391,785,153,74,291,169,70,0.63,38386792700
218,441,773,154,74,234,158,70,0.62,38406647400
218,483,775,152,71,245,96,55,0.61,38428853600
167,494,691,149,70,242,93,53,0.6,38448290500
160,472,707,154,76,243,103,53,0.59,38467836600
150,478,598,132,66,261,106,60,0.58,38488127700
145,523,588,129,61,232,102,54,0.57,38508292200
142,460,607,144,62,232,97,54,0.56,38532805000
149,457,663,159,67,234,98,59,0.55,38546622500
160,467,731,162,63,240,80,60,0.54,38566688200
155,475,768,154,55,247,71,54,0.53,38586462700
143,447,785,151,54,288,62,57,0.52,38606392600
149,484,752,145,54,265,63,61,0.51,38628968800
143,482,753,153,60,307,68,59,0.5,38648537500
139,455,726,149,55,304,69,59,0.49,38668037100
131,455,682,147,56,289,64,59,0.48,38689191100
132,386,725,135,56,248,63,50,0.47,38709421600
150,442,814,141,58,257,65,60,0.46,38729535900
163,412,808,139,58,194,70,62,0.45,38749032100
160,451,791,132,58,258,88,62,0.44,38768487300
159,435,794,129,58,254,92,61,0.43,38787947500
165,519,831,143,61,253,91,74,0.42,38807234700
178,491,864,125,58,238,88,69,0.41,38827050500
160,522,898,94,49,254,89,63,0.4,38848694000
161,504,920,105,53,194,89,64,0.39,38868055600
161,503,929,107,50,210,89,61,0.38,38888162700
165,425,873,120,55,208,91,51,0.37,38908925300
142,411,938,140,63,199,94,47,0.36,38928763300
157,367,969,148,65,194,81,47,0.35,38948460100
160,372,940,157,82,314,74,49,0.34,38968165100
171,449,948,189,89,321,73,59,0.33,38989636300
158,461,961,180,83,321,67,52,0.32,39006677500
135,448,821,176,77,337,64,52,0.31,39029487700
114,463,820,173,77,328,68,54,0.3,39049040900
110,449,878,178,66,207,62,55,0.29,39068416200
105,437,844,159,67,349,61,51,0.28,39088598300
146,415,840,154,71,363,61,53,0.27,39108222000
147,415,858,149,72,354,63,51,0.26,39127237600
147,452,787,159,72,358,63,49,0.25,39148492500
150,574,864,162,69,359,65,49,0.24,39168411100
152,554,872,152,64,279,84,50,0.23,39188238000
122,562,936,168,63,271,85,51,0.22,39207891500
128,550,949,169,62,261,84,52,0.21,39227540600
129,511,984,178,63,253,86,56,0.2,39247507300
121,366,961,186,65,266,88,53,0.19,39267349500
113,407,1083,192,66,189,70,47,0.18,39286747100
110,435,1022,195,81,222,76,52,0.17,39308238100
130,434,1018,191,82,228,74,55,0.16,39327978000
196,493,1140,207,88,232,67,65,0.15,39347444300
216,629,1189,207,90,238,55,71,0.14,39367205600
220,615,1149,235,97,228,66,80,0.13,39387135000
232,637,1169,288,100,184,85,83,0.12,39407038300
228,641,1155,313,100,199,88,80,0.11,39426691700
186,656,1057,315,105,200,87,79,0.1,39447728800
170,553,973,312,105,176,87,77,0.09,39467589900
193,555,920,307,102,181,79,74,0.08,39491756700
204,592,899,286,130,198,57,79,0.07,39508790900
233,750,955,354,148,193,57,95,0.06,39528328500
262,732,1123,431,169,197,62,110,0.05,39547690800
267,741,1140,477,179,194,69,114,0.04,39567643100
254,768,1162,498,190,186,72,117,0.03,39587122400
260,789,1185,510,181,174,70,117,0.02,39608633800
270,771,1140,488,181,188,79,126,0.01,39628244500
242,800,930,452,165,193,81,116,0,39647978200
236,795,1037,446,169,205,77,113,0.01,39668059400
256,790,1007,477,188,215,87,125,0.02,39687660200
264,760,1007,470,177,217,86,122,0.03,39707081900
241,750,1165,444,178,196,83,110,0.04,39726732600
262,811,1184,423,171,188,86,108,0.05,39751711800
269,876,1166,435,159,181,85,107,0.06,39768282900
261,853,1189,401,132,166,77,95,0.07,39787848200
224,800,1169,374,129,160,96,269,0.08,39807379000
210,672,954,373,114,356,306,285,0.09,39827056900
200,564,911,361,115,383,456,353,0.1,39847067000
204,498,770,305,119,456,486,481,0.11,39866685300
181,460,702,253,114,607,492,616,0.12,39886546500
234,470,591,238,122,767,513,719,0.13,39907715400
281,586,584,211,154,830,695,856,0.14,39927441000
280,653,751,200,160,882,767,907,0.15,39946997700
297,640,764,157,155,884,807,933,0.16,39966513600
306,651,797,146,148,886,878,881,0.17,39986253300
282,660,818,147,149,897,1022,804,0.18,40009201600
236,613,808,136,111,840,927,666,0.19,40028691800
213,514,717,95,99,783,808,596,0.2,40053705800
187,464,685,129,97,761,803,485,0.22,40086871700
185,499,599,126,99,747,805,508,0.22,40086884300
185,504,568,123,84,700,766,610,0.23,40106738500
178,469,576,122,79,730,734,749,0.24,40129014200
190,608,649,149,84,735,753,751,0.25,40147117200
251,685,714,140,90,759,720,786,0.26,40166649800
253,666,727,142,88,775,722,827,0.27,40189254700
270,655,741,147,86,692,666,803,0.29,40228466300
272,654,736,149,86,589,641,720,0.29,40228481500
276,543,669,137,87,609,637,732,0.3,40248547100
247,460,561,112,79,627,668,773,0.31,40268566400
239,439,561,115,78,510,692,722,0.32,40288260600
217,419,561,110,73,536,606,644,0.33,40307606200
213,401,558,106,76,614,705,603,0.34,40327196500
314,447,500,102,69,598,737,642,0.35,40346557900
315,447,528,125,82,553,756,556,0.36,40368067700
317,532,504,119,82,549,690,528,0.38,40406994300
319,552,484,121,85,516,715,517,0.38,40407005600
358,550,474,122,83,446,651,601,0.4,40446234300
265,522,463,101,79,473,721,590,0.4,40446245300
233,513,356,81,65,462,686,556,0.42,40489164700
229,456,412,81,63,492,675,555,0.42,40489176600
216,444,415,78,62,482,690,573,0.43,40511706900
217,439,427,75,60,519,681,510,0.44,40529214400
235,404,399,77,58,471,575,443,0.45,40546270200
233,459,466,76,51,530,576,518,0.46,40569255000
237,444,447,76,50,570,629,509,0.47,40588643600
241,425,439,78,58,633,593,612,0.48,40608851400
180,443,426,79,57,643,632,612,0.49,40628530000
152,464,388,80,59,646,641,632,0.5,40648170000
216,513,338,68,60,606,634,633,0.51,40669232600
216,527,355,75,59,532,633,682,0.53,40706255400
220,565,368,73,50,496,693,631,0.53,40706266800
237,563,381,75,49,464,661,683,0.54,40729370300
241,521,408,77,52,572,709,756,0.55,40748912700
217,439,492,81,52,606,771,759,0.56,40768230500
209,432,536,79,52,623,750,724,0.57,40787960200
198,428,524,85,59,727,709,731,0.58,40807304300
205,416,517,87,65,742,742,710,0.59,40828566100
215,502,549,86,90,895,727,724,0.6,40848212400
231,533,448,87,100,941,811,738,0.61,40867692800
267,644,351,84,102,1034,810,811,0.62,40887255800
283,653,395,83,99,1016,840,845,0.63,40907034300
317,701,400,80,100,1134,856,815,0.64,40927092400
328,710,294,83,97,1137,977,842,0.65,40946743600
321,775,314,79,106,1206,949,888,0.66,40968439500
353,690,332,77,134,1266,1038,898,0.67,40988293600
371,774,297,79,146,1266,1095,944,0.68,41007492500
349,835,303,82,164,1233,1166,1041,0.69,41027556700
368,831,339,84,185,1334,1133,1074,0.7,41047283700
408,781,311,109,283,1367,1150,1090,0.71,41066990900
421,800,457,140,330,1398,1119,1119,0.72,41086230900
481,797,521,163,373,1507,1136,1174,0.73,41109240100
546,724,534,196,423,1502,1053,1223,0.75,41146702800
588,714,527,202,421,1392,1138,1175,0.75,41146716400
610,747,582,201,368,1336,1126,1224,0.76,41166273500
635,859,587,188,333,1215,1100,1301,0.77,41189433500
631,904,584,190,312,1156,1039,1267,0.78,41208722000
664,950,591,185,309,1271,1116,1261,0.79,41228991200
688,967,600,182,315,1420,1007,1226,0.8,41249355800
716,1049,600,172,320,1442,1037,1153,0.81,41270524300
752,978,588,179,314,1498,1119,1040,0.82,41287138300
751,941,557,167,311,1463,1203,1079,0.83,41306754300
676,970,599,140,235,1408,1133,975,0.85,41347424000
666,1010,603,135,213,1243,1122,965,0.85,41347435100
593,970,572,127,189,1229,1012,965,0.86,41367281500
533,1090,463,108,175,1192,899,1035,0.88,41406784400
569,1072,522,114,134,1229,728,908,0.88,41406825500
582,1033,488,110,132,1227,720,880,0.89,41428207900
533,991,478,118,151,1228,806,979,0.91,41467990900
556,929,458,122,157,1324,835,957,0.91,41468002200
554,806,506,123,161,1319,855,1039,0.93,41507221000
491,829,432,103,147,1293,927,1052,0.94,41527267400
495,801,442,108,166,1273,934,1076,0.94,41527315500
495,796,432,100,144,1325,808,1015,0.95,41547156600
528,818,444,106,146,1261,869,1091,0.96,41571693100
509,797,470,109,165,1363,976,916,0.97,41588683500
496,781,469,103,167,1351,888,865,0.98,41608136900
464,833,467,105,149,1331,829,806,0.98,41647962400
469,836,472,100,146,1299,819,802,0.98,41647972800
377,753,479,89,134,1193,733,634,0.97,41667716700
365,798,421,77,96,1053,594,638,0.95,41706935500
357,724,400,75,90,1054,636,675,0.95,41706946900
406,688,521,76,78,977,642,678,0.94,41726522200
360,679,566,109,80,879,598,588,0.92,41768266300
405,748,651,143,80,875,555,563,0.92,41768316800
367,751,665,150,78,888,473,441,0.91,41787700000
389,756,666,150,100,955,497,422,0.89,41827014800
342,775,609,142,100,927,468,435,0.88,41846601800
353,770,555,120,95,854,457,423,0.88,41846612000
311,732,561,132,94,802,443,413,0.86,41888063400
319,633,664,180,105,794,411,397,0.85,41907280400
257,624,712,193,83,643,253,329,0.85,41907291500
276,580,709,201,85,651,271,272,0.83,41949430300
255,533,744,210,82,634,265,276,0.82,41969188500
255,516,704,183,81,643,263,277,0.82,41969199300
243,478,636,145,67,584,205,271,0.81,41989125900
228,483,596,131,59,535,184,183,0.8,42008910900
233,579,623,137,54,506,153,165,0.79,42030133600
226,595,687,122,54,512,175,141,0.77,42066631200
215,599,733,121,57,482,176,129,0.76,42089348800
206,607,736,114,58,428,174,128,0.76,42089360500
209,572,755,114,62,327,173,122,0.75,42109216200
204,432,684,95,57,317,138,158,0.74,42128549500
220,466,604,104,56,309,101,158,0.73,42147957600
206,454,680,127,55,335,92,166,0.71,42188716600
202,444,652,123,50,382,104,183,0.7,42208410300
204,533,624,119,46,386,108,184,0.7,42208422000
181,513,669,124,45,389,112,117,0.69,42228001500
211,545,745,165,54,409,115,119,0.67,42268019400
214,536,716,158,56,409,123,110,0.67,42268030100
249,543,813,161,59,346,107,85,0.66,42287490700
248,495,828,161,57,316,96,84,0.64,42327249900
243,509,804,157,57,315,90,78,0.63,42349068000
203,394,813,113,53,283,84,69,0.63,42349078700
212,498,799,112,47,297,86,114,0.61,42388697500
185,511,820,109,41,305,87,112,0.6,42407979800
210,529,904,108,43,306,87,117,0.6,42407990300
222,563,914,127,43,300,87,122,0.58,42446453200
238,591,878,132,38,303,85,121,0.58,42446463200
237,619,865,133,40,266,72,79,0.56,42488058200
234,611,827,128,41,199,72,80,0.55,42508463700
210,566,772,155,46,187,75,74,0.55,42508506200
205,520,814,162,50,179,77,66,0.54,42528631900
212,530,849,164,56,174,76,68,0.52,42568515300
208,450,776,152,53,173,67,68,0.52,42568554700
205,478,793,154,52,185,75,65,0.51,42587901900
205,526,756,134,47,185,72,62,0.49,42627205800
206,642,729,161,57,171,72,69,0.49,42627217900
170,606,737,155,51,192,77,65,0.48,42648505700
173,561,743,161,55,341,84,71,0.46,42687893800
174,560,654,163,55,343,74,64,0.46,42687904900
168,530,778,164,60,353,72,64,0.44,42727474200
184,386,890,118,50,358,71,57,0.43,42747699500
185,381,870,119,62,406,73,70,0.43,42747711200
171,385,881,122,69,399,76,124,0.42,42768025300
169,415,919,119,69,407,77,127,0.4,42809369300
180,468,858,115,65,396,78,130,0.4,42809379600
131,466,754,126,65,411,82,131,0.39,42828711100
141,520,775,128,73,440,88,139,0.37,42867270900
147,518,776,140,69,421,79,94,0.37,42867281500
143,482,820,171,76,409,84,97,0.35,42909156400
146,503,778,186,80,414,90,100,0.34,42929055900
143,525,755,188,81,404,86,100,0.33,42947521400
163,590,713,195,75,380,83,91,0.32,42967212800
165,618,701,185,73,319,83,88,0.31,42987607700
175,618,737,164,69,378,93,84,0.31,42987618400
166,569,783,153,68,387,87,77,0.29,43026958900
177,536,946,176,64,384,86,76,0.28,43047187000
158,408,954,170,53,323,79,58,0.28,43047198600
167,379,966,170,55,335,96,51,0.26,43091626600
157,412,935,167,50,281,95,87,0.26,43091637000
159,466,951,175,54,272,100,87,0.24,43128570200
146,523,892,178,69,267,108,92,0.24,43128580900
155,561,901,193,93,357,110,98,0.22,43168091400
152,566,1003,197,96,348,97,98,0.21,43189450400
177,578,981,210,98,332,109,72,0.21,43189461000
170,533,1148,251,103,332,151,81,0.19,43228727300
165,478,1116,253,99,356,151,75,0.18,43246736100
145,468,1081,239,78,282,156,68,0.17,43267020400
153,563,1031,266,92,274,157,78,0.16,43286514400
141,555,1085,279,100,353,148,77,0.15,43309321900
157,605,975,284,100,358,100,70,0.15,43309332200
203,806,1065,345,126,362,102,90,0.13,43348475600
232,906,1128,407,148,346,97,101,0.12,43367902400
238,874,1205,415,148,335,99,100,0.12,43367913000
252,979,1193,478,164,255,89,108,0.1,43409123700
271,1054,1187,496,176,259,93,114,0.09,43428960700
275,977,1110,483,173,240,87,110,0.09,43428973300
314,995,1182,531,195,245,100,134,0.07,43468128500
358,1042,1091,570,235,225,109,161,0.06,43488097900
367,1012,1049,561,241,226,110,164,0.06,43488108900
366,962,1068,602,243,202,108,165,0.04,43527078500
364,1006,1067,634,239,184,111,165,0.03,43548280100
342,941,1024,566,221,177,95,154,0.03,43548290700
329,900,1062,537,193,183,88,141,0.01,43588426400
343,866,1039,603,223,213,101,158,0,43608004600
378,911,953,603,251,241,118,173,0,43608014900
418,924,963,674,302,270,126,192,0.02,43647161200
427,998,1083,774,330,279,143,207,0.03,43666439100
414,1021,1120,772,322,313,137,199,0.04,43689320700
424,1157,1262,757,308,312,131,195,0.05,43709047000
390,1145,1287,721,286,289,121,183,0.06,43728488200
352,1079,1357,647,246,385,130,208,0.07,43748117100
394,1007,1231,582,235,420,154,251,0.08,43767610400
380,960,1238,577,230,478,245,350,0.09,43787113700
343,709,1083,477,203,539,420,647,0.1,43806933700
347,585,1056,439,200,707,588,738,0.11,43826508400
341,604,929,364,174,681,734,792,0.12,43851560600
254,555,973,233,126,790,766,842,0.12,43851573600
244,546,861,188,123,768,849,872,0.14,43889034800
233,553,833,179,115,749,831,838,0.15,43907574200
228,570,785,207,92,733,801,807,0.15,43907586100
189,475,754,181,95,760,702,818,0.17,43947239300
190,504,640,191,85,666,731,804,0.18,43967758900
263,496,621,171,83,721,656,812,0.18,43967769700
279,639,714,166,86,711,673,701,0.2,44007545000
286,611,735,122,83,643,691,687,0.21,44028260700
296,639,723,158,115,674,705,729,0.21,44028271800
295,611,676,141,109,679,643,789,0.23,44068650200
257,679,624,151,106,627,671,768,0.24,44089005300
258,572,692,169,112,652,695,853,0.25,44109157700
240,565,665,170,112,697,731,888,0.26,44128551900
232,524,685,135,80,695,713,881,0.27,44148216300
236,495,674,131,91,793,720,865,0.28,44166736700
240,495,718,123,97,806,769,997,0.29,44186377400
213,552,659,130,93,823,690,911,0.3,44209317100
204,591,649,143,89,744,543,898,0.31,44228773200
215,571,593,140,88,787,654,895,0.32,44248202300
214,562,572,140,76,743,689,878,0.33,44268894900
182,504,598,143,65,718,625,765,0.34,44288774000
203,499,545,125,66,735,680,811,0.35,44307787500
218,442,574,110,77,815,693,838,0.36,44328032300
260,461,574,106,72,788,626,810,0.37,44348226100
301,451,569,104,80,766,652,784,0.38,44368812900
313,533,558,95,84,858,617,774,0.39,44387089800
366,543,597,73,79,817,564,794,0.4,44406918500
371,607,574,77,69,777,583,798,0.41,44426610400
377,624,572,81,68,726,568,761,0.42,44446256800
384,628,572,81,63,757,538,746,0.43,44467932700
372,554,481,81,59,703,521,886,0.44,44487684200
316,481,361,79,66,737,535,846,0.45,44507409900
298,465,329,65,68,713,553,877,0.46,44527936600
243,448,333,62,80,838,613,936,0.47,44547748400
198,504,339,59,79,787,598,1011,0.48,44567258200
208,555,342,60,80,763,671,889,0.49,44587136700
203,545,343,57,82,905,658,947,0.5,44608100000
272,537,444,50,84,938,637,905,0.51,44627906300
276,536,432,49,74,907,600,869,0.52,44647571200
254,487,426,51,74,957,573,789,0.53,44667512700
261,464,444,56,79,987,640,872,0.54,44687684000
271,459,401,51,74,906,696,846,0.55,44707496300
212,459,322,59,80,958,727,854,0.56,44727272400
217,501,332,65,82,906,734,837,0.57,44746946700
222,512,331,65,79,844,751,865,0.58,44768641800
203,494,344,65,92,1004,700,773,0.59,44788506500
202,523,361,66,91,1011,728,824,0.6,44808163900
327,511,299,61,89,1003,761,880,0.62,44847827300
328,462,289,53,107,1123,837,954,0.62,44847839800
363,495,286,62,138,1253,833,978,0.63,44867337400
398,485,228,68,158,1316,943,995,0.64,44887378600
391,483,225,70,170,1391,971,929,0.65,44908819200
312,505,228,70,176,1403,1093,924,0.66,44928435600
350,581,238,82,185,1362,1195,1005,0.67,44948843900
342,607,241,76,174,1362,1248,981,0.68,44968417500
308,580,272,74,170,1265,1201,1007,0.69,44988149200
326,568,236,81,192,1282,1156,1060,0.7,45007364200
330,580,238,90,207,1352,1053,1053,0.71,45027006800
420,643,289,94,250,1389,928,982,0.72,45049226400
444,673,340,115,307,1504,967,1027,0.73,45069835100
480,807,370,131,315,1537,1016,1002,0.74,45086570700
528,826,385,142,366,1512,1136,1071,0.75,45108046400
630,914,400,156,380,1503,1159,1128,0.76,45128053500
605,872,418,153,359,1480,1161,1154,0.77,45147787100
588,873,413,150,337,1315,1173,1165,0.78,45167777500
620,808,432,138,348,1303,1125,1186,0.79,45187807800
629,806,434,130,296,1261,1086,1135,0.8,45212034600
592,760,425,116,280,1299,1144,1019,0.81,45228310600
581,751,421,133,298,1432,1173,958,0.82,45248047000
602,857,432,144,295,1464,1176,975,0.83,45267472300
591,853,419,146,280,1525,1273,1067,0.84,45287200500
593,870,448,145,285,1524,1240,1026,0.85,45306764400
544,780,525,139,274,1435,1142,1100,0.86,45326898700
504,761,549,123,247,1338,1072,1065,0.87,45346226400
514,686,597,109,223,1456,1039,1033,0.88,45367639000
468,752,583,104,204,1362,883,896,0.89,45387647800
443,739,553,102,169,1346,888,854,0.9,45407743100
429,786,479,96,158,1337,905,745,0.91,45427879000
480,785,405,89,132,1241,891,763,0.92,45447676900
461,733,308,71,112,1048,880,731,0.93,45467057600
492,661,276,69,127,1078,859,735,0.94,45486836700
460,645,367,59,114,1027,774,718,0.95,45506514300
434,597,361,69,123,975,712,689,0.96,45527770500
374,583,372,77,135,1068,799,687,0.97,45547387600
378,547,368,84,132,1084,838,745,0.98,45566538200
424,485,405,89,127,979,809,699,0.99,45586290200
420,449,361,89,130,983,782,688,0.98,45609253600
427,476,492,92,133,972,758,674,0.97,45628859800
416,446,581,110,126,873,593,592,0.96,45648742200
370,585,580,117,129,894,396,408,0.95,45667083600
248,614,553,115,107,899,479,481,0.94,45686941800
258,644,527,115,110,882,505,529,0.93,45706614600
253,670,525,129,93,864,497,531,0.92,45726401400
252,683,538,142,91,790,491,527,0.91,45746661800
238,535,670,160,80,622,425,486,0.9,45767666400
214,520,772,164,77,519,241,330,0.89,45787642300
146,474,828,167,68,581,167,180,0.88,45807056000
128,413,837,161,66,625,147,153,0.87,45828708800
124,383,794,148,58,629,127,140,0.86,45848870600
131,371,798,169,64,607,120,116,0.85,45868584000
128,333,762,171,67,605,143,99,0.84,45888042700
132,321,746,170,71,549,129,72,0.83,45907085000
131,281,818,167,71,494,132,66,0.82,45926564200
138,329,813,155,73,475,132,62,0.81,45949409900
116,325,746,113,69,450,133,51,0.8,45970626600
108,315,715,103,67,402,105,62,0.79,45987488300
125,326,732,117,59,301,89,66,0.77,46026691300
132,327,660,110,62,278,76,68,0.77,46026726600
124,292,709,116,59,270,75,66,0.76,46049491700
133,410,724,101,54,255,72,67,0.75,46069439400
133,430,788,97,51,241,56,52,0.74,46088992100
110,418,777,84,48,212,60,60,0.73,46108667800
102,469,766,86,42,184,59,58,0.72,46126592500
98,504,736,98,43,187,55,62,0.71,46146182900
97,493,687,128,42,186,53,67,0.7,46168319700
94,487,654,132,45,210,57,63,0.69,46187967300
96,503,676,128,43,191,47,54,0.68,46208048300
93,501,718,127,44,168,42,52,0.67,46227811500
80,461,819,112,41,169,56,44,0.66,46247478600
71,372,905,82,46,182,60,34,0.65,46267463200
71,375,878,86,47,143,59,35,0.64,46289128900
66,360,873,93,49,163,58,31,0.63,46308755200
69,354,824,108,50,154,71,33,0.62,46328236300
67,363,828,113,49,181,74,31,0.61,46347601900
65,355,816,123,51,179,71,36,0.6,46366641600
63,367,813,119,49,196,71,37,0.59,46389082100
72,464,941,133,50,183,72,40,0.58,46408600200
91,471,926,151,61,199,67,47,0.57,46426370900
110,483,924,159,68,179,53,54,0.56,46446309600
122,493,867,156,63,171,75,54,0.55,46469476500
122,458,936,161,64,170,75,53,0.54,46488637700
121,392,755,162,67,186,75,52,0.52,46527437800
106,334,777,150,60,187,79,49,0.52,46527448400
104,348,646,165,61,203,82,51,0.51,46547582000
91,356,642,175,64,223,66,51,0.5,46567303200
114,404,624,197,70,229,78,57,0.49,46588688100
123,416,751,193,68,214,78,61,0.48,46608332700
131,435,761,189,66,204,78,63,0.47,46628481800
125,447,842,183,62,209,79,60,0.46,46648167100
131,530,954,177,67,181,75,63,0.45,46668307200
120,506,960,169,61,170,61,59,0.44,46688458700
111,473,955,164,67,181,72,57,0.43,46708253700
103,466,996,168,74,233,68,53,0.42,46729569600
108,459,1086,149,74,238,65,55,0.41,46749403800
104,445,1050,150,71,242,67,50,0.39,46788537000
104,533,1053,137,72,233,70,50,0.39,46788548400
117,554,1080,193,77,237,62,55,0.38,46808101000
130,567,1056,224,86,213,76,60,0.37,46827726900
133,541,971,235,97,302,80,66,0.36,46847175700
135,498,949,231,96,304,87,68,0.35,46866553500
128,408,922,225,95,308,86,67,0.34,46888690400
119,396,970,181,89,314,103,63,0.33,46906362000
116,429,982,138,75,352,96,60,0.32,46926476900
125,468,1042,151,79,393,99,58,0.31,46949324600
120,461,1033,185,85,453,96,80,0.3,46966419800
139,548,1060,236,98,458,97,92,0.28,47008424400
168,587,1040,324,112,491,105,99,0.28,47008437500
200,638,1055,371,121,484,112,113,0.27,47033131100
208,699,992,369,122,404,110,116,0.26,47046456800
212,744,1017,357,117,352,111,100,0.25,47066741700
219,723,1048,363,114,352,114,96,0.24,47089283800
222,773,999,363,121,303,97,102,0.23,47109498500
198,716,984,340,116,271,89,90,0.22,47128899700
212,739,1068,410,131,266,91,94,0.21,47148352900
262,771,1132,495,167,266,108,123,0.2,47168038500
252,775,1193,499,174,256,107,121,0.19,47186440300
275,818,1232,592,209,260,115,141,0.18,47209383300
295,885,1267,644,221,243,116,150,0.17,47228661000
337,931,1235,658,253,247,141,165,0.16,47248433900
348,955,1216,645,262,222,137,173,0.15,47268041800
396,1031,1240,681,272,245,144,188,0.14,47287949700
383,998,1242,612,251,248,138,172,0.13,47308267100
392,1016,1295,590,253,243,138,177,0.12,47327871600
344,962,1349,558,221,223,109,159,0.1,47368592500
323,958,1326,529,194,238,107,139,0.09,47388196500
289,895,1230,538,198,224,99,130,0.09,47388210200
289,855,1157,532,193,196,95,132,0.08,47407627500
272,834,1054,493,181,192,92,118,0.07,47427012600
315,848,894,542,201,195,106,144,0.06,47446636100
297,790,908,542,202,179,100,151,0.05,47466303700
302,793,1029,525,196,181,107,154,0.04,47490883600
289,757,1063,500,189,177,104,150,0.03,47507862500
328,740,1131,553,213,192,117,163,0.01,47547779300
282,668,1125,474,179,177,105,137,0.01,47547790900
272,609,1119,449,171,302,120,210,0,47567587300
245,548,1007,379,154,335,180,262,0.01,47587463300
235,553,1013,338,145,358,189,269,0.02,47607200400
189,515,896,233,107,402,207,311,0.04,47648292400
229,504,877,240,113,428,225,377,0.04,47648303400
227,492,770,226,109,452,267,422,0.05,47667607200
217,441,644,195,99,450,286,641,0.06,47687508800
221,424,511,204,103,524,376,710,0.08,47727304000
179,407,610,177,89,529,379,719,0.08,47727350100
132,383,700,142,80,607,385,706,0.09,47747175100
159,452,707,175,100,671,387,691,0.1,47766706400
162,455,704,176,107,717,420,672,0.11,47786552100
173,470,760,162,111,738,394,636,0.12,47808474400
202,512,752,189,119,717,387,612,0.13,47828150800
191,539,644,197,116,644,383,609,0.14,47848204000
180,494,639,159,98,616,400,627,0.15,47867791800
179,500,649,154,109,696,401,545,0.16,47887377900
163,495,550,159,101,634,392,525,0.17,47907245000
170,442,438,145,97,629,410,541,0.18,47927776200
177,401,433,129,98,680,439,652,0.19,47949327800
175,374,392,128,95,698,518,648,0.2,47968914600
170,354,351,126,70,586,504,610,0.21,47989119500
172,386,432,131,67,579,534,622,0.22,48009129700
145,426,450,105,59,600,554,702,0.23,48028675700
140,414,444,101,58,543,554,650,0.24,48048138800
149,419,452,104,66,444,466,690,0.25,48067983300
150,419,455,101,70,552,489,667,0.26,48087575900
179,480,438,89,74,575,475,643,0.27,48108720500
196,421,345,77,69,606,458,549,0.28,48128130700
209,420,342,76,69,637,457,522,0.29,48147787600
213,423,317,73,64,653,451,594,0.3,48167310300
210,445,307,73,59,574,428,616,0.31,48187198500
197,507,212,70,55,557,467,687,0.32,48206982900
170,538,384,59,52,525,466,762,0.33,48226721100
149,536,498,61,53,484,449,799,0.34,48251105900
205,532,511,61,54,493,490,765,0.35,48267899400
207,522,515,62,66,624,613,751,0.36,48287182700
206,376,512,60,67,715,571,735,0.37,48307137000
210,374,392,59,71,703,566,729,0.38,48327177100
210,419,282,55,71,726,575,676,0.39,48346911100
142,429,292,62,67,773,575,630,0.4,48366509000
147,437,288,64,56,705,495,720,0.41,48389524000
142,428,285,61,63,682,559,839,0.42,48408107100
136,418,257,54,64,756,580,791,0.43,48427720800
148,450,196,53,66,866,647,858,0.44,48446854300
172,470,370,64,75,845,677,856,0.45,48466686900
177,491,391,63,76,889,641,805,0.46,48486470100
181,499,395,65,72,856,624,771,0.47,48509258800
189,470,420,68,70,897,669,892,0.48,48528917500
210,465,417,65,66,877,653,925,0.49,48553878000
199,584,253,45,56,999,681,965,0.5,48567208600
237,621,224,46,57,1044,785,1042,0.51,48586663100
234,653,219,43,55,1065,819,999,0.52,48606532500
255,638,169,49,77,1091,871,908,0.53,48629405000
256,607,193,55,91,1047,986,914,0.54,48649162700
261,533,252,52,109,1032,951,1029,0.55,48669192800
244,604,255,61,136,1096,890,997,0.56,48689100300
268,579,256,64,146,1158,868,1032,0.57,48707099200
271,584,287,60,146,1179,790,1100,0.58,48735296300
256,579,280,58,141,1263,701,1088,0.59,48748892200
251,589,327,73,157,1385,784,956,0.6,48769051700
256,491,333,67,155,1378,847,973,0.61,48788502200
290,521,363,85,170,1435,914,952,0.62,48808862800
289,587,341,90,172,1435,934,897,0.63,48828680800
338,670,340,103,180,1445,1012,947,0.64,48848134500
354,657,239,109,198,1348,965,975,0.65,48866300000
352,676,221,116,203,1380,922,1052,0.66,48889241500
331,710,190,112,204,1333,1043,1057,0.67,48909343200
352,699,206,116,222,1320,1109,1097,0.68,48927003200
345,664,195,117,240,1365,1095,1132,0.7,48967191400
407,665,362,118,234,1286,1117,1235,0.7,48967202500
424,764,403,119,238,1168,1194,1134,0.71,48986793000
453,795,416,125,238,1197,1041,1201,0.72,49008135800
458,794,419,120,248,1246,978,1238,0.73,49028221100
487,802,427,116,232,1323,967,1227,0.74,49048074800
472,863,310,114,237,1335,972,1159,0.75,49067574300
503,894,309,118,235,1339,960,1269,0.76,49087644600
484,824,353,122,231,1306,982,1167,0.77,49108012600
479,839,383,139,234,1300,1024,1130,0.78,49127906000
489,797,467,156,271,1153,1017,1120,0.79,49147311900
465,741,498,154,252,1125,980,1131,0.8,49168582900
414,811,481,150,243,1176,934,1019,0.81,49187819500
399,934,441,140,249,1190,925,1069,0.82,49207614500
373,924,404,124,226,1086,847,1037,0.83,49227321400
405,974,326,108,214,1093,818,1033,0.84,49247712100
410,967,266,102,214,1291,858,1023,0.85,49267222700
435,791,254,110,229,1232,932,1159,0.86,49286500700
466,755,308,109,215,1211,898,1174,0.87,49311387700
458,733,360,107,204,1206,922,1206,0.88,49328529800
361,722,338,94,156,1158,891,1131,0.89,49348689500
366,773,361,95,149,1013,899,1086,0.9,49368148900
337,761,359,77,125,1225,802,961,0.91,49388027900
281,730,311,71,118,1224,848,953,0.92,49408052800
299,766,322,71,118,1256,850,871,0.93,49428055800
297,759,363,71,124,1256,819,861,0.94,49447725300
257,764,352,68,117,1214,788,823,0.95,49469336100
250,816,403,72,94,970,704,719,0.96,49489298200
240,760,567,97,87,844,599,589,0.97,49509331100
