6.300000000000000000e+01,2.440000000000000000e+02,6.540000000000000000e+02,9.000000000000000000e+01,4.100000000000000000e+01,1.450000000000000000e+02,1.170000000000000000e+02,3.470000000000000000e+02,2.999999999999999889e-02,1.876650000000000000e+07
5.400000000000000000e+01,2.400000000000000000e+02,6.790000000000000000e+02,8.600000000000000000e+01,3.900000000000000000e+01,1.430000000000000000e+02,1.030000000000000000e+02,3.040000000000000000e+02,4.000000000000000083e-02,3.277326000000000000e+08
6.500000000000000000e+01,2.810000000000000000e+02,7.080000000000000000e+02,9.600000000000000000e+01,4.600000000000000000e+01,1.050000000000000000e+02,1.070000000000000000e+02,3.140000000000000000e+02,4.000000000000000083e-02,3.277434000000000000e+08
6.900000000000000000e+01,3.130000000000000000e+02,7.120000000000000000e+02,9.700000000000000000e+01,4.800000000000000000e+01,1.070000000000000000e+02,8.900000000000000000e+01,3.060000000000000000e+02,4.000000000000000083e-02,3.277514000000000000e+08
7.800000000000000000e+01,3.170000000000000000e+02,6.950000000000000000e+02,1.210000000000000000e+02,5.000000000000000000e+01,1.130000000000000000e+02,9.300000000000000000e+01,2.420000000000000000e+02,4.000000000000000083e-02,3.277676000000000000e+08
8.000000000000000000e+01,3.180000000000000000e+02,6.470000000000000000e+02,1.140000000000000000e+02,4.700000000000000000e+01,1.120000000000000000e+02,9.300000000000000000e+01,2.320000000000000000e+02,4.000000000000000083e-02,3.277748000000000000e+08
8.300000000000000000e+01,2.710000000000000000e+02,5.450000000000000000e+02,1.170000000000000000e+02,5.200000000000000000e+01,9.900000000000000000e+01,9.000000000000000000e+01,2.260000000000000000e+02,4.000000000000000083e-02,3.277820000000000000e+08
7.900000000000000000e+01,2.110000000000000000e+02,5.470000000000000000e+02,1.110000000000000000e+02,4.500000000000000000e+01,1.040000000000000000e+02,7.100000000000000000e+01,1.870000000000000000e+02,4.000000000000000083e-02,3.277889000000000000e+08
7.600000000000000000e+01,1.870000000000000000e+02,6.350000000000000000e+02,1.090000000000000000e+02,4.400000000000000000e+01,9.700000000000000000e+01,7.200000000000000000e+01,1.960000000000000000e+02,4.000000000000000083e-02,3.277957000000000000e+08
7.500000000000000000e+01,1.990000000000000000e+02,6.480000000000000000e+02,8.300000000000000000e+01,4.500000000000000000e+01,1.950000000000000000e+02,6.900000000000000000e+01,2.410000000000000000e+02,4.000000000000000083e-02,3.278072000000000000e+08
7.100000000000000000e+01,1.840000000000000000e+02,6.330000000000000000e+02,8.000000000000000000e+01,4.700000000000000000e+01,2.040000000000000000e+02,7.100000000000000000e+01,2.450000000000000000e+02,4.000000000000000083e-02,3.278142000000000000e+08
6.100000000000000000e+01,2.200000000000000000e+02,7.570000000000000000e+02,7.200000000000000000e+01,3.900000000000000000e+01,2.020000000000000000e+02,7.100000000000000000e+01,2.450000000000000000e+02,4.000000000000000083e-02,3.278211000000000000e+08
7.100000000000000000e+01,2.510000000000000000e+02,7.750000000000000000e+02,9.300000000000000000e+01,4.600000000000000000e+01,1.990000000000000000e+02,7.000000000000000000e+01,2.570000000000000000e+02,4.000000000000000083e-02,3.278280000000000000e+08
7.100000000000000000e+01,2.380000000000000000e+02,7.720000000000000000e+02,9.500000000000000000e+01,4.600000000000000000e+01,2.010000000000000000e+02,6.700000000000000000e+01,2.070000000000000000e+02,4.000000000000000083e-02,3.278346000000000000e+08
8.600000000000000000e+01,2.800000000000000000e+02,8.000000000000000000e+02,1.310000000000000000e+02,5.400000000000000000e+01,1.440000000000000000e+02,1.200000000000000000e+02,2.800000000000000000e+02,4.000000000000000083e-02,3.278414000000000000e+08
8.900000000000000000e+01,2.940000000000000000e+02,9.160000000000000000e+02,1.410000000000000000e+02,5.500000000000000000e+01,1.560000000000000000e+02,1.280000000000000000e+02,2.990000000000000000e+02,4.000000000000000083e-02,3.278482000000000000e+08
1.080000000000000000e+02,2.970000000000000000e+02,8.620000000000000000e+02,1.630000000000000000e+02,6.400000000000000000e+01,1.590000000000000000e+02,1.350000000000000000e+02,3.170000000000000000e+02,4.000000000000000083e-02,3.278560000000000000e+08
1.150000000000000000e+02,3.160000000000000000e+02,9.030000000000000000e+02,1.760000000000000000e+02,6.700000000000000000e+01,1.850000000000000000e+02,1.430000000000000000e+02,3.280000000000000000e+02,2.000000000000000111e-01,3.663305000000000000e+08
1.280000000000000000e+02,3.220000000000000000e+02,8.440000000000000000e+02,1.810000000000000000e+02,7.500000000000000000e+01,2.250000000000000000e+02,1.730000000000000000e+02,3.810000000000000000e+02,2.099999999999999922e-01,3.805849000000000000e+08
1.170000000000000000e+02,2.810000000000000000e+02,7.880000000000000000e+02,1.610000000000000000e+02,6.900000000000000000e+01,2.320000000000000000e+02,1.560000000000000000e+02,3.370000000000000000e+02,2.200000000000000011e-01,4.026384000000000000e+08
1.210000000000000000e+02,2.920000000000000000e+02,7.090000000000000000e+02,1.600000000000000000e+02,7.300000000000000000e+01,2.650000000000000000e+02,2.820000000000000000e+02,4.290000000000000000e+02,2.300000000000000100e-01,4.253559000000000000e+08
1.040000000000000000e+02,2.650000000000000000e+02,6.520000000000000000e+02,1.340000000000000000e+02,6.400000000000000000e+01,2.660000000000000000e+02,3.660000000000000000e+02,4.320000000000000000e+02,2.399999999999999911e-01,4.396969000000000000e+08
1.140000000000000000e+02,3.250000000000000000e+02,5.750000000000000000e+02,1.220000000000000000e+02,6.800000000000000000e+01,2.630000000000000000e+02,4.410000000000000000e+02,4.370000000000000000e+02,2.500000000000000000e-01,4.627431000000000000e+08
1.090000000000000000e+02,3.350000000000000000e+02,5.880000000000000000e+02,1.230000000000000000e+02,6.700000000000000000e+01,4.160000000000000000e+02,5.380000000000000000e+02,4.750000000000000000e+02,2.600000000000000089e-01,4.837842000000000000e+08
1.080000000000000000e+02,3.350000000000000000e+02,6.000000000000000000e+02,1.150000000000000000e+02,6.700000000000000000e+01,4.230000000000000000e+02,6.660000000000000000e+02,5.020000000000000000e+02,2.700000000000000178e-01,4.992396000000000000e+08
1.210000000000000000e+02,3.700000000000000000e+02,6.750000000000000000e+02,1.150000000000000000e+02,8.400000000000000000e+01,5.180000000000000000e+02,8.030000000000000000e+02,5.140000000000000000e+02,2.800000000000000266e-01,5.200478000000000000e+08
1.270000000000000000e+02,3.970000000000000000e+02,7.600000000000000000e+02,1.280000000000000000e+02,8.900000000000000000e+01,5.460000000000000000e+02,9.170000000000000000e+02,5.880000000000000000e+02,2.899999999999999800e-01,5.416726000000000000e+08
1.200000000000000000e+02,3.350000000000000000e+02,7.570000000000000000e+02,1.160000000000000000e+02,9.700000000000000000e+01,5.990000000000000000e+02,1.016000000000000000e+03,7.100000000000000000e+02,2.999999999999999889e-01,5.671060000000000000e+08
1.150000000000000000e+02,3.470000000000000000e+02,7.730000000000000000e+02,1.110000000000000000e+02,9.900000000000000000e+01,5.810000000000000000e+02,1.052000000000000000e+03,7.120000000000000000e+02,3.099999999999999978e-01,5.809421000000000000e+08
1.330000000000000000e+02,3.550000000000000000e+02,7.790000000000000000e+02,1.150000000000000000e+02,1.080000000000000000e+02,6.090000000000000000e+02,1.105000000000000000e+03,7.690000000000000000e+02,3.200000000000000067e-01,6.004512000000000000e+08
1.310000000000000000e+02,3.520000000000000000e+02,6.300000000000000000e+02,1.090000000000000000e+02,1.010000000000000000e+02,5.610000000000000000e+02,1.160000000000000000e+03,8.480000000000000000e+02,3.300000000000000155e-01,6.194555000000000000e+08
1.380000000000000000e+02,3.930000000000000000e+02,5.830000000000000000e+02,1.070000000000000000e+02,9.900000000000000000e+01,5.840000000000000000e+02,1.134000000000000000e+03,9.430000000000000000e+02,3.400000000000000244e-01,6.407674000000000000e+08
1.610000000000000000e+02,4.050000000000000000e+02,6.280000000000000000e+02,1.200000000000000000e+02,9.900000000000000000e+01,5.550000000000000000e+02,1.128000000000000000e+03,8.730000000000000000e+02,3.499999999999999778e-01,6.597972000000000000e+08
1.740000000000000000e+02,3.880000000000000000e+02,5.790000000000000000e+02,1.180000000000000000e+02,1.020000000000000000e+02,5.520000000000000000e+02,1.119000000000000000e+03,9.280000000000000000e+02,3.599999999999999867e-01,6.805048000000000000e+08
1.730000000000000000e+02,4.010000000000000000e+02,5.380000000000000000e+02,1.140000000000000000e+02,9.600000000000000000e+01,6.120000000000000000e+02,1.124000000000000000e+03,8.910000000000000000e+02,3.699999999999999956e-01,6.994447000000000000e+08
1.970000000000000000e+02,3.760000000000000000e+02,5.470000000000000000e+02,1.110000000000000000e+02,9.400000000000000000e+01,6.360000000000000000e+02,1.154000000000000000e+03,8.060000000000000000e+02,3.800000000000000044e-01,7.208812000000000000e+08
2.080000000000000000e+02,3.080000000000000000e+02,5.480000000000000000e+02,1.050000000000000000e+02,9.400000000000000000e+01,6.130000000000000000e+02,1.127000000000000000e+03,6.890000000000000000e+02,3.900000000000000133e-01,7.397974000000000000e+08
1.910000000000000000e+02,3.960000000000000000e+02,5.800000000000000000e+02,8.700000000000000000e+01,8.100000000000000000e+01,6.070000000000000000e+02,1.039000000000000000e+03,7.300000000000000000e+02,4.000000000000000222e-01,7.611165000000000000e+08
1.830000000000000000e+02,4.330000000000000000e+02,6.040000000000000000e+02,8.000000000000000000e+01,8.100000000000000000e+01,6.050000000000000000e+02,1.081000000000000000e+03,6.420000000000000000e+02,4.199999999999999845e-01,7.995179000000000000e+08
2.070000000000000000e+02,4.110000000000000000e+02,6.080000000000000000e+02,8.100000000000000000e+01,9.000000000000000000e+01,5.560000000000000000e+02,1.013000000000000000e+03,7.120000000000000000e+02,4.199999999999999845e-01,7.995288000000000000e+08
1.830000000000000000e+02,3.940000000000000000e+02,6.250000000000000000e+02,7.700000000000000000e+01,9.500000000000000000e+01,5.410000000000000000e+02,8.040000000000000000e+02,8.150000000000000000e+02,4.299999999999999933e-01,8.193458000000000000e+08
1.720000000000000000e+02,4.590000000000000000e+02,6.660000000000000000e+02,1.130000000000000000e+02,1.000000000000000000e+02,5.370000000000000000e+02,7.430000000000000000e+02,7.980000000000000000e+02,4.500000000000000111e-01,8.594909000000000000e+08
1.650000000000000000e+02,3.750000000000000000e+02,5.800000000000000000e+02,1.180000000000000000e+02,1.040000000000000000e+02,5.580000000000000000e+02,8.120000000000000000e+02,7.890000000000000000e+02,4.500000000000000111e-01,8.595023000000000000e+08
1.690000000000000000e+02,3.590000000000000000e+02,5.870000000000000000e+02,1.240000000000000000e+02,1.020000000000000000e+02,5.060000000000000000e+02,6.980000000000000000e+02,8.330000000000000000e+02,4.600000000000000200e-01,8.810107000000000000e+08
1.370000000000000000e+02,3.780000000000000000e+02,5.860000000000000000e+02,1.250000000000000000e+02,9.200000000000000000e+01,4.620000000000000000e+02,7.590000000000000000e+02,7.530000000000000000e+02,4.699999999999999734e-01,9.000318000000000000e+08
1.450000000000000000e+02,4.200000000000000000e+02,5.690000000000000000e+02,1.290000000000000000e+02,8.500000000000000000e+01,4.170000000000000000e+02,8.780000000000000000e+02,7.620000000000000000e+02,4.799999999999999822e-01,9.192882000000000000e+08
1.570000000000000000e+02,3.980000000000000000e+02,5.130000000000000000e+02,1.020000000000000000e+02,8.300000000000000000e+01,4.580000000000000000e+02,8.980000000000000000e+02,7.880000000000000000e+02,4.899999999999999911e-01,9.405386000000000000e+08
1.640000000000000000e+02,3.900000000000000000e+02,5.800000000000000000e+02,9.600000000000000000e+01,8.300000000000000000e+01,4.770000000000000000e+02,8.620000000000000000e+02,7.790000000000000000e+02,5.000000000000000000e-01,9.595608000000000000e+08
1.580000000000000000e+02,3.780000000000000000e+02,5.440000000000000000e+02,8.800000000000000000e+01,8.300000000000000000e+01,5.180000000000000000e+02,9.350000000000000000e+02,7.720000000000000000e+02,5.100000000000000089e-01,9.792366000000000000e+08
1.640000000000000000e+02,3.840000000000000000e+02,5.760000000000000000e+02,9.100000000000000000e+01,9.200000000000000000e+01,5.910000000000000000e+02,8.650000000000000000e+02,8.420000000000000000e+02,5.200000000000000178e-01,1.001266800000000000e+09
1.670000000000000000e+02,4.390000000000000000e+02,5.840000000000000000e+02,9.400000000000000000e+01,9.800000000000000000e+01,6.170000000000000000e+02,8.080000000000000000e+02,7.500000000000000000e+02,5.300000000000000266e-01,1.018929800000000000e+09
1.670000000000000000e+02,3.950000000000000000e+02,5.070000000000000000e+02,8.400000000000000000e+01,9.100000000000000000e+01,6.260000000000000000e+02,8.400000000000000000e+02,7.340000000000000000e+02,5.400000000000000355e-01,1.039959000000000000e+09
1.770000000000000000e+02,4.150000000000000000e+02,4.980000000000000000e+02,8.200000000000000000e+01,9.000000000000000000e+01,6.620000000000000000e+02,8.670000000000000000e+02,8.080000000000000000e+02,5.500000000000000444e-01,1.060244100000000000e+09
1.810000000000000000e+02,4.690000000000000000e+02,4.970000000000000000e+02,8.300000000000000000e+01,8.700000000000000000e+01,7.180000000000000000e+02,8.750000000000000000e+02,8.060000000000000000e+02,5.600000000000000533e-01,1.080188400000000000e+09
1.830000000000000000e+02,4.650000000000000000e+02,4.610000000000000000e+02,8.000000000000000000e+01,8.400000000000000000e+01,6.820000000000000000e+02,9.590000000000000000e+02,8.490000000000000000e+02,5.699999999999999512e-01,1.099058100000000000e+09
1.790000000000000000e+02,3.740000000000000000e+02,5.370000000000000000e+02,7.800000000000000000e+01,7.800000000000000000e+01,6.600000000000000000e+02,9.130000000000000000e+02,8.780000000000000000e+02,5.799999999999999600e-01,1.120106500000000000e+09
2.370000000000000000e+02,3.750000000000000000e+02,6.160000000000000000e+02,1.010000000000000000e+02,1.180000000000000000e+02,6.840000000000000000e+02,9.940000000000000000e+02,9.270000000000000000e+02,5.899999999999999689e-01,1.139059500000000000e+09
2.430000000000000000e+02,3.430000000000000000e+02,5.640000000000000000e+02,9.500000000000000000e+01,1.180000000000000000e+02,6.430000000000000000e+02,9.720000000000000000e+02,9.040000000000000000e+02,5.999999999999999778e-01,1.160301000000000000e+09
2.530000000000000000e+02,3.210000000000000000e+02,5.850000000000000000e+02,9.700000000000000000e+01,1.200000000000000000e+02,5.320000000000000000e+02,1.012000000000000000e+03,9.770000000000000000e+02,6.099999999999999867e-01,1.181341700000000000e+09
2.710000000000000000e+02,3.150000000000000000e+02,5.950000000000000000e+02,1.010000000000000000e+02,1.220000000000000000e+02,5.750000000000000000e+02,1.053000000000000000e+03,9.150000000000000000e+02,6.199999999999999956e-01,1.199949000000000000e+09
2.880000000000000000e+02,3.420000000000000000e+02,5.700000000000000000e+02,9.900000000000000000e+01,1.240000000000000000e+02,6.200000000000000000e+02,1.120000000000000000e+03,9.210000000000000000e+02,6.300000000000000044e-01,1.221412600000000000e+09
2.580000000000000000e+02,3.520000000000000000e+02,5.110000000000000000e+02,8.300000000000000000e+01,9.800000000000000000e+01,6.100000000000000000e+02,1.063000000000000000e+03,8.800000000000000000e+02,6.400000000000000133e-01,1.241468100000000000e+09
2.610000000000000000e+02,3.550000000000000000e+02,4.560000000000000000e+02,8.400000000000000000e+01,9.900000000000000000e+01,6.670000000000000000e+02,1.094000000000000000e+03,8.940000000000000000e+02,6.500000000000000222e-01,1.260004500000000000e+09
2.860000000000000000e+02,3.170000000000000000e+02,4.410000000000000000e+02,8.700000000000000000e+01,1.040000000000000000e+02,8.000000000000000000e+02,1.095000000000000000e+03,9.170000000000000000e+02,6.600000000000000311e-01,1.284745300000000000e+09
3.040000000000000000e+02,3.140000000000000000e+02,4.620000000000000000e+02,8.800000000000000000e+01,1.090000000000000000e+02,7.950000000000000000e+02,1.017000000000000000e+03,1.011000000000000000e+03,6.700000000000000400e-01,1.301181100000000000e+09
3.350000000000000000e+02,3.790000000000000000e+02,4.290000000000000000e+02,9.600000000000000000e+01,1.290000000000000000e+02,8.740000000000000000e+02,9.670000000000000000e+02,9.770000000000000000e+02,6.800000000000000488e-01,1.319561200000000000e+09
3.340000000000000000e+02,4.230000000000000000e+02,4.010000000000000000e+02,9.500000000000000000e+01,1.390000000000000000e+02,1.030000000000000000e+03,1.008000000000000000e+03,1.015000000000000000e+03,6.899999999999999467e-01,1.339631500000000000e+09
3.370000000000000000e+02,4.550000000000000000e+02,4.040000000000000000e+02,9.500000000000000000e+01,1.390000000000000000e+02,1.030000000000000000e+03,9.930000000000000000e+02,1.041000000000000000e+03,6.999999999999999556e-01,1.359815200000000000e+09
3.700000000000000000e+02,4.710000000000000000e+02,3.820000000000000000e+02,1.000000000000000000e+02,1.610000000000000000e+02,1.040000000000000000e+03,9.500000000000000000e+02,9.720000000000000000e+02,7.099999999999999645e-01,1.379069900000000000e+09
3.850000000000000000e+02,4.950000000000000000e+02,4.270000000000000000e+02,1.050000000000000000e+02,1.630000000000000000e+02,1.098000000000000000e+03,9.910000000000000000e+02,9.440000000000000000e+02,7.199999999999999734e-01,1.400847500000000000e+09
3.590000000000000000e+02,5.750000000000000000e+02,4.660000000000000000e+02,1.070000000000000000e+02,1.670000000000000000e+02,1.150000000000000000e+03,9.870000000000000000e+02,9.980000000000000000e+02,7.299999999999999822e-01,1.420232000000000000e+09
3.600000000000000000e+02,5.590000000000000000e+02,4.610000000000000000e+02,9.900000000000000000e+01,1.580000000000000000e+02,1.025000000000000000e+03,9.460000000000000000e+02,1.049000000000000000e+03,7.399999999999999911e-01,1.441308900000000000e+09
3.530000000000000000e+02,6.040000000000000000e+02,4.600000000000000000e+02,9.800000000000000000e+01,1.620000000000000000e+02,1.033000000000000000e+03,9.360000000000000000e+02,1.016000000000000000e+03,7.500000000000000000e-01,1.461086500000000000e+09
2.940000000000000000e+02,5.990000000000000000e+02,4.500000000000000000e+02,8.700000000000000000e+01,1.400000000000000000e+02,9.930000000000000000e+02,8.800000000000000000e+02,1.004000000000000000e+03,7.600000000000000089e-01,1.480320000000000000e+09
2.490000000000000000e+02,6.090000000000000000e+02,3.960000000000000000e+02,7.800000000000000000e+01,1.460000000000000000e+02,1.167000000000000000e+03,9.310000000000000000e+02,9.950000000000000000e+02,7.800000000000000266e-01,1.519250100000000000e+09
2.500000000000000000e+02,4.920000000000000000e+02,2.920000000000000000e+02,6.200000000000000000e+01,1.300000000000000000e+02,1.160000000000000000e+03,9.510000000000000000e+02,1.009000000000000000e+03,7.800000000000000266e-01,1.519265600000000000e+09
2.590000000000000000e+02,5.420000000000000000e+02,2.730000000000000000e+02,7.200000000000000000e+01,1.370000000000000000e+02,1.245000000000000000e+03,9.630000000000000000e+02,9.140000000000000000e+02,7.900000000000000355e-01,1.541192900000000000e+09
2.790000000000000000e+02,5.110000000000000000e+02,2.880000000000000000e+02,8.800000000000000000e+01,1.390000000000000000e+02,1.291000000000000000e+03,9.830000000000000000e+02,8.840000000000000000e+02,8.000000000000000444e-01,1.564973400000000000e+09
3.100000000000000000e+02,5.300000000000000000e+02,2.990000000000000000e+02,9.800000000000000000e+01,1.330000000000000000e+02,1.372000000000000000e+03,1.037000000000000000e+03,8.710000000000000000e+02,8.100000000000000533e-01,1.581771000000000000e+09
3.270000000000000000e+02,5.440000000000000000e+02,2.730000000000000000e+02,1.060000000000000000e+02,1.260000000000000000e+02,1.197000000000000000e+03,9.630000000000000000e+02,8.390000000000000000e+02,8.199999999999999512e-01,1.599932800000000000e+09
3.170000000000000000e+02,6.040000000000000000e+02,2.950000000000000000e+02,1.090000000000000000e+02,1.200000000000000000e+02,1.137000000000000000e+03,9.490000000000000000e+02,8.020000000000000000e+02,8.299999999999999600e-01,1.619426200000000000e+09
3.540000000000000000e+02,5.860000000000000000e+02,3.820000000000000000e+02,1.160000000000000000e+02,1.230000000000000000e+02,1.068000000000000000e+03,9.760000000000000000e+02,8.200000000000000000e+02,8.399999999999999689e-01,1.641747000000000000e+09
3.690000000000000000e+02,5.930000000000000000e+02,4.050000000000000000e+02,1.230000000000000000e+02,1.370000000000000000e+02,1.028000000000000000e+03,1.098000000000000000e+03,9.430000000000000000e+02,8.499999999999999778e-01,1.661067700000000000e+09
4.400000000000000000e+02,6.060000000000000000e+02,4.260000000000000000e+02,1.250000000000000000e+02,1.680000000000000000e+02,1.164000000000000000e+03,1.046000000000000000e+03,1.031000000000000000e+03,8.699999999999999956e-01,1.698879400000000000e+09
4.710000000000000000e+02,6.110000000000000000e+02,4.470000000000000000e+02,1.290000000000000000e+02,1.940000000000000000e+02,1.279000000000000000e+03,1.075000000000000000e+03,1.064000000000000000e+03,8.699999999999999956e-01,1.698891500000000000e+09
5.150000000000000000e+02,5.890000000000000000e+02,4.300000000000000000e+02,1.300000000000000000e+02,2.080000000000000000e+02,1.319000000000000000e+03,1.096000000000000000e+03,1.108000000000000000e+03,8.800000000000000044e-01,1.720622000000000000e+09
5.350000000000000000e+02,5.820000000000000000e+02,3.690000000000000000e+02,1.310000000000000000e+02,2.210000000000000000e+02,1.371000000000000000e+03,1.142000000000000000e+03,1.173000000000000000e+03,8.900000000000000133e-01,1.740108600000000000e+09
5.400000000000000000e+02,6.280000000000000000e+02,3.850000000000000000e+02,1.200000000000000000e+02,2.120000000000000000e+02,1.374000000000000000e+03,9.900000000000000000e+02,1.130000000000000000e+03,9.000000000000000222e-01,1.759106500000000000e+09
5.050000000000000000e+02,6.020000000000000000e+02,3.510000000000000000e+02,1.150000000000000000e+02,2.280000000000000000e+02,1.328000000000000000e+03,1.057000000000000000e+03,1.130000000000000000e+03,9.100000000000000311e-01,1.779187300000000000e+09
4.990000000000000000e+02,6.130000000000000000e+02,3.100000000000000000e+02,1.090000000000000000e+02,2.370000000000000000e+02,1.339000000000000000e+03,1.068000000000000000e+03,1.095000000000000000e+03,9.200000000000000400e-01,1.800917800000000000e+09
4.890000000000000000e+02,6.750000000000000000e+02,3.180000000000000000e+02,1.180000000000000000e+02,2.460000000000000000e+02,1.461000000000000000e+03,1.052000000000000000e+03,1.021000000000000000e+03,9.300000000000000488e-01,1.819870900000000000e+09
4.870000000000000000e+02,7.070000000000000000e+02,3.150000000000000000e+02,1.230000000000000000e+02,2.410000000000000000e+02,1.449000000000000000e+03,1.054000000000000000e+03,9.920000000000000000e+02,9.399999999999999467e-01,1.841698400000000000e+09
4.780000000000000000e+02,6.450000000000000000e+02,2.400000000000000000e+02,1.290000000000000000e+02,2.470000000000000000e+02,1.528000000000000000e+03,1.101000000000000000e+03,9.860000000000000000e+02,9.499999999999999556e-01,1.860747300000000000e+09
5.360000000000000000e+02,6.560000000000000000e+02,2.530000000000000000e+02,1.410000000000000000e+02,2.440000000000000000e+02,1.509000000000000000e+03,1.105000000000000000e+03,9.500000000000000000e+02,9.599999999999999645e-01,1.879947300000000000e+09
5.210000000000000000e+02,6.850000000000000000e+02,2.800000000000000000e+02,1.420000000000000000e+02,2.170000000000000000e+02,1.480000000000000000e+03,1.124000000000000000e+03,9.520000000000000000e+02,9.799999999999999822e-01,1.920804400000000000e+09
5.660000000000000000e+02,6.330000000000000000e+02,3.260000000000000000e+02,1.430000000000000000e+02,2.200000000000000000e+02,1.482000000000000000e+03,1.181000000000000000e+03,9.820000000000000000e+02,9.799999999999999822e-01,1.920816200000000000e+09
5.200000000000000000e+02,5.640000000000000000e+02,3.260000000000000000e+02,1.280000000000000000e+02,2.270000000000000000e+02,1.560000000000000000e+03,1.091000000000000000e+03,9.760000000000000000e+02,9.899999999999999911e-01,1.939827400000000000e+09
5.030000000000000000e+02,5.940000000000000000e+02,3.680000000000000000e+02,1.170000000000000000e+02,2.220000000000000000e+02,1.550000000000000000e+03,1.079000000000000000e+03,9.750000000000000000e+02,9.799999999999999822e-01,1.959094600000000000e+09
4.270000000000000000e+02,6.380000000000000000e+02,5.290000000000000000e+02,1.030000000000000000e+02,1.890000000000000000e+02,1.421000000000000000e+03,9.780000000000000000e+02,9.410000000000000000e+02,9.699999999999999734e-01,1.978942700000000000e+09
4.080000000000000000e+02,5.850000000000000000e+02,5.380000000000000000e+02,9.700000000000000000e+01,1.810000000000000000e+02,1.343000000000000000e+03,8.310000000000000000e+02,8.880000000000000000e+02,9.599999999999999645e-01,2.001095000000000000e+09
3.000000000000000000e+02,5.820000000000000000e+02,5.470000000000000000e+02,7.900000000000000000e+01,1.460000000000000000e+02,1.130000000000000000e+03,6.780000000000000000e+02,8.170000000000000000e+02,9.499999999999999556e-01,2.020683600000000000e+09
2.840000000000000000e+02,5.920000000000000000e+02,5.830000000000000000e+02,1.010000000000000000e+02,1.060000000000000000e+02,9.480000000000000000e+02,5.920000000000000000e+02,7.040000000000000000e+02,9.399999999999999467e-01,2.040445300000000000e+09
2.730000000000000000e+02,5.400000000000000000e+02,6.000000000000000000e+02,1.140000000000000000e+02,9.000000000000000000e+01,7.410000000000000000e+02,4.640000000000000000e+02,5.810000000000000000e+02,9.300000000000000488e-01,2.061395000000000000e+09
2.300000000000000000e+02,4.570000000000000000e+02,4.970000000000000000e+02,1.090000000000000000e+02,9.300000000000000000e+01,7.680000000000000000e+02,4.730000000000000000e+02,5.970000000000000000e+02,9.200000000000000400e-01,2.080878600000000000e+09
2.030000000000000000e+02,4.010000000000000000e+02,5.280000000000000000e+02,1.060000000000000000e+02,8.300000000000000000e+01,6.880000000000000000e+02,4.060000000000000000e+02,5.580000000000000000e+02,9.100000000000000311e-01,2.100165000000000000e+09
1.740000000000000000e+02,3.340000000000000000e+02,5.620000000000000000e+02,1.200000000000000000e+02,7.800000000000000000e+01,6.390000000000000000e+02,3.600000000000000000e+02,5.290000000000000000e+02,9.000000000000000222e-01,2.121370900000000000e+09
1.830000000000000000e+02,2.980000000000000000e+02,5.670000000000000000e+02,1.190000000000000000e+02,7.100000000000000000e+01,7.880000000000000000e+02,3.320000000000000000e+02,5.130000000000000000e+02,8.900000000000000133e-01,2.140415400000000000e+09
1.770000000000000000e+02,3.020000000000000000e+02,5.420000000000000000e+02,1.030000000000000000e+02,7.000000000000000000e+01,9.610000000000000000e+02,3.100000000000000000e+02,4.600000000000000000e+02,8.800000000000000044e-01,2.159515000000000000e+09
1.540000000000000000e+02,2.930000000000000000e+02,5.310000000000000000e+02,1.110000000000000000e+02,5.500000000000000000e+01,1.214000000000000000e+03,2.010000000000000000e+02,2.450000000000000000e+02,8.699999999999999956e-01,2.180659200000000000e+09
1.630000000000000000e+02,2.940000000000000000e+02,5.750000000000000000e+02,1.080000000000000000e+02,5.400000000000000000e+01,1.213000000000000000e+03,1.850000000000000000e+02,2.080000000000000000e+02,8.599999999999999867e-01,2.199261900000000000e+09
1.480000000000000000e+02,2.540000000000000000e+02,6.980000000000000000e+02,1.100000000000000000e+02,4.900000000000000000e+01,1.246000000000000000e+03,1.570000000000000000e+02,1.650000000000000000e+02,8.399999999999999689e-01,2.239450300000000000e+09
1.360000000000000000e+02,2.910000000000000000e+02,6.990000000000000000e+02,1.200000000000000000e+02,5.800000000000000000e+01,1.127000000000000000e+03,1.360000000000000000e+02,1.270000000000000000e+02,8.399999999999999689e-01,2.239461700000000000e+09
1.590000000000000000e+02,3.150000000000000000e+02,7.880000000000000000e+02,1.410000000000000000e+02,6.600000000000000000e+01,1.029000000000000000e+03,9.000000000000000000e+01,1.000000000000000000e+02,8.299999999999999600e-01,2.261236800000000000e+09
1.650000000000000000e+02,3.020000000000000000e+02,8.110000000000000000e+02,1.350000000000000000e+02,6.200000000000000000e+01,6.180000000000000000e+02,7.100000000000000000e+01,7.600000000000000000e+01,8.199999999999999512e-01,2.280166200000000000e+09
1.800000000000000000e+02,3.010000000000000000e+02,8.440000000000000000e+02,1.420000000000000000e+02,6.500000000000000000e+01,5.950000000000000000e+02,6.300000000000000000e+01,7.100000000000000000e+01,8.100000000000000533e-01,2.299186100000000000e+09
1.790000000000000000e+02,3.020000000000000000e+02,7.690000000000000000e+02,1.330000000000000000e+02,6.600000000000000000e+01,4.880000000000000000e+02,5.100000000000000000e+01,6.200000000000000000e+01,8.000000000000000444e-01,2.320677000000000000e+09
1.780000000000000000e+02,3.360000000000000000e+02,9.340000000000000000e+02,1.300000000000000000e+02,6.100000000000000000e+01,4.220000000000000000e+02,8.900000000000000000e+01,8.600000000000000000e+01,7.900000000000000355e-01,2.339314500000000000e+09
1.650000000000000000e+02,3.140000000000000000e+02,9.060000000000000000e+02,1.080000000000000000e+02,4.900000000000000000e+01,2.140000000000000000e+02,9.000000000000000000e+01,8.200000000000000000e+01,7.800000000000000266e-01,2.360613700000000000e+09
1.680000000000000000e+02,3.200000000000000000e+02,9.350000000000000000e+02,1.080000000000000000e+02,5.000000000000000000e+01,1.470000000000000000e+02,9.200000000000000000e+01,8.500000000000000000e+01,7.700000000000000178e-01,2.380080000000000000e+09
1.440000000000000000e+02,3.260000000000000000e+02,9.020000000000000000e+02,1.050000000000000000e+02,4.600000000000000000e+01,1.200000000000000000e+02,9.300000000000000000e+01,8.400000000000000000e+01,7.600000000000000089e-01,2.398979900000000000e+09
1.610000000000000000e+02,3.680000000000000000e+02,8.990000000000000000e+02,1.180000000000000000e+02,4.600000000000000000e+01,1.090000000000000000e+02,8.900000000000000000e+01,8.400000000000000000e+01,7.500000000000000000e-01,2.420475900000000000e+09
1.620000000000000000e+02,3.050000000000000000e+02,6.990000000000000000e+02,1.080000000000000000e+02,4.100000000000000000e+01,8.800000000000000000e+01,4.900000000000000000e+01,5.400000000000000000e+01,7.399999999999999911e-01,2.439677600000000000e+09
1.670000000000000000e+02,2.890000000000000000e+02,7.220000000000000000e+02,1.080000000000000000e+02,4.000000000000000000e+01,7.800000000000000000e+01,4.500000000000000000e+01,4.900000000000000000e+01,7.199999999999999734e-01,2.479915900000000000e+09
1.610000000000000000e+02,3.130000000000000000e+02,7.210000000000000000e+02,1.300000000000000000e+02,4.500000000000000000e+01,8.900000000000000000e+01,5.400000000000000000e+01,5.200000000000000000e+01,7.199999999999999734e-01,2.479926300000000000e+09
1.720000000000000000e+02,3.190000000000000000e+02,7.860000000000000000e+02,1.450000000000000000e+02,5.100000000000000000e+01,9.000000000000000000e+01,5.700000000000000000e+01,6.300000000000000000e+01,6.999999999999999556e-01,2.519959900000000000e+09
1.740000000000000000e+02,3.090000000000000000e+02,8.170000000000000000e+02,1.290000000000000000e+02,4.600000000000000000e+01,8.700000000000000000e+01,5.700000000000000000e+01,6.200000000000000000e+01,6.999999999999999556e-01,2.520006400000000000e+09
1.680000000000000000e+02,3.360000000000000000e+02,8.970000000000000000e+02,1.220000000000000000e+02,4.500000000000000000e+01,8.400000000000000000e+01,5.600000000000000000e+01,6.000000000000000000e+01,6.899999999999999467e-01,2.541187300000000000e+09
1.770000000000000000e+02,3.360000000000000000e+02,9.270000000000000000e+02,1.260000000000000000e+02,4.500000000000000000e+01,8.200000000000000000e+01,5.500000000000000000e+01,5.900000000000000000e+01,6.800000000000000488e-01,2.559747000000000000e+09
1.770000000000000000e+02,3.040000000000000000e+02,8.930000000000000000e+02,1.090000000000000000e+02,4.300000000000000000e+01,5.200000000000000000e+01,4.000000000000000000e+01,5.600000000000000000e+01,6.700000000000000400e-01,2.579067200000000000e+09
1.560000000000000000e+02,3.070000000000000000e+02,7.980000000000000000e+02,8.700000000000000000e+01,3.600000000000000000e+01,4.000000000000000000e+01,3.200000000000000000e+01,4.000000000000000000e+01,6.600000000000000311e-01,2.600241900000000000e+09
1.330000000000000000e+02,2.650000000000000000e+02,7.560000000000000000e+02,1.010000000000000000e+02,4.100000000000000000e+01,6.100000000000000000e+01,4.400000000000000000e+01,4.000000000000000000e+01,6.500000000000000222e-01,2.619506800000000000e+09
1.330000000000000000e+02,2.820000000000000000e+02,7.280000000000000000e+02,1.040000000000000000e+02,4.200000000000000000e+01,7.200000000000000000e+01,4.500000000000000000e+01,4.300000000000000000e+01,6.400000000000000133e-01,2.641256400000000000e+09
1.120000000000000000e+02,2.970000000000000000e+02,7.200000000000000000e+02,1.230000000000000000e+02,4.200000000000000000e+01,7.200000000000000000e+01,4.300000000000000000e+01,4.200000000000000000e+01,6.300000000000000044e-01,2.660255200000000000e+09
1.080000000000000000e+02,3.610000000000000000e+02,7.620000000000000000e+02,1.410000000000000000e+02,4.700000000000000000e+01,7.300000000000000000e+01,4.800000000000000000e+01,4.000000000000000000e+01,6.199999999999999956e-01,2.679366600000000000e+09
1.430000000000000000e+02,3.740000000000000000e+02,8.210000000000000000e+02,1.570000000000000000e+02,5.300000000000000000e+01,7.700000000000000000e+01,5.900000000000000000e+01,5.200000000000000000e+01,6.099999999999999867e-01,2.700406200000000000e+09
1.480000000000000000e+02,3.740000000000000000e+02,8.040000000000000000e+02,1.560000000000000000e+02,4.900000000000000000e+01,1.310000000000000000e+02,5.500000000000000000e+01,7.200000000000000000e+01,5.999999999999999778e-01,2.721234800000000000e+09
1.500000000000000000e+02,3.460000000000000000e+02,8.680000000000000000e+02,1.760000000000000000e+02,5.700000000000000000e+01,1.370000000000000000e+02,5.500000000000000000e+01,7.600000000000000000e+01,5.899999999999999689e-01,2.740083100000000000e+09
1.380000000000000000e+02,3.410000000000000000e+02,8.010000000000000000e+02,1.590000000000000000e+02,5.700000000000000000e+01,1.370000000000000000e+02,5.600000000000000000e+01,7.700000000000000000e+01,5.799999999999999600e-01,2.759171900000000000e+09
1.450000000000000000e+02,3.130000000000000000e+02,8.510000000000000000e+02,1.510000000000000000e+02,5.300000000000000000e+01,1.380000000000000000e+02,5.300000000000000000e+01,7.900000000000000000e+01,5.699999999999999512e-01,2.780430900000000000e+09
1.170000000000000000e+02,3.130000000000000000e+02,8.440000000000000000e+02,1.470000000000000000e+02,5.200000000000000000e+01,1.390000000000000000e+02,4.900000000000000000e+01,7.200000000000000000e+01,5.600000000000000533e-01,2.799274600000000000e+09
1.370000000000000000e+02,3.140000000000000000e+02,9.080000000000000000e+02,1.440000000000000000e+02,5.300000000000000000e+01,8.300000000000000000e+01,5.000000000000000000e+01,5.400000000000000000e+01,5.500000000000000444e-01,2.820562200000000000e+09
1.520000000000000000e+02,3.290000000000000000e+02,8.570000000000000000e+02,1.400000000000000000e+02,5.500000000000000000e+01,7.600000000000000000e+01,5.300000000000000000e+01,5.200000000000000000e+01,5.400000000000000355e-01,2.839622500000000000e+09
1.560000000000000000e+02,3.260000000000000000e+02,9.430000000000000000e+02,1.480000000000000000e+02,5.700000000000000000e+01,8.200000000000000000e+01,5.300000000000000000e+01,7.500000000000000000e+01,5.300000000000000266e-01,2.861149200000000000e+09
1.480000000000000000e+02,3.160000000000000000e+02,9.260000000000000000e+02,1.440000000000000000e+02,5.200000000000000000e+01,7.900000000000000000e+01,5.200000000000000000e+01,7.400000000000000000e+01,5.200000000000000178e-01,2.880144300000000000e+09
1.500000000000000000e+02,2.930000000000000000e+02,9.510000000000000000e+02,1.460000000000000000e+02,5.400000000000000000e+01,7.900000000000000000e+01,5.900000000000000000e+01,7.700000000000000000e+01,5.100000000000000089e-01,2.901147500000000000e+09
1.370000000000000000e+02,3.030000000000000000e+02,9.250000000000000000e+02,1.570000000000000000e+02,6.100000000000000000e+01,7.300000000000000000e+01,5.400000000000000000e+01,7.800000000000000000e+01,5.000000000000000000e-01,2.919891400000000000e+09
1.140000000000000000e+02,3.120000000000000000e+02,8.870000000000000000e+02,1.400000000000000000e+02,5.200000000000000000e+01,7.400000000000000000e+01,5.800000000000000000e+01,7.400000000000000000e+01,4.899999999999999911e-01,2.938953700000000000e+09
1.130000000000000000e+02,3.180000000000000000e+02,8.600000000000000000e+02,1.460000000000000000e+02,5.600000000000000000e+01,9.300000000000000000e+01,5.700000000000000000e+01,7.100000000000000000e+01,4.799999999999999822e-01,2.960488000000000000e+09
1.080000000000000000e+02,3.020000000000000000e+02,9.080000000000000000e+02,1.450000000000000000e+02,5.800000000000000000e+01,1.090000000000000000e+02,5.900000000000000000e+01,8.300000000000000000e+01,4.699999999999999734e-01,2.979366200000000000e+09
1.010000000000000000e+02,2.980000000000000000e+02,9.040000000000000000e+02,1.460000000000000000e+02,5.700000000000000000e+01,1.090000000000000000e+02,4.500000000000000000e+01,8.300000000000000000e+01,4.600000000000000200e-01,3.000580500000000000e+09
1.070000000000000000e+02,4.190000000000000000e+02,9.450000000000000000e+02,1.640000000000000000e+02,6.000000000000000000e+01,1.120000000000000000e+02,5.000000000000000000e+01,9.200000000000000000e+01,4.400000000000000022e-01,3.040947800000000000e+09
1.180000000000000000e+02,4.710000000000000000e+02,9.710000000000000000e+02,1.770000000000000000e+02,7.200000000000000000e+01,1.180000000000000000e+02,6.800000000000000000e+01,9.700000000000000000e+01,4.400000000000000022e-01,3.040958700000000000e+09
1.270000000000000000e+02,4.880000000000000000e+02,9.480000000000000000e+02,2.060000000000000000e+02,7.600000000000000000e+01,1.750000000000000000e+02,7.500000000000000000e+01,8.300000000000000000e+01,4.299999999999999933e-01,3.060105600000000000e+09
1.280000000000000000e+02,4.720000000000000000e+02,8.610000000000000000e+02,2.100000000000000000e+02,7.800000000000000000e+01,1.730000000000000000e+02,8.000000000000000000e+01,8.800000000000000000e+01,4.199999999999999845e-01,3.079513500000000000e+09
1.240000000000000000e+02,4.680000000000000000e+02,8.860000000000000000e+02,2.110000000000000000e+02,7.800000000000000000e+01,1.750000000000000000e+02,8.100000000000000000e+01,9.100000000000000000e+01,4.099999999999999756e-01,3.100934800000000000e+09
1.250000000000000000e+02,4.580000000000000000e+02,8.550000000000000000e+02,2.010000000000000000e+02,7.400000000000000000e+01,1.750000000000000000e+02,7.900000000000000000e+01,8.400000000000000000e+01,4.000000000000000222e-01,3.119706800000000000e+09
1.410000000000000000e+02,4.430000000000000000e+02,8.970000000000000000e+02,2.150000000000000000e+02,7.600000000000000000e+01,1.700000000000000000e+02,7.500000000000000000e+01,9.300000000000000000e+01,3.900000000000000133e-01,3.141540600000000000e+09
1.410000000000000000e+02,4.320000000000000000e+02,9.300000000000000000e+02,1.970000000000000000e+02,7.500000000000000000e+01,1.700000000000000000e+02,8.700000000000000000e+01,9.400000000000000000e+01,3.800000000000000044e-01,3.160698200000000000e+09
1.360000000000000000e+02,4.470000000000000000e+02,1.006000000000000000e+03,2.010000000000000000e+02,7.400000000000000000e+01,1.690000000000000000e+02,8.600000000000000000e+01,7.700000000000000000e+01,3.699999999999999956e-01,3.179561700000000000e+09
1.350000000000000000e+02,4.650000000000000000e+02,1.091000000000000000e+03,1.920000000000000000e+02,7.000000000000000000e+01,1.670000000000000000e+02,8.600000000000000000e+01,6.900000000000000000e+01,3.599999999999999867e-01,3.200988400000000000e+09
1.270000000000000000e+02,3.800000000000000000e+02,1.189000000000000000e+03,1.960000000000000000e+02,7.400000000000000000e+01,1.640000000000000000e+02,8.600000000000000000e+01,6.800000000000000000e+01,3.400000000000000244e-01,3.239135400000000000e+09
1.050000000000000000e+02,3.360000000000000000e+02,1.147000000000000000e+03,1.770000000000000000e+02,6.200000000000000000e+01,1.720000000000000000e+02,7.600000000000000000e+01,5.100000000000000000e+01,3.400000000000000244e-01,3.239146900000000000e+09
1.080000000000000000e+02,3.740000000000000000e+02,1.176000000000000000e+03,1.790000000000000000e+02,6.200000000000000000e+01,1.040000000000000000e+02,8.000000000000000000e+01,6.100000000000000000e+01,3.300000000000000155e-01,3.261391200000000000e+09
1.130000000000000000e+02,4.060000000000000000e+02,1.141000000000000000e+03,1.780000000000000000e+02,6.500000000000000000e+01,1.060000000000000000e+02,9.400000000000000000e+01,6.200000000000000000e+01,3.099999999999999978e-01,3.300758800000000000e+09
1.230000000000000000e+02,4.240000000000000000e+02,1.079000000000000000e+03,2.020000000000000000e+02,7.500000000000000000e+01,1.090000000000000000e+02,9.400000000000000000e+01,6.400000000000000000e+01,3.099999999999999978e-01,3.300799600000000000e+09
1.370000000000000000e+02,4.520000000000000000e+02,1.053000000000000000e+03,2.390000000000000000e+02,8.700000000000000000e+01,1.150000000000000000e+02,9.900000000000000000e+01,7.200000000000000000e+01,2.999999999999999889e-01,3.319767900000000000e+09
1.470000000000000000e+02,4.670000000000000000e+02,1.112000000000000000e+03,2.520000000000000000e+02,9.400000000000000000e+01,1.150000000000000000e+02,9.800000000000000000e+01,7.600000000000000000e+01,2.800000000000000266e-01,3.359890900000000000e+09
1.670000000000000000e+02,5.300000000000000000e+02,1.093000000000000000e+03,2.580000000000000000e+02,9.900000000000000000e+01,1.170000000000000000e+02,9.200000000000000000e+01,7.700000000000000000e+01,2.800000000000000266e-01,3.359904900000000000e+09
1.690000000000000000e+02,5.120000000000000000e+02,1.075000000000000000e+03,2.600000000000000000e+02,1.010000000000000000e+02,1.070000000000000000e+02,7.900000000000000000e+01,7.800000000000000000e+01,2.700000000000000178e-01,3.381374500000000000e+09
1.770000000000000000e+02,5.520000000000000000e+02,1.108000000000000000e+03,2.680000000000000000e+02,1.040000000000000000e+02,1.020000000000000000e+02,8.000000000000000000e+01,8.100000000000000000e+01,2.500000000000000000e-01,3.419244100000000000e+09
1.660000000000000000e+02,5.450000000000000000e+02,1.042000000000000000e+03,2.300000000000000000e+02,9.200000000000000000e+01,9.500000000000000000e+01,7.500000000000000000e+01,7.100000000000000000e+01,2.500000000000000000e-01,3.419254900000000000e+09
1.640000000000000000e+02,5.430000000000000000e+02,1.077000000000000000e+03,2.270000000000000000e+02,9.200000000000000000e+01,7.200000000000000000e+01,7.400000000000000000e+01,6.900000000000000000e+01,2.399999999999999911e-01,3.440655100000000000e+09
1.350000000000000000e+02,4.560000000000000000e+02,1.101000000000000000e+03,2.200000000000000000e+02,8.400000000000000000e+01,5.400000000000000000e+01,5.600000000000000000e+01,5.800000000000000000e+01,2.200000000000000011e-01,3.480633900000000000e+09
1.590000000000000000e+02,5.710000000000000000e+02,1.209000000000000000e+03,2.320000000000000000e+02,8.600000000000000000e+01,8.800000000000000000e+01,5.300000000000000000e+01,6.500000000000000000e+01,2.200000000000000011e-01,3.480646900000000000e+09
1.610000000000000000e+02,5.660000000000000000e+02,1.155000000000000000e+03,2.230000000000000000e+02,8.200000000000000000e+01,9.300000000000000000e+01,5.400000000000000000e+01,6.600000000000000000e+01,2.099999999999999922e-01,3.499403200000000000e+09
1.810000000000000000e+02,5.950000000000000000e+02,1.205000000000000000e+03,2.650000000000000000e+02,9.200000000000000000e+01,1.000000000000000000e+02,5.700000000000000000e+01,7.800000000000000000e+01,1.900000000000000022e-01,3.540151400000000000e+09
1.880000000000000000e+02,6.320000000000000000e+02,1.207000000000000000e+03,2.790000000000000000e+02,9.700000000000000000e+01,1.040000000000000000e+02,5.800000000000000000e+01,8.000000000000000000e+01,1.900000000000000022e-01,3.540163500000000000e+09
2.170000000000000000e+02,6.990000000000000000e+02,1.182000000000000000e+03,3.410000000000000000e+02,1.160000000000000000e+02,1.080000000000000000e+02,6.500000000000000000e+01,9.300000000000000000e+01,1.799999999999999933e-01,3.561106700000000000e+09
2.000000000000000000e+02,6.310000000000000000e+02,1.085000000000000000e+03,3.380000000000000000e+02,1.130000000000000000e+02,8.000000000000000000e+01,6.200000000000000000e+01,8.800000000000000000e+01,1.600000000000000033e-01,3.599404300000000000e+09
2.080000000000000000e+02,6.180000000000000000e+02,1.088000000000000000e+03,3.490000000000000000e+02,1.170000000000000000e+02,9.200000000000000000e+01,6.800000000000000000e+01,9.100000000000000000e+01,1.600000000000000033e-01,3.599415900000000000e+09
2.170000000000000000e+02,6.920000000000000000e+02,1.042000000000000000e+03,3.610000000000000000e+02,1.200000000000000000e+02,9.600000000000000000e+01,7.300000000000000000e+01,9.400000000000000000e+01,1.499999999999999944e-01,3.620794500000000000e+09
2.160000000000000000e+02,6.750000000000000000e+02,9.970000000000000000e+02,3.620000000000000000e+02,1.190000000000000000e+02,9.400000000000000000e+01,7.400000000000000000e+01,9.800000000000000000e+01,1.300000000000000044e-01,3.659000300000000000e+09
2.420000000000000000e+02,7.760000000000000000e+02,1.022000000000000000e+03,3.930000000000000000e+02,1.470000000000000000e+02,1.110000000000000000e+02,8.500000000000000000e+01,1.100000000000000000e+02,1.300000000000000044e-01,3.659033200000000000e+09
2.860000000000000000e+02,8.420000000000000000e+02,1.095000000000000000e+03,4.800000000000000000e+02,1.720000000000000000e+02,1.230000000000000000e+02,9.400000000000000000e+01,1.290000000000000000e+02,1.199999999999999956e-01,3.680512000000000000e+09
3.170000000000000000e+02,9.230000000000000000e+02,1.141000000000000000e+03,5.120000000000000000e+02,1.980000000000000000e+02,1.250000000000000000e+02,1.000000000000000000e+02,1.410000000000000000e+02,1.000000000000000056e-01,3.720872700000000000e+09
3.350000000000000000e+02,9.220000000000000000e+02,1.268000000000000000e+03,5.690000000000000000e+02,2.160000000000000000e+02,1.380000000000000000e+02,1.020000000000000000e+02,1.500000000000000000e+02,1.000000000000000056e-01,3.720884500000000000e+09
4.180000000000000000e+02,1.003000000000000000e+03,1.262000000000000000e+03,7.110000000000000000e+02,2.850000000000000000e+02,1.750000000000000000e+02,1.320000000000000000e+02,1.940000000000000000e+02,8.999999999999999667e-02,3.740111300000000000e+09
3.990000000000000000e+02,9.070000000000000000e+02,1.300000000000000000e+03,7.840000000000000000e+02,2.870000000000000000e+02,1.670000000000000000e+02,1.250000000000000000e+02,1.920000000000000000e+02,7.000000000000000666e-02,3.780346700000000000e+09
4.320000000000000000e+02,9.890000000000000000e+02,1.391000000000000000e+03,8.480000000000000000e+02,3.160000000000000000e+02,1.940000000000000000e+02,1.400000000000000000e+02,2.050000000000000000e+02,7.000000000000000666e-02,3.780396400000000000e+09
4.460000000000000000e+02,1.108000000000000000e+03,1.396000000000000000e+03,9.030000000000000000e+02,3.240000000000000000e+02,2.040000000000000000e+02,1.460000000000000000e+02,2.110000000000000000e+02,5.999999999999999778e-02,3.799153000000000000e+09
4.560000000000000000e+02,1.093000000000000000e+03,1.309000000000000000e+03,9.260000000000000000e+02,3.440000000000000000e+02,2.070000000000000000e+02,1.530000000000000000e+02,2.180000000000000000e+02,5.000000000000000278e-02,3.824981100000000000e+09
4.290000000000000000e+02,1.100000000000000000e+03,1.320000000000000000e+03,9.290000000000000000e+02,3.300000000000000000e+02,1.930000000000000000e+02,1.440000000000000000e+02,1.980000000000000000e+02,4.000000000000000083e-02,3.839839300000000000e+09
4.390000000000000000e+02,1.140000000000000000e+03,1.227000000000000000e+03,8.900000000000000000e+02,3.200000000000000000e+02,1.960000000000000000e+02,1.460000000000000000e+02,1.980000000000000000e+02,2.999999999999999889e-02,3.861874900000000000e+09
4.380000000000000000e+02,1.119000000000000000e+03,1.148000000000000000e+03,8.940000000000000000e+02,3.410000000000000000e+02,1.930000000000000000e+02,1.500000000000000000e+02,2.040000000000000000e+02,1.000000000000000021e-02,3.900240400000000000e+09
4.240000000000000000e+02,9.810000000000000000e+02,1.126000000000000000e+03,8.850000000000000000e+02,3.370000000000000000e+02,1.950000000000000000e+02,1.480000000000000000e+02,2.020000000000000000e+02,1.000000000000000021e-02,3.900251700000000000e+09
4.580000000000000000e+02,1.042000000000000000e+03,1.167000000000000000e+03,9.040000000000000000e+02,3.460000000000000000e+02,2.000000000000000000e+02,1.540000000000000000e+02,2.240000000000000000e+02,0.000000000000000000e+00,3.921329800000000000e+09
4.320000000000000000e+02,9.750000000000000000e+02,1.235000000000000000e+03,8.280000000000000000e+02,3.210000000000000000e+02,2.160000000000000000e+02,1.430000000000000000e+02,2.160000000000000000e+02,2.000000000000000042e-02,3.960789800000000000e+09
4.540000000000000000e+02,9.840000000000000000e+02,1.283000000000000000e+03,8.180000000000000000e+02,3.330000000000000000e+02,2.270000000000000000e+02,1.490000000000000000e+02,2.240000000000000000e+02,2.000000000000000042e-02,3.960826100000000000e+09
4.210000000000000000e+02,9.440000000000000000e+02,1.238000000000000000e+03,7.150000000000000000e+02,2.730000000000000000e+02,2.030000000000000000e+02,1.300000000000000000e+02,2.040000000000000000e+02,2.999999999999999889e-02,3.979912300000000000e+09
4.200000000000000000e+02,9.510000000000000000e+02,1.154000000000000000e+03,6.700000000000000000e+02,2.670000000000000000e+02,1.950000000000000000e+02,1.320000000000000000e+02,2.040000000000000000e+02,5.000000000000000278e-02,4.020667900000000000e+09
3.950000000000000000e+02,9.390000000000000000e+02,1.151000000000000000e+03,6.190000000000000000e+02,2.360000000000000000e+02,2.010000000000000000e+02,1.290000000000000000e+02,1.830000000000000000e+02,5.000000000000000278e-02,4.020681100000000000e+09
3.950000000000000000e+02,9.080000000000000000e+02,1.076000000000000000e+03,6.050000000000000000e+02,2.370000000000000000e+02,1.940000000000000000e+02,1.390000000000000000e+02,2.020000000000000000e+02,5.999999999999999778e-02,4.039467200000000000e+09
3.470000000000000000e+02,8.120000000000000000e+02,1.067000000000000000e+03,5.420000000000000000e+02,2.070000000000000000e+02,2.460000000000000000e+02,1.510000000000000000e+02,2.490000000000000000e+02,8.000000000000000167e-02,4.080013300000000000e+09
3.350000000000000000e+02,8.000000000000000000e+02,1.084000000000000000e+03,5.350000000000000000e+02,2.110000000000000000e+02,3.230000000000000000e+02,1.610000000000000000e+02,2.800000000000000000e+02,8.000000000000000167e-02,4.080025800000000000e+09
2.970000000000000000e+02,6.970000000000000000e+02,1.082000000000000000e+03,4.730000000000000000e+02,1.870000000000000000e+02,3.790000000000000000e+02,2.140000000000000000e+02,2.900000000000000000e+02,8.999999999999999667e-02,4.100957700000000000e+09
2.440000000000000000e+02,5.690000000000000000e+02,9.230000000000000000e+02,3.620000000000000000e+02,1.510000000000000000e+02,5.700000000000000000e+02,3.020000000000000000e+02,4.740000000000000000e+02,1.100000000000000006e-01,4.141037300000000000e+09
2.150000000000000000e+02,5.780000000000000000e+02,8.340000000000000000e+02,3.070000000000000000e+02,1.350000000000000000e+02,7.720000000000000000e+02,4.340000000000000000e+02,6.220000000000000000e+02,1.100000000000000006e-01,4.141048600000000000e+09
2.510000000000000000e+02,6.570000000000000000e+02,7.660000000000000000e+02,3.090000000000000000e+02,1.540000000000000000e+02,8.150000000000000000e+02,5.340000000000000000e+02,7.390000000000000000e+02,1.300000000000000044e-01,4.179279800000000000e+09
2.320000000000000000e+02,5.560000000000000000e+02,5.630000000000000000e+02,2.570000000000000000e+02,1.400000000000000000e+02,8.090000000000000000e+02,6.640000000000000000e+02,8.400000000000000000e+02,1.400000000000000133e-01,4.200389000000000000e+09
2.390000000000000000e+02,5.670000000000000000e+02,5.790000000000000000e+02,2.600000000000000000e+02,1.450000000000000000e+02,8.260000000000000000e+02,8.570000000000000000e+02,9.680000000000000000e+02,1.499999999999999944e-01,4.219141000000000000e+09
2.380000000000000000e+02,5.470000000000000000e+02,6.250000000000000000e+02,2.490000000000000000e+02,1.480000000000000000e+02,7.650000000000000000e+02,9.250000000000000000e+02,1.007000000000000000e+03,1.499999999999999944e-01,4.219151600000000000e+09
2.610000000000000000e+02,5.270000000000000000e+02,6.870000000000000000e+02,2.240000000000000000e+02,1.350000000000000000e+02,6.450000000000000000e+02,9.930000000000000000e+02,9.900000000000000000e+02,1.700000000000000122e-01,4.259407800000000000e+09
2.240000000000000000e+02,4.140000000000000000e+02,7.120000000000000000e+02,1.860000000000000000e+02,1.140000000000000000e+02,6.600000000000000000e+02,1.011000000000000000e+03,9.640000000000000000e+02,1.799999999999999933e-01,4.280937000000000000e+09
2.210000000000000000e+02,3.640000000000000000e+02,7.490000000000000000e+02,1.910000000000000000e+02,1.210000000000000000e+02,7.750000000000000000e+02,1.057000000000000000e+03,9.080000000000000000e+02,1.799999999999999933e-01,4.280948300000000000e+09
2.350000000000000000e+02,3.810000000000000000e+02,7.370000000000000000e+02,2.040000000000000000e+02,1.210000000000000000e+02,7.470000000000000000e+02,9.910000000000000000e+02,8.260000000000000000e+02,2.000000000000000111e-01,4.320145300000000000e+09
2.050000000000000000e+02,3.420000000000000000e+02,8.040000000000000000e+02,1.890000000000000000e+02,1.080000000000000000e+02,6.930000000000000000e+02,9.260000000000000000e+02,6.910000000000000000e+02,2.099999999999999922e-01,4.341344600000000000e+09
1.810000000000000000e+02,3.530000000000000000e+02,7.470000000000000000e+02,1.660000000000000000e+02,9.900000000000000000e+01,6.250000000000000000e+02,8.380000000000000000e+02,6.730000000000000000e+02,2.099999999999999922e-01,4.341356100000000000e+09
1.870000000000000000e+02,3.520000000000000000e+02,6.450000000000000000e+02,1.550000000000000000e+02,1.000000000000000000e+02,5.710000000000000000e+02,9.290000000000000000e+02,7.040000000000000000e+02,2.300000000000000100e-01,4.379343000000000000e+09
1.930000000000000000e+02,3.820000000000000000e+02,6.500000000000000000e+02,1.720000000000000000e+02,9.300000000000000000e+01,4.450000000000000000e+02,8.830000000000000000e+02,6.860000000000000000e+02,2.399999999999999911e-01,4.401211600000000000e+09
1.830000000000000000e+02,3.740000000000000000e+02,7.520000000000000000e+02,1.720000000000000000e+02,9.100000000000000000e+01,4.290000000000000000e+02,8.350000000000000000e+02,6.800000000000000000e+02,2.399999999999999911e-01,4.401229600000000000e+09
1.820000000000000000e+02,3.800000000000000000e+02,6.440000000000000000e+02,1.710000000000000000e+02,9.100000000000000000e+01,4.540000000000000000e+02,9.270000000000000000e+02,7.140000000000000000e+02,2.600000000000000089e-01,4.439058300000000000e+09
1.590000000000000000e+02,3.290000000000000000e+02,6.060000000000000000e+02,1.670000000000000000e+02,9.000000000000000000e+01,4.700000000000000000e+02,9.140000000000000000e+02,6.700000000000000000e+02,2.700000000000000178e-01,4.460157500000000000e+09
1.670000000000000000e+02,3.370000000000000000e+02,6.220000000000000000e+02,1.680000000000000000e+02,8.900000000000000000e+01,4.600000000000000000e+02,7.980000000000000000e+02,6.020000000000000000e+02,2.700000000000000178e-01,4.460169300000000000e+09
1.910000000000000000e+02,3.710000000000000000e+02,7.240000000000000000e+02,1.680000000000000000e+02,8.500000000000000000e+01,3.830000000000000000e+02,7.280000000000000000e+02,6.200000000000000000e+02,2.899999999999999800e-01,4.500558000000000000e+09
1.930000000000000000e+02,4.080000000000000000e+02,6.810000000000000000e+02,1.500000000000000000e+02,7.600000000000000000e+01,3.680000000000000000e+02,7.140000000000000000e+02,6.380000000000000000e+02,2.999999999999999889e-01,4.519278600000000000e+09
2.090000000000000000e+02,4.010000000000000000e+02,6.670000000000000000e+02,1.490000000000000000e+02,7.900000000000000000e+01,3.560000000000000000e+02,7.130000000000000000e+02,7.200000000000000000e+02,2.999999999999999889e-01,4.519303000000000000e+09
2.100000000000000000e+02,4.040000000000000000e+02,6.670000000000000000e+02,1.510000000000000000e+02,8.300000000000000000e+01,4.090000000000000000e+02,8.310000000000000000e+02,7.040000000000000000e+02,3.200000000000000067e-01,4.559441200000000000e+09
2.060000000000000000e+02,4.150000000000000000e+02,6.700000000000000000e+02,1.570000000000000000e+02,8.000000000000000000e+01,3.760000000000000000e+02,8.520000000000000000e+02,6.740000000000000000e+02,3.300000000000000155e-01,4.581435200000000000e+09
1.880000000000000000e+02,3.740000000000000000e+02,6.600000000000000000e+02,1.460000000000000000e+02,8.100000000000000000e+01,3.760000000000000000e+02,8.500000000000000000e+02,6.710000000000000000e+02,3.300000000000000155e-01,4.581524100000000000e+09
1.760000000000000000e+02,3.040000000000000000e+02,6.990000000000000000e+02,1.360000000000000000e+02,7.800000000000000000e+01,3.810000000000000000e+02,8.160000000000000000e+02,6.020000000000000000e+02,3.499999999999999778e-01,4.621405400000000000e+09
1.590000000000000000e+02,2.980000000000000000e+02,7.110000000000000000e+02,1.370000000000000000e+02,7.700000000000000000e+01,3.740000000000000000e+02,7.750000000000000000e+02,5.250000000000000000e+02,3.599999999999999867e-01,4.640045000000000000e+09
1.610000000000000000e+02,3.060000000000000000e+02,7.300000000000000000e+02,1.380000000000000000e+02,6.800000000000000000e+01,2.820000000000000000e+02,6.510000000000000000e+02,5.320000000000000000e+02,3.599999999999999867e-01,4.640055400000000000e+09
1.540000000000000000e+02,3.380000000000000000e+02,7.270000000000000000e+02,1.360000000000000000e+02,6.600000000000000000e+01,2.500000000000000000e+02,5.690000000000000000e+02,5.600000000000000000e+02,3.800000000000000044e-01,4.680048400000000000e+09
1.360000000000000000e+02,3.260000000000000000e+02,6.280000000000000000e+02,1.150000000000000000e+02,5.700000000000000000e+01,2.470000000000000000e+02,6.310000000000000000e+02,6.270000000000000000e+02,3.900000000000000133e-01,4.699287900000000000e+09
1.190000000000000000e+02,3.120000000000000000e+02,5.200000000000000000e+02,9.600000000000000000e+01,5.200000000000000000e+01,2.350000000000000000e+02,6.350000000000000000e+02,6.240000000000000000e+02,4.000000000000000222e-01,4.720735000000000000e+09
1.100000000000000000e+02,3.330000000000000000e+02,4.840000000000000000e+02,8.500000000000000000e+01,4.400000000000000000e+01,1.850000000000000000e+02,5.550000000000000000e+02,5.750000000000000000e+02,4.099999999999999756e-01,4.739330100000000000e+09
1.160000000000000000e+02,3.720000000000000000e+02,4.640000000000000000e+02,8.400000000000000000e+01,4.700000000000000000e+01,2.030000000000000000e+02,5.900000000000000000e+02,6.770000000000000000e+02,4.199999999999999845e-01,4.760745900000000000e+09
1.140000000000000000e+02,3.320000000000000000e+02,4.310000000000000000e+02,6.400000000000000000e+01,4.400000000000000000e+01,2.230000000000000000e+02,6.310000000000000000e+02,6.730000000000000000e+02,4.199999999999999845e-01,4.760762500000000000e+09
1.280000000000000000e+02,3.320000000000000000e+02,3.780000000000000000e+02,5.900000000000000000e+01,4.400000000000000000e+01,2.200000000000000000e+02,6.210000000000000000e+02,6.240000000000000000e+02,4.400000000000000022e-01,4.800825300000000000e+09
1.590000000000000000e+02,3.190000000000000000e+02,4.130000000000000000e+02,6.800000000000000000e+01,4.800000000000000000e+01,2.190000000000000000e+02,6.330000000000000000e+02,6.710000000000000000e+02,4.500000000000000111e-01,4.819573400000000000e+09
1.750000000000000000e+02,3.100000000000000000e+02,4.160000000000000000e+02,7.000000000000000000e+01,5.100000000000000000e+01,2.180000000000000000e+02,6.580000000000000000e+02,7.260000000000000000e+02,4.500000000000000111e-01,4.819584000000000000e+09
1.670000000000000000e+02,2.560000000000000000e+02,4.040000000000000000e+02,6.400000000000000000e+01,4.700000000000000000e+01,1.930000000000000000e+02,6.510000000000000000e+02,6.470000000000000000e+02,4.699999999999999734e-01,4.859543800000000000e+09
1.650000000000000000e+02,2.680000000000000000e+02,4.640000000000000000e+02,6.800000000000000000e+01,5.100000000000000000e+01,1.850000000000000000e+02,6.430000000000000000e+02,6.310000000000000000e+02,4.799999999999999822e-01,4.881360100000000000e+09
1.560000000000000000e+02,3.360000000000000000e+02,5.880000000000000000e+02,9.300000000000000000e+01,5.500000000000000000e+01,1.790000000000000000e+02,5.730000000000000000e+02,6.120000000000000000e+02,4.799999999999999822e-01,4.881373000000000000e+09
1.320000000000000000e+02,3.690000000000000000e+02,5.340000000000000000e+02,9.100000000000000000e+01,5.400000000000000000e+01,1.820000000000000000e+02,6.520000000000000000e+02,5.840000000000000000e+02,5.000000000000000000e-01,4.918916500000000000e+09
1.190000000000000000e+02,3.490000000000000000e+02,5.340000000000000000e+02,9.200000000000000000e+01,5.100000000000000000e+01,2.000000000000000000e+02,6.380000000000000000e+02,6.050000000000000000e+02,5.100000000000000089e-01,4.940045500000000000e+09
1.150000000000000000e+02,3.480000000000000000e+02,5.420000000000000000e+02,9.300000000000000000e+01,4.900000000000000000e+01,1.760000000000000000e+02,6.300000000000000000e+02,6.670000000000000000e+02,5.100000000000000089e-01,4.940056600000000000e+09
1.180000000000000000e+02,3.790000000000000000e+02,5.070000000000000000e+02,8.700000000000000000e+01,4.600000000000000000e+01,1.560000000000000000e+02,6.940000000000000000e+02,6.590000000000000000e+02,5.300000000000000266e-01,4.980120900000000000e+09
1.100000000000000000e+02,3.520000000000000000e+02,3.310000000000000000e+02,6.200000000000000000e+01,4.100000000000000000e+01,2.070000000000000000e+02,7.270000000000000000e+02,6.600000000000000000e+02,5.400000000000000355e-01,5.001329500000000000e+09
1.060000000000000000e+02,3.850000000000000000e+02,4.940000000000000000e+02,5.900000000000000000e+01,3.800000000000000000e+01,2.120000000000000000e+02,6.970000000000000000e+02,6.620000000000000000e+02,5.400000000000000355e-01,5.001341800000000000e+09
9.800000000000000000e+01,3.850000000000000000e+02,5.190000000000000000e+02,6.000000000000000000e+01,3.500000000000000000e+01,2.130000000000000000e+02,7.200000000000000000e+02,5.900000000000000000e+02,5.600000000000000533e-01,5.041388100000000000e+09
1.050000000000000000e+02,3.900000000000000000e+02,5.120000000000000000e+02,5.900000000000000000e+01,3.800000000000000000e+01,2.470000000000000000e+02,7.310000000000000000e+02,5.370000000000000000e+02,5.699999999999999512e-01,5.060976800000000000e+09
1.060000000000000000e+02,3.600000000000000000e+02,4.930000000000000000e+02,6.000000000000000000e+01,4.400000000000000000e+01,2.970000000000000000e+02,7.410000000000000000e+02,6.350000000000000000e+02,5.699999999999999512e-01,5.060987900000000000e+09
1.190000000000000000e+02,3.370000000000000000e+02,4.850000000000000000e+02,5.900000000000000000e+01,4.900000000000000000e+01,2.950000000000000000e+02,7.780000000000000000e+02,6.530000000000000000e+02,5.899999999999999689e-01,5.100072600000000000e+09
1.260000000000000000e+02,2.720000000000000000e+02,3.640000000000000000e+02,6.200000000000000000e+01,5.000000000000000000e+01,3.060000000000000000e+02,7.410000000000000000e+02,6.630000000000000000e+02,5.999999999999999778e-01,5.119268100000000000e+09
1.300000000000000000e+02,2.830000000000000000e+02,3.780000000000000000e+02,5.900000000000000000e+01,5.700000000000000000e+01,3.960000000000000000e+02,8.700000000000000000e+02,6.910000000000000000e+02,6.099999999999999867e-01,5.140993000000000000e+09
1.260000000000000000e+02,2.850000000000000000e+02,4.710000000000000000e+02,7.000000000000000000e+01,6.300000000000000000e+01,3.920000000000000000e+02,8.660000000000000000e+02,6.780000000000000000e+02,6.199999999999999956e-01,5.159689700000000000e+09
1.360000000000000000e+02,3.010000000000000000e+02,4.870000000000000000e+02,7.200000000000000000e+01,6.200000000000000000e+01,3.800000000000000000e+02,8.550000000000000000e+02,6.310000000000000000e+02,6.300000000000000044e-01,5.181112400000000000e+09
1.250000000000000000e+02,2.910000000000000000e+02,4.920000000000000000e+02,7.300000000000000000e+01,5.900000000000000000e+01,3.980000000000000000e+02,8.150000000000000000e+02,6.200000000000000000e+02,6.400000000000000133e-01,5.199901300000000000e+09
1.140000000000000000e+02,2.860000000000000000e+02,5.120000000000000000e+02,6.400000000000000000e+01,6.200000000000000000e+01,4.590000000000000000e+02,8.690000000000000000e+02,7.440000000000000000e+02,6.500000000000000222e-01,5.221137600000000000e+09
1.210000000000000000e+02,3.020000000000000000e+02,4.890000000000000000e+02,6.500000000000000000e+01,6.400000000000000000e+01,4.280000000000000000e+02,7.140000000000000000e+02,7.580000000000000000e+02,6.600000000000000311e-01,5.239970000000000000e+09
1.230000000000000000e+02,3.080000000000000000e+02,4.300000000000000000e+02,5.200000000000000000e+01,5.600000000000000000e+01,4.590000000000000000e+02,7.170000000000000000e+02,8.140000000000000000e+02,6.700000000000000400e-01,5.261264800000000000e+09
1.330000000000000000e+02,3.160000000000000000e+02,4.150000000000000000e+02,5.100000000000000000e+01,6.100000000000000000e+01,5.050000000000000000e+02,7.210000000000000000e+02,8.820000000000000000e+02,6.800000000000000488e-01,5.279639800000000000e+09
1.370000000000000000e+02,3.100000000000000000e+02,4.010000000000000000e+02,4.800000000000000000e+01,6.000000000000000000e+01,4.880000000000000000e+02,7.430000000000000000e+02,8.960000000000000000e+02,6.899999999999999467e-01,5.300821100000000000e+09
1.530000000000000000e+02,3.310000000000000000e+02,2.720000000000000000e+02,4.700000000000000000e+01,6.500000000000000000e+01,4.830000000000000000e+02,8.090000000000000000e+02,8.370000000000000000e+02,6.999999999999999556e-01,5.319471400000000000e+09
1.450000000000000000e+02,3.630000000000000000e+02,2.650000000000000000e+02,5.600000000000000000e+01,6.200000000000000000e+01,4.460000000000000000e+02,8.420000000000000000e+02,7.920000000000000000e+02,7.099999999999999645e-01,5.340886000000000000e+09
1.530000000000000000e+02,3.720000000000000000e+02,2.400000000000000000e+02,6.100000000000000000e+01,6.700000000000000000e+01,4.520000000000000000e+02,8.640000000000000000e+02,7.820000000000000000e+02,7.199999999999999734e-01,5.359864400000000000e+09
1.700000000000000000e+02,3.340000000000000000e+02,2.370000000000000000e+02,6.600000000000000000e+01,8.100000000000000000e+01,4.700000000000000000e+02,8.240000000000000000e+02,6.890000000000000000e+02,7.299999999999999822e-01,5.378991300000000000e+09
1.880000000000000000e+02,3.450000000000000000e+02,2.370000000000000000e+02,6.600000000000000000e+01,8.500000000000000000e+01,5.070000000000000000e+02,8.080000000000000000e+02,7.050000000000000000e+02,7.399999999999999911e-01,5.400228600000000000e+09
1.920000000000000000e+02,3.890000000000000000e+02,2.370000000000000000e+02,6.600000000000000000e+01,8.600000000000000000e+01,5.670000000000000000e+02,6.840000000000000000e+02,7.740000000000000000e+02,7.500000000000000000e-01,5.419250600000000000e+09
2.060000000000000000e+02,3.830000000000000000e+02,3.340000000000000000e+02,8.200000000000000000e+01,9.000000000000000000e+01,5.880000000000000000e+02,6.600000000000000000e+02,8.310000000000000000e+02,7.600000000000000089e-01,5.440554000000000000e+09
2.200000000000000000e+02,3.760000000000000000e+02,3.260000000000000000e+02,8.200000000000000000e+01,9.100000000000000000e+01,5.910000000000000000e+02,6.400000000000000000e+02,8.910000000000000000e+02,7.700000000000000178e-01,5.459793600000000000e+09
2.260000000000000000e+02,4.190000000000000000e+02,3.880000000000000000e+02,8.100000000000000000e+01,8.600000000000000000e+01,6.210000000000000000e+02,7.000000000000000000e+02,9.310000000000000000e+02,7.800000000000000266e-01,5.480874400000000000e+09
2.190000000000000000e+02,4.200000000000000000e+02,4.580000000000000000e+02,8.300000000000000000e+01,8.800000000000000000e+01,6.510000000000000000e+02,6.800000000000000000e+02,9.390000000000000000e+02,7.900000000000000355e-01,5.499782100000000000e+09
2.380000000000000000e+02,3.780000000000000000e+02,4.630000000000000000e+02,8.100000000000000000e+01,8.500000000000000000e+01,6.210000000000000000e+02,7.580000000000000000e+02,9.270000000000000000e+02,8.000000000000000444e-01,5.521009500000000000e+09
2.390000000000000000e+02,3.940000000000000000e+02,3.810000000000000000e+02,6.100000000000000000e+01,9.100000000000000000e+01,6.600000000000000000e+02,7.760000000000000000e+02,9.410000000000000000e+02,8.100000000000000533e-01,5.539818600000000000e+09
2.320000000000000000e+02,3.990000000000000000e+02,3.850000000000000000e+02,5.500000000000000000e+01,8.900000000000000000e+01,6.620000000000000000e+02,7.840000000000000000e+02,9.020000000000000000e+02,8.199999999999999512e-01,5.561084300000000000e+09
2.120000000000000000e+02,3.800000000000000000e+02,3.590000000000000000e+02,5.600000000000000000e+01,8.700000000000000000e+01,7.010000000000000000e+02,7.570000000000000000e+02,9.030000000000000000e+02,8.299999999999999600e-01,5.580699900000000000e+09
2.280000000000000000e+02,4.290000000000000000e+02,3.080000000000000000e+02,6.500000000000000000e+01,9.600000000000000000e+01,7.410000000000000000e+02,8.210000000000000000e+02,9.780000000000000000e+02,8.399999999999999689e-01,5.599424300000000000e+09
2.370000000000000000e+02,5.590000000000000000e+02,3.410000000000000000e+02,7.300000000000000000e+01,1.200000000000000000e+02,8.660000000000000000e+02,8.320000000000000000e+02,9.350000000000000000e+02,8.499999999999999778e-01,5.621337200000000000e+09
2.530000000000000000e+02,5.740000000000000000e+02,3.710000000000000000e+02,7.700000000000000000e+01,1.170000000000000000e+02,8.860000000000000000e+02,9.100000000000000000e+02,1.008000000000000000e+03,8.599999999999999867e-01,5.640281200000000000e+09
2.740000000000000000e+02,6.060000000000000000e+02,3.590000000000000000e+02,8.300000000000000000e+01,1.250000000000000000e+02,1.058000000000000000e+03,9.760000000000000000e+02,1.001000000000000000e+03,8.699999999999999956e-01,5.659943300000000000e+09
3.040000000000000000e+02,6.410000000000000000e+02,3.360000000000000000e+02,8.400000000000000000e+01,1.280000000000000000e+02,1.046000000000000000e+03,1.037000000000000000e+03,1.002000000000000000e+03,8.800000000000000044e-01,5.679005500000000000e+09
3.210000000000000000e+02,6.890000000000000000e+02,3.470000000000000000e+02,8.100000000000000000e+01,1.210000000000000000e+02,1.002000000000000000e+03,9.830000000000000000e+02,1.000000000000000000e+03,8.900000000000000133e-01,5.700418700000000000e+09
3.950000000000000000e+02,6.840000000000000000e+02,4.440000000000000000e+02,1.100000000000000000e+02,1.130000000000000000e+02,9.280000000000000000e+02,1.019000000000000000e+03,1.054000000000000000e+03,9.000000000000000222e-01,5.719210700000000000e+09
4.080000000000000000e+02,7.030000000000000000e+02,4.440000000000000000e+02,1.190000000000000000e+02,1.320000000000000000e+02,9.200000000000000000e+02,9.660000000000000000e+02,9.610000000000000000e+02,9.100000000000000311e-01,5.740722600000000000e+09
4.000000000000000000e+02,6.760000000000000000e+02,4.920000000000000000e+02,1.180000000000000000e+02,1.290000000000000000e+02,8.000000000000000000e+02,8.990000000000000000e+02,9.280000000000000000e+02,9.200000000000000400e-01,5.759679300000000000e+09
4.160000000000000000e+02,6.690000000000000000e+02,6.050000000000000000e+02,1.210000000000000000e+02,1.370000000000000000e+02,8.660000000000000000e+02,8.450000000000000000e+02,9.670000000000000000e+02,9.300000000000000488e-01,5.780769200000000000e+09
4.500000000000000000e+02,6.060000000000000000e+02,6.310000000000000000e+02,1.180000000000000000e+02,1.590000000000000000e+02,1.031000000000000000e+03,9.090000000000000000e+02,9.220000000000000000e+02,9.399999999999999467e-01,5.799660300000000000e+09
4.680000000000000000e+02,4.990000000000000000e+02,7.370000000000000000e+02,1.120000000000000000e+02,1.600000000000000000e+02,1.106000000000000000e+03,9.310000000000000000e+02,9.250000000000000000e+02,9.499999999999999556e-01,5.820735100000000000e+09
4.570000000000000000e+02,4.810000000000000000e+02,8.290000000000000000e+02,1.080000000000000000e+02,1.680000000000000000e+02,1.182000000000000000e+03,9.490000000000000000e+02,9.710000000000000000e+02,9.599999999999999645e-01,5.839133300000000000e+09
5.370000000000000000e+02,5.190000000000000000e+02,8.410000000000000000e+02,1.180000000000000000e+02,1.840000000000000000e+02,1.159000000000000000e+03,9.590000000000000000e+02,9.560000000000000000e+02,9.699999999999999734e-01,5.860599600000000000e+09
5.430000000000000000e+02,5.460000000000000000e+02,7.980000000000000000e+02,1.170000000000000000e+02,1.780000000000000000e+02,1.120000000000000000e+03,9.840000000000000000e+02,9.350000000000000000e+02,9.799999999999999822e-01,5.879490300000000000e+09
5.490000000000000000e+02,5.560000000000000000e+02,8.980000000000000000e+02,1.550000000000000000e+02,2.030000000000000000e+02,1.100000000000000000e+03,1.024000000000000000e+03,8.770000000000000000e+02,9.899999999999999911e-01,5.900679900000000000e+09
4.920000000000000000e+02,5.650000000000000000e+02,8.420000000000000000e+02,1.490000000000000000e+02,2.040000000000000000e+02,1.141000000000000000e+03,9.340000000000000000e+02,8.750000000000000000e+02,9.799999999999999822e-01,5.919156000000000000e+09
5.030000000000000000e+02,5.920000000000000000e+02,8.140000000000000000e+02,1.640000000000000000e+02,1.960000000000000000e+02,1.102000000000000000e+03,1.049000000000000000e+03,8.610000000000000000e+02,9.699999999999999734e-01,5.940461100000000000e+09
4.350000000000000000e+02,6.770000000000000000e+02,8.620000000000000000e+02,1.720000000000000000e+02,2.010000000000000000e+02,1.188000000000000000e+03,1.062000000000000000e+03,8.970000000000000000e+02,9.599999999999999645e-01,5.959008500000000000e+09
4.010000000000000000e+02,7.270000000000000000e+02,8.930000000000000000e+02,1.740000000000000000e+02,2.060000000000000000e+02,1.221000000000000000e+03,1.032000000000000000e+03,8.460000000000000000e+02,9.499999999999999556e-01,5.980353500000000000e+09
3.860000000000000000e+02,7.180000000000000000e+02,8.320000000000000000e+02,1.480000000000000000e+02,1.740000000000000000e+02,1.111000000000000000e+03,1.005000000000000000e+03,9.460000000000000000e+02,9.399999999999999467e-01,5.999615600000000000e+09
3.710000000000000000e+02,7.420000000000000000e+02,7.890000000000000000e+02,1.490000000000000000e+02,1.740000000000000000e+02,1.002000000000000000e+03,9.890000000000000000e+02,9.080000000000000000e+02,9.300000000000000488e-01,6.021364200000000000e+09
3.530000000000000000e+02,7.680000000000000000e+02,7.360000000000000000e+02,1.350000000000000000e+02,1.720000000000000000e+02,1.086000000000000000e+03,8.080000000000000000e+02,9.200000000000000000e+02,9.200000000000000400e-01,6.040395200000000000e+09
3.410000000000000000e+02,6.900000000000000000e+02,6.620000000000000000e+02,1.180000000000000000e+02,1.640000000000000000e+02,1.084000000000000000e+03,8.020000000000000000e+02,9.650000000000000000e+02,9.100000000000000311e-01,6.059065700000000000e+09
3.260000000000000000e+02,5.790000000000000000e+02,6.110000000000000000e+02,1.270000000000000000e+02,1.600000000000000000e+02,1.206000000000000000e+03,7.870000000000000000e+02,9.740000000000000000e+02,9.000000000000000222e-01,6.081430500000000000e+09
3.020000000000000000e+02,5.950000000000000000e+02,5.720000000000000000e+02,1.330000000000000000e+02,1.540000000000000000e+02,1.234000000000000000e+03,7.350000000000000000e+02,8.730000000000000000e+02,8.900000000000000133e-01,6.100287900000000000e+09
2.730000000000000000e+02,5.590000000000000000e+02,5.220000000000000000e+02,1.240000000000000000e+02,1.420000000000000000e+02,1.186000000000000000e+03,6.880000000000000000e+02,7.840000000000000000e+02,8.800000000000000044e-01,6.119337400000000000e+09
2.530000000000000000e+02,4.170000000000000000e+02,5.130000000000000000e+02,1.260000000000000000e+02,1.270000000000000000e+02,1.030000000000000000e+03,6.480000000000000000e+02,6.710000000000000000e+02,8.699999999999999956e-01,6.141272000000000000e+09
2.320000000000000000e+02,3.570000000000000000e+02,5.650000000000000000e+02,1.340000000000000000e+02,9.900000000000000000e+01,8.700000000000000000e+02,5.250000000000000000e+02,5.010000000000000000e+02,8.599999999999999867e-01,6.160233900000000000e+09
2.440000000000000000e+02,4.200000000000000000e+02,5.450000000000000000e+02,1.200000000000000000e+02,8.300000000000000000e+01,4.960000000000000000e+02,3.900000000000000000e+02,3.860000000000000000e+02,8.499999999999999778e-01,6.179279600000000000e+09
1.730000000000000000e+02,3.720000000000000000e+02,5.130000000000000000e+02,1.040000000000000000e+02,6.400000000000000000e+01,8.480000000000000000e+02,2.360000000000000000e+02,2.830000000000000000e+02,8.399999999999999689e-01,6.200477500000000000e+09
1.700000000000000000e+02,3.630000000000000000e+02,6.010000000000000000e+02,1.090000000000000000e+02,6.200000000000000000e+01,1.071000000000000000e+03,2.090000000000000000e+02,2.390000000000000000e+02,8.299999999999999600e-01,6.219669700000000000e+09
1.840000000000000000e+02,4.050000000000000000e+02,7.360000000000000000e+02,1.310000000000000000e+02,6.300000000000000000e+01,1.184000000000000000e+03,1.590000000000000000e+02,1.740000000000000000e+02,8.199999999999999512e-01,6.241144000000000000e+09
1.750000000000000000e+02,4.210000000000000000e+02,7.600000000000000000e+02,1.330000000000000000e+02,6.200000000000000000e+01,1.193000000000000000e+03,1.330000000000000000e+02,1.590000000000000000e+02,8.100000000000000533e-01,6.260567000000000000e+09
1.520000000000000000e+02,3.710000000000000000e+02,9.150000000000000000e+02,1.420000000000000000e+02,7.100000000000000000e+01,1.204000000000000000e+03,1.280000000000000000e+02,1.310000000000000000e+02,8.000000000000000444e-01,6.279366700000000000e+09
1.560000000000000000e+02,3.700000000000000000e+02,9.350000000000000000e+02,1.510000000000000000e+02,7.400000000000000000e+01,9.200000000000000000e+02,9.700000000000000000e+01,1.160000000000000000e+02,7.900000000000000355e-01,6.300737000000000000e+09
1.600000000000000000e+02,3.570000000000000000e+02,9.390000000000000000e+02,1.470000000000000000e+02,6.700000000000000000e+01,6.160000000000000000e+02,7.100000000000000000e+01,9.700000000000000000e+01,7.800000000000000266e-01,6.319423600000000000e+09
1.730000000000000000e+02,3.020000000000000000e+02,9.860000000000000000e+02,1.440000000000000000e+02,7.000000000000000000e+01,3.240000000000000000e+02,6.100000000000000000e+01,8.900000000000000000e+01,7.700000000000000178e-01,6.340581500000000000e+09
1.700000000000000000e+02,3.050000000000000000e+02,9.410000000000000000e+02,1.390000000000000000e+02,7.300000000000000000e+01,2.710000000000000000e+02,5.200000000000000000e+01,7.600000000000000000e+01,7.600000000000000089e-01,6.359707400000000000e+09
1.650000000000000000e+02,2.670000000000000000e+02,8.480000000000000000e+02,1.400000000000000000e+02,6.600000000000000000e+01,1.830000000000000000e+02,4.800000000000000000e+01,6.400000000000000000e+01,7.500000000000000000e-01,6.381221600000000000e+09
1.680000000000000000e+02,2.670000000000000000e+02,8.700000000000000000e+02,1.420000000000000000e+02,6.300000000000000000e+01,1.450000000000000000e+02,4.600000000000000000e+01,6.100000000000000000e+01,7.399999999999999911e-01,6.400219000000000000e+09
1.700000000000000000e+02,3.270000000000000000e+02,8.460000000000000000e+02,1.370000000000000000e+02,6.500000000000000000e+01,1.250000000000000000e+02,4.200000000000000000e+01,8.400000000000000000e+01,7.299999999999999822e-01,6.419161600000000000e+09
1.380000000000000000e+02,3.320000000000000000e+02,7.330000000000000000e+02,1.100000000000000000e+02,5.200000000000000000e+01,1.050000000000000000e+02,3.200000000000000000e+01,7.600000000000000000e+01,7.199999999999999734e-01,6.440956300000000000e+09
1.420000000000000000e+02,3.100000000000000000e+02,8.410000000000000000e+02,1.340000000000000000e+02,5.000000000000000000e+01,6.600000000000000000e+01,3.100000000000000000e+01,7.800000000000000000e+01,7.099999999999999645e-01,6.460088500000000000e+09
1.630000000000000000e+02,3.180000000000000000e+02,8.610000000000000000e+02,1.410000000000000000e+02,5.500000000000000000e+01,6.800000000000000000e+01,3.100000000000000000e+01,7.800000000000000000e+01,6.999999999999999556e-01,6.481381700000000000e+09
1.800000000000000000e+02,3.880000000000000000e+02,8.660000000000000000e+02,1.690000000000000000e+02,7.200000000000000000e+01,7.600000000000000000e+01,4.000000000000000000e+01,8.600000000000000000e+01,6.899999999999999467e-01,6.500342800000000000e+09
1.810000000000000000e+02,3.690000000000000000e+02,8.780000000000000000e+02,1.750000000000000000e+02,7.200000000000000000e+01,6.200000000000000000e+01,3.800000000000000000e+01,6.100000000000000000e+01,6.800000000000000488e-01,6.519096900000000000e+09
1.800000000000000000e+02,3.680000000000000000e+02,8.670000000000000000e+02,1.880000000000000000e+02,7.400000000000000000e+01,6.300000000000000000e+01,3.800000000000000000e+01,6.000000000000000000e+01,6.700000000000000400e-01,6.540744600000000000e+09
1.640000000000000000e+02,3.700000000000000000e+02,8.520000000000000000e+02,1.710000000000000000e+02,7.000000000000000000e+01,6.500000000000000000e+01,4.000000000000000000e+01,5.800000000000000000e+01,6.600000000000000311e-01,6.559154500000000000e+09
1.420000000000000000e+02,3.690000000000000000e+02,8.060000000000000000e+02,1.690000000000000000e+02,6.800000000000000000e+01,6.600000000000000000e+01,3.900000000000000000e+01,5.600000000000000000e+01,6.500000000000000222e-01,6.580731200000000000e+09
1.310000000000000000e+02,3.510000000000000000e+02,7.370000000000000000e+02,1.530000000000000000e+02,5.600000000000000000e+01,5.200000000000000000e+01,3.500000000000000000e+01,4.000000000000000000e+01,6.400000000000000133e-01,6.599535000000000000e+09
1.360000000000000000e+02,3.190000000000000000e+02,6.850000000000000000e+02,1.540000000000000000e+02,6.000000000000000000e+01,5.000000000000000000e+01,3.700000000000000000e+01,4.600000000000000000e+01,6.300000000000000044e-01,6.618881700000000000e+09
1.380000000000000000e+02,3.470000000000000000e+02,6.690000000000000000e+02,1.380000000000000000e+02,5.800000000000000000e+01,4.900000000000000000e+01,3.800000000000000000e+01,4.700000000000000000e+01,6.199999999999999956e-01,6.640390700000000000e+09
1.390000000000000000e+02,3.460000000000000000e+02,5.760000000000000000e+02,1.400000000000000000e+02,5.700000000000000000e+01,5.300000000000000000e+01,4.400000000000000000e+01,4.900000000000000000e+01,6.099999999999999867e-01,6.661257100000000000e+09
1.450000000000000000e+02,3.600000000000000000e+02,6.160000000000000000e+02,1.440000000000000000e+02,5.900000000000000000e+01,5.900000000000000000e+01,5.300000000000000000e+01,8.300000000000000000e+01,5.999999999999999778e-01,6.679511300000000000e+09
1.200000000000000000e+02,2.890000000000000000e+02,6.660000000000000000e+02,1.270000000000000000e+02,5.300000000000000000e+01,5.800000000000000000e+01,5.100000000000000000e+01,8.300000000000000000e+01,5.899999999999999689e-01,6.700984000000000000e+09
1.200000000000000000e+02,3.150000000000000000e+02,7.760000000000000000e+02,1.230000000000000000e+02,4.600000000000000000e+01,5.700000000000000000e+01,5.000000000000000000e+01,8.100000000000000000e+01,5.799999999999999600e-01,6.719989900000000000e+09
1.410000000000000000e+02,2.920000000000000000e+02,8.510000000000000000e+02,1.400000000000000000e+02,4.700000000000000000e+01,6.000000000000000000e+01,5.000000000000000000e+01,8.000000000000000000e+01,5.699999999999999512e-01,6.738955500000000000e+09
1.420000000000000000e+02,2.960000000000000000e+02,8.400000000000000000e+02,1.470000000000000000e+02,5.200000000000000000e+01,1.210000000000000000e+02,6.300000000000000000e+01,7.900000000000000000e+01,5.600000000000000533e-01,6.760578900000000000e+09
1.320000000000000000e+02,2.720000000000000000e+02,9.060000000000000000e+02,1.410000000000000000e+02,4.900000000000000000e+01,1.820000000000000000e+02,5.600000000000000000e+01,4.200000000000000000e+01,5.500000000000000444e-01,6.779289200000000000e+09
1.340000000000000000e+02,2.870000000000000000e+02,9.020000000000000000e+02,1.390000000000000000e+02,5.300000000000000000e+01,1.870000000000000000e+02,5.900000000000000000e+01,4.000000000000000000e+01,5.400000000000000355e-01,6.800788800000000000e+09
1.200000000000000000e+02,3.310000000000000000e+02,9.570000000000000000e+02,1.450000000000000000e+02,5.400000000000000000e+01,1.900000000000000000e+02,5.900000000000000000e+01,3.700000000000000000e+01,5.300000000000000266e-01,6.819487600000000000e+09
1.010000000000000000e+02,3.500000000000000000e+02,9.290000000000000000e+02,1.580000000000000000e+02,6.200000000000000000e+01,1.900000000000000000e+02,6.100000000000000000e+01,4.400000000000000000e+01,5.200000000000000178e-01,6.840697400000000000e+09
1.370000000000000000e+02,3.560000000000000000e+02,9.900000000000000000e+02,1.450000000000000000e+02,5.800000000000000000e+01,1.620000000000000000e+02,4.100000000000000000e+01,4.400000000000000000e+01,5.100000000000000089e-01,6.860023200000000000e+09
1.350000000000000000e+02,3.620000000000000000e+02,9.720000000000000000e+02,1.360000000000000000e+02,5.500000000000000000e+01,8.200000000000000000e+01,4.100000000000000000e+01,4.300000000000000000e+01,5.000000000000000000e-01,6.878982600000000000e+09
1.300000000000000000e+02,3.590000000000000000e+02,1.007000000000000000e+03,1.490000000000000000e+02,5.400000000000000000e+01,6.900000000000000000e+01,3.500000000000000000e+01,8.500000000000000000e+01,4.899999999999999911e-01,6.900672100000000000e+09
1.350000000000000000e+02,3.160000000000000000e+02,1.053000000000000000e+03,1.520000000000000000e+02,5.800000000000000000e+01,6.300000000000000000e+01,3.600000000000000000e+01,1.260000000000000000e+02,4.799999999999999822e-01,6.919686000000000000e+09
1.290000000000000000e+02,3.230000000000000000e+02,1.064000000000000000e+03,1.700000000000000000e+02,5.800000000000000000e+01,6.200000000000000000e+01,3.600000000000000000e+01,1.340000000000000000e+02,4.699999999999999734e-01,6.941205300000000000e+09
8.500000000000000000e+01,3.090000000000000000e+02,1.018000000000000000e+03,1.670000000000000000e+02,5.900000000000000000e+01,4.500000000000000000e+01,3.500000000000000000e+01,1.360000000000000000e+02,4.600000000000000200e-01,6.959924000000000000e+09
9.800000000000000000e+01,3.190000000000000000e+02,9.910000000000000000e+02,1.720000000000000000e+02,6.200000000000000000e+01,4.000000000000000000e+01,4.000000000000000000e+01,1.460000000000000000e+02,4.500000000000000111e-01,6.979254500000000000e+09
1.100000000000000000e+02,3.560000000000000000e+02,9.850000000000000000e+02,1.600000000000000000e+02,6.400000000000000000e+01,4.000000000000000000e+01,4.400000000000000000e+01,1.340000000000000000e+02,4.400000000000000022e-01,7.000760800000000000e+09
1.040000000000000000e+02,3.480000000000000000e+02,8.420000000000000000e+02,1.620000000000000000e+02,6.100000000000000000e+01,3.400000000000000000e+01,4.000000000000000000e+01,1.000000000000000000e+02,4.299999999999999933e-01,7.019918300000000000e+09
1.140000000000000000e+02,3.360000000000000000e+02,9.170000000000000000e+02,1.400000000000000000e+02,5.800000000000000000e+01,3.600000000000000000e+01,4.200000000000000000e+01,8.900000000000000000e+01,4.199999999999999845e-01,7.041215200000000000e+09
1.120000000000000000e+02,3.340000000000000000e+02,9.990000000000000000e+02,1.490000000000000000e+02,5.900000000000000000e+01,5.000000000000000000e+01,6.800000000000000000e+01,9.100000000000000000e+01,4.099999999999999756e-01,7.059436800000000000e+09
1.060000000000000000e+02,3.220000000000000000e+02,1.035000000000000000e+03,1.450000000000000000e+02,5.900000000000000000e+01,1.250000000000000000e+02,6.800000000000000000e+01,8.600000000000000000e+01,4.000000000000000222e-01,7.079401500000000000e+09
9.800000000000000000e+01,2.860000000000000000e+02,1.065000000000000000e+03,1.590000000000000000e+02,5.600000000000000000e+01,1.340000000000000000e+02,6.900000000000000000e+01,7.100000000000000000e+01,3.900000000000000133e-01,7.101000800000000000e+09
9.900000000000000000e+01,2.940000000000000000e+02,1.059000000000000000e+03,1.630000000000000000e+02,6.100000000000000000e+01,1.360000000000000000e+02,7.200000000000000000e+01,7.500000000000000000e+01,3.800000000000000044e-01,7.120066100000000000e+09
9.300000000000000000e+01,3.020000000000000000e+02,1.025000000000000000e+03,1.560000000000000000e+02,6.000000000000000000e+01,1.390000000000000000e+02,7.100000000000000000e+01,7.300000000000000000e+01,3.699999999999999956e-01,7.139149600000000000e+09
9.700000000000000000e+01,3.020000000000000000e+02,9.220000000000000000e+02,1.540000000000000000e+02,6.000000000000000000e+01,1.370000000000000000e+02,4.900000000000000000e+01,6.500000000000000000e+01,3.599999999999999867e-01,7.160697400000000000e+09
9.400000000000000000e+01,3.040000000000000000e+02,8.760000000000000000e+02,1.510000000000000000e+02,5.600000000000000000e+01,7.800000000000000000e+01,4.500000000000000000e+01,4.900000000000000000e+01,3.499999999999999778e-01,7.179446900000000000e+09
1.000000000000000000e+02,3.290000000000000000e+02,7.920000000000000000e+02,1.480000000000000000e+02,6.000000000000000000e+01,6.500000000000000000e+01,4.400000000000000000e+01,5.500000000000000000e+01,3.400000000000000244e-01,7.200703200000000000e+09
1.020000000000000000e+02,3.120000000000000000e+02,7.920000000000000000e+02,1.400000000000000000e+02,5.600000000000000000e+01,6.100000000000000000e+01,4.000000000000000000e+01,4.800000000000000000e+01,3.200000000000000067e-01,7.241435100000000000e+09
1.030000000000000000e+02,3.230000000000000000e+02,7.160000000000000000e+02,1.440000000000000000e+02,5.600000000000000000e+01,5.400000000000000000e+01,4.000000000000000000e+01,7.000000000000000000e+01,3.200000000000000067e-01,7.241446700000000000e+09
1.220000000000000000e+02,3.430000000000000000e+02,7.670000000000000000e+02,1.600000000000000000e+02,6.500000000000000000e+01,5.600000000000000000e+01,4.200000000000000000e+01,8.200000000000000000e+01,3.099999999999999978e-01,7.260217200000000000e+09
1.290000000000000000e+02,3.520000000000000000e+02,7.180000000000000000e+02,1.730000000000000000e+02,7.100000000000000000e+01,1.130000000000000000e+02,5.900000000000000000e+01,8.400000000000000000e+01,2.999999999999999889e-01,7.279685700000000000e+09
1.280000000000000000e+02,3.300000000000000000e+02,7.400000000000000000e+02,1.680000000000000000e+02,7.100000000000000000e+01,1.280000000000000000e+02,6.500000000000000000e+01,8.900000000000000000e+01,2.899999999999999800e-01,7.300575600000000000e+09
1.300000000000000000e+02,3.670000000000000000e+02,7.760000000000000000e+02,1.790000000000000000e+02,7.500000000000000000e+01,1.320000000000000000e+02,6.600000000000000000e+01,8.800000000000000000e+01,2.800000000000000266e-01,7.318884200000000000e+09
1.260000000000000000e+02,3.820000000000000000e+02,8.030000000000000000e+02,1.700000000000000000e+02,7.400000000000000000e+01,1.330000000000000000e+02,6.500000000000000000e+01,8.600000000000000000e+01,2.700000000000000178e-01,7.342946100000000000e+09
1.280000000000000000e+02,4.680000000000000000e+02,8.980000000000000000e+02,1.750000000000000000e+02,7.500000000000000000e+01,1.330000000000000000e+02,6.700000000000000000e+01,9.000000000000000000e+01,2.600000000000000089e-01,7.360181400000000000e+09
1.560000000000000000e+02,5.620000000000000000e+02,1.022000000000000000e+03,2.160000000000000000e+02,9.300000000000000000e+01,1.130000000000000000e+02,9.600000000000000000e+01,9.800000000000000000e+01,2.500000000000000000e-01,7.379394300000000000e+09
1.610000000000000000e+02,5.700000000000000000e+02,1.064000000000000000e+03,2.260000000000000000e+02,9.400000000000000000e+01,1.060000000000000000e+02,9.700000000000000000e+01,9.300000000000000000e+01,2.399999999999999911e-01,7.401539000000000000e+09
1.660000000000000000e+02,5.570000000000000000e+02,1.141000000000000000e+03,2.250000000000000000e+02,9.500000000000000000e+01,1.050000000000000000e+02,1.030000000000000000e+02,9.500000000000000000e+01,2.300000000000000100e-01,7.420479800000000000e+09
1.730000000000000000e+02,5.670000000000000000e+02,1.129000000000000000e+03,2.520000000000000000e+02,9.900000000000000000e+01,1.090000000000000000e+02,1.040000000000000000e+02,8.800000000000000000e+01,2.200000000000000011e-01,7.439517200000000000e+09
1.720000000000000000e+02,5.700000000000000000e+02,1.090000000000000000e+03,2.510000000000000000e+02,1.000000000000000000e+02,1.120000000000000000e+02,1.050000000000000000e+02,7.500000000000000000e+01,2.099999999999999922e-01,7.460835500000000000e+09
1.480000000000000000e+02,5.330000000000000000e+02,1.095000000000000000e+03,2.260000000000000000e+02,8.500000000000000000e+01,9.500000000000000000e+01,6.900000000000000000e+01,7.000000000000000000e+01,2.000000000000000111e-01,7.479857500000000000e+09
1.360000000000000000e+02,5.190000000000000000e+02,1.096000000000000000e+03,2.150000000000000000e+02,8.200000000000000000e+01,8.600000000000000000e+01,6.400000000000000000e+01,6.600000000000000000e+01,1.900000000000000022e-01,7.498974700000000000e+09
1.320000000000000000e+02,5.300000000000000000e+02,1.063000000000000000e+03,2.170000000000000000e+02,7.900000000000000000e+01,8.000000000000000000e+01,5.400000000000000000e+01,6.500000000000000000e+01,1.799999999999999933e-01,7.520300000000000000e+09
1.350000000000000000e+02,4.910000000000000000e+02,1.046000000000000000e+03,2.250000000000000000e+02,8.200000000000000000e+01,7.500000000000000000e+01,5.300000000000000000e+01,6.400000000000000000e+01,1.700000000000000122e-01,7.541390500000000000e+09
1.260000000000000000e+02,4.090000000000000000e+02,1.043000000000000000e+03,2.310000000000000000e+02,7.500000000000000000e+01,6.500000000000000000e+01,4.700000000000000000e+01,6.200000000000000000e+01,1.600000000000000033e-01,7.559738100000000000e+09
1.430000000000000000e+02,3.810000000000000000e+02,9.520000000000000000e+02,2.390000000000000000e+02,7.900000000000000000e+01,6.200000000000000000e+01,5.100000000000000000e+01,6.800000000000000000e+01,1.499999999999999944e-01,7.580994800000000000e+09
1.650000000000000000e+02,4.090000000000000000e+02,9.610000000000000000e+02,2.500000000000000000e+02,8.700000000000000000e+01,5.900000000000000000e+01,5.200000000000000000e+01,7.700000000000000000e+01,1.400000000000000133e-01,7.600038500000000000e+09
1.750000000000000000e+02,3.970000000000000000e+02,8.620000000000000000e+02,2.830000000000000000e+02,1.030000000000000000e+02,6.700000000000000000e+01,5.700000000000000000e+01,8.500000000000000000e+01,1.300000000000000044e-01,7.619226200000000000e+09
1.770000000000000000e+02,4.830000000000000000e+02,9.490000000000000000e+02,2.760000000000000000e+02,1.040000000000000000e+02,6.700000000000000000e+01,5.900000000000000000e+01,8.600000000000000000e+01,1.199999999999999956e-01,7.640258000000000000e+09
1.770000000000000000e+02,4.850000000000000000e+02,9.740000000000000000e+02,2.870000000000000000e+02,1.100000000000000000e+02,6.800000000000000000e+01,5.800000000000000000e+01,8.600000000000000000e+01,1.100000000000000006e-01,7.659379500000000000e+09
1.600000000000000000e+02,5.050000000000000000e+02,1.076000000000000000e+03,2.870000000000000000e+02,1.070000000000000000e+02,6.000000000000000000e+01,5.300000000000000000e+01,7.700000000000000000e+01,1.000000000000000056e-01,7.680970400000000000e+09
1.670000000000000000e+02,5.150000000000000000e+02,1.180000000000000000e+03,3.420000000000000000e+02,1.260000000000000000e+02,7.400000000000000000e+01,5.800000000000000000e+01,8.500000000000000000e+01,8.999999999999999667e-02,7.699942100000000000e+09
1.840000000000000000e+02,5.780000000000000000e+02,1.251000000000000000e+03,3.410000000000000000e+02,1.280000000000000000e+02,7.500000000000000000e+01,6.300000000000000000e+01,9.000000000000000000e+01,8.000000000000000167e-02,7.721278300000000000e+09
1.990000000000000000e+02,5.230000000000000000e+02,1.240000000000000000e+03,3.630000000000000000e+02,1.390000000000000000e+02,8.000000000000000000e+01,6.400000000000000000e+01,9.800000000000000000e+01,7.000000000000000666e-02,7.741022000000000000e+09
2.140000000000000000e+02,5.600000000000000000e+02,1.208000000000000000e+03,3.870000000000000000e+02,1.460000000000000000e+02,9.100000000000000000e+01,7.100000000000000000e+01,1.040000000000000000e+02,5.999999999999999778e-02,7.761306900000000000e+09
2.570000000000000000e+02,5.660000000000000000e+02,1.217000000000000000e+03,4.680000000000000000e+02,1.620000000000000000e+02,9.700000000000000000e+01,7.800000000000000000e+01,1.220000000000000000e+02,5.000000000000000278e-02,7.780277700000000000e+09
2.630000000000000000e+02,6.380000000000000000e+02,1.115000000000000000e+03,4.480000000000000000e+02,1.520000000000000000e+02,9.100000000000000000e+01,7.700000000000000000e+01,1.190000000000000000e+02,4.000000000000000083e-02,7.801836800000000000e+09
2.730000000000000000e+02,6.320000000000000000e+02,1.128000000000000000e+03,4.890000000000000000e+02,1.690000000000000000e+02,9.800000000000000000e+01,8.200000000000000000e+01,1.250000000000000000e+02,2.999999999999999889e-02,7.820363500000000000e+09
2.910000000000000000e+02,6.680000000000000000e+02,1.120000000000000000e+03,5.070000000000000000e+02,1.760000000000000000e+02,1.030000000000000000e+02,8.800000000000000000e+01,1.300000000000000000e+02,2.000000000000000042e-02,7.841151600000000000e+09
3.200000000000000000e+02,7.170000000000000000e+02,1.183000000000000000e+03,5.450000000000000000e+02,1.990000000000000000e+02,1.100000000000000000e+02,9.300000000000000000e+01,1.410000000000000000e+02,1.000000000000000021e-02,7.859765900000000000e+09
3.040000000000000000e+02,7.030000000000000000e+02,1.125000000000000000e+03,5.090000000000000000e+02,1.960000000000000000e+02,1.150000000000000000e+02,9.200000000000000000e+01,1.350000000000000000e+02,0.000000000000000000e+00,7.879173400000000000e+09
3.030000000000000000e+02,6.610000000000000000e+02,1.173000000000000000e+03,5.660000000000000000e+02,2.020000000000000000e+02,1.150000000000000000e+02,9.100000000000000000e+01,1.370000000000000000e+02,1.000000000000000021e-02,7.900459000000000000e+09
2.810000000000000000e+02,6.080000000000000000e+02,1.128000000000000000e+03,5.240000000000000000e+02,1.810000000000000000e+02,1.210000000000000000e+02,8.400000000000000000e+01,1.280000000000000000e+02,2.000000000000000042e-02,7.919124600000000000e+09
2.660000000000000000e+02,6.530000000000000000e+02,1.090000000000000000e+03,5.140000000000000000e+02,1.790000000000000000e+02,1.450000000000000000e+02,9.000000000000000000e+01,1.560000000000000000e+02,2.999999999999999889e-02,7.940939300000000000e+09
2.270000000000000000e+02,6.060000000000000000e+02,1.008000000000000000e+03,4.620000000000000000e+02,1.550000000000000000e+02,1.900000000000000000e+02,1.640000000000000000e+02,2.260000000000000000e+02,4.000000000000000083e-02,7.959831000000000000e+09
2.100000000000000000e+02,6.210000000000000000e+02,9.560000000000000000e+02,4.320000000000000000e+02,1.480000000000000000e+02,2.160000000000000000e+02,1.770000000000000000e+02,3.760000000000000000e+02,5.000000000000000278e-02,7.978897000000000000e+09
2.350000000000000000e+02,6.580000000000000000e+02,9.710000000000000000e+02,3.640000000000000000e+02,1.440000000000000000e+02,3.260000000000000000e+02,2.370000000000000000e+02,4.890000000000000000e+02,5.999999999999999778e-02,8.000925900000000000e+09
2.280000000000000000e+02,6.530000000000000000e+02,9.450000000000000000e+02,3.440000000000000000e+02,1.420000000000000000e+02,4.670000000000000000e+02,4.550000000000000000e+02,7.090000000000000000e+02,7.000000000000000666e-02,8.019694100000000000e+09
2.270000000000000000e+02,5.870000000000000000e+02,9.050000000000000000e+02,2.970000000000000000e+02,1.280000000000000000e+02,4.970000000000000000e+02,5.350000000000000000e+02,8.100000000000000000e+02,8.000000000000000167e-02,8.041276400000000000e+09
2.330000000000000000e+02,5.590000000000000000e+02,9.260000000000000000e+02,2.840000000000000000e+02,1.120000000000000000e+02,5.520000000000000000e+02,5.540000000000000000e+02,8.100000000000000000e+02,8.999999999999999667e-02,8.060223600000000000e+09
2.450000000000000000e+02,5.260000000000000000e+02,9.630000000000000000e+02,2.550000000000000000e+02,1.070000000000000000e+02,6.110000000000000000e+02,5.720000000000000000e+02,8.970000000000000000e+02,1.000000000000000056e-01,8.079764700000000000e+09
2.500000000000000000e+02,4.150000000000000000e+02,8.080000000000000000e+02,1.820000000000000000e+02,8.700000000000000000e+01,7.550000000000000000e+02,5.750000000000000000e+02,8.530000000000000000e+02,1.100000000000000006e-01,8.100684700000000000e+09
2.810000000000000000e+02,4.270000000000000000e+02,7.290000000000000000e+02,1.820000000000000000e+02,9.900000000000000000e+01,8.700000000000000000e+02,4.640000000000000000e+02,7.990000000000000000e+02,1.199999999999999956e-01,8.120223600000000000e+09
3.350000000000000000e+02,4.620000000000000000e+02,7.570000000000000000e+02,2.150000000000000000e+02,1.100000000000000000e+02,9.510000000000000000e+02,3.850000000000000000e+02,7.620000000000000000e+02,1.300000000000000044e-01,8.138925000000000000e+09
3.570000000000000000e+02,4.580000000000000000e+02,7.100000000000000000e+02,1.980000000000000000e+02,1.120000000000000000e+02,9.340000000000000000e+02,3.670000000000000000e+02,7.640000000000000000e+02,1.400000000000000133e-01,8.160933200000000000e+09
3.570000000000000000e+02,4.430000000000000000e+02,6.130000000000000000e+02,2.030000000000000000e+02,1.110000000000000000e+02,9.040000000000000000e+02,3.480000000000000000e+02,6.010000000000000000e+02,1.499999999999999944e-01,8.179861300000000000e+09
3.390000000000000000e+02,4.240000000000000000e+02,5.640000000000000000e+02,1.980000000000000000e+02,1.220000000000000000e+02,8.170000000000000000e+02,4.170000000000000000e+02,7.460000000000000000e+02,1.600000000000000033e-01,8.201219300000000000e+09
3.170000000000000000e+02,4.070000000000000000e+02,5.510000000000000000e+02,1.950000000000000000e+02,1.130000000000000000e+02,6.650000000000000000e+02,4.830000000000000000e+02,7.060000000000000000e+02,1.700000000000000122e-01,8.220131200000000000e+09
2.460000000000000000e+02,3.550000000000000000e+02,5.800000000000000000e+02,1.550000000000000000e+02,9.500000000000000000e+01,5.400000000000000000e+02,4.850000000000000000e+02,6.630000000000000000e+02,1.799999999999999933e-01,8.241233400000000000e+09
2.070000000000000000e+02,3.690000000000000000e+02,5.140000000000000000e+02,1.270000000000000000e+02,8.800000000000000000e+01,5.130000000000000000e+02,4.690000000000000000e+02,6.550000000000000000e+02,1.900000000000000022e-01,8.259619600000000000e+09
1.840000000000000000e+02,3.550000000000000000e+02,4.450000000000000000e+02,1.130000000000000000e+02,8.500000000000000000e+01,5.370000000000000000e+02,4.680000000000000000e+02,7.240000000000000000e+02,2.000000000000000111e-01,8.281306500000000000e+09
1.750000000000000000e+02,3.780000000000000000e+02,4.450000000000000000e+02,1.200000000000000000e+02,7.500000000000000000e+01,5.170000000000000000e+02,4.770000000000000000e+02,6.390000000000000000e+02,2.099999999999999922e-01,8.299912800000000000e+09
1.900000000000000000e+02,4.440000000000000000e+02,5.380000000000000000e+02,1.500000000000000000e+02,7.900000000000000000e+01,5.220000000000000000e+02,4.700000000000000000e+02,6.330000000000000000e+02,2.200000000000000011e-01,8.321052700000000000e+09
1.820000000000000000e+02,4.550000000000000000e+02,5.630000000000000000e+02,1.240000000000000000e+02,7.500000000000000000e+01,5.060000000000000000e+02,4.840000000000000000e+02,6.220000000000000000e+02,2.300000000000000100e-01,8.340225600000000000e+09
1.970000000000000000e+02,4.210000000000000000e+02,5.650000000000000000e+02,1.200000000000000000e+02,7.800000000000000000e+01,5.410000000000000000e+02,4.910000000000000000e+02,6.210000000000000000e+02,2.399999999999999911e-01,8.359414000000000000e+09
1.980000000000000000e+02,4.090000000000000000e+02,5.890000000000000000e+02,1.230000000000000000e+02,7.300000000000000000e+01,5.290000000000000000e+02,4.960000000000000000e+02,6.130000000000000000e+02,2.500000000000000000e-01,8.380160700000000000e+09
2.550000000000000000e+02,3.960000000000000000e+02,6.350000000000000000e+02,1.160000000000000000e+02,6.400000000000000000e+01,4.770000000000000000e+02,4.150000000000000000e+02,5.810000000000000000e+02,2.600000000000000089e-01,8.399135900000000000e+09
2.490000000000000000e+02,3.700000000000000000e+02,6.050000000000000000e+02,7.900000000000000000e+01,4.900000000000000000e+01,4.050000000000000000e+02,3.020000000000000000e+02,5.490000000000000000e+02,2.700000000000000178e-01,8.420563500000000000e+09
2.520000000000000000e+02,3.670000000000000000e+02,5.270000000000000000e+02,7.600000000000000000e+01,4.500000000000000000e+01,3.900000000000000000e+02,2.540000000000000000e+02,5.550000000000000000e+02,2.800000000000000266e-01,8.439716800000000000e+09
2.320000000000000000e+02,3.670000000000000000e+02,5.940000000000000000e+02,6.800000000000000000e+01,4.000000000000000000e+01,3.440000000000000000e+02,2.450000000000000000e+02,5.620000000000000000e+02,2.899999999999999800e-01,8.461324700000000000e+09
2.390000000000000000e+02,3.950000000000000000e+02,5.700000000000000000e+02,6.200000000000000000e+01,4.600000000000000000e+01,3.390000000000000000e+02,3.220000000000000000e+02,5.450000000000000000e+02,2.999999999999999889e-01,8.480466000000000000e+09
1.770000000000000000e+02,4.070000000000000000e+02,5.250000000000000000e+02,5.700000000000000000e+01,4.400000000000000000e+01,3.330000000000000000e+02,4.190000000000000000e+02,5.140000000000000000e+02,3.200000000000000067e-01,8.520744800000000000e+09
1.790000000000000000e+02,3.900000000000000000e+02,5.150000000000000000e+02,5.100000000000000000e+01,4.200000000000000000e+01,3.140000000000000000e+02,4.590000000000000000e+02,4.980000000000000000e+02,3.200000000000000067e-01,8.520759300000000000e+09
1.800000000000000000e+02,3.630000000000000000e+02,5.720000000000000000e+02,6.500000000000000000e+01,4.400000000000000000e+01,3.220000000000000000e+02,4.800000000000000000e+02,5.360000000000000000e+02,3.300000000000000155e-01,8.539256100000000000e+09
1.840000000000000000e+02,3.490000000000000000e+02,5.140000000000000000e+02,6.700000000000000000e+01,4.300000000000000000e+01,3.470000000000000000e+02,5.030000000000000000e+02,5.940000000000000000e+02,3.400000000000000244e-01,8.560637500000000000e+09
1.730000000000000000e+02,3.250000000000000000e+02,5.130000000000000000e+02,6.900000000000000000e+01,3.800000000000000000e+01,3.320000000000000000e+02,5.150000000000000000e+02,6.050000000000000000e+02,3.499999999999999778e-01,8.580052300000000000e+09
1.710000000000000000e+02,3.040000000000000000e+02,5.170000000000000000e+02,7.300000000000000000e+01,4.600000000000000000e+01,3.370000000000000000e+02,5.870000000000000000e+02,6.700000000000000000e+02,3.599999999999999867e-01,8.601184400000000000e+09
1.630000000000000000e+02,2.720000000000000000e+02,5.510000000000000000e+02,8.600000000000000000e+01,5.200000000000000000e+01,3.610000000000000000e+02,5.880000000000000000e+02,7.380000000000000000e+02,3.699999999999999956e-01,8.619452900000000000e+09
2.100000000000000000e+02,2.620000000000000000e+02,5.070000000000000000e+02,7.900000000000000000e+01,5.300000000000000000e+01,3.750000000000000000e+02,6.010000000000000000e+02,7.160000000000000000e+02,3.800000000000000044e-01,8.641179400000000000e+09
2.300000000000000000e+02,2.620000000000000000e+02,4.700000000000000000e+02,7.700000000000000000e+01,5.500000000000000000e+01,3.830000000000000000e+02,6.980000000000000000e+02,7.200000000000000000e+02,3.900000000000000133e-01,8.659651700000000000e+09
2.380000000000000000e+02,2.650000000000000000e+02,4.600000000000000000e+02,7.700000000000000000e+01,5.900000000000000000e+01,4.100000000000000000e+02,6.820000000000000000e+02,7.450000000000000000e+02,4.000000000000000222e-01,8.680904100000000000e+09
2.370000000000000000e+02,2.800000000000000000e+02,4.930000000000000000e+02,7.500000000000000000e+01,5.300000000000000000e+01,4.150000000000000000e+02,6.170000000000000000e+02,7.530000000000000000e+02,4.099999999999999756e-01,8.699547800000000000e+09
2.330000000000000000e+02,3.260000000000000000e+02,4.840000000000000000e+02,6.600000000000000000e+01,4.900000000000000000e+01,4.000000000000000000e+02,5.980000000000000000e+02,7.030000000000000000e+02,4.199999999999999845e-01,8.720790100000000000e+09
1.860000000000000000e+02,3.070000000000000000e+02,4.910000000000000000e+02,7.000000000000000000e+01,5.200000000000000000e+01,4.180000000000000000e+02,6.240000000000000000e+02,7.070000000000000000e+02,4.299999999999999933e-01,8.739676000000000000e+09
1.860000000000000000e+02,3.280000000000000000e+02,5.020000000000000000e+02,7.300000000000000000e+01,5.500000000000000000e+01,5.120000000000000000e+02,5.350000000000000000e+02,6.650000000000000000e+02,4.400000000000000022e-01,8.761478800000000000e+09
1.880000000000000000e+02,3.220000000000000000e+02,5.100000000000000000e+02,7.100000000000000000e+01,5.000000000000000000e+01,4.910000000000000000e+02,5.970000000000000000e+02,5.980000000000000000e+02,4.500000000000000111e-01,8.780051100000000000e+09
1.760000000000000000e+02,3.410000000000000000e+02,5.110000000000000000e+02,7.500000000000000000e+01,5.000000000000000000e+01,4.620000000000000000e+02,5.650000000000000000e+02,5.230000000000000000e+02,4.600000000000000200e-01,8.801093100000000000e+09
1.820000000000000000e+02,3.040000000000000000e+02,5.850000000000000000e+02,9.100000000000000000e+01,5.400000000000000000e+01,4.600000000000000000e+02,6.170000000000000000e+02,5.610000000000000000e+02,4.699999999999999734e-01,8.819397000000000000e+09
1.800000000000000000e+02,2.910000000000000000e+02,5.510000000000000000e+02,8.900000000000000000e+01,4.900000000000000000e+01,4.890000000000000000e+02,6.220000000000000000e+02,5.830000000000000000e+02,4.799999999999999822e-01,8.840643100000000000e+09
1.360000000000000000e+02,2.580000000000000000e+02,5.530000000000000000e+02,8.700000000000000000e+01,4.400000000000000000e+01,3.350000000000000000e+02,6.120000000000000000e+02,5.670000000000000000e+02,4.899999999999999911e-01,8.859593400000000000e+09
1.210000000000000000e+02,2.450000000000000000e+02,5.540000000000000000e+02,8.700000000000000000e+01,4.700000000000000000e+01,3.270000000000000000e+02,5.480000000000000000e+02,5.480000000000000000e+02,5.000000000000000000e-01,8.880821700000000000e+09
1.230000000000000000e+02,2.990000000000000000e+02,5.370000000000000000e+02,8.600000000000000000e+01,5.500000000000000000e+01,3.850000000000000000e+02,5.920000000000000000e+02,6.540000000000000000e+02,5.100000000000000089e-01,8.899232300000000000e+09
1.210000000000000000e+02,2.890000000000000000e+02,4.270000000000000000e+02,6.200000000000000000e+01,5.700000000000000000e+01,3.850000000000000000e+02,5.890000000000000000e+02,6.230000000000000000e+02,5.200000000000000178e-01,8.920494000000000000e+09
1.300000000000000000e+02,2.970000000000000000e+02,4.980000000000000000e+02,6.000000000000000000e+01,7.100000000000000000e+01,4.250000000000000000e+02,5.980000000000000000e+02,6.270000000000000000e+02,5.300000000000000266e-01,8.939108000000000000e+09
1.370000000000000000e+02,3.430000000000000000e+02,4.870000000000000000e+02,6.200000000000000000e+01,7.200000000000000000e+01,5.060000000000000000e+02,5.960000000000000000e+02,6.690000000000000000e+02,5.400000000000000355e-01,8.960554200000000000e+09
1.510000000000000000e+02,3.650000000000000000e+02,4.790000000000000000e+02,6.300000000000000000e+01,7.300000000000000000e+01,5.350000000000000000e+02,7.090000000000000000e+02,7.180000000000000000e+02,5.500000000000000444e-01,8.980039200000000000e+09
2.160000000000000000e+02,3.520000000000000000e+02,4.710000000000000000e+02,6.100000000000000000e+01,7.000000000000000000e+01,5.110000000000000000e+02,6.890000000000000000e+02,7.040000000000000000e+02,5.600000000000000533e-01,9.000364200000000000e+09
2.330000000000000000e+02,4.450000000000000000e+02,5.130000000000000000e+02,5.900000000000000000e+01,6.900000000000000000e+01,5.770000000000000000e+02,7.220000000000000000e+02,6.730000000000000000e+02,5.699999999999999512e-01,9.019285600000000000e+09
2.320000000000000000e+02,4.420000000000000000e+02,3.950000000000000000e+02,5.700000000000000000e+01,6.000000000000000000e+01,5.620000000000000000e+02,7.410000000000000000e+02,6.740000000000000000e+02,5.799999999999999600e-01,9.040101000000000000e+09
2.350000000000000000e+02,4.070000000000000000e+02,4.150000000000000000e+02,5.600000000000000000e+01,6.100000000000000000e+01,5.270000000000000000e+02,8.180000000000000000e+02,7.410000000000000000e+02,5.899999999999999689e-01,9.061257100000000000e+09
2.310000000000000000e+02,4.620000000000000000e+02,4.450000000000000000e+02,5.900000000000000000e+01,6.100000000000000000e+01,4.940000000000000000e+02,7.860000000000000000e+02,7.680000000000000000e+02,5.999999999999999778e-01,9.080646500000000000e+09
1.710000000000000000e+02,5.690000000000000000e+02,4.300000000000000000e+02,5.800000000000000000e+01,5.800000000000000000e+01,5.160000000000000000e+02,7.600000000000000000e+02,8.040000000000000000e+02,6.199999999999999956e-01,9.119054100000000000e+09
1.490000000000000000e+02,5.310000000000000000e+02,3.850000000000000000e+02,6.900000000000000000e+01,6.300000000000000000e+01,4.800000000000000000e+02,7.540000000000000000e+02,8.770000000000000000e+02,6.199999999999999956e-01,9.119066700000000000e+09
1.840000000000000000e+02,5.770000000000000000e+02,4.740000000000000000e+02,9.600000000000000000e+01,6.900000000000000000e+01,4.650000000000000000e+02,7.700000000000000000e+02,9.120000000000000000e+02,6.300000000000000044e-01,9.140228600000000000e+09
2.210000000000000000e+02,5.970000000000000000e+02,4.560000000000000000e+02,1.000000000000000000e+02,7.200000000000000000e+01,4.640000000000000000e+02,7.090000000000000000e+02,8.630000000000000000e+02,6.400000000000000133e-01,9.159073700000000000e+09
2.390000000000000000e+02,5.850000000000000000e+02,4.290000000000000000e+02,9.900000000000000000e+01,7.400000000000000000e+01,5.890000000000000000e+02,6.780000000000000000e+02,8.030000000000000000e+02,6.500000000000000222e-01,9.180657600000000000e+09
2.520000000000000000e+02,4.740000000000000000e+02,5.040000000000000000e+02,1.070000000000000000e+02,7.600000000000000000e+01,5.880000000000000000e+02,6.960000000000000000e+02,7.290000000000000000e+02,6.600000000000000311e-01,9.199643500000000000e+09
2.600000000000000000e+02,4.660000000000000000e+02,5.000000000000000000e+02,1.050000000000000000e+02,7.700000000000000000e+01,6.130000000000000000e+02,6.270000000000000000e+02,6.540000000000000000e+02,6.700000000000000400e-01,9.221098900000000000e+09
2.360000000000000000e+02,4.190000000000000000e+02,4.440000000000000000e+02,8.600000000000000000e+01,7.100000000000000000e+01,5.860000000000000000e+02,5.570000000000000000e+02,5.830000000000000000e+02,6.800000000000000488e-01,9.240291400000000000e+09
2.150000000000000000e+02,4.210000000000000000e+02,4.970000000000000000e+02,8.400000000000000000e+01,7.600000000000000000e+01,6.260000000000000000e+02,6.290000000000000000e+02,6.300000000000000000e+02,6.899999999999999467e-01,9.261342700000000000e+09
1.890000000000000000e+02,4.550000000000000000e+02,5.080000000000000000e+02,8.400000000000000000e+01,7.100000000000000000e+01,5.540000000000000000e+02,6.120000000000000000e+02,6.390000000000000000e+02,6.999999999999999556e-01,9.280087100000000000e+09
1.900000000000000000e+02,4.330000000000000000e+02,4.410000000000000000e+02,7.400000000000000000e+01,7.400000000000000000e+01,5.730000000000000000e+02,6.430000000000000000e+02,6.170000000000000000e+02,7.099999999999999645e-01,9.301269900000000000e+09
1.930000000000000000e+02,4.400000000000000000e+02,4.100000000000000000e+02,6.800000000000000000e+01,6.700000000000000000e+01,5.740000000000000000e+02,6.890000000000000000e+02,6.130000000000000000e+02,7.199999999999999734e-01,9.320040000000000000e+09
1.900000000000000000e+02,4.730000000000000000e+02,3.790000000000000000e+02,5.900000000000000000e+01,6.300000000000000000e+01,5.610000000000000000e+02,6.880000000000000000e+02,5.800000000000000000e+02,7.299999999999999822e-01,9.340955600000000000e+09
1.820000000000000000e+02,4.920000000000000000e+02,4.070000000000000000e+02,6.300000000000000000e+01,5.600000000000000000e+01,5.190000000000000000e+02,6.200000000000000000e+02,4.930000000000000000e+02,7.399999999999999911e-01,9.359544800000000000e+09
1.950000000000000000e+02,4.350000000000000000e+02,4.050000000000000000e+02,6.600000000000000000e+01,5.900000000000000000e+01,4.910000000000000000e+02,6.560000000000000000e+02,5.890000000000000000e+02,7.500000000000000000e-01,9.380885000000000000e+09
1.880000000000000000e+02,4.330000000000000000e+02,3.870000000000000000e+02,6.600000000000000000e+01,6.400000000000000000e+01,4.560000000000000000e+02,6.300000000000000000e+02,5.680000000000000000e+02,7.600000000000000089e-01,9.399504600000000000e+09
1.710000000000000000e+02,4.050000000000000000e+02,3.810000000000000000e+02,5.900000000000000000e+01,6.300000000000000000e+01,4.070000000000000000e+02,6.690000000000000000e+02,7.200000000000000000e+02,7.700000000000000178e-01,9.421236500000000000e+09
1.730000000000000000e+02,3.710000000000000000e+02,5.470000000000000000e+02,7.000000000000000000e+01,6.400000000000000000e+01,4.110000000000000000e+02,7.330000000000000000e+02,7.390000000000000000e+02,7.800000000000000266e-01,9.440016900000000000e+09
1.770000000000000000e+02,3.550000000000000000e+02,5.090000000000000000e+02,8.200000000000000000e+01,6.600000000000000000e+01,4.230000000000000000e+02,7.350000000000000000e+02,7.440000000000000000e+02,7.900000000000000355e-01,9.461074200000000000e+09
1.840000000000000000e+02,4.250000000000000000e+02,5.360000000000000000e+02,8.100000000000000000e+01,7.400000000000000000e+01,6.000000000000000000e+02,7.260000000000000000e+02,7.180000000000000000e+02,8.000000000000000444e-01,9.479630500000000000e+09
1.950000000000000000e+02,4.260000000000000000e+02,5.490000000000000000e+02,8.100000000000000000e+01,8.700000000000000000e+01,8.470000000000000000e+02,8.080000000000000000e+02,8.200000000000000000e+02,8.100000000000000533e-01,9.501054000000000000e+09
2.300000000000000000e+02,4.520000000000000000e+02,5.800000000000000000e+02,8.700000000000000000e+01,9.300000000000000000e+01,8.970000000000000000e+02,8.520000000000000000e+02,7.460000000000000000e+02,8.199999999999999512e-01,9.519917000000000000e+09
2.290000000000000000e+02,4.930000000000000000e+02,5.790000000000000000e+02,9.500000000000000000e+01,1.060000000000000000e+02,1.014000000000000000e+03,8.850000000000000000e+02,8.550000000000000000e+02,8.299999999999999600e-01,9.541506200000000000e+09
2.370000000000000000e+02,4.740000000000000000e+02,5.650000000000000000e+02,8.000000000000000000e+01,1.050000000000000000e+02,1.031000000000000000e+03,9.480000000000000000e+02,8.710000000000000000e+02,8.399999999999999689e-01,9.560122900000000000e+09
2.560000000000000000e+02,5.480000000000000000e+02,5.400000000000000000e+02,8.700000000000000000e+01,1.110000000000000000e+02,9.780000000000000000e+02,9.760000000000000000e+02,9.650000000000000000e+02,8.499999999999999778e-01,9.579011800000000000e+09
