0.20999999344348907,14.693656921386719,-14.483656883239746
0.2199999988079071,15.515033721923828,-15.29503345489502
0.23000000417232513,14.066692352294922,-13.836692810058594
0.23999999463558197,14.137706756591797,-13.897706985473633
0.25,14.79976749420166,-14.54976749420166
0.25999999046325684,15.914633750915527,-15.654633522033691
0.27000001072883606,9.98586654663086,-9.715866088867188
0.2800000011920929,10.740899085998535,-10.460899353027344
0.28999999165534973,12.53503131866455,-12.245031356811523
0.30000001192092896,8.776206016540527,-8.476205825805664
0.3100000023841858,2.8463990688323975,-2.5363991260528564
0.3199999928474426,8.095826148986816,-7.7758259773254395
0.33000001311302185,18.799598693847656,-18.4695987701416
0.3400000035762787,15.58344841003418,-15.243448257446289
0.3499999940395355,20.5462703704834,-20.196269989013672
0.36000001430511475,27.422780990600586,-27.062780380249023
0.3700000047683716,24.513826370239258,-24.14382553100586
0.3799999952316284,21.5335750579834,-21.153575897216797
0.4000000059604645,22.75720977783203,-22.357210159301758
0.4000000059604645,7.74330997467041,-7.3433098793029785
0.4099999964237213,-7.201103210449219,7.611103057861328
0.41999998688697815,-12.262882232666016,12.682882308959961
0.4300000071525574,-18.77788543701172,19.2078857421875
0.4399999976158142,-13.432060241699219,13.87205982208252
0.44999998807907104,-11.179141998291016,11.629141807556152
0.46000000834465027,-18.942996978759766,19.402996063232422
0.4699999988079071,-16.669544219970703,17.139543533325195
0.49000000953674316,-14.459110260009766,14.94911003112793
0.49000000953674316,-17.1016845703125,17.591684341430664
0.5,-16.39175033569336,16.89175033569336
0.5099999904632568,-8.258003234863281,8.768003463745117
0.5199999809265137,-16.193096160888672,16.713096618652344
0.5299999713897705,-11.406780242919922,11.936779975891113
0.5400000214576721,-18.24065399169922,18.780654907226562
0.550000011920929,-18.784351348876953,19.3343505859375
0.5600000023841858,-20.050003051757812,20.610002517700195
0.5699999928474426,-12.066238403320312,12.636238098144531
0.5799999833106995,-15.958377838134766,16.53837776184082
0.5899999737739563,-10.670162200927734,11.260162353515625
0.6000000238418579,-3.9315032958984375,4.531503200531006
0.6100000143051147,-1.5077705383300781,2.1177706718444824
0.6200000047683716,2.839099884033203,-2.219099998474121
0.6299999952316284,6.653419494628906,-6.023419380187988
0.6399999856948853,-0.8187675476074219,1.4587675333023071
0.6499999761581421,2.179290771484375,-1.529290795326233
0.6600000262260437,4.806640625,-4.146640777587891
0.6700000166893005,10.462879180908203,-9.792879104614258
0.6800000071525574,8.219001770019531,-7.539001941680908
0.6899999976158142,19.40106964111328,-18.711069107055664
0.699999988079071,10.088111877441406,-9.38811206817627
0.7099999785423279,10.852218627929688,-10.142218589782715
0.7200000286102295,5.04638671875,-4.326386451721191
0.7300000190734863,4.934501647949219,-4.204501628875732
0.75,2.2192153930664062,-1.4692153930664062
0.75,8.50665283203125,-7.75665283203125
0.7699999809265137,1.7164268493652344,-0.9464268684387207
0.7699999809265137,2.047882080078125,-1.2778820991516113
0.7799999713897705,-4.706790924072266,5.486790657043457
0.7900000214576721,-8.1627197265625,8.952719688415527
0.800000011920929,-19.196853637695312,19.99685287475586
0.8100000023841858,-15.597091674804688,16.40709114074707
0.8199999928474426,-20.39849853515625,21.21849822998047
0.8299999833106995,-11.227821350097656,12.057821273803711
0.8399999737739563,-8.698673248291016,9.538673400878906
0.8600000143051147,-0.13153457641601562,0.9915345907211304
0.8600000143051147,5.387531280517578,-4.527531147003174
0.8700000047683716,16.901885986328125,-16.031885147094727
0.8899999856948853,6.7118988037109375,-5.821898937225342
0.8899999856948853,3.0439414978027344,-2.1539416313171387
0.8999999761581421,4.877712249755859,-3.9777121543884277
0.9100000262260437,7.364753723144531,-6.454753875732422
0.9200000166893005,-10.988029479980469,11.908029556274414
0.9300000071525574,-2.777576446533203,3.7075765132904053
0.9399999976158142,4.400676727294922,-3.460676670074463
0.949999988079071,4.685768127441406,-3.7357680797576904
0.9599999785423279,1.688140869140625,-0.7281408905982971
0.9700000286102295,11.057823181152344,-10.087822914123535
0.9800000190734863,7.832309722900391,-6.852309703826904
0.9800000190734863,22.37442398071289,-21.394424438476562
0.9800000190734863,18.17029571533203,-17.190296173095703
0.9700000286102295,14.555988311767578,-13.58598804473877
0.9599999785423279,16.22332763671875,-15.263327598571777
0.9399999976158142,19.532455444335938,-18.59245491027832
0.9399999976158142,-0.2807769775390625,1.2207770347595215
0.9300000071525574,-11.941696166992188,12.871696472167969
0.9200000166893005,-15.000675201416016,15.920675277709961
0.9100000262260437,-20.43984603881836,21.34984588623047
0.8999999761581421,-23.375886917114258,24.27588653564453
0.8899999856948853,-14.510452270507812,15.400452613830566
0.8799999952316284,9.239830017089844,-8.359829902648926
0.8700000047683716,-8.250049591064453,9.120049476623535
0.8600000143051147,-7.557975769042969,8.417975425720215
0.8500000238418579,-6.387092590332031,7.2370924949646
0.8399999737739563,-14.186847686767578,15.026847839355469
0.8299999833106995,-26.553213119506836,27.38321304321289
0.8199999928474426,-4.110382080078125,4.930382251739502
0.8100000023841858,13.609344482421875,-12.799344062805176
0.800000011920929,21.239849090576172,-20.439849853515625
0.7900000214576721,21.435413360595703,-20.64541244506836
0.7799999713897705,22.77196502685547,-21.99196434020996
0.7699999809265137,24.448318481445312,-23.67831802368164
0.7599999904632568,0.2783985137939453,0.4816014766693115
0.75,-12.646316528320312,13.396316528320312
0.7400000095367432,-12.381271362304688,13.121271133422852
0.7300000190734863,-26.42776870727539,27.15776824951172
0.7200000286102295,-39.63640594482422,40.356407165527344
0.7099999785423279,-33.96961975097656,34.67961883544922
0.699999988079071,-23.85326385498047,24.553264617919922
0.6899999976158142,-32.44416046142578,33.134159088134766
0.6800000071525574,-22.620098114013672,23.300098419189453
0.6700000166893005,-22.19121742248535,22.861217498779297
0.6600000262260437,-20.70210075378418,21.36210060119629
0.6499999761581421,-21.955867767333984,22.605867385864258
0.6399999856948853,-13.912237167358398,14.552237510681152
0.6299999952316284,-8.988393783569336,9.618393898010254
0.6200000047683716,-18.809425354003906,19.429426193237305
0.6100000143051147,-19.366107940673828,19.97610855102539
0.6000000238418579,-15.950752258300781,16.550752639770508
0.5899999737739563,-15.370803833007812,15.960803985595703
0.5799999833106995,-23.242023468017578,23.822023391723633
0.5699999928474426,-9.34862995147705,9.91862964630127
0.5600000023841858,-8.446817398071289,9.006817817687988
0.550000011920929,-10.474146842956543,11.024147033691406
0.5400000214576721,-15.112494468688965,15.652494430541992
0.5299999713897705,-8.8419189453125,9.371918678283691
0.5199999809265137,-11.762578964233398,12.28257942199707
0.5099999904632568,-9.708195686340332,10.218195915222168
0.5,-20.217313766479492,20.717313766479492
0.49000000953674316,-14.508384704589844,14.998384475708008
0.47999998927116394,-17.915285110473633,18.39528465270996
0.4699999988079071,-20.50375747680664,20.973756790161133
0.46000000834465027,-23.73798370361328,24.197982788085938
0.44999998807907104,-13.781856536865234,14.231856346130371
0.4399999976158142,-17.849271774291992,18.28927230834961
0.4300000071525574,-19.705486297607422,20.135486602783203
0.41999998688697815,-20.052349090576172,20.472349166870117
0.4099999964237213,-16.998252868652344,17.408252716064453
0.4000000059604645,-10.091443061828613,10.491442680358887
0.38999998569488525,-9.487939834594727,9.87794017791748
0.3700000047683716,-3.3172216415405273,3.6872215270996094
0.3700000047683716,-5.112231254577637,5.482231140136719
0.3499999940395355,-5.4931640625,5.843163967132568
0.3499999940395355,-9.58396053314209,9.933960914611816
0.3400000035762787,-4.650739669799805,4.990739822387695
0.33000001311302185,-5.821429252624512,6.151429176330566
0.3199999928474426,2.4713268280029297,-2.151326894760132
0.3100000023841858,9.764986038208008,-9.454985618591309
0.28999999165534973,17.745521545410156,-17.455520629882812
0.28999999165534973,21.200881958007812,-20.91088104248047
0.2800000011920929,26.117218017578125,-25.837217330932617
0.25999999046325684,25.115642547607422,-24.855642318725586
0.25999999046325684,17.77898406982422,-17.518983840942383
0.25,2.565460681915283,-2.315460681915283
0.23000000417232513,3.3041820526123047,-3.0741820335388184
0.23000000417232513,4.346166610717773,-4.116166591644287
0.2199999988079071,4.304110527038574,-4.084110736846924
0.20999999344348907,-4.749351501464844,4.959351539611816
0.20000000298023224,-1.343623161315918,1.5436232089996338
0.1899999976158142,-21.391977310180664,21.58197784423828
0.17000000178813934,-22.224822998046875,22.39482307434082
0.17000000178813934,-30.335620880126953,30.5056209564209
0.1599999964237213,-15.624224662780762,15.784224510192871
0.14000000059604645,-7.096240997314453,7.236240863800049
0.14000000059604645,4.776021957397461,-4.636022090911865
0.12999999523162842,-2.511916160583496,2.641916275024414
0.11999999731779099,-7.144441604614258,7.26444149017334
0.10000000149011612,-10.044681549072266,10.144681930541992
0.10000000149011612,-8.117419242858887,8.217419624328613
0.07999999821186066,-11.892985343933105,11.97298526763916
0.07999999821186066,-6.587703704833984,6.667703628540039
0.07000000029802322,-0.5748090744018555,0.6448090672492981
0.05000000074505806,-4.048436164855957,4.09843635559082
0.05000000074505806,8.588521957397461,-8.538521766662598
0.03999999910593033,21.474224090576172,-21.434223175048828
0.029999999329447746,26.274337768554688,-26.24433708190918
0.019999999552965164,31.124156951904297,-31.104156494140625
0.009999999776482582,22.736358642578125,-22.72635841369629
0.009999999776482582,8.337512016296387,-8.32751178741455
0.009999999776482582,3.5603904724121094,-3.5503904819488525
0.019999999552965164,-2.9996585845947266,3.0196585655212402
0.03999999910593033,-16.52724266052246,16.567243576049805
0.03999999910593033,-23.91025161743164,23.950252532958984
0.05000000074505806,-26.27680778503418,26.326807022094727
0.07000000029802322,-28.70965576171875,28.77965545654297
0.07000000029802322,-34.41581726074219,34.485816955566406
0.07999999821186066,-29.916542053222656,29.99654197692871
0.09000000357627869,-22.530776977539062,22.620777130126953
0.10000000149011612,-18.867382049560547,18.967382431030273
0.10999999940395355,-22.188690185546875,22.298690795898438
0.12999999523162842,-23.728599548339844,23.858598709106445
0.15000000596046448,-21.974430084228516,22.12442970275879
0.15000000596046448,-28.261035919189453,28.411035537719727
0.15000000596046448,-40.38200378417969,40.532005310058594
0.17000000178813934,-37.039764404296875,37.20976257324219
0.18000000715255737,-34.080078125,34.26007843017578
0.1899999976158142,-31.155973434448242,31.34597396850586
0.20000000298023224,-21.84189224243164,22.041893005371094
0.20000000298023224,-17.419910430908203,17.619911193847656
0.20999999344348907,-25.517574310302734,25.72757339477539
0.23000000417232513,-19.617488861083984,19.847488403320312
0.23000000417232513,-16.560691833496094,16.790691375732422
0.23999999463558197,-17.203807830810547,17.44380760192871
0.25999999046325684,-18.442707061767578,18.702707290649414
0.25999999046325684,-16.52115249633789,16.781152725219727
0.2800000011920929,-21.323823928833008,21.603824615478516
0.28999999165534973,-20.101245880126953,20.391246795654297
0.30000001192092896,-22.50117301940918,22.801172256469727
0.3100000023841858,-20.386531829833984,20.696531295776367
0.3199999928474426,-20.45316505432129,20.773164749145508
0.33000001311302185,-5.728572845458984,6.058572769165039
0.3400000035762787,-10.685997009277344,11.025997161865234
0.3499999940395355,-15.643770217895508,15.993770599365234
0.36000001430511475,-13.610225677490234,13.97022533416748
0.3700000047683716,-14.621007919311523,14.991007804870605
0.3799999952316284,-21.56166648864746,21.941665649414062
0.3799999952316284,-22.36255645751953,22.742555618286133
0.38999998569488525,-12.70858383178711,13.098584175109863
0.4099999964237213,-10.516773223876953,10.926773071289062
0.4099999964237213,-6.0419769287109375,6.451976776123047
0.41999998688697815,-9.667728424072266,10.087728500366211
0.4399999976158142,-5.615032196044922,6.055032253265381
0.4399999976158142,-15.120927810668945,15.560927391052246
0.44999998807907104,-23.421215057373047,23.8712158203125
0.4699999988079071,-18.329126358032227,18.79912567138672
0.4699999988079071,-4.0837249755859375,4.553724765777588
0.49000000953674316,0.8379974365234375,-0.34799742698669434
0.49000000953674316,6.392906188964844,-5.90290641784668
0.5,11.968120574951172,-11.468120574951172
0.5099999904632568,8.633537292480469,-8.123537063598633
0.5299999713897705,1.5600547790527344,-1.0300548076629639
0.5299999713897705,-0.49072265625,1.0207226276397705
0.5400000214576721,3.5408859252929688,-3.0008859634399414
0.5600000023841858,5.632953643798828,-5.072953701019287
0.5600000023841858,6.024723052978516,-5.464723110198975
0.5699999928474426,3.7041282653808594,-3.1341283321380615
0.5899999737739563,-4.551902770996094,5.141902923583984
0.6000000238418579,2.9692230224609375,-2.369223117828369
0.6100000143051147,13.866233825683594,-13.256234169006348
0.6200000047683716,15.778968811035156,-15.158968925476074
0.6299999952316284,13.805305480957031,-13.175305366516113
0.6399999856948853,19.08049774169922,-18.44049835205078
0.6499999761581421,11.8055419921875,-11.155542373657227
0.6600000262260437,3.8587112426757812,-3.1987111568450928
0.6600000262260437,8.144599914550781,-7.484600067138672
0.6800000071525574,8.583686828613281,-7.903687000274658
0.6899999976158142,8.330467224121094,-7.640467166900635
0.699999988079071,9.027885437011719,-8.327885627746582
0.7099999785423279,-0.1771697998046875,0.8871697783470154
0.7200000286102295,-1.3142318725585938,2.0342319011688232
0.7300000190734863,14.38446044921875,-13.654460906982422
0.7400000095367432,15.496829986572266,-14.756830215454102
0.75,16.223346710205078,-15.473346710205078
0.75,20.42596435546875,-19.67596435546875
0.7699999809265137,20.34750747680664,-19.57750701904297
0.7799999713897705,12.281143188476562,-11.501143455505371
0.7799999713897705,21.22391128540039,-20.443910598754883
0.800000011920929,16.002906799316406,-15.202906608581543
0.8100000023841858,13.7828369140625,-12.9728364944458
0.8100000023841858,10.418716430664062,-9.608716011047363
0.8299999833106995,9.225513458251953,-8.395513534545898
0.8399999737739563,-8.816848754882812,9.656848907470703
0.8500000238418579,-4.665180206298828,5.5151801109313965
0.8600000143051147,1.9194602966308594,-1.0594602823257446
0.8700000047683716,0.18174362182617188,0.6882563829421997
0.8700000047683716,1.5534439086914062,-0.6834439039230347
0.8899999856948853,8.038639068603516,-7.14863920211792
0.8999999761581421,4.951709747314453,-4.0517096519470215
0.8999999761581421,1.0338020324707031,-0.13380205631256104
0.9200000166893005,-2.25018310546875,3.1701831817626953
0.9300000071525574,-8.113971710205078,9.04397201538086
0.9300000071525574,-11.814842224121094,12.744842529296875
0.949999988079071,-4.363883972167969,5.3138837814331055
0.9599999785423279,-5.692176818847656,6.652176856994629
0.9599999785423279,5.78814697265625,-4.828146934509277
0.9800000190734863,4.583217620849609,-3.603217601776123
0.9900000095367432,5.9329986572265625,-4.942998886108398
0.9900000095367432,4.266277313232422,-3.2762773036956787
0.9700000286102295,20.054767608642578,-19.084768295288086
0.9599999785423279,19.370330810546875,-18.41033172607422
0.949999988079071,27.608802795410156,-26.658802032470703
0.9399999976158142,26.31125259399414,-25.371252059936523
0.9300000071525574,24.481842041015625,-23.551841735839844
0.9200000166893005,24.225971221923828,-23.305971145629883
0.9100000262260437,22.573535919189453,-21.663536071777344
0.8999999761581421,27.684932708740234,-26.78493309020996
0.8899999856948853,29.413494110107422,-28.523494720458984
0.8799999952316284,27.715885162353516,-26.835886001586914
0.8700000047683716,2.8148460388183594,-1.9448460340499878
0.8600000143051147,-0.3040122985839844,1.1640123128890991
0.8500000238418579,-12.272710800170898,13.122711181640625
0.8399999737739563,-12.072219848632812,12.912220001220703
0.8299999833106995,-13.602474212646484,14.432474136352539
0.8199999928474426,-7.980348587036133,8.800348281860352
0.8100000023841858,-2.5801315307617188,3.3901314735412598
0.800000011920929,-6.551506042480469,7.351506233215332
0.7900000214576721,-5.793256759643555,6.583256721496582
0.7799999713897705,1.8308963775634766,-1.050896406173706
0.7699999809265137,4.967741012573242,-4.1977410316467285
0.7599999904632568,10.112052917480469,-9.352052688598633
0.75,9.301681518554688,-8.551681518554688
0.7400000095367432,10.88558578491211,-10.145586013793945
0.7300000190734863,7.617042541503906,-6.88704252243042
0.7200000286102295,7.061702728271484,-6.341702461242676
0.7099999785423279,2.153228759765625,-1.4432287216186523
0.699999988079071,6.573163986206055,-5.873164176940918
0.6899999976158142,12.836404800415039,-12.146405220031738
0.6800000071525574,14.873409271240234,-14.193408966064453
0.6700000166893005,17.19491958618164,-16.524919509887695
0.6600000262260437,16.651123046875,-15.99112319946289
0.6499999761581421,19.206270217895508,-18.556270599365234
0.6399999856948853,13.300664901733398,-12.660664558410645
0.6299999952316284,15.199909210205078,-14.56990909576416
0.6200000047683716,17.471179962158203,-16.851179122924805
0.6100000143051147,13.90545654296875,-13.295456886291504
0.6000000238418579,11.972288131713867,-11.37228775024414
0.5899999737739563,10.675227165222168,-10.085227012634277
0.5799999833106995,9.677581787109375,-9.09758186340332
0.5699999928474426,4.023290634155273,-3.4532907009124756
0.5600000023841858,-0.29138755798339844,0.8513875603675842
0.550000011920929,-0.2159891128540039,0.7659891247749329
0.5400000214576721,7.542087554931641,-7.002087593078613
0.5299999713897705,8.46139907836914,-7.931399345397949
0.5199999809265137,13.45736312866211,-12.937362670898438
0.5099999904632568,17.504623413085938,-16.9946231842041
0.5,27.62380599975586,-27.12380599975586
0.5,21.542251586914062,-21.042251586914062
0.47999998927116394,13.082704544067383,-12.602705001831055
0.4699999988079071,11.175073623657227,-10.705073356628418
0.46000000834465027,11.609565734863281,-11.149565696716309
0.44999998807907104,-2.5669126510620117,3.0169126987457275
0.4399999976158142,-7.782676696777344,8.222676277160645
0.4300000071525574,-0.7691011428833008,1.199101209640503
0.41999998688697815,-7.519061088562012,7.939061164855957
0.4099999964237213,-10.372908592224121,10.78290843963623
0.4000000059604645,-11.19057559967041,11.590575218200684
0.38999998569488525,-13.742873191833496,14.13287353515625
0.3799999952316284,-16.952957153320312,17.332956314086914
0.3700000047683716,-14.100680351257324,14.470680236816406
0.36000001430511475,-11.850643157958984,12.21064281463623
0.3499999940395355,-10.730395317077637,11.080395698547363
0.3400000035762787,-5.688146591186523,6.028146743774414
0.33000001311302185,-0.7835102081298828,1.113510251045227
0.3199999928474426,-2.2501792907714844,2.5701792240142822
0.3100000023841858,-4.442673683166504,4.752673625946045
0.30000001192092896,1.1566591262817383,-0.8566591143608093
0.28999999165534973,3.1615657806396484,-2.871565818786621
0.2800000011920929,4.450661659240723,-4.170661449432373
0.25999999046325684,4.050570487976074,-3.7905704975128174
0.25999999046325684,2.3883533477783203,-2.1283533573150635
0.25,-8.642300605773926,8.892300605773926
0.23999999463558197,-11.061687469482422,11.301687240600586
0.23000000417232513,-16.070533752441406,16.300533294677734
0.2199999988079071,-12.496973037719727,12.716973304748535
0.20999999344348907,-11.174701690673828,11.3847017288208
0.20000000298023224,-13.647744178771973,13.84774398803711
0.1899999976158142,-4.243025779724121,4.43302583694458
0.18000000715255737,-11.967555046081543,12.147555351257324
0.17000000178813934,-5.654329776763916,5.824329853057861
0.1599999964237213,7.753316879272461,-7.593317031860352
0.15000000596046448,11.310018539428711,-11.160018920898438
0.12999999523162842,6.457099914550781,-6.327099800109863
0.12999999523162842,6.356855392456055,-6.226855278015137
0.11999999731779099,-0.8857238292694092,1.0057238340377808
0.10999999940395355,-9.312655448913574,9.42265510559082
0.10000000149011612,-14.619112968444824,14.71911334991455
0.09000000357627869,-23.904150009155273,23.994150161743164
0.07999999821186066,-35.61101150512695,35.69101333618164
0.07000000029802322,-23.485376358032227,23.555376052856445
0.05999999865889549,-22.965587615966797,23.02558708190918
0.05000000074505806,-17.30454444885254,17.354543685913086
0.019999999552965164,-11.107580184936523,11.127580642700195
0.019999999552965164,15.450828552246094,-15.430828094482422
0.019999999552965164,0.21603012084960938,-0.1960301250219345
0.019999999552965164,-4.8177337646484375,4.837733745574951
0.019999999552965164,-6.690446853637695,6.710446834564209
0.019999999552965164,-4.532505989074707,4.552505970001221
0.029999999329447746,-21.418291091918945,21.448291778564453
0.029999999329447746,-31.10234832763672,31.132349014282227
0.03999999910593033,-36.2100715637207,36.25007247924805
0.05000000074505806,-38.73548126220703,38.78548049926758
0.05999999865889549,-38.341758728027344,38.40176010131836
0.07000000029802322,-25.8157958984375,25.88579559326172
0.07999999821186066,-18.572397232055664,18.65239715576172
0.10000000149011612,-18.331298828125,18.431299209594727
0.10000000149011612,-18.275985717773438,18.375986099243164
0.10999999940395355,-23.306909561157227,23.41691017150879
0.14000000059604645,-23.31812858581543,23.458127975463867
0.14000000059604645,-19.32931900024414,19.469318389892578
0.14000000059604645,-7.443393707275391,7.583393573760986
0.15000000596046448,-6.006290435791016,6.156290531158447
0.1599999964237213,-2.9028091430664062,3.0628092288970947
0.17000000178813934,-3.2582626342773438,3.428262710571289
0.18000000715255737,-3.2243118286132812,3.4043118953704834
0.1899999976158142,-14.203733444213867,14.393733024597168
0.20000000298023224,-20.365625381469727,20.56562614440918
0.20999999344348907,-19.20895767211914,19.418956756591797
0.2199999988079071,-20.22317886352539,20.443178176879883
0.23000000417232513,-21.158729553222656,21.388729095458984
0.25,-26.637889862060547,26.887889862060547
0.25,-28.37356185913086,28.62356185913086
0.27000001072883606,-25.480865478515625,25.750865936279297
0.27000001072883606,-19.183582305908203,19.453582763671875
0.2800000011920929,-21.06660270690918,21.346603393554688
0.28999999165534973,-14.263145446777344,14.553145408630371
0.30000001192092896,-9.839860916137695,10.139861106872559
0.3100000023841858,-2.478252410888672,2.788252353668213
0.3199999928474426,-2.923147201538086,3.243147134780884
0.33000001311302185,0.8028068542480469,-0.472806841135025
0.3400000035762787,1.5403861999511719,-1.2003861665725708
0.3499999940395355,3.9118690490722656,-3.5618691444396973
0.36000001430511475,9.051395416259766,-8.69139575958252
0.3700000047683716,8.818401336669922,-8.44840145111084
0.3799999952316284,4.282978057861328,-3.90297794342041
0.4000000059604645,7.767429351806641,-7.367429256439209
0.4000000059604645,6.581790924072266,-6.181790828704834
0.4099999964237213,0.20288848876953125,0.20711150765419006
0.4300000071525574,7.8782196044921875,-7.4482197761535645
0.4300000071525574,10.027633666992188,-9.597633361816406
0.4399999976158142,9.228996276855469,-8.788996696472168
0.44999998807907104,12.913188934326172,-12.463189125061035
0.46000000834465027,4.704654693603516,-4.244654655456543
0.4699999988079071,-0.4369163513183594,0.9069163799285889
0.47999998927116394,0.8572769165039062,-0.3772769272327423
0.49000000953674316,4.698932647705078,-4.208932876586914
0.5,-2.9621734619140625,3.4621734619140625
0.5099999904632568,2.9822044372558594,-2.4722044467926025
0.5199999809265137,0.021213531494140625,0.49878644943237305
0.5299999713897705,-5.910736083984375,6.440735816955566
0.550000011920929,-8.395206451416016,8.945206642150879
0.5600000023841858,-0.7375373840332031,1.2975373268127441
0.5600000023841858,-3.7998123168945312,4.359812259674072
0.5699999928474426,-5.970863342285156,6.540863513946533
0.5799999833106995,4.502925872802734,-3.9229259490966797
0.5899999737739563,2.3691329956054688,-1.7791330814361572
0.6000000238418579,3.834320068359375,-3.2343201637268066
0.6100000143051147,5.480113983154297,-4.870113849639893
0.6200000047683716,8.6981201171875,-8.078120231628418
0.6299999952316284,4.2374267578125,-3.607426643371582
0.6399999856948853,3.0695419311523438,-2.429542064666748
0.6499999761581421,-0.269256591796875,0.9192565679550171
0.6600000262260437,1.2615127563476562,-0.6015127301216125
0.6700000166893005,-3.620441436767578,4.290441513061523
0.6800000071525574,-2.8384742736816406,3.5184743404388428
0.6899999976158142,0.43013763427734375,0.25986236333847046
0.7099999785423279,4.443794250488281,-3.7337942123413086
0.7099999785423279,0.9994926452636719,-0.289492666721344
0.7200000286102295,8.936134338378906,-8.216134071350098
0.7300000190734863,2.1365432739257812,-1.406543254852295
0.7400000095367432,3.8501205444335938,-3.1101205348968506
0.75,-0.4618988037109375,1.2118988037109375
0.7699999809265137,-5.872303009033203,6.642302989959717
0.7699999809265137,-10.74542236328125,11.515422821044922
0.7799999713897705,5.9808807373046875,-5.200881004333496
0.7900000214576721,8.246452331542969,-7.456452369689941
0.800000011920929,22.69940948486328,-21.899410247802734
0.8100000023841858,42.73430252075195,-41.92430114746094
0.8199999928474426,46.72349548339844,-45.90349578857422
0.8299999833106995,39.136478424072266,-38.30647659301758
0.8399999737739563,35.814353942871094,-34.9743537902832
0.8600000143051147,25.458446502685547,-24.598445892333984
0.8600000143051147,9.052238464355469,-8.192238807678223
0.8700000047683716,6.6846160888671875,-5.8146162033081055
0.8799999952316284,1.6583023071289062,-0.7783023118972778
0.8899999856948853,-2.1628952026367188,3.0528950691223145
0.8999999761581421,-4.394359588623047,5.2943596839904785
0.9200000166893005,-7.933986663818359,8.853986740112305
0.9200000166893005,-4.491310119628906,5.411310195922852
0.9300000071525574,2.7672576904296875,-1.8372576236724854
0.9399999976158142,1.1587944030761719,-0.21879440546035767
0.949999988079071,5.624549865722656,-4.6745500564575195
0.9599999785423279,5.625770568847656,-4.665770530700684
0.9700000286102295,7.140850067138672,-6.170849800109863
0.9800000190734863,8.537185668945312,-7.557185649871826
0.9900000095367432,10.117069244384766,-9.127069473266602
0.9800000190734863,11.034587860107422,-10.054588317871094
0.9700000286102295,17.29818344116211,-16.328184127807617
0.9599999785423279,13.401412963867188,-12.441412925720215
0.949999988079071,10.64053726196289,-9.690537452697754
0.9399999976158142,16.9066162109375,-15.9666166305542
0.9300000071525574,15.235076904296875,-14.305076599121094
0.9100000262260437,10.286521911621094,-9.376522064208984
0.8999999761581421,8.17618179321289,-7.276181697845459
0.8999999761581421,0.27021026611328125,0.6297897100448608
0.8899999856948853,-3.9303932189941406,4.820393085479736
0.8799999952316284,-10.274740219116211,11.154740333557129
0.8700000047683716,-17.004152297973633,17.87415313720703
0.8600000143051147,-24.08011245727539,24.940113067626953
0.8500000238418579,-22.06458282470703,22.914583206176758
0.8399999737739563,-18.09075927734375,18.93075942993164
0.8299999833106995,-16.62999725341797,17.459997177124023
0.8199999928474426,-18.082660675048828,18.902660369873047
0.8100000023841858,-14.161164283752441,14.97116470336914
0.800000011920929,-13.56667709350586,14.366677284240723
0.7900000214576721,-19.180139541625977,19.97014045715332
0.7799999713897705,-21.917142868041992,22.6971435546875
0.7599999904632568,-16.017005920410156,16.777006149291992
0.75,-15.782523155212402,16.53252410888672
0.75,-14.716121673583984,15.466121673583984
0.7400000095367432,-14.100861549377441,14.840861320495605
0.7300000190734863,-14.28053092956543,15.010530471801758
0.7200000286102295,-11.431264877319336,12.151265144348145
0.7099999785423279,-12.026820182800293,12.736820220947266
0.699999988079071,-7.089236259460449,7.789236068725586
0.6899999976158142,-7.052162170410156,7.742162227630615
0.6800000071525574,-6.890256881713867,7.57025671005249
0.6700000166893005,-7.533743858337402,8.203743934631348
0.6600000262260437,-2.562511444091797,3.2225115299224854
0.6499999761581421,4.777775764465332,-4.1277756690979
0.6299999952316284,8.991065979003906,-8.361065864562988
0.6299999952316284,7.622150421142578,-6.99215030670166
0.6100000143051147,6.624195098876953,-6.014194965362549
0.6000000238418579,11.963388442993164,-11.363388061523438
0.6000000238418579,6.189092636108398,-5.58909273147583
0.5899999737739563,8.189805030822754,-7.599804878234863
0.5799999833106995,11.486873626708984,-10.90687370300293
0.5600000023841858,13.234827041625977,-12.674826622009277
0.5600000023841858,5.31675386428833,-4.756753921508789
0.550000011920929,0.7783961296081543,-0.22839611768722534
0.5400000214576721,-1.6390190124511719,2.179018974304199
0.5299999713897705,-1.671788215637207,2.2017881870269775
0.5199999809265137,-5.3273725509643555,5.847372531890869
0.5,-5.918701171875,6.418701171875
0.49000000953674316,-3.7313337326049805,4.2213335037231445
0.49000000953674316,1.4933834075927734,-1.0033833980560303
0.4699999988079071,1.3848352432250977,-0.9148352146148682
0.44999998807907104,0.03175067901611328,0.41824930906295776
0.44999998807907104,-0.12078094482421875,0.5707809329032898
0.4399999976158142,1.8095703125,-1.369570255279541
0.4399999976158142,-3.0158472061157227,3.4558472633361816
0.4300000071525574,-5.289707183837891,5.719707012176514
0.4099999964237213,-3.5871801376342773,3.997180223464966
0.4099999964237213,-2.3426456451416016,2.75264573097229
0.4000000059604645,-8.153976440429688,8.553976058959961
0.3799999952316284,-7.168421745300293,7.548421859741211
0.3799999952316284,-1.7790298461914062,2.159029960632324
0.3700000047683716,-3.05617618560791,3.426176071166992
0.3499999940395355,-0.347074031829834,0.6970740556716919
0.3499999940395355,3.414670944213867,-3.064671039581299
0.33000001311302185,-1.2278728485107422,1.5578728914260864
0.33000001311302185,-0.8994779586791992,1.2294780015945435
0.3100000023841858,-0.5408000946044922,0.850800096988678
0.3100000023841858,-1.7955598831176758,2.105559825897217
0.30000001192092896,-1.3291854858398438,1.629185438156128
0.28999999165534973,6.683353424072266,-6.393353462219238
0.2800000011920929,5.749095916748047,-5.469095706939697
0.27000001072883606,2.5846662521362305,-2.314666271209717
0.25999999046325684,5.785956859588623,-5.525957107543945
0.25,4.14736795425415,-3.8973679542541504
0.23999999463558197,-8.13170051574707,8.371700286865234
0.23000000417232513,-9.582416534423828,9.812416076660156
0.2199999988079071,-4.3094482421875,4.52944803237915
0.20999999344348907,-4.482685089111328,4.692685127258301
0.20000000298023224,2.808887481689453,-2.6088874340057373
0.1899999976158142,4.452601432800293,-4.262601375579834
0.17000000178813934,-6.024622917175293,6.194622993469238
0.1599999964237213,-14.413244247436523,14.573244094848633
0.15000000596046448,-11.554906845092773,11.704906463623047
0.14000000059604645,-7.865321159362793,8.005321502685547
0.14000000059604645,1.4634528160095215,-1.3234528303146362
0.12999999523162842,14.802120208740234,-14.672120094299316
0.11999999731779099,24.58868408203125,-24.46868324279785
0.10999999940395355,15.151714324951172,-15.041714668273926
0.10000000149011612,-7.399069786071777,7.499069690704346
0.09000000357627869,-8.597145080566406,8.687145233154297
0.07999999821186066,-16.044803619384766,16.12480354309082
0.07000000029802322,-36.85727310180664,36.92727279663086
0.05999999865889549,-27.705318450927734,27.765317916870117
0.05000000074505806,-17.82801628112793,17.878015518188477
0.029999999329447746,-17.827068328857422,17.85706901550293
0.029999999329447746,-15.848264694213867,15.878264427185059
0.009999999776482582,9.425769805908203,-9.415769577026367
0.009999999776482582,-0.7366113662719727,0.7466113567352295
0.0,1.1327457427978516,-1.1327457427978516
0.019999999552965164,-8.182133674621582,8.202134132385254
0.019999999552965164,-7.891361236572266,7.911361217498779
0.03999999910593033,-12.654794692993164,12.694794654846191
0.05000000074505806,-15.955279350280762,16.005279541015625
0.05999999865889549,-30.47791290283203,30.537912368774414
0.07000000029802322,-28.552745819091797,28.622745513916016
0.07999999821186066,-27.55733871459961,27.637338638305664
0.07999999821186066,-42.24766540527344,42.327667236328125
0.09000000357627869,-45.71977233886719,45.80977249145508
0.10999999940395355,-43.872074127197266,43.98207473754883
0.10999999940395355,-38.362884521484375,38.47288513183594
0.12999999523162842,-35.01152801513672,35.14152908325195
0.14000000059604645,-25.341215133666992,25.48121452331543
0.14000000059604645,-22.795429229736328,22.935428619384766
0.15000000596046448,-16.470291137695312,16.620290756225586
0.17000000178813934,-21.533226013183594,21.70322608947754
0.17000000178813934,-8.873397827148438,9.043397903442383
0.1899999976158142,-6.318153381347656,6.508153438568115
0.20000000298023224,-4.683635711669922,4.883635520935059
0.20999999344348907,12.02163314819336,-11.811633110046387
0.2199999988079071,12.157188415527344,-11.937188148498535
0.23000000417232513,0.33112335205078125,-0.10112334787845612
0.23999999463558197,-4.3781890869140625,4.618188858032227
0.25,1.8665733337402344,-1.6165733337402344
0.25999999046325684,-19.16179847717285,19.421798706054688
0.25999999046325684,-13.571706771850586,13.831707000732422
0.27000001072883606,-11.302103042602539,11.572103500366211
0.28999999165534973,-8.753568649291992,9.04356861114502
0.28999999165534973,-11.907524108886719,12.197524070739746
0.3100000023841858,-5.657987594604492,5.967987537384033
0.3199999928474426,-5.709674835205078,6.029675006866455
0.3199999928474426,-3.0123367309570312,3.332336664199829
0.33000001311302185,-0.15311431884765625,0.4831143319606781
0.3499999940395355,6.585693359375,-6.235693454742432
0.3499999940395355,5.754985809326172,-5.4049859046936035
0.36000001430511475,2.1207332611083984,-1.7607332468032837
0.3799999952316284,4.172990798950195,-3.7929906845092773
0.3799999952316284,1.3709297180175781,-0.9909297227859497
0.38999998569488525,-0.011089324951171875,0.40108931064605713
0.4099999964237213,-1.7416038513183594,2.151603937149048
0.4099999964237213,0.017070770263671875,0.39292922616004944
0.4300000071525574,-1.6844024658203125,2.1144025325775146
0.4399999976158142,1.3413543701171875,-0.9013543725013733
0.44999998807907104,-2.5086517333984375,2.9586517810821533
0.46000000834465027,0.56817626953125,-0.10817626118659973
0.4699999988079071,2.677814483642578,-2.2078144550323486
0.47999998927116394,3.319000244140625,-2.8390002250671387
0.47999998927116394,-1.9040756225585938,2.38407564163208
0.5,-6.199804306030273,6.699804306030273
0.5099999904632568,-3.9296188354492188,4.439619064331055
0.5199999809265137,-7.391630172729492,7.911630153656006
0.5299999713897705,-2.05975341796875,2.5897533893585205
0.5400000214576721,5.244667053222656,-4.704667091369629
0.5400000214576721,7.215538024902344,-6.675538063049316
0.5600000023841858,-6.586452484130859,7.1464524269104
0.5699999928474426,2.7823524475097656,-2.2123525142669678
0.5799999833106995,-0.9941558837890625,1.5741558074951172
0.5899999737739563,-7.651620864868164,8.241621017456055
0.6000000238418579,-4.01007080078125,4.610070705413818
0.6100000143051147,-0.9116554260253906,1.5216554403305054
0.6200000047683716,-14.249101638793945,14.869101524353027
0.6299999952316284,-5.160366058349609,5.790366172790527
0.6299999952316284,2.603809356689453,-1.9738093614578247
0.6499999761581421,8.592086791992188,-7.942086696624756
0.6600000262260437,13.132835388183594,-12.472835540771484
0.6700000166893005,17.42456817626953,-16.754568099975586
0.6800000071525574,7.679695129394531,-6.999695301055908
0.6899999976158142,9.86257553100586,-9.172575950622559
0.699999988079071,0.6011810302734375,0.09881895780563354
0.7099999785423279,-7.3404388427734375,8.05043888092041
0.7200000286102295,-3.6343460083007812,4.35434627532959
0.7200000286102295,0.7224235534667969,-0.002423524856567383
0.7400000095367432,-7.6783905029296875,8.418390274047852
0.75,2.2626724243164062,-1.5126724243164062
0.7599999904632568,4.611106872558594,-3.851106882095337
0.7699999809265137,7.9833526611328125,-7.213352680206299
0.7799999713897705,8.142696380615234,-7.362696647644043
0.7900000214576721,5.508270263671875,-4.718270301818848
0.800000011920929,9.646530151367188,-8.846529960632324
0.8100000023841858,8.864425659179688,-8.054425239562988
0.8199999928474426,3.071674346923828,-2.2516744136810303
0.8299999833106995,5.76922607421875,-4.939226150512695
0.8399999737739563,8.75307846069336,-7.913078308105469
0.8399999737739563,1.9694595336914062,-1.1294596195220947
0.8600000143051147,3.9889678955078125,-3.128967761993408
0.8700000047683716,-2.5679588317871094,3.4379587173461914
0.8700000047683716,-6.157691955566406,7.027691841125488
0.8899999856948853,1.8004074096679688,-0.9104074239730835
0.8999999761581421,4.625328063964844,-3.725327968597412
0.9100000262260437,-2.039592742919922,2.9495928287506104
0.9200000166893005,2.8730621337890625,-1.9530620574951172
0.9300000071525574,6.703773498535156,-5.773773670196533
0.9399999976158142,-2.9225082397460938,3.8625082969665527
0.949999988079071,-8.958534240722656,9.908534049987793
0.9599999785423279,-1.9583892822265625,2.918389320373535
0.9700000286102295,-3.9656410217285156,4.935641288757324
0.9800000190734863,-8.323627471923828,9.303627014160156
0.9900000095367432,1.6568260192871094,-0.6668260097503662
0.9800000190734863,11.702919006347656,-10.722919464111328
0.9700000286102295,16.430191040039062,-15.460190773010254
0.9599999785423279,20.368209838867188,-19.40821075439453
0.949999988079071,24.60794448852539,-23.657943725585938
0.9399999976158142,20.722026824951172,-19.782026290893555
0.9300000071525574,14.3529052734375,-13.422904968261719
0.9200000166893005,2.6497268676757812,-1.729726791381836
0.9100000262260437,3.1275634765625,-2.2175633907318115
0.8999999761581421,-1.0136871337890625,1.9136871099472046
0.8899999856948853,-9.321636199951172,10.211636543273926
0.8799999952316284,-9.687126159667969,10.567126274108887
0.8700000047683716,-7.516975402832031,8.386975288391113
0.8600000143051147,-13.119651794433594,13.97965145111084
0.8500000238418579,-12.067359924316406,12.917360305786133
0.8399999737739563,-3.497711181640625,4.337711334228516
0.8299999833106995,-9.060997009277344,9.890996932983398
0.8199999928474426,-8.468236923217773,9.288236618041992
0.8100000023841858,-6.215488433837891,7.025488376617432
0.800000011920929,-11.7893705368042,12.589370727539062
0.7900000214576721,-11.900527954101562,12.69052791595459
0.7799999713897705,-13.650188446044922,14.430188179016113
0.7699999809265137,-17.615467071533203,18.385467529296875
0.7599999904632568,-26.444412231445312,27.20441246032715
0.75,-17.042007446289062,17.792007446289062
0.7400000095367432,-14.373725891113281,15.113725662231445
0.7300000190734863,-15.760639190673828,16.490638732910156
0.7200000286102295,-15.859827995300293,16.5798282623291
0.7099999785423279,-6.507513046264648,7.217513084411621
0.699999988079071,-0.8678150177001953,1.5678150653839111
0.6899999976158142,-4.950218200683594,5.640218257904053
0.6800000071525574,-3.5614070892333984,4.2414069175720215
0.6700000166893005,2.10113525390625,-1.4311351776123047
0.6600000262260437,4.599699020385742,-3.9396989345550537
0.6499999761581421,0.23780536651611328,0.4121946096420288
0.6399999856948853,-0.5337982177734375,1.1737982034683228
0.6299999952316284,-0.1596393585205078,0.7896393537521362
0.6200000047683716,0.6390953063964844,-0.019095301628112793
0.6100000143051147,-2.4300098419189453,3.0400099754333496
0.6000000238418579,-14.545936584472656,15.145936965942383
0.5899999737739563,-17.117589950561523,17.707590103149414
0.5799999833106995,-11.535728454589844,12.115728378295898
0.5699999928474426,-11.758952140808105,12.328951835632324
0.5600000023841858,-10.14048957824707,10.70048999786377
0.550000011920929,-2.221303939819336,2.77130389213562
0.5400000214576721,1.8642578125,-1.3242578506469727
0.5299999713897705,0.5980300903320312,-0.06803011894226074
0.5199999809265137,-0.720911979675293,1.2409119606018066
0.5099999904632568,-0.3186378479003906,0.8286378383636475
0.5,-1.8305997848510742,2.330599784851074
0.49000000953674316,-2.2279090881347656,2.717909097671509
0.47999998927116394,-1.4491767883300781,1.9291768074035645
0.4699999988079071,-2.2523422241210938,2.7223422527313232
0.46000000834465027,-5.471739768981934,5.931739807128906
0.44999998807907104,-7.5346479415893555,7.984647750854492
0.4399999976158142,-6.200340270996094,6.640340328216553
0.4300000071525574,-7.152427673339844,7.582427501678467
0.41999998688697815,-8.030673027038574,8.45067310333252
0.4099999964237213,-11.027030944824219,11.437030792236328
0.4000000059604645,-15.006967544555664,15.406967163085938
0.38999998569488525,-18.101287841796875,18.491287231445312
0.3799999952316284,-13.63560676574707,14.015606880187988
0.3700000047683716,-10.47283935546875,10.842839241027832
0.36000001430511475,-10.536624908447266,10.896624565124512
0.3499999940395355,-7.159135818481445,7.509135723114014
0.3400000035762787,-5.640098571777344,5.980098724365234
0.33000001311302185,-13.382987976074219,13.712987899780273
0.3199999928474426,-17.218454360961914,17.538454055786133
0.3100000023841858,-15.002894401550293,15.312894821166992
0.30000001192092896,-18.863265991210938,19.163265228271484
0.28999999165534973,-16.452747344970703,16.742748260498047
0.2800000011920929,-16.40628433227539,16.6862850189209
0.27000001072883606,-10.568582534790039,10.838582992553711
0.25999999046325684,-7.839438438415527,8.099438667297363
0.25,-4.40810489654541,4.65810489654541
0.23999999463558197,-7.3434906005859375,7.583490371704102
0.23000000417232513,-3.623255729675293,3.8532557487487793
0.2199999988079071,-7.547806739807129,7.767806529998779
0.20000000298023224,-5.450263023376465,5.650262832641602
0.20000000298023224,1.1414012908935547,-0.9414013028144836
0.1899999976158142,1.4971256256103516,-1.3071255683898926
0.18000000715255737,-6.2734808921813965,6.4534807205200195
0.17000000178813934,-9.130059242248535,9.30005931854248
0.1599999964237213,-17.612789154052734,17.772789001464844
0.15000000596046448,-16.627792358398438,16.77779197692871
0.14000000059604645,-11.728528022766113,11.868528366088867
0.12999999523162842,-1.7231426239013672,1.8531426191329956
0.10999999940395355,5.9762678146362305,-5.866267681121826
0.10999999940395355,13.123327255249023,-13.013327598571777
0.10000000149011612,17.481760025024414,-17.381759643554688
0.07000000029802322,16.40424156188965,-16.33424186706543
0.07000000029802322,12.391632080078125,-12.321632385253906
0.07000000029802322,3.4715628623962402,-3.4015629291534424
0.05999999865889549,-3.929468870162964,3.989468812942505
0.05000000074505806,-3.0037829875946045,3.0537829399108887
0.03999999910593033,-9.141433715820312,9.18143367767334
0.029999999329447746,-8.923758506774902,8.953758239746094
0.019999999552965164,-10.359516143798828,10.3795166015625
0.009999999776482582,-5.586304187774658,5.596304416656494
0.0,-9.895729064941406,9.895729064941406
0.009999999776482582,-6.445126533508301,6.455126762390137
0.019999999552965164,-6.557461261749268,6.577461242675781
0.03999999910593033,-7.967245578765869,8.007246017456055
0.03999999910593033,-7.897042274475098,7.937042236328125
0.05000000074505806,-14.612236976623535,14.662237167358398
0.07000000029802322,-6.246974468231201,6.316974639892578
0.07000000029802322,-5.444892883300781,5.514893054962158
0.07999999821186066,-2.872868537902832,2.9528684616088867
0.09000000357627869,-6.677369117736816,6.767369270324707
0.10000000149011612,-5.815526962280273,5.915526866912842
0.11999999731779099,-21.614948272705078,21.734949111938477
0.11999999731779099,-22.558189392089844,22.678190231323242
0.12999999523162842,-19.832719802856445,19.962718963623047
0.14000000059604645,-15.295954704284668,15.435955047607422
0.15000000596046448,-11.397031784057617,11.54703140258789
0.1599999964237213,-2.748615264892578,2.9086153507232666
0.17000000178813934,-8.539283752441406,8.709283828735352
0.1899999976158142,-13.141014099121094,13.331013679504395
0.1899999976158142,-10.447935104370117,10.637934684753418
0.20000000298023224,-8.304527282714844,8.50452709197998
0.2199999988079071,-11.673629760742188,11.893630027770996
0.2199999988079071,-12.203683853149414,12.423684120178223
0.23000000417232513,-8.89453125,9.124530792236328
0.23999999463558197,-10.531776428222656,10.77177619934082
0.25,-5.154895782470703,5.404895782470703
0.25999999046325684,-11.273962020874023,11.53396224975586
0.2800000011920929,-8.976179122924805,9.256178855895996
0.2800000011920929,-1.0290794372558594,1.3090794086456299
0.28999999165534973,-2.0129528045654297,2.302952766418457
0.30000001192092896,-16.254913330078125,16.554912567138672
0.3100000023841858,-11.387598037719727,11.697598457336426
0.3199999928474426,-11.70567512512207,12.025674819946289
0.33000001311302185,-19.3775691986084,19.707569122314453
0.3400000035762787,-24.40068817138672,24.74068832397461
0.3499999940395355,-18.106666564941406,18.456666946411133
0.36000001430511475,-13.89466667175293,14.254666328430176
0.3700000047683716,-4.765163421630859,5.135163307189941
0.3799999952316284,-6.319120407104492,6.69912052154541
0.38999998569488525,0.8547515869140625,-0.46475160121917725
0.4000000059604645,3.7743587493896484,-3.374358654022217
0.4099999964237213,6.669496536254883,-6.259496688842773
0.41999998688697815,13.26766586303711,-12.847665786743164
0.4300000071525574,26.676116943359375,-26.246116638183594
0.4399999976158142,28.454425811767578,-28.01442527770996
0.44999998807907104,27.784223556518555,-27.3342227935791
0.46000000834465027,25.233461380004883,-24.773462295532227
0.4699999988079071,15.619197845458984,-15.149197578430176
0.47999998927116394,6.5341033935546875,-6.054103374481201
0.49000000953674316,-8.285938262939453,8.775938034057617
0.5,-6.790369033813477,7.290369033813477
0.5099999904632568,-11.247203826904297,11.757204055786133
0.5199999809265137,-13.26223373413086,13.782234191894531
0.5299999713897705,-15.528244018554688,16.058244705200195
0.5400000214576721,-7.473598480224609,8.013598442077637
0.550000011920929,-11.376201629638672,11.926201820373535
0.5600000023841858,-10.714038848876953,11.274039268493652
0.5699999928474426,-14.000677108764648,14.570676803588867
0.5799999833106995,-17.641942977905273,18.221942901611328
0.5899999737739563,-17.888660430908203,18.478660583496094
0.6000000238418579,-13.305522918701172,13.905523300170898
0.6100000143051147,-13.272899627685547,13.882899284362793
0.6200000047683716,-13.31216049194336,13.932160377502441
0.6299999952316284,-5.516513824462891,6.146513938903809
0.6399999856948853,-2.936492919921875,3.5764927864074707
0.6499999761581421,-7.976646423339844,8.626646041870117
0.6600000262260437,-14.129859924316406,14.789859771728516
0.6700000166893005,-11.659828186035156,12.329828262329102
0.6800000071525574,-10.704185485839844,11.384185791015625
0.6899999976158142,-10.98223876953125,11.67223834991455
0.699999988079071,-7.7919464111328125,8.49194622039795
0.699999988079071,3.0845108032226562,-2.3845107555389404
0.7300000190734863,-3.5523643493652344,4.282364368438721
0.7400000095367432,-5.345367431640625,6.085367202758789
0.7400000095367432,-5.266563415527344,6.006563186645508
0.75,-4.959892272949219,5.709892272949219
0.7599999904632568,-7.627109527587891,8.387109756469727
0.7699999809265137,1.9874267578125,-1.2174267768859863
0.7799999713897705,-0.35344696044921875,1.1334469318389893
0.7900000214576721,12.910385131835938,-12.12038516998291
0.800000011920929,18.96676254272461,-18.166763305664062
0.8100000023841858,16.766006469726562,-15.956006050109863
0.8199999928474426,27.689865112304688,-26.86986541748047
0.8299999833106995,30.476139068603516,-29.64613914489746
0.8399999737739563,17.766693115234375,-16.926692962646484
0.8500000238418579,11.010982513427734,-10.160982131958008
0.8700000047683716,5.6197052001953125,-4.7497053146362305
0.8799999952316284,-10.147045135498047,11.027045249938965
0.8899999856948853,-14.2574462890625,15.147446632385254
0.8899999856948853,-17.256317138671875,18.146316528320312
0.8999999761581421,-16.175830841064453,17.075830459594727
0.9100000262260437,-3.1787071228027344,4.088706970214844
0.9200000166893005,-12.320152282714844,13.240152359008789
0.9300000071525574,-7.379940032958984,8.309940338134766
0.9399999976158142,4.260723114013672,-3.320723056793213
0.949999988079071,1.2586135864257812,-0.3086135983467102
0.9599999785423279,-1.7325477600097656,2.6925477981567383
0.9700000286102295,9.08333969116211,-8.1133394241333
0.9800000190734863,4.523887634277344,-3.5438876152038574
0.9900000095367432,12.883171081542969,-11.893171310424805
0.9800000190734863,17.807937622070312,-16.827938079833984
0.9700000286102295,19.146282196044922,-18.17628288269043
0.9599999785423279,17.112960815429688,-16.15296173095703
0.949999988079071,20.868541717529297,-19.918540954589844
0.9399999976158142,5.165554046630859,-4.2255539894104
0.9300000071525574,12.682792663574219,-11.752792358398438
0.9200000166893005,14.088397979736328,-13.168397903442383
0.9100000262260437,19.54863739013672,-18.63863754272461
0.8999999761581421,20.921356201171875,-20.0213565826416
0.8899999856948853,16.713905334472656,-15.823904991149902
0.8799999952316284,11.17654800415039,-10.296547889709473
0.8700000047683716,5.987300872802734,-5.117300987243652
0.8600000143051147,-8.759489059448242,9.619488716125488
0.8500000238418579,-14.600605010986328,15.450605392456055
0.8399999737739563,-14.886500358581543,15.726500511169434
0.8199999928474426,-20.72003746032715,21.540037155151367
0.8199999928474426,-14.02526569366455,14.84526538848877
0.8100000023841858,-7.833914756774902,8.643915176391602
0.800000011920929,-7.770807266235352,8.570807456970215
0.7900000214576721,-5.862188339233398,6.652188301086426
0.7799999713897705,-4.295137405395508,5.075137138366699
0.7699999809265137,-9.0878324508667,9.857831954956055
0.7599999904632568,-11.156478881835938,11.916479110717773
0.75,-5.226438522338867,5.976438522338867
0.7400000095367432,0.07756614685058594,0.6624338626861572
0.7300000190734863,2.918771743774414,-2.1887717247009277
0.7200000286102295,2.7819690704345703,-2.061969041824341
0.7099999785423279,1.4206914901733398,-0.710691511631012
0.699999988079071,-0.3121805191040039,1.0121805667877197
0.6800000071525574,-4.800266265869141,5.480266094207764
0.6700000166893005,1.1544599533081055,-0.48445993661880493
0.6600000262260437,3.69008731842041,-3.0300872325897217
0.6499999761581421,1.7447147369384766,-1.0947147607803345
0.6499999761581421,4.002405166625977,-3.352405071258545
0.6399999856948853,4.048636436462402,-3.4086365699768066
0.6200000047683716,1.4780054092407227,-0.8580054044723511
0.6200000047683716,-2.5348377227783203,3.1548376083374023
0.6100000143051147,0.6055669784545898,0.004433035850524902
0.6000000238418579,0.09100627899169922,0.5089937448501587
0.5899999737739563,-0.0006885528564453125,0.5906885266304016
0.5799999833106995,-1.9117889404296875,2.491788864135742
0.5600000023841858,-4.379493713378906,4.939493656158447
0.5600000023841858,-4.0773468017578125,4.6373467445373535
0.550000011920929,-1.7115082740783691,2.2615082263946533
0.5299999713897705,-2.4059672355651855,2.935967206954956
0.5299999713897705,-5.050930023193359,5.580929756164551
0.5199999809265137,1.2344322204589844,-0.7144322395324707
0.5,0.5204524993896484,-0.020452499389648438
0.49000000953674316,1.5262269973754883,-1.0362269878387451
0.49000000953674316,-1.5115127563476562,2.0015127658843994
0.4699999988079071,-0.9986715316772461,1.4686715602874756
0.4699999988079071,-0.7301416397094727,1.2001416683197021
0.46000000834465027,5.614624977111816,-5.154624938964844
0.44999998807907104,2.731374740600586,-2.28137469291687
0.4399999976158142,4.505617141723633,-4.065617084503174
0.4300000071525574,2.617002487182617,-2.187002420425415
0.4099999964237213,2.0906639099121094,-1.6806639432907104
0.4099999964237213,-2.396179676055908,2.8061797618865967
0.4000000059604645,-2.9403581619262695,3.340358257293701
0.38999998569488525,-3.5710268020629883,3.961026668548584
0.3799999952316284,-3.9423160552978516,4.3223161697387695
0.3700000047683716,-7.53611946105957,7.906119346618652
0.36000001430511475,-4.306326866149902,4.666326999664307
0.3499999940395355,-0.8745517730712891,1.224551796913147
0.3400000035762787,0.3999056816101074,-0.059905678033828735
0.3199999928474426,0.09992504119873047,0.22007495164871216
0.3199999928474426,2.2546310424804688,-1.934631109237671
0.3100000023841858,-1.8347806930541992,2.1447806358337402
0.28999999165534973,3.011716365814209,-2.7217164039611816
0.2800000011920929,3.951779365539551,-3.6717793941497803
0.2800000011920929,7.801183700561523,-7.521183490753174
0.25999999046325684,6.161465644836426,-5.90146541595459
0.25999999046325684,3.0634803771972656,-2.803480386734009
0.25,-3.867325782775879,4.117325782775879
0.23999999463558197,-1.468130111694336,1.708130121231079
0.2199999988079071,-4.011593818664551,4.231593608856201
0.2199999988079071,-2.78774356842041,3.0077435970306396
0.20000000298023224,-3.547365188598633,3.7473652362823486
0.1899999976158142,5.018563270568848,-4.828563213348389
0.18000000715255737,2.9641590118408203,-2.784158945083618
0.17000000178813934,5.134535789489746,-4.964535713195801
0.1599999964237213,8.218912124633789,-8.05891227722168
0.15000000596046448,13.465668678283691,-13.315669059753418
0.14000000059604645,9.109819412231445,-8.969819068908691
0.12999999523162842,16.157878875732422,-16.02787971496582
0.12999999523162842,16.335783004760742,-16.20578384399414
0.10999999940395355,10.277626037597656,-10.16762638092041
0.10000000149011612,7.453359127044678,-7.353359222412109
0.10000000149011612,10.677728652954102,-10.577728271484375
0.07999999821186066,8.36981201171875,-8.289812088012695
0.07000000029802322,6.383063316345215,-6.313063144683838
0.07000000029802322,11.483927726745605,-11.413928031921387
0.05999999865889549,14.010635375976562,-13.950634956359863
0.03999999910593033,14.903834342956543,-14.863834381103516
0.03999999910593033,12.157683372497559,-12.117683410644531
0.019999999552965164,13.024290084838867,-13.004289627075195
0.009999999776482582,10.884485244750977,-10.87448501586914
0.009999999776482582,14.593610763549805,-14.583610534667969
0.009999999776482582,9.858821868896484,-9.848821640014648
0.019999999552965164,11.556694030761719,-11.536693572998047
0.019999999552965164,4.622880935668945,-4.602880954742432
0.03999999910593033,4.546504974365234,-4.506505012512207
0.05000000074505806,-5.747539520263672,5.797539710998535
0.05000000074505806,-3.7755088806152344,3.8255088329315186
0.05999999865889549,-7.253498077392578,7.313498020172119
0.07999999821186066,-16.087757110595703,16.167757034301758
0.07999999821186066,-15.29616928100586,15.376169204711914
0.10000000149011612,-9.888427734375,9.988428115844727
0.10999999940395355,-14.733112335205078,14.843111991882324
0.10999999940395355,-16.721214294433594,16.831214904785156
0.12999999523162842,-9.662498474121094,9.792498588562012
0.14000000059604645,-10.823040008544922,10.963040351867676
0.14000000059604645,-9.863834381103516,10.00383472442627
0.15000000596046448,-4.793048858642578,4.94304895401001
0.1599999964237213,-1.6318321228027344,1.7918320894241333
0.17000000178813934,-5.639739990234375,5.80974006652832
0.1899999976158142,5.2948760986328125,-5.1048760414123535
0.20000000298023224,5.553577423095703,-5.353577613830566
0.20000000298023224,-0.9885749816894531,1.188575029373169
0.20999999344348907,-0.978485107421875,1.1884851455688477
0.23000000417232513,1.0739021301269531,-0.8439021110534668
0.23000000417232513,-4.97895622253418,5.208956241607666
0.25,-3.303863525390625,3.553863525390625
0.25999999046325684,6.273639678955078,-6.013639450073242
0.27000001072883606,7.790592193603516,-7.520592212677002
0.2800000011920929,11.440898895263672,-11.16089916229248
0.28999999165534973,11.490640640258789,-11.200640678405762
0.30000001192092896,5.793987274169922,-5.493987083435059
0.3100000023841858,9.61806869506836,-9.30806827545166
0.3199999928474426,9.866680145263672,-9.546680450439453
0.33000001311302185,13.826765060424805,-13.49676513671875
0.3400000035762787,16.51456642150879,-16.1745662689209
0.3499999940395355,11.284507751464844,-10.934507369995117
0.36000001430511475,11.88875961303711,-11.528759956359863
0.3700000047683716,12.383951187133789,-12.013951301574707
0.3799999952316284,6.892265319824219,-6.512265205383301
0.38999998569488525,15.967363357543945,-15.577363014221191
0.4000000059604645,17.187631607055664,-16.78763198852539
0.4099999964237213,10.370903015136719,-9.96090316772461
0.41999998688697815,8.369834899902344,-7.949834823608398
0.4300000071525574,13.91752815246582,-13.487527847290039
0.4399999976158142,2.7629623413085938,-2.3229622840881348
0.44999998807907104,0.5845718383789062,-0.1345718502998352
0.44999998807907104,2.6996383666992188,-2.249638319015503
0.4699999988079071,0.8565940856933594,-0.38659408688545227
0.47999998927116394,-5.628047943115234,6.108047962188721
0.49000000953674316,-8.26375961303711,8.753759384155273
0.5,0.140594482421875,0.359405517578125
0.5099999904632568,4.2766876220703125,-3.7666876316070557
0.5199999809265137,6.547966003417969,-6.027966022491455
0.5299999713897705,5.76007080078125,-5.230071067810059
0.5400000214576721,6.5106964111328125,-5.970696449279785
0.5400000214576721,-1.5455398559570312,2.0855398178100586
0.5600000023841858,-7.12042236328125,7.680422306060791
0.5699999928474426,-9.91530990600586,10.485309600830078
0.5799999833106995,-8.077621459960938,8.657621383666992
0.5899999737739563,-17.075794219970703,17.665794372558594
0.6000000238418579,-16.445018768310547,17.045019149780273
0.6100000143051147,-16.080169677734375,16.690170288085938
0.6200000047683716,-3.481372833251953,4.101372718811035
0.6299999952316284,5.475139617919922,-4.845139503479004
0.6399999856948853,7.460319519042969,-6.820319652557373
0.6499999761581421,10.36151123046875,-9.711511611938477
0.6600000262260437,9.71124267578125,-9.05124282836914
0.6700000166893005,0.5134811401367188,0.1565188765525818
0.6800000071525574,-14.287384033203125,14.967384338378906
0.6899999976158142,-4.839111328125,5.529111385345459
0.699999988079071,-8.397140502929688,9.097140312194824
0.7099999785423279,-1.970245361328125,2.6802453994750977
0.7200000286102295,2.9431190490722656,-2.223119020462036
0.7300000190734863,3.393138885498047,-2.6631388664245605
0.7400000095367432,-1.3284721374511719,2.068472146987915
0.75,4.8474578857421875,-4.0974578857421875
0.7599999904632568,3.053619384765625,-2.293619394302368
0.7699999809265137,-1.8590240478515625,2.629024028778076
0.7799999713897705,9.103851318359375,-8.323851585388184
0.7900000214576721,16.345237731933594,-15.555237770080566
0.800000011920929,15.538276672363281,-14.738276481628418
0.8100000023841858,13.528190612792969,-12.71819019317627
0.8199999928474426,10.900489807128906,-10.080490112304688
0.8299999833106995,13.102069854736328,-12.272069931030273
0.8399999737739563,18.739299774169922,-17.89929962158203
0.8500000238418579,14.08584213256836,-13.235841751098633
0.8600000143051147,12.584095001220703,-11.724095344543457
0.8700000047683716,19.583606719970703,-18.713605880737305
0.8799999952316284,12.393257141113281,-11.513257026672363
0.8899999856948853,3.0194091796875,-2.1294093132019043
0.8999999761581421,12.049007415771484,-11.149007797241211
0.9100000262260437,12.765716552734375,-11.855716705322266
0.9200000166893005,13.074676513671875,-12.15467643737793
0.9300000071525574,9.937141418457031,-9.00714111328125
0.9399999976158142,13.804588317871094,-12.864588737487793
0.949999988079071,11.979270935058594,-11.029271125793457
0.9599999785423279,14.044288635253906,-13.084288597106934
0.9700000286102295,19.120384216308594,-18.1503849029541
0.9800000190734863,25.684371948242188,-24.70437240600586
0.9900000095367432,21.80437469482422,-20.814374923706055
0.9800000190734863,12.757217407226562,-11.777217864990234
0.9700000286102295,12.391166687011719,-11.42116641998291
0.9599999785423279,3.000072479248047,-2.040072441101074
0.949999988079071,3.68212890625,-2.732128858566284
0.9399999976158142,1.5959930419921875,-0.6559930443763733
0.9300000071525574,13.850021362304688,-12.920021057128906
0.9200000166893005,20.522178649902344,-19.6021785736084
0.9100000262260437,25.684070587158203,-24.774070739746094
0.9100000262260437,15.309852600097656,-14.399852752685547
0.8899999856948853,8.959579467773438,-8.069579124450684
0.8799999952316284,-4.78599739074707,5.665997505187988
0.8700000047683716,-19.556453704833984,20.426454544067383
0.8600000143051147,-44.07012176513672,44.93012237548828
0.8500000238418579,-57.849327087402344,58.69932556152344
0.8399999737739563,-57.71857833862305,58.55857849121094
0.8299999833106995,-55.833580017089844,56.66358184814453
0.8199999928474426,-55.01393127441406,55.83393096923828
0.8100000023841858,-46.47903060913086,47.289031982421875
0.800000011920929,-30.896299362182617,31.696298599243164
0.7900000214576721,-23.011760711669922,23.801761627197266
0.7799999713897705,-20.69542694091797,21.475427627563477
0.7699999809265137,-12.299596786499023,13.069597244262695
0.7599999904632568,-9.410421371459961,10.170421600341797
0.75,-12.401966094970703,13.151966094970703
0.7400000095367432,-15.832813262939453,16.572813034057617
0.7300000190734863,-16.807716369628906,17.537715911865234
0.7200000286102295,-19.66326904296875,20.383268356323242
0.7099999785423279,-10.646222114562988,11.356222152709961
0.699999988079071,-5.084493637084961,5.784493446350098
0.6899999976158142,-9.923442840576172,10.613442420959473
0.6800000071525574,-11.666095733642578,12.34609603881836
0.6700000166893005,-5.7052459716796875,6.375246047973633
0.6600000262260437,-2.3163394927978516,2.97633957862854
0.6499999761581421,-10.84663200378418,11.496631622314453
0.6399999856948853,-7.915981292724609,8.555981636047363
0.6299999952316284,-6.465009689331055,7.095009803771973
0.6200000047683716,-4.079631805419922,4.699631690979004
0.6100000143051147,-9.772165298461914,10.38216495513916
0.6000000238418579,-2.729707717895508,3.329707622528076
0.5899999737739563,1.447723388671875,-0.8577234148979187
0.5799999833106995,1.3259353637695312,-0.7459353804588318
0.5699999928474426,-0.3913288116455078,0.9613288044929504
0.5600000023841858,-3.80599308013916,4.365993022918701
0.550000011920929,5.864194869995117,-5.314194679260254
0.5400000214576721,4.520898818969727,-3.980898857116699
0.5299999713897705,4.467561721801758,-3.9375617504119873
0.5199999809265137,3.2916622161865234,-2.7716622352600098
0.5099999904632568,4.5080718994140625,-3.9980719089508057
0.5,-4.780416488647461,5.280416488647461
0.49000000953674316,-4.46986198425293,4.959861755371094
0.47999998927116394,2.8479747772216797,-2.3679747581481934
0.4699999988079071,-4.204708099365234,4.674707889556885
0.46000000834465027,-4.8014068603515625,5.261406898498535
0.44999998807907104,-5.414436340332031,5.864436149597168
0.4399999976158142,-5.887114524841309,6.327114582061768
0.4300000071525574,-8.661571502685547,9.091571807861328
0.41999998688697815,-7.269928932189941,7.689929008483887
0.4099999964237213,-4.076587677001953,4.4865875244140625
0.4000000059604645,-3.103329658508301,3.5033297538757324
0.38999998569488525,-3.659740447998047,4.049740314483643
0.3799999952316284,-4.809215545654297,5.189215660095215
0.3700000047683716,-7.0936384201049805,7.4636383056640625
0.36000001430511475,-8.557018280029297,8.917017936706543
0.3499999940395355,0.56256103515625,-0.21256104111671448
0.3400000035762787,5.449434280395508,-5.109434127807617
0.33000001311302185,7.310276031494141,-6.980276107788086
0.3199999928474426,10.955936431884766,-10.635936737060547
0.3100000023841858,13.550291061401367,-13.240290641784668
0.28999999165534973,5.990791320800781,-5.700791358947754
0.28999999165534973,-1.847590446472168,2.1375904083251953
0.2800000011920929,2.796306610107422,-2.5163066387176514
0.27000001072883606,2.4376049041748047,-2.167604923248291
0.25999999046325684,-0.42151546478271484,0.6815154552459717
0.25,-1.6554679870605469,1.9054679870605469
0.23999999463558197,-0.20937538146972656,0.4493753910064697
0.23000000417232513,-11.765206336975098,11.995205879211426
0.2199999988079071,-12.272107124328613,12.492107391357422
0.20999999344348907,-14.760217666625977,14.97021770477295
0.20000000298023224,-14.160385131835938,14.360384941101074
0.1899999976158142,-16.62944793701172,16.819448471069336
0.18000000715255737,-6.622175216674805,6.802175045013428
0.17000000178813934,-7.31500244140625,7.485002517700195
0.1599999964237213,3.765727996826172,-3.6057279109954834
0.15000000596046448,2.4542269706726074,-2.304226875305176
0.14000000059604645,-1.2944707870483398,1.434470772743225
0.12999999523162842,-5.077120780944824,5.207120895385742
0.11999999731779099,-3.0048670768737793,3.1248669624328613
0.10999999940395355,-9.636734008789062,9.746733665466309
0.10000000149011612,-8.17422866821289,8.274229049682617
0.09000000357627869,-0.3418455123901367,0.4318455159664154
0.07999999821186066,1.0403923988342285,-0.960392415523529
0.07000000029802322,13.128564834594727,-13.058565139770508
0.05999999865889549,17.940553665161133,-17.88055419921875
0.05000000074505806,18.90367889404297,-18.853679656982422
0.03999999910593033,16.30756187438965,-16.267560958862305
0.019999999552965164,18.524341583251953,-18.50434112548828
0.019999999552965164,16.29117202758789,-16.27117156982422
0.009999999776482582,13.060097694396973,-13.050097465515137
0.0,6.914706230163574,-6.914706230163574
0.009999999776482582,5.975567817687988,-5.965567588806152
0.019999999552965164,-2.963616371154785,2.983616352081299
0.029999999329447746,-12.204878807067871,12.234878540039062
0.03999999910593033,-12.46973705291748,12.509737014770508
0.05000000074505806,-4.451044082641602,4.501044273376465
0.05999999865889549,-2.769002914428711,2.829002857208252
0.07000000029802322,-8.413816452026367,8.483816146850586
0.07999999821186066,-13.507755279541016,13.58775520324707
0.09000000357627869,-9.50387191772461,9.5938720703125
0.10000000149011612,-11.529632568359375,11.629632949829102
0.10999999940395355,-12.618391036987305,12.72839069366455
0.11999999731779099,-11.978721618652344,12.098721504211426
0.12999999523162842,-17.511024475097656,17.641023635864258
0.14000000059604645,-24.07137680053711,24.211376190185547
0.15000000596046448,-30.429183959960938,30.57918357849121
0.1599999964237213,-30.62010955810547,30.780109405517578
0.17000000178813934,-25.79901695251465,25.969017028808594
0.18000000715255737,-14.096434593200684,14.276434898376465
0.1899999976158142,-16.812307357788086,17.002307891845703
0.20000000298023224,-9.420280456542969,9.620280265808105
0.20999999344348907,-10.655094146728516,10.865094184875488
0.23000000417232513,-13.80133056640625,14.031330108642578
0.23999999463558197,-19.779970169067383,20.019969940185547
0.25,-7.19683837890625,7.44683837890625
0.25,-10.55406379699707,10.80406379699707
0.25999999046325684,-8.706111907958984,8.96611213684082
0.27000001072883606,-3.7456092834472656,4.015609264373779
0.2800000011920929,0.026170730590820312,0.2538292706012726
0.28999999165534973,1.2907695770263672,-1.0007696151733398
0.30000001192092896,4.151971817016602,-3.8519718647003174
0.3100000023841858,8.086776733398438,-7.7767767906188965
0.3199999928474426,6.012844085693359,-5.692843914031982
0.33000001311302185,4.7742156982421875,-4.444215774536133
0.3400000035762787,-3.822803497314453,4.162803649902344
0.3499999940395355,-4.840599060058594,5.190598964691162
0.36000001430511475,-6.971183776855469,7.331183910369873
0.3799999952316284,-7.017730712890625,7.397730827331543
0.3799999952316284,-5.356176376342773,5.736176490783691
0.38999998569488525,-0.0517730712890625,0.44177305698394775
0.4000000059604645,-2.477306365966797,2.8773064613342285
0.4099999964237213,3.8316879272460938,-3.4216878414154053
0.41999998688697815,2.8596630096435547,-2.4396629333496094
0.4300000071525574,2.7587738037109375,-2.3287737369537354
0.4399999976158142,-0.9057197570800781,1.345719814300537
0.44999998807907104,0.4022674560546875,0.047732532024383545
0.46000000834465027,-1.0600204467773438,1.5200204849243164
0.4699999988079071,-0.15759849548339844,0.6275985240936279
0.47999998927116394,6.524219512939453,-6.044219493865967
0.49000000953674316,4.859773635864258,-4.369773864746094
0.5,10.191465377807617,-9.691465377807617
0.5099999904632568,14.256534576416016,-13.74653434753418
0.5299999713897705,13.204883575439453,-12.674883842468262
0.5299999713897705,8.354211807250977,-7.824212074279785
0.5400000214576721,12.425830841064453,-11.885830879211426
0.550000011920929,10.300342559814453,-9.75034236907959
0.5600000023841858,9.627843856811523,-9.067843437194824
0.5699999928474426,10.285846710205078,-9.71584701538086
0.5799999833106995,14.321502685546875,-13.74150276184082
0.5899999737739563,10.726692199707031,-10.13669204711914
0.6000000238418579,14.11587905883789,-13.515878677368164
0.6100000143051147,11.520498275756836,-10.91049861907959
0.6200000047683716,9.118648529052734,-8.498648643493652
0.6299999952316284,3.4017066955566406,-2.7717065811157227
0.6399999856948853,6.80853271484375,-6.168532848358154
0.6499999761581421,1.5605621337890625,-0.9105621576309204
0.6600000262260437,-3.5022659301757812,4.162265777587891
0.6800000071525574,-2.4141483306884766,3.0941483974456787
0.6800000071525574,-6.003122329711914,6.683122158050537
0.6899999976158142,-3.8333969116210938,4.523396968841553
0.699999988079071,3.2612075805664062,-2.5612075328826904
0.7099999785423279,4.783924102783203,-4.0739240646362305
0.7200000286102295,6.919765472412109,-6.199765205383301
0.7300000190734863,6.808902740478516,-6.078902721405029
0.7400000095367432,3.1418838500976562,-2.401883840560913
0.75,4.9961395263671875,-4.2461395263671875
0.7599999904632568,3.979217529296875,-3.219217538833618
0.7699999809265137,-0.5205841064453125,1.2905840873718262
0.7799999713897705,3.367450714111328,-2.5874507427215576
0.7900000214576721,3.1759910583496094,-2.385991096496582
0.800000011920929,8.737602233886719,-7.9376020431518555
0.8100000023841858,13.129741668701172,-12.319741249084473
0.8199999928474426,14.312423706054688,-13.492424011230469
0.8399999737739563,7.160804748535156,-6.320804595947266
0.8399999737739563,6.197261810302734,-5.357261657714844
0.8500000238418579,-6.663536071777344,7.513535976409912
0.8600000143051147,-14.489383697509766,15.349383354187012
0.8700000047683716,-14.206161499023438,15.07616138458252
0.8799999952316284,-11.713539123535156,12.593539237976074
0.8899999856948853,-14.611053466796875,15.501053810119629
0.8999999761581421,-0.6760482788085938,1.5760482549667358
0.9100000262260437,3.02911376953125,-2.1191136837005615
0.9200000166893005,5.303684234619141,-4.383684158325195
0.9300000071525574,2.4802093505859375,-1.5502092838287354
0.9399999976158142,2.0417938232421875,-1.1017937660217285
0.949999988079071,-7.147819519042969,8.097819328308105
0.9599999785423279,-2.1971054077148438,3.1571054458618164
0.9700000286102295,2.3156661987304688,-1.3456661701202393
0.9900000095367432,10.883636474609375,-9.893636703491211
0.9900000095367432,13.645584106445312,-12.655584335327148
0.9800000190734863,15.727203369140625,-14.747203826904297
0.9700000286102295,11.561782836914062,-10.591782569885254
0.9599999785423279,7.283843994140625,-6.323843955993652
0.949999988079071,6.218025207519531,-5.2680253982543945
0.9399999976158142,12.281482696533203,-11.341483116149902
0.9200000166893005,7.339012145996094,-6.419012069702148
0.9200000166893005,1.4061927795410156,-0.4861927628517151
0.9100000262260437,-2.71319580078125,3.6231958866119385
0.8899999856948853,2.8257102966308594,-1.9357103109359741
0.8899999856948853,-2.2116546630859375,3.101654529571533
0.8799999952316284,-7.2399139404296875,8.119914054870605
0.8700000047683716,9.005939483642578,-8.135939598083496
0.8600000143051147,19.14148712158203,-18.28148651123047
0.8500000238418579,7.009344100952148,-6.15934419631958
0.8399999737739563,4.326778411865234,-3.486778497695923
0.8299999833106995,6.998800277709961,-6.168800354003906
0.8199999928474426,-5.3283796310424805,6.148379802703857
0.8100000023841858,-10.088950157165527,10.898950576782227
0.800000011920929,-14.877448081970215,15.677448272705078
0.7799999713897705,-3.5163917541503906,4.296391487121582
0.7699999809265137,-4.665611267089844,5.435611248016357
0.7699999809265137,-2.021800994873047,2.7918009757995605
0.7599999904632568,-3.086127281188965,3.8461272716522217
0.75,-0.24206161499023438,0.9920616149902344
0.7400000095367432,-6.965423583984375,7.705423355102539
0.7300000190734863,-9.283631324768066,10.013631820678711
0.7099999785423279,-7.226622581481934,7.936622619628906
0.7099999785423279,-1.2485408782958984,1.958540916442871
0.699999988079071,-3.816452980041504,4.516452789306641
0.6800000071525574,-4.616379737854004,5.296379566192627
0.6800000071525574,0.3081035614013672,0.3718964457511902
0.6700000166893005,0.49275684356689453,0.177243173122406
0.6600000262260437,-0.8597812652587891,1.5197813510894775
0.6499999761581421,3.060458183288574,-2.4104580879211426
0.6299999952316284,-2.870283603668213,3.500283718109131
0.6200000047683716,-4.144240856170654,4.764240741729736
0.6200000047683716,-6.495577335357666,7.115577220916748
0.6100000143051147,-0.9111828804016113,1.521182894706726
0.5899999737739563,-5.625558853149414,6.215559005737305
0.5899999737739563,0.5718793869018555,0.01812058687210083
0.5799999833106995,-1.2959260940551758,1.8759260177612305
0.5699999928474426,-0.610285758972168,1.1802856922149658
0.5600000023841858,-4.8726701736450195,5.4326701164245605
0.5400000214576721,2.7562365531921387,-2.2162365913391113
0.5400000214576721,2.952608108520508,-2.4126081466674805
0.5299999713897705,2.048750400543213,-1.5187504291534424
0.5199999809265137,1.942124843597412,-1.4221248626708984
0.5,11.107702255249023,-10.607702255249023
0.5,9.173689842224121,-8.673689842224121
0.47999998927116394,7.8327178955078125,-7.352717876434326
0.4699999988079071,10.739986419677734,-10.269986152648926
0.46000000834465027,10.623871803283691,-10.163871765136719
0.44999998807907104,0.24044513702392578,0.20955485105514526
0.4399999976158142,-0.8029918670654297,1.2429919242858887
0.4399999976158142,3.221320152282715,-2.781320095062256
0.4300000071525574,2.7606377601623535,-2.3306376934051514
0.4099999964237213,-2.235428810119629,2.6454288959503174
0.4099999964237213,0.0861654281616211,0.3238345682621002
0.4000000059604645,-0.9537982940673828,1.353798270225525
0.38999998569488525,-7.1598663330078125,7.549866199493408
0.3700000047683716,-6.651857376098633,7.021857261657715
0.3700000047683716,-3.334604263305664,3.704604148864746
0.36000001430511475,-6.890237808227539,7.250237941741943
0.3400000035762787,-6.106489658355713,6.4464898109436035
0.3400000035762787,-2.4374794960021973,2.777479410171509
0.3199999928474426,0.768470287322998,-0.4484702944755554
0.3100000023841858,-1.4010848999023438,1.7110848426818848
0.3100000023841858,-1.2178535461425781,1.5278534889221191
0.28999999165534973,-0.7577300071716309,1.0477299690246582
0.2800000011920929,-2.718945026397705,2.9989449977874756
0.2800000011920929,-7.730657577514648,8.01065731048584
0.27000001072883606,-5.05863094329834,5.3286309242248535
0.25,-7.184251308441162,7.434251308441162
0.25,-6.232021331787109,6.482021331787109
0.23000000417232513,-8.37306022644043,8.603059768676758
0.2199999988079071,5.553892135620117,-5.333892345428467
0.2199999988079071,11.591612815856934,-11.371612548828125
0.20000000298023224,23.642656326293945,-23.442655563354492
0.1899999976158142,22.192928314208984,-22.002927780151367
0.1899999976158142,29.247364044189453,-29.057363510131836
0.17000000178813934,20.17081069946289,-20.000810623168945
0.1599999964237213,17.196186065673828,-17.03618621826172
0.1599999964237213,8.224881172180176,-8.064881324768066
0.15000000596046448,13.162010192871094,-13.01201057434082
0.12999999523162842,12.54775333404541,-12.417753219604492
0.12999999523162842,23.481121063232422,-23.35112190246582
0.10999999940395355,23.797199249267578,-23.687198638916016
0.10000000149011612,22.38193702697754,-22.281936645507812
0.10000000149011612,19.2182559967041,-19.118255615234375
0.09000000357627869,19.020998001098633,-18.930997848510742
0.05999999865889549,9.517892837524414,-9.457892417907715
0.05999999865889549,8.488927841186523,-8.428927421569824
0.05000000074505806,11.140681266784668,-11.090681076049805
0.03999999910593033,11.543103218078613,-11.503103256225586
0.03999999910593033,8.885334968566895,-8.845335006713867
0.029999999329447746,17.34716796875,-17.317167282104492
0.009999999776482582,14.869607925415039,-14.859607696533203
0.009999999776482582,11.8858060836792,-11.875805854797363
0.009999999776482582,8.621946334838867,-8.611946105957031
0.019999999552965164,7.203970432281494,-7.1839704513549805
0.019999999552965164,0.31523597240448,-0.2952359616756439
0.029999999329447746,5.033811569213867,-5.003811359405518
0.05000000074505806,6.959409713745117,-6.909409523010254
0.05999999865889549,10.24244499206543,-10.18244457244873
0.07000000029802322,6.638582229614258,-6.568582057952881
0.07999999821186066,4.162163734436035,-4.0821638107299805
0.09000000357627869,5.225702285766602,-5.135702133178711
0.10000000149011612,0.47659778594970703,-0.3765977919101715
0.10999999940395355,-4.819077491760254,4.929077625274658
0.11999999731779099,-12.131738662719727,12.251738548278809
0.11999999731779099,-12.970710754394531,13.090710639953613
0.14000000059604645,-13.58006477355957,13.720065116882324
0.15000000596046448,-7.988920211791992,8.138919830322266
0.15000000596046448,-9.482841491699219,9.632841110229492
0.17000000178813934,-10.338058471679688,10.508058547973633
0.18000000715255737,-15.094490051269531,15.274490356445312
0.1899999976158142,-16.227434158325195,16.417434692382812
0.20000000298023224,-19.560543060302734,19.760543823242188
0.20999999344348907,-17.311771392822266,17.521770477294922
0.20999999344348907,-11.350173950195312,11.560173988342285
0.23000000417232513,-7.961021423339844,8.191020965576172
0.23999999463558197,-1.5741500854492188,1.814150094985962
0.25,-2.059844970703125,2.309844970703125
0.25999999046325684,-3.431591033935547,3.6915910243988037
0.27000001072883606,-1.3410968780517578,1.6110968589782715
0.2800000011920929,-0.6324386596679688,0.9124386310577393
0.28999999165534973,-5.224834442138672,5.514834403991699
0.30000001192092896,-10.346397399902344,10.646397590637207
0.3100000023841858,-11.11507797241211,11.425078392028809
0.3199999928474426,-9.914682388305664,10.234682083129883
0.33000001311302185,-5.288116455078125,5.61811637878418
0.3400000035762787,-5.420646667480469,5.760646820068359
0.3499999940395355,0.5244178771972656,-0.1744178831577301
0.36000001430511475,4.288736343383789,-3.9287362098693848
0.36000001430511475,1.8528366088867188,-1.492836594581604
0.3799999952316284,0.1769084930419922,0.20309150218963623
0.38999998569488525,-3.9772472381591797,4.367247104644775
0.38999998569488525,-6.7099761962890625,7.099976062774658
0.4099999964237213,-7.581390380859375,7.991390228271484
0.41999998688697815,-9.180977821350098,9.600977897644043
0.4300000071525574,-7.773038864135742,8.203039169311523
0.4399999976158142,-10.210784912109375,10.650784492492676
0.44999998807907104,-4.711719512939453,5.16171932220459
0.44999998807907104,-2.764667510986328,3.214667558670044
0.4699999988079071,-5.193567276000977,5.663567066192627
0.47999998927116394,-5.5621337890625,6.042133808135986
0.49000000953674316,0.5917263031005859,-0.10172629356384277
0.5,-4.453298568725586,4.953298568725586
0.5099999904632568,-9.415700912475586,9.925701141357422
0.5099999904632568,-8.238998413085938,8.748998641967773
0.5299999713897705,-7.381813049316406,7.911812782287598
0.5400000214576721,-3.835508346557617,4.3755083084106445
0.550000011920929,-0.9275779724121094,1.4775779247283936
0.5600000023841858,3.6294326782226562,-3.0694327354431152
0.5699999928474426,-0.9888076782226562,1.558807611465454
0.5799999833106995,-4.608367919921875,5.18836784362793
0.5899999737739563,-9.76430892944336,10.35430908203125
0.6000000238418579,-8.633695602416992,9.233695983886719
0.6100000143051147,-2.5791244506835938,3.189124584197998
0.6200000047683716,3.3013458251953125,-2.6813459396362305
0.6299999952316284,3.4241409301757812,-2.7941408157348633
0.6399999856948853,4.360311508178711,-3.7203116416931152
0.6499999761581421,3.2160377502441406,-2.566037654876709
0.6600000262260437,-5.235149383544922,5.895149230957031
0.6700000166893005,4.434696197509766,-3.7646961212158203
0.6800000071525574,6.760017395019531,-6.080017566680908
0.6899999976158142,8.629386901855469,-7.93938684463501
0.699999988079071,8.7373046875,-8.037304878234863
0.7099999785423279,6.384471893310547,-5.674471855163574
0.7200000286102295,-8.237936019897461,8.95793628692627
0.7300000190734863,-4.183597564697266,4.913597583770752
0.7400000095367432,0.5871772766113281,0.15282273292541504
0.75,4.115425109863281,-3.3654251098632812
0.7599999904632568,5.18829345703125,-4.428293228149414
0.7699999809265137,8.81332015991211,-8.043319702148438
0.7799999713897705,9.156421661376953,-8.376421928405762
0.7900000214576721,8.4151611328125,-7.625161170959473
0.800000011920929,14.454017639160156,-13.654017448425293
0.8100000023841858,14.803531646728516,-13.993531227111816
0.8199999928474426,7.307689666748047,-6.48768949508667
0.8299999833106995,4.192085266113281,-3.3620853424072266
0.8399999737739563,1.7058601379394531,-0.8658601641654968
0.8500000238418579,-15.820362091064453,16.67036247253418
0.8600000143051147,-16.824432373046875,17.684432983398438
0.8700000047683716,-13.77105712890625,14.641057014465332
0.8799999952316284,-17.459758758544922,18.339757919311523
0.8899999856948853,-18.65945053100586,19.549449920654297
0.8999999761581421,-14.043163299560547,14.94316291809082
0.9100000262260437,-4.308429718017578,5.2184295654296875
0.9200000166893005,-3.9578590393066406,4.877859115600586
0.9300000071525574,-5.321357727050781,6.251357555389404
0.9399999976158142,5.9360809326171875,-4.9960808753967285
0.949999988079071,5.119926452636719,-4.169926643371582
0.9599999785423279,-3.608165740966797,4.5681657791137695
0.9700000286102295,3.3384933471679688,-2.3684933185577393
0.9800000190734863,13.695350646972656,-12.715351104736328
0.9800000190734863,17.139358520507812,-16.159358978271484
0.9800000190734863,25.068069458007812,-24.088069915771484
0.9700000286102295,31.93621826171875,-30.966218948364258
0.9599999785423279,27.863826751708984,-26.903827667236328
0.949999988079071,30.04949951171875,-29.099498748779297
0.9399999976158142,22.641128540039062,-21.701128005981445
0.9300000071525574,18.58295440673828,-17.6529541015625
0.9200000166893005,14.112930297851562,-13.192930221557617
0.9100000262260437,10.853771209716797,-9.943771362304688
0.8999999761581421,3.2665061950683594,-2.3665060997009277
0.8899999856948853,11.351860046386719,-10.461859703063965
0.8799999952316284,8.229618072509766,-7.349617958068848
0.8700000047683716,4.7767791748046875,-3.9067792892456055
0.8600000143051147,11.823812484741211,-10.963812828063965
0.8500000238418579,3.642202377319336,-2.7922024726867676
0.8399999737739563,-15.952730178833008,16.7927303314209
0.8299999833106995,-11.823378562927246,12.6533784866333
0.8199999928474426,-9.246312141418457,10.066311836242676
0.8100000023841858,-11.136621475219727,11.946621894836426
0.800000011920929,-11.202271461486816,12.00227165222168
0.7900000214576721,-9.249064445495605,10.039064407348633
0.7799999713897705,-11.663958549499512,12.443958282470703
0.7699999809265137,-11.894357681274414,12.664358139038086
0.7599999904632568,-7.623797416687012,8.383797645568848
0.75,-10.71314525604248,11.46314525604248
0.7400000095367432,-9.389678001403809,10.129677772521973
0.7300000190734863,-10.231569290161133,10.961568832397461
0.7200000286102295,-5.195661544799805,5.915661811828613
0.7099999785423279,-3.978971481323242,4.688971519470215
0.699999988079071,-5.755046844482422,6.455046653747559
0.6899999976158142,-4.329771995544434,5.019772052764893
0.6800000071525574,-3.390139102935791,4.070138931274414
0.6700000166893005,-7.239858627319336,7.909858703613281
0.6600000262260437,-14.452274322509766,15.112274169921875
0.6499999761581421,-11.799497604370117,12.44949722290039
0.6399999856948853,-6.068526268005371,6.708526134490967
0.6299999952316284,-1.6629300117492676,2.2929301261901855
0.6200000047683716,-4.246255874633789,4.866255760192871
0.6100000143051147,-1.597848892211914,2.2078490257263184
0.6000000238418579,3.906461715698242,-3.306461811065674
0.5899999737739563,2.84682035446167,-2.2568204402923584
0.5799999833106995,1.9735031127929688,-1.393503189086914
0.5699999928474426,2.4834442138671875,-1.9134442806243896
0.5600000023841858,3.2469301223754883,-2.6869301795959473
0.550000011920929,6.591998100280762,-6.041997909545898
0.5400000214576721,14.689705848693848,-14.14970588684082
0.5299999713897705,10.623136520385742,-10.09313678741455
0.5199999809265137,7.085468292236328,-6.5654683113098145
0.5099999904632568,6.308202743530273,-5.7982025146484375
0.5,5.687798500061035,-5.187798500061035
0.49000000953674316,-3.6473264694213867,4.137326240539551
0.47999998927116394,1.1462087631225586,-0.6662087440490723
0.4699999988079071,9.361635208129883,-8.891634941101074
0.46000000834465027,6.566288948059082,-6.106288909912109
0.44999998807907104,3.247328758239746,-2.7973287105560303
0.4399999976158142,7.05291748046875,-6.612917423248291
0.4300000071525574,10.65727424621582,-10.227273941040039
0.41999998688697815,5.758458137512207,-5.338458061218262
0.4099999964237213,7.841270446777344,-7.431270599365234
0.4000000059604645,10.849417686462402,-10.449418067932129
0.3799999952316284,9.298449516296387,-8.918449401855469
0.3799999952316284,3.2293262481689453,-2.8493261337280273
0.3700000047683716,3.3114686012268066,-2.9414687156677246
0.36000001430511475,4.676085472106934,-4.316085338592529
0.3499999940395355,4.094206809997559,-3.7442069053649902
0.3400000035762787,4.995049476623535,-4.6550493240356445
0.33000001311302185,9.637001991271973,-9.307002067565918
0.3199999928474426,12.409483909606934,-12.089484214782715
0.3100000023841858,6.7624406814575195,-6.4524407386779785
0.30000001192092896,8.024742126464844,-7.7247419357299805
0.28999999165534973,2.1070070266723633,-1.817007064819336
0.2800000011920929,-0.03323793411254883,0.3132379353046417
0.27000001072883606,-4.632952690124512,4.902952671051025
0.25999999046325684,-1.9102604389190674,2.170260429382324
0.25,-6.567126274108887,6.817126274108887
0.23999999463558197,-13.749295234680176,13.98929500579834
0.23000000417232513,-11.052248001098633,11.282247543334961
0.2199999988079071,-21.69999122619629,21.91999053955078
0.20999999344348907,-32.25843811035156,32.46843719482422
0.20000000298023224,-28.24957275390625,28.449573516845703
0.1899999976158142,-9.311457633972168,9.501457214355469
0.18000000715255737,-10.59105110168457,10.771051406860352
0.17000000178813934,1.5989208221435547,-1.428920865058899
0.1599999964237213,5.291934013366699,-5.13193416595459
0.15000000596046448,-2.288628578186035,2.438628673553467
0.14000000059604645,-9.157550811767578,9.297551155090332
0.12999999523162842,-15.195887565612793,15.325887680053711
0.11999999731779099,-20.263404846191406,20.383405685424805
0.10999999940395355,-8.986920356750488,9.096920013427734
0.09000000357627869,-10.61832046508789,10.708320617675781
0.09000000357627869,-17.218774795532227,17.308774948120117
0.07999999821186066,-13.417900085449219,13.497900009155273
0.07000000029802322,-7.042166709899902,7.112166881561279
0.05999999865889549,-10.978239059448242,11.038239479064941
0.05000000074505806,0.05636954307556152,-0.006369542330503464
0.03999999910593033,-3.2820444107055664,3.3220443725585938
0.029999999329447746,-0.5852184295654297,0.6152184009552002
0.019999999552965164,4.5186004638671875,-4.498600482940674
0.009999999776482582,-6.811777114868164,6.82177734375
0.0,-18.301668167114258,18.301668167114258
0.009999999776482582,-12.14841079711914,12.158411026000977
0.019999999552965164,-13.773311614990234,13.793312072753906
0.029999999329447746,-16.250808715820312,16.28080940246582
0.05000000074505806,-14.015632629394531,14.065632820129395
0.05000000074505806,0.4957008361816406,-0.44570082426071167
0.05999999865889549,-0.21094894409179688,0.27094894647598267
0.07000000029802322,-4.531887054443359,4.601887226104736
0.07999999821186066,-13.457450866699219,13.537450790405273
0.09000000357627869,-2.826152801513672,2.9161527156829834
0.10000000149011612,-10.690509796142578,10.790510177612305
0.10999999940395355,-7.074604034423828,7.184604167938232
0.11999999731779099,-3.5166873931884766,3.6366872787475586
0.12999999523162842,3.171649932861328,-3.04164981842041
0.14000000059604645,-4.239333152770996,4.379333019256592
0.15000000596046448,-7.252260208129883,7.4022603034973145
0.1599999964237213,-12.059972763061523,12.219972610473633
0.17000000178813934,-6.915775299072266,7.085775375366211
0.18000000715255737,-7.800436019897461,7.980435848236084
0.1899999976158142,-10.04644775390625,10.23644733428955
0.20000000298023224,-7.875461578369141,8.075461387634277
0.20999999344348907,-1.3720970153808594,1.582097053527832
0.2199999988079071,-9.426355361938477,9.646355628967285
0.23000000417232513,-2.56695556640625,2.7969555854797363
0.23999999463558197,-3.9291458129882812,4.169145584106445
0.25,-8.402355194091797,8.652355194091797
0.25999999046325684,-6.8784332275390625,7.138433456420898
0.27000001072883606,-0.13061141967773438,0.40061143040657043
0.2800000011920929,2.692981719970703,-2.4129817485809326
0.28999999165534973,1.9425849914550781,-1.6525850296020508
0.30000001192092896,5.482566833496094,-5.1825666427612305
0.3100000023841858,2.031566619873047,-1.7215666770935059
0.3199999928474426,3.6899185180664062,-3.3699185848236084
0.33000001311302185,-12.545177459716797,12.875177383422852
0.3400000035762787,-11.59390640258789,11.933906555175781
0.3499999940395355,-10.330732345581055,10.680732727050781
0.36000001430511475,-8.968196868896484,9.32819652557373
0.3700000047683716,-11.071674346923828,11.44167423248291
0.3799999952316284,-1.3105812072753906,1.690581202507019
0.38999998569488525,-0.7369403839111328,1.126940369606018
0.4000000059604645,-3.039712905883789,3.4397130012512207
0.4099999964237213,-7.155195236206055,7.565195083618164
0.41999998688697815,-7.559314727783203,7.979314804077148
0.4300000071525574,-10.016427993774414,10.446428298950195
0.4399999976158142,-10.640085220336914,11.080084800720215
0.44999998807907104,-11.797353744506836,12.247353553771973
0.46000000834465027,-7.896343231201172,8.356343269348145
0.4699999988079071,-10.777095794677734,11.247096061706543
0.47999998927116394,-12.08719253540039,12.567192077636719
0.49000000953674316,-7.584114074707031,8.074113845825195
0.5,-4.484710693359375,4.984710693359375
0.5099999904632568,-9.407730102539062,9.917730331420898
0.5199999809265137,-11.831872940063477,12.351873397827148
0.5299999713897705,-1.9995765686035156,2.529576539993286
0.5400000214576721,6.543239593505859,-6.003239631652832
0.550000011920929,11.907585144042969,-11.357584953308105
0.5600000023841858,7.457084655761719,-6.897084712982178
0.5699999928474426,6.209541320800781,-5.639541149139404
0.5899999737739563,-2.347198486328125,2.9371984004974365
0.5899999737739563,-0.5035591125488281,1.0935590267181396
0.6000000238418579,-10.417343139648438,11.017343521118164
0.6100000143051147,-11.10506820678711,11.715067863464355
0.6200000047683716,2.306194305419922,-1.6861943006515503
0.6299999952316284,1.5113182067871094,-0.881318211555481
0.6399999856948853,-5.037811279296875,5.677811145782471
0.6600000262260437,4.529941558837891,-3.869941473007202
0.6600000262260437,15.091499328613281,-14.431499481201172
0.6700000166893005,11.142532348632812,-10.472532272338867
0.6800000071525574,17.62732696533203,-16.94732666015625
0.6899999976158142,16.980133056640625,-16.290132522583008
0.699999988079071,9.106513977050781,-8.406514167785645
0.7200000286102295,4.8350677490234375,-4.115067481994629
0.7200000286102295,1.3245658874511719,-0.6045658588409424
0.7300000190734863,-6.452484130859375,7.182484149932861
0.7400000095367432,-14.76492691040039,15.504926681518555
0.75,-13.137126922607422,13.887126922607422
0.7599999904632568,-5.231319427490234,5.99131965637207
0.7699999809265137,-8.059043884277344,8.829044342041016
0.7799999713897705,-8.366073608398438,9.146073341369629
0.7900000214576721,-1.7573471069335938,2.547347068786621
0.800000011920929,-0.9117317199707031,1.7117316722869873
0.8100000023841858,-13.257606506347656,14.067606925964355
0.8199999928474426,-11.059730529785156,11.879730224609375
0.8299999833106995,-12.691566467285156,13.521566390991211
0.8399999737739563,-14.814140319824219,15.65414047241211
0.8500000238418579,-15.491806030273438,16.341806411743164
0.8600000143051147,-3.607921600341797,4.467921733856201
0.8700000047683716,-5.216472625732422,6.086472511291504
0.8799999952316284,11.169563293457031,-10.289563179016113
0.8899999856948853,10.414894104003906,-9.524893760681152
0.8999999761581421,16.657047271728516,-15.757047653198242
0.9100000262260437,15.037773132324219,-14.12777328491211
0.9200000166893005,17.009078979492188,-16.089078903198242
0.9300000071525574,9.769397735595703,-8.839397430419922
0.9399999976158142,19.15271759033203,-18.212717056274414
0.949999988079071,17.385513305664062,-16.43551254272461
0.9700000286102295,14.454277038574219,-13.48427677154541
0.9700000286102295,16.853824615478516,-15.883824348449707
0.9800000190734863,33.03879165649414,-32.05879211425781
0.9800000190734863,30.54769515991211,-29.56769561767578
0.9800000190734863,28.660724639892578,-27.68072509765625
0.9599999785423279,30.337265014648438,-29.37726593017578
0.949999988079071,19.21964454650879,-18.269643783569336
0.949999988079071,-2.256490707397461,3.2064907550811768
0.9399999976158142,-1.287515640258789,2.227515697479248
0.9200000166893005,4.9603424072265625,-4.040342330932617
0.9200000166893005,0.014659881591796875,0.9053401350975037
0.9100000262260437,3.5887222290039062,-2.6787221431732178
0.8899999856948853,4.351299285888672,-3.461299419403076
0.8899999856948853,10.399158477783203,-9.50915813446045
0.8799999952316284,5.547813415527344,-4.667813301086426
0.8700000047683716,1.282470703125,-0.4124706983566284
0.8600000143051147,-2.7099180221557617,3.569918155670166
0.8500000238418579,-5.848886489868164,6.698886394500732
0.8299999833106995,-8.276885986328125,9.10688591003418
0.8299999833106995,-7.91854190826416,8.748541831970215
0.8199999928474426,-6.7820940017700195,7.6020941734313965
0.8100000023841858,-0.5341920852661133,1.3441920280456543
0.800000011920929,6.151697158813477,-5.351696968078613
0.7900000214576721,3.2505922317504883,-2.460592269897461
0.7699999809265137,4.994016647338867,-4.2240166664123535
0.7699999809265137,4.4556074142456055,-3.685607433319092
0.7599999904632568,4.439060211181641,-3.679060220718384
0.7400000095367432,10.358019828796387,-9.618020057678223
0.7400000095367432,17.091686248779297,-16.351686477661133
0.7300000190734863,12.892233848571777,-12.162233352661133
0.7099999785423279,17.73562240600586,-17.025623321533203
0.7099999785423279,20.021059036254883,-19.311059951782227
0.699999988079071,15.513461112976074,-14.813461303710938
0.6800000071525574,2.9218931198120117,-2.2418930530548096
0.6800000071525574,6.501015663146973,-5.82101583480835
0.6700000166893005,9.12057113647461,-8.450571060180664
0.6499999761581421,9.125528335571289,-8.475528717041016
0.6499999761581421,9.077875137329102,-8.427875518798828
0.6399999856948853,12.097955703735352,-11.457955360412598
0.6299999952316284,6.771179676055908,-6.14117956161499
0.6200000047683716,5.850767135620117,-5.230767250061035
0.6100000143051147,2.9179790019989014,-2.307979106903076
0.5899999737739563,2.3954548835754395,-1.805454969406128
0.5899999737739563,0.046894073486328125,0.5431059002876282
0.5799999833106995,1.4368882179260254,-0.8568882346153259
0.5600000023841858,-0.8654470443725586,1.4254469871520996
0.550000011920929,9.677084922790527,-9.127084732055664
0.5400000214576721,12.998946189880371,-12.458946228027344
0.5299999713897705,14.053691864013672,-13.52369213104248
0.5199999809265137,13.081597328186035,-12.56159782409668
0.5199999809265137,13.103792190551758,-12.583791732788086
0.5,10.595788955688477,-10.095788955688477
0.49000000953674316,7.478257179260254,-6.98825740814209
0.49000000953674316,6.148921489715576,-5.658921241760254
0.47999998927116394,5.598406791687012,-5.118406772613525
0.46000000834465027,4.605940341949463,-4.14594030380249
0.46000000834465027,9.301621437072754,-8.841621398925781
0.44999998807907104,9.390066146850586,-8.94006633758545
0.4300000071525574,9.258856773376465,-8.828856468200684
0.4300000071525574,9.042891502380371,-8.61289119720459
0.4099999964237213,7.780627727508545,-7.3706278800964355
0.4000000059604645,-5.443688869476318,5.84368896484375
0.38999998569488525,-9.888748168945312,10.278748512268066
0.3799999952316284,-5.510298728942871,5.890298843383789
0.3700000047683716,-5.385730743408203,5.755730628967285
0.3700000047683716,-2.175200939178467,2.545200824737549
0.36000001430511475,-0.015072345733642578,0.3750723600387573
0.3400000035762787,0.17037582397460938,0.1696241796016693
0.3400000035762787,2.5485100746154785,-2.208510160446167
0.3199999928474426,3.02400541305542,-2.704005479812622
0.3100000023841858,4.767368793487549,-4.457368850708008
0.3100000023841858,1.6144442558288574,-1.3044443130493164
0.30000001192092896,-2.7910919189453125,3.0910918712615967
0.2800000011920929,-7.35670280456543,7.636703014373779
0.2800000011920929,-1.9522266387939453,2.232226610183716
0.25999999046325684,-1.9768314361572266,2.2368314266204834
0.25,-1.2219924926757812,1.4719924926757812
0.25,2.4406538009643555,-2.1906538009643555
0.23000000417232513,6.504860877990723,-6.274860858917236
0.2199999988079071,1.7876615524291992,-1.5676615238189697
0.2199999988079071,-4.624238967895508,4.844238758087158
0.20000000298023224,-1.9423727989196777,2.1423728466033936
0.1899999976158142,-5.048310279846191,5.23831033706665
0.1899999976158142,-12.524799346923828,12.714798927307129
0.18000000715255737,-6.987617492675781,7.167617321014404
0.1599999964237213,-1.0211076736450195,1.1811076402664185
0.1599999964237213,3.8931684494018555,-3.733168363571167
0.14000000059604645,3.903756618499756,-3.763756513595581
0.12999999523162842,4.054236888885498,-3.92423677444458
0.11999999731779099,-5.884826183319092,6.004826068878174
0.10999999940395355,-11.494728088378906,11.604727745056152
0.10000000149011612,-17.326705932617188,17.426706314086914
0.10000000149011612,-13.840700149536133,13.94070053100586
0.09000000357627869,-9.264498710632324,9.354498863220215
0.07000000029802322,-7.653793811798096,7.723793983459473
0.05999999865889549,-0.9468569755554199,1.006856918334961
0.05000000074505806,1.8576719760894775,-1.8076720237731934
0.03999999910593033,6.434730529785156,-6.394730567932129
0.029999999329447746,13.905486106872559,-13.875486373901367
0.029999999329447746,11.083373069763184,-11.053373336791992
0.009999999776482582,8.867386817932129,-8.857386589050293
0.0,11.167272567749023,-11.167272567749023
0.0,14.190864562988281,-14.190864562988281
0.019999999552965164,5.592832088470459,-5.572832107543945
0.029999999329447746,12.363954544067383,-12.333954811096191
0.029999999329447746,21.231884002685547,-21.20188331604004
0.05000000074505806,17.232664108276367,-17.18266487121582
0.05999999865889549,5.318060874938965,-5.258060932159424
0.07000000029802322,4.985947608947754,-4.915947437286377
0.07999999821186066,11.144113540649414,-11.06411361694336
0.09000000357627869,3.9045650959014893,-3.8145651817321777
0.10000000149011612,0.2050464153289795,-0.10504641383886337
0.10999999940395355,3.714174747467041,-3.604174852371216
0.11999999731779099,0.6062049865722656,-0.48620498180389404
0.11999999731779099,-14.298871994018555,14.418871879577637
0.14000000059604645,-22.422727584838867,22.562726974487305
0.15000000596046448,-16.09326171875,16.243261337280273
0.1599999964237213,-18.56531524658203,18.72531509399414
0.17000000178813934,-17.288410186767578,17.458410263061523
0.18000000715255737,-20.227981567382812,20.407981872558594
0.1899999976158142,-14.897285461425781,15.087285041809082
0.20000000298023224,-14.483322143554688,14.683321952819824
0.20999999344348907,-15.796794891357422,16.006793975830078
0.2199999988079071,-17.841529846191406,18.0615291595459
0.23000000417232513,-18.064434051513672,18.29443359375
0.23999999463558197,-22.527048110961914,22.767047882080078
0.25,-14.956260681152344,15.206260681152344
0.25999999046325684,-9.371170043945312,9.631170272827148
0.27000001072883606,-1.9034385681152344,2.173438549041748
0.27000001072883606,2.507932662963867,-2.2379326820373535
0.28999999165534973,-3.1773834228515625,3.46738338470459
0.30000001192092896,-10.523063659667969,10.823063850402832
0.30000001192092896,-4.949636459350586,5.249636650085449
0.3199999928474426,-6.834407806396484,7.154407978057861
0.33000001311302185,-4.18231201171875,4.512311935424805
0.33000001311302185,2.466266632080078,-2.1362667083740234
0.3499999940395355,4.318572998046875,-3.9685730934143066
0.36000001430511475,-0.6575050354003906,1.0175050497055054
0.36000001430511475,6.071573257446289,-5.711573123931885
0.3799999952316284,6.789194107055664,-6.409193992614746
0.38999998569488525,6.152959823608398,-5.762959957122803
0.4000000059604645,2.414724349975586,-2.0147242546081543
0.4099999964237213,2.6745986938476562,-2.2645986080169678
0.41999998688697815,-16.371143341064453,16.7911434173584
0.4300000071525574,-18.156627655029297,18.586627960205078
0.4399999976158142,-18.966259002685547,19.406259536743164
0.44999998807907104,-15.036842346191406,15.486842155456543
0.46000000834465027,-14.012893676757812,14.472893714904785
0.4699999988079071,-9.657596588134766,10.127596855163574
0.47999998927116394,-7.330348968505859,7.810348987579346
0.49000000953674316,-6.545574188232422,7.035573959350586
0.5,-8.174558639526367,8.674558639526367
0.5099999904632568,-8.899662017822266,9.409662246704102
0.5199999809265137,-2.820087432861328,3.340087413787842
0.5299999713897705,-8.267370223999023,8.797369956970215
0.5400000214576721,-10.349512100219727,10.889512062072754
0.550000011920929,-9.483169555664062,10.033169746398926
0.5600000023841858,-11.458568572998047,12.018568992614746
0.5799999833106995,-14.846269607543945,15.42626953125
0.5799999833106995,-15.06240463256836,15.642404556274414
0.5899999737739563,-12.100931167602539,12.69093132019043
0.6000000238418579,-7.712177276611328,8.312177658081055
0.6100000143051147,-5.8826904296875,6.492690563201904
0.6200000047683716,-9.124237060546875,9.744236946105957
0.6299999952316284,-0.3430824279785156,0.973082423210144
0.6399999856948853,5.039848327636719,-4.399848461151123
0.6499999761581421,-1.6382789611816406,2.2882790565490723
0.6600000262260437,-11.464981079101562,12.124980926513672
0.6700000166893005,-11.709964752197266,12.379964828491211
0.6800000071525574,-16.62344741821289,17.303447723388672
0.6899999976158142,-18.877864837646484,19.5678653717041
0.699999988079071,-17.24317169189453,17.943172454833984
0.7099999785423279,-7.532936096191406,8.242936134338379
0.7200000286102295,-6.08819580078125,6.808196067810059
0.7300000190734863,4.184379577636719,-3.4543795585632324
0.7400000095367432,4.008918762207031,-3.268918752670288
0.75,-2.8146705627441406,3.5646705627441406
0.7599999904632568,3.513957977294922,-2.753957986831665
0.7699999809265137,3.329051971435547,-2.559051990509033
0.7799999713897705,-10.356037139892578,11.13603687286377
0.7900000214576721,-11.906139373779297,12.696139335632324
0.800000011920929,-4.839435577392578,5.639435768127441
0.8100000023841858,-8.841423034667969,9.651423454284668
0.8199999928474426,-2.0647239685058594,2.8847239017486572
0.8299999833106995,-0.1719207763671875,1.0019207000732422
0.8399999737739563,0.6889076232910156,0.15109235048294067
0.8500000238418579,3.174968719482422,-2.3249688148498535
0.8600000143051147,5.545627593994141,-4.685627460479736
0.8700000047683716,-1.7925186157226562,2.6625185012817383
0.8799999952316284,3.6440811157226562,-2.7640810012817383
0.8899999856948853,4.981609344482422,-4.091609477996826
0.8999999761581421,3.22076416015625,-2.3207640647888184
0.9100000262260437,9.822052001953125,-8.912052154541016
0.9200000166893005,12.353256225585938,-11.433256149291992
0.9300000071525574,16.190391540527344,-15.260391235351562
0.9399999976158142,18.920318603515625,-17.980318069458008
0.949999988079071,18.65251922607422,-17.702518463134766
0.9599999785423279,5.151947021484375,-4.191946983337402
0.9700000286102295,13.697463989257812,-12.727463722229004
0.9800000190734863,15.700599670410156,-14.720600128173828
0.9900000095367432,9.217994689941406,-8.227994918823242
0.9800000190734863,9.486244201660156,-8.506244659423828
0.9700000286102295,17.088733673095703,-16.11873435974121
0.9599999785423279,10.113643646240234,-9.153643608093262
0.949999988079071,-2.448009490966797,3.3980095386505127
0.9399999976158142,3.2366943359375,-2.296694278717041
0.9399999976158142,6.043300628662109,-5.10330057144165
0.9200000166893005,-1.34307861328125,2.2630786895751953
0.9100000262260437,-5.117652893066406,6.027652740478516
0.8999999761581421,7.392646789550781,-6.49264669418335
0.8899999856948853,4.064201354980469,-3.174201488494873
0.8799999952316284,1.7676620483398438,-0.8876620531082153
0.8700000047683716,8.267578125,-7.397578239440918
0.8600000143051147,15.030975341796875,-14.170975685119629
0.8500000238418579,4.893459320068359,-4.043459415435791
0.8399999737739563,4.089687347412109,-3.249687433242798
0.8299999833106995,-3.084941864013672,3.9149417877197266
0.8199999928474426,-9.996317863464355,10.816317558288574
0.8100000023841858,-10.776113510131836,11.586113929748535
0.800000011920929,-17.934009552001953,18.7340087890625
0.7900000214576721,-7.717189788818359,8.507189750671387
0.7799999713897705,-6.086132049560547,6.866131782531738
0.7699999809265137,-5.2458600997924805,6.015860080718994
0.7599999904632568,-1.6790199279785156,2.4390199184417725
0.75,5.16761589050293,-4.41761589050293
0.7300000190734863,3.4524688720703125,-2.722468852996826
0.7300000190734863,9.456767082214355,-8.726766586303711
0.7200000286102295,12.942904472351074,-12.222904205322266
0.7099999785423279,7.025642395019531,-6.315642356872559
0.699999988079071,8.015311241149902,-7.315311431884766
0.6899999976158142,8.213092803955078,-7.523092746734619
0.6800000071525574,9.442119598388672,-8.76211929321289
0.6700000166893005,5.389692306518555,-4.719692230224609
0.6600000262260437,9.369205474853516,-8.709205627441406
0.6499999761581421,7.328369140625,-6.678369045257568
0.6399999856948853,8.078332901000977,-7.438333034515381
0.6299999952316284,-1.4907941818237305,2.1207942962646484
0.6200000047683716,5.6373796463012695,-5.0173797607421875
0.6100000143051147,11.645630836486816,-11.03563117980957
0.6000000238418579,14.439517974853516,-13.839517593383789
0.5899999737739563,11.196627616882324,-10.606627464294434
0.5799999833106995,15.127461433410645,-14.54746150970459
0.5699999928474426,20.961570739746094,-20.391571044921875
0.5600000023841858,12.742146492004395,-12.182146072387695
0.550000011920929,9.931905746459961,-9.381905555725098
0.5400000214576721,9.90838623046875,-9.368386268615723
0.5299999713897705,10.94082260131836,-10.410822868347168
0.5199999809265137,7.302964210510254,-6.78296422958374
0.5099999904632568,12.892938613891602,-12.382938385009766
0.5,10.51008129119873,-10.01008129119873
0.49000000953674316,8.560232162475586,-8.070232391357422
0.47999998927116394,10.063063621520996,-9.583064079284668
0.4699999988079071,5.041229248046875,-4.571229457855225
0.46000000834465027,8.480741500854492,-8.02074146270752
0.44999998807907104,7.4541096687316895,-7.004109859466553
0.4399999976158142,10.024002075195312,-9.584002494812012
0.4300000071525574,8.694096565246582,-8.2640962600708
0.41999998688697815,15.20624828338623,-14.786248207092285
0.4099999964237213,14.444726943969727,-14.034727096557617
0.4000000059604645,19.9199275970459,-19.519927978515625
0.38999998569488525,18.333724975585938,-17.9437255859375
0.3799999952316284,17.300920486450195,-16.920921325683594
0.3700000047683716,8.804688453674316,-8.434688568115234
0.36000001430511475,4.416011333465576,-4.056011199951172
0.3499999940395355,-0.7807173728942871,1.130717396736145
0.3400000035762787,-3.6419477462768555,3.981947660446167
0.33000001311302185,0.3444328308105469,-0.014432817697525024
0.3199999928474426,2.3986921310424805,-2.0786921977996826
0.3100000023841858,3.065932273864746,-2.755932331085205
0.30000001192092896,5.0637407302856445,-4.763740539550781
0.28999999165534973,5.582345962524414,-5.292346000671387
0.2800000011920929,3.0459842681884766,-2.765984296798706
0.27000001072883606,1.238943099975586,-0.9689431190490723
0.25999999046325684,1.7742929458618164,-1.5142929553985596
0.25,5.256108283996582,-5.006108283996582
0.23999999463558197,15.909089088439941,-15.669089317321777
0.23000000417232513,16.49643898010254,-16.26643943786621
0.2199999988079071,14.615652084350586,-14.395651817321777
0.20999999344348907,13.399295806884766,-13.189295768737793
0.20000000298023224,8.099952697753906,-7.8999528884887695
0.1899999976158142,-7.555251121520996,7.745251178741455
0.18000000715255737,-3.1209335327148438,3.300933599472046
0.17000000178813934,-0.4452981948852539,0.6152982115745544
0.1599999964237213,-0.05609846115112305,0.21609845757484436
0.15000000596046448,2.6303610801696777,-2.480360984802246
0.14000000059604645,15.975445747375488,-15.835445404052734
0.12999999523162842,12.03360366821289,-11.903603553771973
0.11999999731779099,8.477245330810547,-8.357245445251465
0.10999999940395355,5.59156608581543,-5.481565952301025
0.10000000149011612,8.412287712097168,-8.312287330627441
0.09000000357627869,0.26854610443115234,-0.17854610085487366
0.07999999821186066,1.886357307434082,-1.8063572645187378
0.07000000029802322,9.476701736450195,-9.406702041625977
0.05999999865889549,17.37379264831543,-17.313793182373047
0.05000000074505806,4.4374308586120605,-4.387430667877197
0.03999999910593033,-0.15417766571044922,0.19417765736579895
0.029999999329447746,0.22092247009277344,-0.19092246890068054
0.019999999552965164,0.7519581317901611,-0.7319581508636475
0.009999999776482582,1.5487964153289795,-1.5387964248657227
0.0,11.068424224853516,-11.068424224853516
0.009999999776482582,9.5653657913208,-9.555365562438965
0.019999999552965164,5.8627190589904785,-5.842719078063965
0.029999999329447746,3.3125879764556885,-3.282588005065918
0.03999999910593033,3.6723477840423584,-3.632347822189331
0.05000000074505806,11.970605850219727,-11.920605659484863
0.05999999865889549,17.284069061279297,-17.224069595336914
0.07000000029802322,18.480133056640625,-18.410133361816406
0.07999999821186066,16.964075088500977,-16.884075164794922
0.09000000357627869,-5.606390953063965,5.6963911056518555
0.10000000149011612,-19.805736541748047,19.905736923217773
0.10999999940395355,-20.078449249267578,20.18844985961914
0.11999999731779099,-20.78127670288086,20.901277542114258
0.12999999523162842,-20.830368041992188,20.96036720275879
0.14000000059604645,-11.948593139648438,12.088593482971191
0.15000000596046448,-9.784198760986328,9.934198379516602
0.1599999964237213,-7.584785461425781,7.744785308837891
0.17000000178813934,-8.535877227783203,8.705877304077148
0.18000000715255737,-13.537120819091797,13.717121124267578
0.1899999976158142,-13.942070007324219,14.13206958770752
0.20000000298023224,-12.944042205810547,13.144042015075684
0.2199999988079071,-21.41172218322754,21.63172149658203
0.2199999988079071,-15.735939025878906,15.955939292907715
0.23000000417232513,-11.651321411132812,11.88132095336914
0.23999999463558197,-14.3944091796875,14.634408950805664
0.25,-5.219242095947266,5.469242095947266
0.25999999046325684,3.4810256958007812,-3.2210257053375244
0.27000001072883606,0.7742691040039062,-0.5042691230773926
0.28999999165534973,2.9425086975097656,-2.6525087356567383
0.28999999165534973,6.0299835205078125,-5.739983558654785
0.30000001192092896,-3.1241989135742188,3.424198865890503
0.3100000023841858,-8.54686164855957,8.85686206817627
0.3199999928474426,-8.749235153198242,9.069234848022461
0.33000001311302185,-8.683723449707031,9.013723373413086
0.3400000035762787,-15.643531799316406,15.983531951904297
0.3499999940395355,-10.137395858764648,10.487396240234375
0.36000001430511475,-12.68212890625,13.042128562927246
0.3799999952316284,-0.8941497802734375,1.274149775505066
0.3799999952316284,1.3415679931640625,-0.9615679979324341
0.4000000059604645,5.742549896240234,-5.342549800872803
0.4000000059604645,2.18402099609375,-1.784021019935608
0.41999998688697815,6.064577102661133,-5.6445770263671875
0.41999998688697815,-1.0890846252441406,1.5090845823287964
0.4300000071525574,-2.1437644958496094,2.5737645626068115
0.4399999976158142,-3.6406288146972656,4.080628871917725
0.44999998807907104,-2.5151424407958984,2.9651424884796143
0.46000000834465027,0.6360282897949219,-0.1760282814502716
0.4699999988079071,-3.5730972290039062,4.043097019195557
0.47999998927116394,-5.450534820556641,5.930534839630127
0.49000000953674316,-5.230594635009766,5.72059440612793
0.5,-2.916006088256836,3.416006088256836
0.5099999904632568,5.675754547119141,-5.165754318237305
0.5299999713897705,8.419708251953125,-7.889708518981934
0.5299999713897705,10.833431243896484,-10.303431510925293
0.5400000214576721,12.455081939697266,-11.915081977844238
0.550000011920929,3.3641128540039062,-2.814112901687622
0.5600000023841858,-9.666032791137695,10.226033210754395
0.5699999928474426,-10.78415298461914,11.35415267944336
0.5799999833106995,-13.142219543457031,13.722219467163086
0.5899999737739563,-15.942596435546875,16.532596588134766
0.6000000238418579,-10.735664367675781,11.335664749145508
0.6100000143051147,-9.95013427734375,10.560133934020996
0.6200000047683716,0.8877792358398438,-0.26777923107147217
0.6299999952316284,0.911285400390625,-0.2812854051589966
0.6399999856948853,2.0092926025390625,-1.3692926168441772
0.6499999761581421,0.1272735595703125,0.5227264165878296
0.6600000262260437,6.296146392822266,-5.636146545410156
0.6700000166893005,-6.098731994628906,6.768732070922852
0.6800000071525574,1.396759033203125,-0.7167590260505676
0.6899999976158142,6.738182067871094,-6.048182010650635
0.699999988079071,4.537452697753906,-3.8374526500701904
0.7099999785423279,-1.6367111206054688,2.3467111587524414
0.7200000286102295,-3.8896408081054688,4.609641075134277
0.7300000190734863,-9.964794158935547,10.694793701171875
0.75,-16.772838592529297,17.522838592529297
0.75,-18.283649444580078,19.033649444580078
0.7599999904632568,-14.850852966308594,15.61085319519043
0.7699999809265137,1.7164268493652344,-0.9464268684387207
0.7799999713897705,8.998573303222656,-8.218573570251465
0.7900000214576721,8.190437316894531,-7.400437355041504
0.800000011920929,9.430252075195312,-8.63025188446045
0.8100000023841858,17.04315948486328,-16.2331600189209
0.8199999928474426,4.163665771484375,-3.343665838241577
0.8299999833106995,0.6627197265625,0.16728025674819946
0.8500000238418579,7.237236022949219,-6.38723611831665
0.8500000238418579,16.24032211303711,-15.390321731567383
0.8600000143051147,16.867698669433594,-16.00769805908203
0.8799999952316284,37.5418701171875,-36.661869049072266
0.8799999952316284,36.90468978881836,-36.024688720703125
0.8899999856948853,34.06726837158203,-33.177268981933594
0.9100000262260437,27.187232971191406,-26.277233123779297
0.9100000262260437,17.100799560546875,-16.190799713134766
0.9300000071525574,3.892314910888672,-2.9623148441314697
0.9399999976158142,7.640472412109375,-6.700472354888916
0.9399999976158142,5.097358703613281,-4.157358646392822
0.949999988079071,7.381011962890625,-6.431012153625488
0.9599999785423279,9.059921264648438,-8.099921226501465
0.9700000286102295,-0.6995849609375,1.6695849895477295
0.9800000190734863,1.4205055236816406,-0.4405055046081543
0.9800000190734863,8.121574401855469,-7.141574382781982
0.9800000190734863,10.091476440429688,-9.11147689819336
0.9700000286102295,7.442054748535156,-6.472054481506348
0.949999988079071,21.808868408203125,-20.858867645263672
0.949999988079071,13.488117218017578,-12.538117408752441
0.9399999976158142,9.701774597167969,-8.761775016784668
0.9200000166893005,8.03921127319336,-7.119211196899414
0.9200000166893005,11.196983337402344,-10.276983261108398
0.9100000262260437,12.03762435913086,-11.12762451171875
0.8899999856948853,10.350162506103516,-9.460162162780762
0.8799999952316284,15.834976196289062,-14.954976081848145
0.8799999952316284,20.993423461914062,-20.11342430114746
0.8600000143051147,17.486591339111328,-16.626590728759766
0.8500000238418579,1.8360462188720703,-0.9860461950302124
0.8500000238418579,7.192148208618164,-6.342148303985596
0.8299999833106995,0.7961349487304688,0.03386503458023071
0.8199999928474426,-4.926143646240234,5.746143817901611
0.8199999928474426,-3.089385986328125,3.909385919570923
0.8100000023841858,1.7239112854003906,-0.9139112830162048
0.800000011920929,5.854328155517578,-5.054327964782715
0.7900000214576721,16.069196701049805,-15.279196739196777
0.7699999809265137,17.469165802001953,-16.69916534423828
0.7599999904632568,18.15198516845703,-17.391984939575195
0.7599999904632568,21.377174377441406,-20.61717414855957
0.75,20.594438552856445,-19.844438552856445
0.7400000095367432,11.232315063476562,-10.492315292358398
0.7300000190734863,16.228954315185547,-15.498954772949219
0.7099999785423279,10.73128890991211,-10.021288871765137
0.699999988079071,8.799224853515625,-8.099225044250488
0.699999988079071,18.318552017211914,-17.61855125427246
0.6899999976158142,14.409439086914062,-13.719439506530762
0.6700000166893005,11.314718246459961,-10.644718170166016
0.6700000166893005,11.406278610229492,-10.736278533935547
0.6600000262260437,12.662187576293945,-12.002187728881836
0.6399999856948853,8.758275985717773,-8.11827564239502
0.6299999952316284,11.186356544494629,-10.556356430053711
0.6299999952316284,5.534605026245117,-4.904604911804199
0.6100000143051147,15.975252151489258,-15.365252494812012
0.6000000238418579,16.85527229309082,-16.255271911621094
0.6000000238418579,17.6330509185791,-17.033050537109375
0.5799999833106995,18.8953857421875,-18.315385818481445
0.5799999833106995,21.516075134277344,-20.93607521057129
0.5600000023841858,25.743045806884766,-25.183046340942383
0.550000011920929,28.049530029296875,-27.499530792236328
0.550000011920929,21.468246459960938,-20.91824722290039
0.5400000214576721,15.607616424560547,-15.06761646270752
0.5199999809265137,16.23150634765625,-15.711505889892578
0.5199999809265137,10.879873275756836,-10.359872817993164
0.5099999904632568,12.562638282775879,-12.052638053894043
0.49000000953674316,20.252410888671875,-19.76241111755371
0.49000000953674316,29.914152145385742,-29.424152374267578
0.47999998927116394,25.86292839050293,-25.3829288482666
0.46000000834465027,16.14167022705078,-15.681670188903809
0.46000000834465027,17.35546875,-16.895469665527344
0.4399999976158142,12.288666725158691,-11.84866714477539
0.4300000071525574,1.0926237106323242,-0.6626237034797668
0.4300000071525574,-0.2731304168701172,0.7031304240226746
0.41999998688697815,0.19371318817138672,0.22628679871559143
0.4000000059604645,2.7653093338012695,-2.365309238433838
0.4000000059604645,9.689459800720215,-9.289460182189941
0.38999998569488525,9.114006996154785,-8.724006652832031
0.3700000047683716,13.268874168395996,-12.898874282836914
0.3700000047683716,12.133649826049805,-11.763649940490723
0.3499999940395355,4.589746475219727,-4.239746570587158
