5.300000000000000000e+01,2.490000000000000000e+02,5.200000000000000000e+02,6.100000000000000000e+01,3.100000000000000000e+01,2.900000000000000000e+01,2.500000000000000000e+01,5.300000000000000000e+01,2.999999999999999889e-02,1.764610000000000000e+07
5.400000000000000000e+01,2.450000000000000000e+02,4.840000000000000000e+02,5.700000000000000000e+01,2.800000000000000000e+01,2.800000000000000000e+01,2.300000000000000000e+01,4.800000000000000000e+01,4.000000000000000083e-02,3.289572000000000000e+08
6.200000000000000000e+01,2.550000000000000000e+02,4.520000000000000000e+02,6.600000000000000000e+01,2.900000000000000000e+01,3.600000000000000000e+01,2.600000000000000000e+01,4.000000000000000000e+01,4.000000000000000083e-02,3.289699000000000000e+08
5.800000000000000000e+01,2.660000000000000000e+02,4.410000000000000000e+02,6.300000000000000000e+01,2.800000000000000000e+01,3.200000000000000000e+01,2.500000000000000000e+01,3.700000000000000000e+01,4.000000000000000083e-02,3.289782000000000000e+08
5.800000000000000000e+01,2.760000000000000000e+02,4.410000000000000000e+02,6.200000000000000000e+01,3.000000000000000000e+01,3.600000000000000000e+01,3.000000000000000000e+01,3.600000000000000000e+01,4.000000000000000083e-02,3.289859000000000000e+08
5.900000000000000000e+01,2.650000000000000000e+02,5.390000000000000000e+02,6.400000000000000000e+01,3.100000000000000000e+01,4.100000000000000000e+01,4.200000000000000000e+01,5.900000000000000000e+01,4.000000000000000083e-02,3.289934000000000000e+08
5.500000000000000000e+01,2.620000000000000000e+02,5.540000000000000000e+02,6.400000000000000000e+01,3.200000000000000000e+01,5.200000000000000000e+01,4.400000000000000000e+01,8.600000000000000000e+01,4.000000000000000083e-02,3.290009000000000000e+08
5.200000000000000000e+01,2.570000000000000000e+02,5.820000000000000000e+02,6.100000000000000000e+01,3.200000000000000000e+01,4.900000000000000000e+01,4.500000000000000000e+01,9.200000000000000000e+01,4.000000000000000083e-02,3.290082000000000000e+08
5.400000000000000000e+01,2.270000000000000000e+02,6.350000000000000000e+02,5.900000000000000000e+01,3.400000000000000000e+01,5.200000000000000000e+01,4.500000000000000000e+01,1.110000000000000000e+02,4.000000000000000083e-02,3.290160000000000000e+08
5.400000000000000000e+01,2.460000000000000000e+02,6.470000000000000000e+02,6.100000000000000000e+01,3.400000000000000000e+01,4.900000000000000000e+01,4.100000000000000000e+01,1.110000000000000000e+02,4.000000000000000083e-02,3.290235000000000000e+08
6.000000000000000000e+01,2.580000000000000000e+02,6.580000000000000000e+02,6.100000000000000000e+01,3.400000000000000000e+01,4.700000000000000000e+01,2.800000000000000000e+01,1.030000000000000000e+02,4.000000000000000083e-02,3.290356000000000000e+08
7.100000000000000000e+01,2.770000000000000000e+02,6.740000000000000000e+02,8.300000000000000000e+01,4.000000000000000000e+01,3.700000000000000000e+01,3.100000000000000000e+01,8.100000000000000000e+01,4.000000000000000083e-02,3.290430000000000000e+08
6.600000000000000000e+01,2.600000000000000000e+02,6.670000000000000000e+02,7.800000000000000000e+01,3.800000000000000000e+01,3.400000000000000000e+01,2.600000000000000000e+01,7.600000000000000000e+01,4.000000000000000083e-02,3.290507000000000000e+08
6.400000000000000000e+01,2.530000000000000000e+02,7.360000000000000000e+02,8.200000000000000000e+01,3.900000000000000000e+01,3.200000000000000000e+01,2.600000000000000000e+01,5.100000000000000000e+01,4.000000000000000083e-02,3.290576000000000000e+08
7.100000000000000000e+01,2.340000000000000000e+02,7.960000000000000000e+02,9.000000000000000000e+01,4.300000000000000000e+01,3.700000000000000000e+01,4.100000000000000000e+01,5.300000000000000000e+01,4.000000000000000083e-02,3.290652000000000000e+08
1.180000000000000000e+02,2.730000000000000000e+02,7.780000000000000000e+02,9.300000000000000000e+01,4.300000000000000000e+01,3.500000000000000000e+01,4.100000000000000000e+01,9.800000000000000000e+01,4.000000000000000083e-02,3.290722000000000000e+08
1.320000000000000000e+02,3.330000000000000000e+02,7.420000000000000000e+02,9.500000000000000000e+01,4.700000000000000000e+01,4.000000000000000000e+01,4.400000000000000000e+01,1.010000000000000000e+02,1.900000000000000022e-01,3.474046000000000000e+08
1.410000000000000000e+02,3.440000000000000000e+02,7.160000000000000000e+02,9.800000000000000000e+01,4.700000000000000000e+01,5.400000000000000000e+01,4.600000000000000000e+01,1.060000000000000000e+02,1.900000000000000022e-01,3.474166000000000000e+08
1.450000000000000000e+02,3.430000000000000000e+02,7.220000000000000000e+02,1.010000000000000000e+02,4.500000000000000000e+01,7.700000000000000000e+01,7.000000000000000000e+01,1.520000000000000000e+02,2.099999999999999922e-01,3.811946000000000000e+08
1.480000000000000000e+02,3.360000000000000000e+02,7.220000000000000000e+02,1.010000000000000000e+02,4.400000000000000000e+01,1.290000000000000000e+02,7.400000000000000000e+01,1.940000000000000000e+02,2.200000000000000011e-01,3.982865000000000000e+08
1.200000000000000000e+02,3.190000000000000000e+02,7.910000000000000000e+02,1.080000000000000000e+02,4.500000000000000000e+01,1.380000000000000000e+02,7.600000000000000000e+01,1.920000000000000000e+02,2.300000000000000100e-01,4.189654000000000000e+08
1.050000000000000000e+02,2.780000000000000000e+02,7.980000000000000000e+02,1.010000000000000000e+02,4.300000000000000000e+01,1.400000000000000000e+02,7.300000000000000000e+01,1.950000000000000000e+02,2.399999999999999911e-01,4.381988000000000000e+08
1.200000000000000000e+02,3.950000000000000000e+02,8.590000000000000000e+02,1.120000000000000000e+02,5.100000000000000000e+01,1.590000000000000000e+02,8.400000000000000000e+01,2.030000000000000000e+02,2.600000000000000089e-01,4.802865000000000000e+08
1.300000000000000000e+02,4.060000000000000000e+02,7.750000000000000000e+02,1.170000000000000000e+02,5.500000000000000000e+01,3.030000000000000000e+02,1.070000000000000000e+02,2.670000000000000000e+02,2.600000000000000089e-01,4.803008000000000000e+08
1.310000000000000000e+02,3.970000000000000000e+02,7.290000000000000000e+02,1.130000000000000000e+02,5.400000000000000000e+01,3.120000000000000000e+02,1.050000000000000000e+02,2.590000000000000000e+02,2.700000000000000178e-01,4.996838000000000000e+08
1.320000000000000000e+02,4.010000000000000000e+02,6.170000000000000000e+02,1.120000000000000000e+02,5.400000000000000000e+01,3.360000000000000000e+02,1.950000000000000000e+02,3.600000000000000000e+02,2.800000000000000266e-01,5.194082000000000000e+08
1.350000000000000000e+02,4.040000000000000000e+02,6.410000000000000000e+02,1.040000000000000000e+02,6.500000000000000000e+01,4.350000000000000000e+02,6.250000000000000000e+02,5.600000000000000000e+02,2.899999999999999800e-01,5.387659000000000000e+08
1.520000000000000000e+02,3.170000000000000000e+02,5.570000000000000000e+02,9.000000000000000000e+01,9.100000000000000000e+01,6.070000000000000000e+02,7.910000000000000000e+02,7.320000000000000000e+02,2.999999999999999889e-01,5.584030000000000000e+08
1.740000000000000000e+02,3.120000000000000000e+02,5.120000000000000000e+02,7.900000000000000000e+01,1.120000000000000000e+02,6.810000000000000000e+02,9.240000000000000000e+02,8.740000000000000000e+02,3.099999999999999978e-01,5.781390000000000000e+08
2.010000000000000000e+02,3.620000000000000000e+02,4.550000000000000000e+02,7.600000000000000000e+01,1.150000000000000000e+02,7.540000000000000000e+02,1.011000000000000000e+03,9.200000000000000000e+02,3.200000000000000067e-01,5.981678000000000000e+08
2.140000000000000000e+02,3.820000000000000000e+02,4.610000000000000000e+02,7.600000000000000000e+01,1.230000000000000000e+02,8.390000000000000000e+02,1.160000000000000000e+03,9.630000000000000000e+02,3.300000000000000155e-01,6.190967000000000000e+08
2.400000000000000000e+02,4.110000000000000000e+02,4.210000000000000000e+02,9.300000000000000000e+01,1.170000000000000000e+02,8.270000000000000000e+02,1.017000000000000000e+03,9.460000000000000000e+02,3.400000000000000244e-01,6.385833000000000000e+08
2.330000000000000000e+02,4.070000000000000000e+02,3.780000000000000000e+02,9.700000000000000000e+01,1.090000000000000000e+02,7.970000000000000000e+02,9.670000000000000000e+02,9.450000000000000000e+02,3.499999999999999778e-01,6.580230000000000000e+08
2.330000000000000000e+02,4.170000000000000000e+02,4.970000000000000000e+02,1.080000000000000000e+02,1.100000000000000000e+02,7.430000000000000000e+02,9.720000000000000000e+02,9.190000000000000000e+02,3.699999999999999956e-01,6.983624000000000000e+08
2.200000000000000000e+02,3.950000000000000000e+02,5.710000000000000000e+02,1.220000000000000000e+02,1.190000000000000000e+02,8.100000000000000000e+02,1.059000000000000000e+03,9.780000000000000000e+02,3.699999999999999956e-01,6.983781000000000000e+08
2.120000000000000000e+02,3.930000000000000000e+02,5.880000000000000000e+02,1.160000000000000000e+02,1.220000000000000000e+02,8.180000000000000000e+02,9.580000000000000000e+02,1.007000000000000000e+03,3.800000000000000044e-01,7.206037000000000000e+08
2.790000000000000000e+02,3.810000000000000000e+02,6.270000000000000000e+02,1.110000000000000000e+02,1.280000000000000000e+02,8.090000000000000000e+02,1.039000000000000000e+03,9.720000000000000000e+02,3.900000000000000133e-01,7.402353000000000000e+08
2.770000000000000000e+02,3.530000000000000000e+02,6.690000000000000000e+02,1.100000000000000000e+02,1.210000000000000000e+02,8.470000000000000000e+02,1.063000000000000000e+03,9.170000000000000000e+02,4.000000000000000222e-01,7.592152000000000000e+08
2.600000000000000000e+02,3.290000000000000000e+02,6.450000000000000000e+02,9.700000000000000000e+01,9.900000000000000000e+01,8.160000000000000000e+02,9.790000000000000000e+02,8.210000000000000000e+02,4.099999999999999756e-01,7.787546000000000000e+08
2.620000000000000000e+02,3.260000000000000000e+02,6.610000000000000000e+02,8.600000000000000000e+01,8.700000000000000000e+01,6.920000000000000000e+02,8.950000000000000000e+02,7.220000000000000000e+02,4.199999999999999845e-01,7.980212000000000000e+08
2.740000000000000000e+02,3.170000000000000000e+02,7.000000000000000000e+02,9.300000000000000000e+01,7.900000000000000000e+01,5.960000000000000000e+02,8.630000000000000000e+02,6.730000000000000000e+02,4.299999999999999933e-01,8.178477000000000000e+08
1.870000000000000000e+02,2.840000000000000000e+02,6.480000000000000000e+02,8.300000000000000000e+01,7.100000000000000000e+01,6.000000000000000000e+02,8.580000000000000000e+02,6.950000000000000000e+02,4.400000000000000022e-01,8.380666000000000000e+08
2.520000000000000000e+02,3.170000000000000000e+02,6.480000000000000000e+02,8.000000000000000000e+01,7.000000000000000000e+01,4.860000000000000000e+02,8.380000000000000000e+02,6.900000000000000000e+02,4.500000000000000111e-01,8.601263000000000000e+08
2.620000000000000000e+02,3.440000000000000000e+02,6.320000000000000000e+02,8.300000000000000000e+01,7.400000000000000000e+01,5.230000000000000000e+02,8.560000000000000000e+02,6.920000000000000000e+02,4.600000000000000200e-01,8.792773000000000000e+08
2.570000000000000000e+02,3.700000000000000000e+02,6.000000000000000000e+02,8.400000000000000000e+01,7.100000000000000000e+01,5.150000000000000000e+02,9.500000000000000000e+02,7.170000000000000000e+02,4.799999999999999822e-01,9.199406000000000000e+08
2.400000000000000000e+02,3.680000000000000000e+02,4.980000000000000000e+02,7.500000000000000000e+01,6.700000000000000000e+01,5.580000000000000000e+02,9.650000000000000000e+02,6.540000000000000000e+02,4.799999999999999822e-01,9.199601000000000000e+08
2.580000000000000000e+02,3.820000000000000000e+02,6.290000000000000000e+02,1.060000000000000000e+02,6.800000000000000000e+01,6.800000000000000000e+02,9.640000000000000000e+02,6.630000000000000000e+02,4.899999999999999911e-01,9.386882000000000000e+08
2.310000000000000000e+02,3.710000000000000000e+02,6.660000000000000000e+02,1.090000000000000000e+02,6.900000000000000000e+01,6.300000000000000000e+02,9.560000000000000000e+02,6.920000000000000000e+02,5.000000000000000000e-01,9.602402000000000000e+08
2.220000000000000000e+02,3.670000000000000000e+02,6.370000000000000000e+02,1.110000000000000000e+02,7.800000000000000000e+01,6.260000000000000000e+02,1.046000000000000000e+03,7.660000000000000000e+02,5.100000000000000089e-01,9.794415000000000000e+08
2.340000000000000000e+02,3.640000000000000000e+02,6.090000000000000000e+02,1.080000000000000000e+02,8.800000000000000000e+01,6.260000000000000000e+02,9.070000000000000000e+02,8.470000000000000000e+02,5.200000000000000178e-01,9.983357000000000000e+08
2.690000000000000000e+02,3.590000000000000000e+02,6.940000000000000000e+02,1.130000000000000000e+02,1.040000000000000000e+02,7.320000000000000000e+02,1.003000000000000000e+03,8.990000000000000000e+02,5.300000000000000266e-01,1.017775300000000000e+09
2.490000000000000000e+02,3.300000000000000000e+02,5.720000000000000000e+02,8.500000000000000000e+01,1.040000000000000000e+02,7.100000000000000000e+02,9.430000000000000000e+02,9.110000000000000000e+02,5.400000000000000355e-01,1.040666400000000000e+09
2.140000000000000000e+02,3.490000000000000000e+02,5.320000000000000000e+02,7.900000000000000000e+01,1.070000000000000000e+02,7.990000000000000000e+02,9.490000000000000000e+02,9.150000000000000000e+02,5.500000000000000444e-01,1.060203400000000000e+09
2.260000000000000000e+02,3.570000000000000000e+02,5.790000000000000000e+02,7.500000000000000000e+01,1.070000000000000000e+02,8.390000000000000000e+02,8.670000000000000000e+02,8.900000000000000000e+02,5.600000000000000533e-01,1.077934400000000000e+09
2.290000000000000000e+02,3.330000000000000000e+02,5.700000000000000000e+02,8.300000000000000000e+01,1.210000000000000000e+02,9.240000000000000000e+02,9.260000000000000000e+02,8.480000000000000000e+02,5.699999999999999512e-01,1.099803900000000000e+09
1.990000000000000000e+02,3.640000000000000000e+02,5.150000000000000000e+02,8.300000000000000000e+01,1.180000000000000000e+02,9.070000000000000000e+02,8.550000000000000000e+02,8.210000000000000000e+02,5.799999999999999600e-01,1.118742800000000000e+09
2.000000000000000000e+02,3.910000000000000000e+02,5.240000000000000000e+02,8.300000000000000000e+01,1.160000000000000000e+02,9.070000000000000000e+02,8.920000000000000000e+02,7.890000000000000000e+02,5.899999999999999689e-01,1.140281000000000000e+09
2.210000000000000000e+02,3.700000000000000000e+02,5.120000000000000000e+02,8.600000000000000000e+01,1.170000000000000000e+02,8.870000000000000000e+02,9.230000000000000000e+02,7.490000000000000000e+02,5.999999999999999778e-01,1.159792600000000000e+09
2.060000000000000000e+02,3.960000000000000000e+02,5.410000000000000000e+02,1.000000000000000000e+02,1.130000000000000000e+02,8.370000000000000000e+02,8.940000000000000000e+02,6.820000000000000000e+02,6.099999999999999867e-01,1.178851000000000000e+09
2.020000000000000000e+02,4.230000000000000000e+02,5.910000000000000000e+02,1.040000000000000000e+02,9.800000000000000000e+01,7.870000000000000000e+02,8.820000000000000000e+02,7.050000000000000000e+02,6.199999999999999956e-01,1.199981700000000000e+09
1.940000000000000000e+02,4.250000000000000000e+02,5.300000000000000000e+02,1.000000000000000000e+02,9.600000000000000000e+01,7.380000000000000000e+02,8.450000000000000000e+02,7.310000000000000000e+02,6.300000000000000044e-01,1.218864000000000000e+09
1.880000000000000000e+02,4.420000000000000000e+02,5.230000000000000000e+02,9.900000000000000000e+01,9.400000000000000000e+01,6.370000000000000000e+02,8.290000000000000000e+02,6.820000000000000000e+02,6.400000000000000133e-01,1.239723600000000000e+09
1.490000000000000000e+02,4.490000000000000000e+02,5.240000000000000000e+02,9.600000000000000000e+01,9.000000000000000000e+01,6.560000000000000000e+02,7.200000000000000000e+02,6.980000000000000000e+02,6.500000000000000222e-01,1.259457900000000000e+09
1.690000000000000000e+02,4.670000000000000000e+02,5.620000000000000000e+02,8.700000000000000000e+01,9.000000000000000000e+01,7.540000000000000000e+02,7.780000000000000000e+02,7.300000000000000000e+02,6.600000000000000311e-01,1.278979700000000000e+09
1.510000000000000000e+02,4.530000000000000000e+02,5.000000000000000000e+02,7.200000000000000000e+01,8.800000000000000000e+01,7.820000000000000000e+02,8.010000000000000000e+02,6.580000000000000000e+02,6.700000000000000400e-01,1.299486000000000000e+09
1.600000000000000000e+02,4.310000000000000000e+02,5.040000000000000000e+02,6.900000000000000000e+01,7.700000000000000000e+01,8.100000000000000000e+02,8.090000000000000000e+02,6.840000000000000000e+02,6.800000000000000488e-01,1.333046900000000000e+09
1.710000000000000000e+02,4.010000000000000000e+02,4.880000000000000000e+02,6.900000000000000000e+01,8.500000000000000000e+01,8.870000000000000000e+02,8.140000000000000000e+02,7.110000000000000000e+02,6.800000000000000488e-01,1.333057700000000000e+09
1.740000000000000000e+02,4.250000000000000000e+02,4.650000000000000000e+02,7.100000000000000000e+01,8.400000000000000000e+01,8.970000000000000000e+02,9.340000000000000000e+02,6.900000000000000000e+02,6.999999999999999556e-01,1.360033000000000000e+09
1.610000000000000000e+02,3.770000000000000000e+02,2.940000000000000000e+02,6.100000000000000000e+01,8.700000000000000000e+01,8.620000000000000000e+02,8.880000000000000000e+02,7.290000000000000000e+02,7.099999999999999645e-01,1.379016200000000000e+09
1.690000000000000000e+02,3.580000000000000000e+02,2.920000000000000000e+02,6.200000000000000000e+01,8.600000000000000000e+01,8.710000000000000000e+02,8.100000000000000000e+02,7.250000000000000000e+02,7.199999999999999734e-01,1.397920500000000000e+09
1.650000000000000000e+02,3.600000000000000000e+02,3.870000000000000000e+02,6.200000000000000000e+01,8.900000000000000000e+01,8.590000000000000000e+02,8.920000000000000000e+02,7.160000000000000000e+02,7.399999999999999911e-01,1.437899800000000000e+09
1.690000000000000000e+02,3.850000000000000000e+02,4.190000000000000000e+02,6.600000000000000000e+01,8.800000000000000000e+01,8.520000000000000000e+02,9.160000000000000000e+02,8.030000000000000000e+02,7.399999999999999911e-01,1.437914300000000000e+09
1.740000000000000000e+02,4.270000000000000000e+02,3.950000000000000000e+02,6.700000000000000000e+01,9.500000000000000000e+01,8.730000000000000000e+02,8.170000000000000000e+02,8.200000000000000000e+02,7.500000000000000000e-01,1.459829100000000000e+09
1.740000000000000000e+02,4.630000000000000000e+02,3.870000000000000000e+02,6.800000000000000000e+01,1.010000000000000000e+02,9.810000000000000000e+02,9.170000000000000000e+02,8.360000000000000000e+02,7.600000000000000089e-01,1.478741600000000000e+09
1.830000000000000000e+02,4.930000000000000000e+02,3.950000000000000000e+02,7.100000000000000000e+01,1.170000000000000000e+02,1.099000000000000000e+03,1.035000000000000000e+03,9.200000000000000000e+02,7.700000000000000178e-01,1.498215200000000000e+09
1.910000000000000000e+02,5.010000000000000000e+02,3.820000000000000000e+02,7.600000000000000000e+01,1.190000000000000000e+02,1.082000000000000000e+03,9.820000000000000000e+02,9.380000000000000000e+02,7.800000000000000266e-01,1.519991500000000000e+09
2.010000000000000000e+02,4.670000000000000000e+02,3.730000000000000000e+02,7.700000000000000000e+01,1.210000000000000000e+02,1.092000000000000000e+03,1.010000000000000000e+03,9.210000000000000000e+02,7.900000000000000355e-01,1.539146300000000000e+09
2.310000000000000000e+02,4.410000000000000000e+02,4.340000000000000000e+02,8.800000000000000000e+01,1.350000000000000000e+02,1.141000000000000000e+03,1.100000000000000000e+03,9.170000000000000000e+02,8.000000000000000444e-01,1.558472900000000000e+09
2.900000000000000000e+02,5.160000000000000000e+02,4.440000000000000000e+02,8.900000000000000000e+01,1.420000000000000000e+02,1.073000000000000000e+03,1.030000000000000000e+03,9.890000000000000000e+02,8.299999999999999600e-01,1.618701500000000000e+09
3.130000000000000000e+02,5.240000000000000000e+02,4.290000000000000000e+02,9.500000000000000000e+01,1.430000000000000000e+02,9.960000000000000000e+02,9.980000000000000000e+02,1.029000000000000000e+03,8.299999999999999600e-01,1.618719700000000000e+09
3.460000000000000000e+02,5.030000000000000000e+02,4.040000000000000000e+02,9.600000000000000000e+01,1.490000000000000000e+02,1.068000000000000000e+03,1.030000000000000000e+03,1.046000000000000000e+03,8.299999999999999600e-01,1.618728500000000000e+09
3.660000000000000000e+02,5.590000000000000000e+02,4.130000000000000000e+02,1.050000000000000000e+02,1.670000000000000000e+02,1.133000000000000000e+03,1.090000000000000000e+03,1.080000000000000000e+03,8.399999999999999689e-01,1.638010400000000000e+09
4.320000000000000000e+02,5.690000000000000000e+02,3.520000000000000000e+02,1.190000000000000000e+02,2.140000000000000000e+02,1.172000000000000000e+03,1.033000000000000000e+03,1.098000000000000000e+03,8.499999999999999778e-01,1.658374300000000000e+09
4.300000000000000000e+02,5.240000000000000000e+02,3.890000000000000000e+02,1.220000000000000000e+02,2.170000000000000000e+02,1.266000000000000000e+03,1.085000000000000000e+03,1.113000000000000000e+03,8.599999999999999867e-01,1.679977000000000000e+09
4.490000000000000000e+02,5.970000000000000000e+02,3.920000000000000000e+02,1.230000000000000000e+02,2.200000000000000000e+02,1.260000000000000000e+03,1.031000000000000000e+03,1.037000000000000000e+03,8.800000000000000044e-01,1.718857200000000000e+09
4.490000000000000000e+02,6.320000000000000000e+02,3.380000000000000000e+02,1.310000000000000000e+02,2.460000000000000000e+02,1.297000000000000000e+03,1.033000000000000000e+03,1.015000000000000000e+03,8.800000000000000044e-01,1.718878800000000000e+09
4.500000000000000000e+02,6.570000000000000000e+02,3.180000000000000000e+02,1.260000000000000000e+02,2.370000000000000000e+02,1.353000000000000000e+03,9.730000000000000000e+02,9.600000000000000000e+02,8.900000000000000133e-01,1.740986600000000000e+09
3.930000000000000000e+02,6.490000000000000000e+02,4.490000000000000000e+02,1.070000000000000000e+02,2.020000000000000000e+02,1.348000000000000000e+03,1.041000000000000000e+03,1.044000000000000000e+03,9.000000000000000222e-01,1.760952400000000000e+09
3.940000000000000000e+02,6.560000000000000000e+02,4.300000000000000000e+02,1.100000000000000000e+02,2.500000000000000000e+02,1.403000000000000000e+03,1.001000000000000000e+03,9.900000000000000000e+02,9.100000000000000311e-01,1.779957900000000000e+09
4.150000000000000000e+02,6.590000000000000000e+02,4.390000000000000000e+02,1.210000000000000000e+02,2.560000000000000000e+02,1.502000000000000000e+03,1.014000000000000000e+03,1.076000000000000000e+03,9.200000000000000400e-01,1.799691100000000000e+09
4.470000000000000000e+02,6.600000000000000000e+02,4.480000000000000000e+02,1.270000000000000000e+02,2.710000000000000000e+02,1.505000000000000000e+03,1.035000000000000000e+03,1.098000000000000000e+03,9.300000000000000488e-01,1.818380400000000000e+09
4.590000000000000000e+02,6.150000000000000000e+02,4.390000000000000000e+02,1.320000000000000000e+02,2.810000000000000000e+02,1.463000000000000000e+03,1.042000000000000000e+03,1.148000000000000000e+03,9.399999999999999467e-01,1.841073300000000000e+09
4.720000000000000000e+02,6.570000000000000000e+02,3.280000000000000000e+02,1.390000000000000000e+02,2.920000000000000000e+02,1.511000000000000000e+03,9.930000000000000000e+02,1.086000000000000000e+03,9.499999999999999556e-01,1.860768300000000000e+09
5.720000000000000000e+02,6.080000000000000000e+02,3.760000000000000000e+02,1.460000000000000000e+02,2.810000000000000000e+02,1.435000000000000000e+03,9.840000000000000000e+02,1.067000000000000000e+03,9.599999999999999645e-01,1.880127300000000000e+09
5.990000000000000000e+02,5.650000000000000000e+02,3.830000000000000000e+02,1.410000000000000000e+02,2.790000000000000000e+02,1.425000000000000000e+03,9.910000000000000000e+02,1.079000000000000000e+03,9.699999999999999734e-01,1.899328100000000000e+09
6.400000000000000000e+02,5.740000000000000000e+02,4.010000000000000000e+02,1.730000000000000000e+02,2.940000000000000000e+02,1.407000000000000000e+03,9.270000000000000000e+02,1.083000000000000000e+03,9.899999999999999911e-01,1.938722100000000000e+09
6.680000000000000000e+02,6.340000000000000000e+02,4.060000000000000000e+02,1.720000000000000000e+02,3.250000000000000000e+02,1.397000000000000000e+03,9.150000000000000000e+02,1.092000000000000000e+03,9.899999999999999911e-01,1.938733300000000000e+09
6.760000000000000000e+02,5.960000000000000000e+02,5.170000000000000000e+02,1.700000000000000000e+02,3.220000000000000000e+02,1.439000000000000000e+03,8.460000000000000000e+02,1.080000000000000000e+03,9.799999999999999822e-01,1.957947800000000000e+09
5.760000000000000000e+02,6.390000000000000000e+02,5.020000000000000000e+02,1.620000000000000000e+02,2.950000000000000000e+02,1.429000000000000000e+03,1.004000000000000000e+03,1.071000000000000000e+03,9.699999999999999734e-01,1.981322600000000000e+09
5.210000000000000000e+02,5.990000000000000000e+02,5.660000000000000000e+02,1.530000000000000000e+02,2.890000000000000000e+02,1.377000000000000000e+03,1.038000000000000000e+03,1.074000000000000000e+03,9.599999999999999645e-01,2.000308800000000000e+09
4.440000000000000000e+02,5.770000000000000000e+02,6.060000000000000000e+02,1.120000000000000000e+02,2.530000000000000000e+02,1.372000000000000000e+03,1.036000000000000000e+03,1.078000000000000000e+03,9.499999999999999556e-01,2.020058700000000000e+09
3.890000000000000000e+02,5.280000000000000000e+02,6.610000000000000000e+02,1.040000000000000000e+02,1.950000000000000000e+02,1.322000000000000000e+03,9.560000000000000000e+02,9.780000000000000000e+02,9.399999999999999467e-01,2.039377900000000000e+09
3.460000000000000000e+02,4.980000000000000000e+02,6.420000000000000000e+02,9.400000000000000000e+01,1.630000000000000000e+02,1.066000000000000000e+03,9.420000000000000000e+02,9.170000000000000000e+02,9.300000000000000488e-01,2.058079200000000000e+09
3.490000000000000000e+02,4.460000000000000000e+02,6.890000000000000000e+02,1.020000000000000000e+02,1.490000000000000000e+02,9.740000000000000000e+02,7.070000000000000000e+02,8.380000000000000000e+02,9.200000000000000400e-01,2.080258200000000000e+09
3.170000000000000000e+02,4.180000000000000000e+02,7.100000000000000000e+02,1.080000000000000000e+02,1.360000000000000000e+02,9.490000000000000000e+02,5.450000000000000000e+02,6.190000000000000000e+02,9.100000000000000311e-01,2.099861900000000000e+09
2.770000000000000000e+02,4.580000000000000000e+02,7.130000000000000000e+02,9.400000000000000000e+01,9.600000000000000000e+01,8.480000000000000000e+02,4.730000000000000000e+02,4.990000000000000000e+02,9.000000000000000222e-01,2.118605200000000000e+09
2.220000000000000000e+02,4.290000000000000000e+02,7.430000000000000000e+02,1.070000000000000000e+02,9.500000000000000000e+01,7.530000000000000000e+02,4.170000000000000000e+02,4.590000000000000000e+02,8.900000000000000133e-01,2.140992500000000000e+09
2.120000000000000000e+02,4.250000000000000000e+02,7.710000000000000000e+02,1.830000000000000000e+02,1.010000000000000000e+02,7.480000000000000000e+02,3.910000000000000000e+02,4.330000000000000000e+02,8.800000000000000044e-01,2.160462600000000000e+09
1.810000000000000000e+02,3.990000000000000000e+02,8.070000000000000000e+02,2.040000000000000000e+02,1.070000000000000000e+02,8.390000000000000000e+02,3.740000000000000000e+02,4.220000000000000000e+02,8.699999999999999956e-01,2.179740000000000000e+09
1.710000000000000000e+02,4.030000000000000000e+02,7.730000000000000000e+02,2.050000000000000000e+02,9.900000000000000000e+01,7.490000000000000000e+02,3.390000000000000000e+02,3.940000000000000000e+02,8.499999999999999778e-01,2.218473100000000000e+09
1.560000000000000000e+02,3.610000000000000000e+02,7.450000000000000000e+02,2.030000000000000000e+02,8.400000000000000000e+01,7.180000000000000000e+02,2.470000000000000000e+02,2.310000000000000000e+02,8.499999999999999778e-01,2.218488500000000000e+09
1.980000000000000000e+02,3.710000000000000000e+02,7.000000000000000000e+02,1.990000000000000000e+02,7.800000000000000000e+01,7.100000000000000000e+02,2.260000000000000000e+02,2.030000000000000000e+02,8.399999999999999689e-01,2.239780600000000000e+09
2.180000000000000000e+02,3.670000000000000000e+02,6.630000000000000000e+02,1.410000000000000000e+02,7.000000000000000000e+01,7.390000000000000000e+02,2.000000000000000000e+02,1.720000000000000000e+02,8.299999999999999600e-01,2.258687200000000000e+09
2.240000000000000000e+02,3.790000000000000000e+02,7.440000000000000000e+02,1.530000000000000000e+02,7.700000000000000000e+01,6.440000000000000000e+02,2.150000000000000000e+02,1.600000000000000000e+02,8.199999999999999512e-01,2.277901100000000000e+09
2.340000000000000000e+02,3.890000000000000000e+02,7.900000000000000000e+02,1.590000000000000000e+02,8.200000000000000000e+01,6.890000000000000000e+02,2.010000000000000000e+02,1.520000000000000000e+02,8.100000000000000533e-01,2.299674400000000000e+09
2.470000000000000000e+02,3.480000000000000000e+02,8.690000000000000000e+02,1.790000000000000000e+02,8.700000000000000000e+01,6.390000000000000000e+02,1.830000000000000000e+02,9.500000000000000000e+01,8.000000000000000444e-01,2.318801400000000000e+09
2.200000000000000000e+02,2.880000000000000000e+02,8.680000000000000000e+02,1.770000000000000000e+02,8.500000000000000000e+01,6.560000000000000000e+02,1.810000000000000000e+02,9.800000000000000000e+01,7.900000000000000355e-01,2.340288300000000000e+09
1.840000000000000000e+02,3.340000000000000000e+02,8.480000000000000000e+02,1.730000000000000000e+02,8.300000000000000000e+01,6.520000000000000000e+02,1.930000000000000000e+02,1.530000000000000000e+02,7.800000000000000266e-01,2.359385600000000000e+09
1.740000000000000000e+02,3.410000000000000000e+02,7.390000000000000000e+02,1.510000000000000000e+02,6.500000000000000000e+01,6.020000000000000000e+02,1.550000000000000000e+02,1.500000000000000000e+02,7.700000000000000178e-01,2.378337400000000000e+09
1.980000000000000000e+02,3.490000000000000000e+02,6.960000000000000000e+02,1.510000000000000000e+02,6.100000000000000000e+01,4.010000000000000000e+02,1.440000000000000000e+02,1.530000000000000000e+02,7.600000000000000089e-01,2.397783700000000000e+09
1.880000000000000000e+02,3.390000000000000000e+02,6.410000000000000000e+02,1.590000000000000000e+02,5.700000000000000000e+01,4.000000000000000000e+02,1.250000000000000000e+02,1.520000000000000000e+02,7.500000000000000000e-01,2.419789900000000000e+09
1.750000000000000000e+02,4.130000000000000000e+02,7.150000000000000000e+02,1.570000000000000000e+02,5.400000000000000000e+01,3.790000000000000000e+02,1.340000000000000000e+02,1.440000000000000000e+02,7.399999999999999911e-01,2.439230700000000000e+09
1.770000000000000000e+02,3.760000000000000000e+02,8.010000000000000000e+02,1.650000000000000000e+02,6.100000000000000000e+01,3.350000000000000000e+02,1.040000000000000000e+02,8.200000000000000000e+01,7.299999999999999822e-01,2.458136400000000000e+09
2.020000000000000000e+02,3.750000000000000000e+02,7.580000000000000000e+02,1.450000000000000000e+02,6.300000000000000000e+01,3.180000000000000000e+02,1.240000000000000000e+02,9.500000000000000000e+01,7.199999999999999734e-01,2.479797900000000000e+09
1.720000000000000000e+02,3.560000000000000000e+02,8.350000000000000000e+02,1.470000000000000000e+02,5.900000000000000000e+01,3.140000000000000000e+02,1.230000000000000000e+02,9.300000000000000000e+01,7.099999999999999645e-01,2.498702800000000000e+09
1.770000000000000000e+02,4.240000000000000000e+02,9.110000000000000000e+02,1.330000000000000000e+02,5.700000000000000000e+01,3.070000000000000000e+02,1.290000000000000000e+02,9.000000000000000000e+01,6.999999999999999556e-01,2.518054700000000000e+09
1.780000000000000000e+02,3.580000000000000000e+02,8.690000000000000000e+02,1.380000000000000000e+02,5.900000000000000000e+01,2.980000000000000000e+02,1.350000000000000000e+02,9.000000000000000000e+01,6.899999999999999467e-01,2.539537900000000000e+09
1.710000000000000000e+02,3.660000000000000000e+02,8.610000000000000000e+02,1.340000000000000000e+02,5.200000000000000000e+01,2.680000000000000000e+02,1.380000000000000000e+02,8.500000000000000000e+01,6.700000000000000400e-01,2.579907500000000000e+09
1.360000000000000000e+02,3.440000000000000000e+02,9.290000000000000000e+02,1.370000000000000000e+02,4.700000000000000000e+01,1.850000000000000000e+02,1.180000000000000000e+02,6.100000000000000000e+01,6.700000000000000400e-01,2.579919400000000000e+09
1.800000000000000000e+02,3.580000000000000000e+02,9.560000000000000000e+02,1.500000000000000000e+02,5.500000000000000000e+01,1.930000000000000000e+02,1.110000000000000000e+02,6.100000000000000000e+01,6.600000000000000311e-01,2.599230100000000000e+09
1.640000000000000000e+02,3.480000000000000000e+02,8.550000000000000000e+02,1.400000000000000000e+02,5.100000000000000000e+01,2.000000000000000000e+02,1.140000000000000000e+02,7.600000000000000000e+01,6.400000000000000133e-01,2.639600600000000000e+09
1.630000000000000000e+02,3.600000000000000000e+02,8.800000000000000000e+02,1.370000000000000000e+02,5.400000000000000000e+01,2.040000000000000000e+02,1.070000000000000000e+02,8.000000000000000000e+01,6.300000000000000044e-01,2.658531400000000000e+09
1.730000000000000000e+02,3.420000000000000000e+02,8.600000000000000000e+02,1.310000000000000000e+02,5.500000000000000000e+01,2.020000000000000000e+02,1.090000000000000000e+02,8.200000000000000000e+01,6.300000000000000044e-01,2.658545200000000000e+09
1.870000000000000000e+02,3.560000000000000000e+02,8.370000000000000000e+02,1.310000000000000000e+02,5.600000000000000000e+01,2.180000000000000000e+02,1.000000000000000000e+02,8.200000000000000000e+01,6.199999999999999956e-01,2.678493600000000000e+09
1.730000000000000000e+02,3.500000000000000000e+02,7.680000000000000000e+02,1.140000000000000000e+02,5.700000000000000000e+01,2.010000000000000000e+02,9.900000000000000000e+01,7.600000000000000000e+01,6.099999999999999867e-01,2.697854800000000000e+09
1.780000000000000000e+02,3.780000000000000000e+02,9.380000000000000000e+02,1.470000000000000000e+02,6.800000000000000000e+01,2.050000000000000000e+02,9.600000000000000000e+01,6.400000000000000000e+01,5.999999999999999778e-01,2.719759000000000000e+09
1.800000000000000000e+02,4.000000000000000000e+02,1.011000000000000000e+03,1.490000000000000000e+02,6.500000000000000000e+01,1.980000000000000000e+02,9.700000000000000000e+01,5.900000000000000000e+01,5.899999999999999689e-01,2.738761900000000000e+09
1.750000000000000000e+02,3.990000000000000000e+02,9.920000000000000000e+02,1.460000000000000000e+02,6.500000000000000000e+01,2.330000000000000000e+02,1.070000000000000000e+02,7.300000000000000000e+01,5.699999999999999512e-01,2.779784700000000000e+09
1.820000000000000000e+02,4.360000000000000000e+02,1.022000000000000000e+03,1.500000000000000000e+02,6.700000000000000000e+01,1.930000000000000000e+02,1.070000000000000000e+02,8.000000000000000000e+01,5.699999999999999512e-01,2.779796300000000000e+09
1.910000000000000000e+02,4.240000000000000000e+02,9.930000000000000000e+02,1.510000000000000000e+02,6.300000000000000000e+01,2.020000000000000000e+02,1.140000000000000000e+02,7.800000000000000000e+01,5.600000000000000533e-01,2.799032300000000000e+09
1.910000000000000000e+02,4.080000000000000000e+02,8.920000000000000000e+02,1.490000000000000000e+02,6.100000000000000000e+01,1.910000000000000000e+02,1.390000000000000000e+02,7.500000000000000000e+01,5.500000000000000444e-01,2.818624300000000000e+09
1.940000000000000000e+02,4.190000000000000000e+02,8.180000000000000000e+02,1.540000000000000000e+02,6.500000000000000000e+01,1.940000000000000000e+02,1.320000000000000000e+02,8.100000000000000000e+01,5.300000000000000266e-01,2.859582000000000000e+09
1.920000000000000000e+02,4.150000000000000000e+02,8.540000000000000000e+02,1.580000000000000000e+02,6.200000000000000000e+01,1.490000000000000000e+02,1.460000000000000000e+02,6.500000000000000000e+01,5.300000000000000266e-01,2.859593900000000000e+09
1.770000000000000000e+02,3.850000000000000000e+02,8.170000000000000000e+02,1.610000000000000000e+02,6.400000000000000000e+01,1.430000000000000000e+02,1.480000000000000000e+02,5.800000000000000000e+01,5.200000000000000178e-01,2.878707300000000000e+09
1.640000000000000000e+02,3.970000000000000000e+02,8.360000000000000000e+02,1.580000000000000000e+02,6.500000000000000000e+01,1.250000000000000000e+02,1.450000000000000000e+02,5.600000000000000000e+01,5.100000000000000089e-01,2.899803700000000000e+09
1.580000000000000000e+02,3.840000000000000000e+02,9.370000000000000000e+02,1.410000000000000000e+02,6.000000000000000000e+01,1.270000000000000000e+02,1.280000000000000000e+02,5.300000000000000000e+01,5.000000000000000000e-01,2.918581500000000000e+09
1.540000000000000000e+02,3.800000000000000000e+02,1.021000000000000000e+03,1.440000000000000000e+02,5.700000000000000000e+01,1.080000000000000000e+02,1.280000000000000000e+02,6.500000000000000000e+01,4.899999999999999911e-01,2.940442700000000000e+09
1.630000000000000000e+02,4.080000000000000000e+02,1.004000000000000000e+03,1.470000000000000000e+02,5.700000000000000000e+01,1.820000000000000000e+02,1.010000000000000000e+02,7.000000000000000000e+01,4.799999999999999822e-01,2.960044400000000000e+09
1.760000000000000000e+02,4.170000000000000000e+02,1.046000000000000000e+03,1.450000000000000000e+02,5.600000000000000000e+01,2.370000000000000000e+02,9.600000000000000000e+01,7.500000000000000000e+01,4.600000000000000200e-01,2.998203800000000000e+09
1.710000000000000000e+02,4.440000000000000000e+02,1.045000000000000000e+03,1.490000000000000000e+02,6.100000000000000000e+01,2.470000000000000000e+02,1.070000000000000000e+02,7.900000000000000000e+01,4.600000000000000200e-01,2.998240700000000000e+09
1.970000000000000000e+02,4.480000000000000000e+02,9.470000000000000000e+02,1.590000000000000000e+02,5.800000000000000000e+01,2.560000000000000000e+02,9.200000000000000000e+01,8.000000000000000000e+01,4.500000000000000111e-01,3.020287200000000000e+09
2.070000000000000000e+02,4.270000000000000000e+02,9.050000000000000000e+02,1.630000000000000000e+02,6.200000000000000000e+01,2.540000000000000000e+02,8.200000000000000000e+01,6.700000000000000000e+01,4.400000000000000022e-01,3.039485200000000000e+09
2.120000000000000000e+02,4.200000000000000000e+02,9.510000000000000000e+02,1.670000000000000000e+02,6.300000000000000000e+01,2.140000000000000000e+02,9.400000000000000000e+01,6.600000000000000000e+01,4.299999999999999933e-01,3.058264000000000000e+09
2.070000000000000000e+02,4.120000000000000000e+02,9.830000000000000000e+02,1.690000000000000000e+02,5.800000000000000000e+01,1.970000000000000000e+02,1.100000000000000000e+02,5.800000000000000000e+01,4.199999999999999845e-01,3.077932000000000000e+09
1.910000000000000000e+02,3.850000000000000000e+02,9.680000000000000000e+02,1.640000000000000000e+02,5.000000000000000000e+01,1.910000000000000000e+02,9.600000000000000000e+01,5.400000000000000000e+01,4.099999999999999756e-01,3.100063500000000000e+09
1.660000000000000000e+02,3.340000000000000000e+02,1.011000000000000000e+03,1.490000000000000000e+02,5.000000000000000000e+01,1.870000000000000000e+02,9.500000000000000000e+01,5.200000000000000000e+01,3.900000000000000133e-01,3.140217900000000000e+09
1.530000000000000000e+02,3.350000000000000000e+02,9.370000000000000000e+02,1.380000000000000000e+02,4.600000000000000000e+01,1.970000000000000000e+02,1.010000000000000000e+02,4.800000000000000000e+01,3.800000000000000044e-01,3.159314300000000000e+09
1.610000000000000000e+02,3.570000000000000000e+02,9.660000000000000000e+02,1.490000000000000000e+02,6.100000000000000000e+01,2.070000000000000000e+02,1.110000000000000000e+02,4.700000000000000000e+01,3.800000000000000044e-01,3.159325900000000000e+09
1.630000000000000000e+02,3.690000000000000000e+02,9.250000000000000000e+02,1.770000000000000000e+02,7.600000000000000000e+01,1.730000000000000000e+02,1.030000000000000000e+02,5.500000000000000000e+01,3.599999999999999867e-01,3.199711100000000000e+09
1.620000000000000000e+02,3.910000000000000000e+02,9.030000000000000000e+02,1.740000000000000000e+02,7.900000000000000000e+01,1.700000000000000000e+02,1.050000000000000000e+02,5.400000000000000000e+01,3.599999999999999867e-01,3.199723000000000000e+09
1.840000000000000000e+02,3.900000000000000000e+02,9.900000000000000000e+02,1.750000000000000000e+02,8.100000000000000000e+01,2.000000000000000000e+02,1.210000000000000000e+02,6.000000000000000000e+01,3.499999999999999778e-01,3.218584800000000000e+09
1.820000000000000000e+02,3.830000000000000000e+02,1.005000000000000000e+03,1.740000000000000000e+02,8.100000000000000000e+01,2.120000000000000000e+02,1.180000000000000000e+02,6.400000000000000000e+01,3.300000000000000155e-01,3.259439600000000000e+09
1.690000000000000000e+02,3.480000000000000000e+02,9.690000000000000000e+02,1.750000000000000000e+02,7.500000000000000000e+01,2.100000000000000000e+02,9.500000000000000000e+01,9.400000000000000000e+01,3.200000000000000067e-01,3.278504300000000000e+09
1.730000000000000000e+02,3.650000000000000000e+02,1.005000000000000000e+03,1.700000000000000000e+02,7.300000000000000000e+01,2.120000000000000000e+02,9.000000000000000000e+01,1.040000000000000000e+02,3.099999999999999978e-01,3.298286300000000000e+09
1.630000000000000000e+02,3.210000000000000000e+02,1.073000000000000000e+03,1.890000000000000000e+02,7.700000000000000000e+01,2.170000000000000000e+02,9.800000000000000000e+01,1.080000000000000000e+02,2.999999999999999889e-01,3.319893900000000000e+09
1.360000000000000000e+02,3.050000000000000000e+02,9.730000000000000000e+02,2.010000000000000000e+02,8.600000000000000000e+01,2.080000000000000000e+02,8.600000000000000000e+01,1.090000000000000000e+02,2.999999999999999889e-01,3.319906800000000000e+09
1.430000000000000000e+02,3.170000000000000000e+02,9.690000000000000000e+02,2.080000000000000000e+02,9.500000000000000000e+01,2.010000000000000000e+02,1.090000000000000000e+02,1.150000000000000000e+02,2.899999999999999800e-01,3.339342300000000000e+09
1.440000000000000000e+02,3.440000000000000000e+02,9.470000000000000000e+02,1.980000000000000000e+02,9.300000000000000000e+01,1.930000000000000000e+02,1.210000000000000000e+02,9.200000000000000000e+01,2.700000000000000178e-01,3.379891800000000000e+09
1.320000000000000000e+02,3.540000000000000000e+02,8.750000000000000000e+02,1.940000000000000000e+02,8.500000000000000000e+01,1.990000000000000000e+02,1.320000000000000000e+02,7.600000000000000000e+01,2.700000000000000178e-01,3.379910300000000000e+09
1.530000000000000000e+02,4.430000000000000000e+02,9.760000000000000000e+02,1.700000000000000000e+02,7.900000000000000000e+01,1.940000000000000000e+02,1.280000000000000000e+02,7.200000000000000000e+01,2.600000000000000089e-01,3.399371000000000000e+09
1.560000000000000000e+02,5.340000000000000000e+02,1.116000000000000000e+03,1.790000000000000000e+02,7.800000000000000000e+01,1.880000000000000000e+02,1.260000000000000000e+02,6.900000000000000000e+01,2.399999999999999911e-01,3.440360800000000000e+09
1.700000000000000000e+02,5.750000000000000000e+02,1.205000000000000000e+03,2.500000000000000000e+02,8.900000000000000000e+01,2.170000000000000000e+02,1.120000000000000000e+02,6.600000000000000000e+01,2.399999999999999911e-01,3.440372500000000000e+09
1.790000000000000000e+02,6.230000000000000000e+02,1.182000000000000000e+03,3.020000000000000000e+02,1.010000000000000000e+02,2.110000000000000000e+02,1.030000000000000000e+02,7.500000000000000000e+01,2.300000000000000100e-01,3.459126200000000000e+09
1.800000000000000000e+02,6.090000000000000000e+02,1.203000000000000000e+03,3.310000000000000000e+02,1.140000000000000000e+02,1.990000000000000000e+02,8.600000000000000000e+01,8.200000000000000000e+01,2.099999999999999922e-01,3.499815500000000000e+09
1.700000000000000000e+02,5.980000000000000000e+02,1.190000000000000000e+03,3.470000000000000000e+02,1.200000000000000000e+02,2.040000000000000000e+02,8.200000000000000000e+01,8.700000000000000000e+01,2.099999999999999922e-01,3.499828400000000000e+09
1.880000000000000000e+02,5.910000000000000000e+02,1.090000000000000000e+03,3.670000000000000000e+02,1.220000000000000000e+02,2.040000000000000000e+02,1.010000000000000000e+02,9.400000000000000000e+01,1.900000000000000022e-01,3.540271800000000000e+09
1.920000000000000000e+02,6.240000000000000000e+02,1.014000000000000000e+03,3.380000000000000000e+02,1.120000000000000000e+02,1.470000000000000000e+02,9.900000000000000000e+01,9.100000000000000000e+01,1.900000000000000022e-01,3.540316900000000000e+09
2.020000000000000000e+02,6.080000000000000000e+02,1.104000000000000000e+03,2.950000000000000000e+02,1.010000000000000000e+02,1.370000000000000000e+02,9.400000000000000000e+01,8.500000000000000000e+01,1.799999999999999933e-01,3.559376300000000000e+09
2.070000000000000000e+02,6.560000000000000000e+02,1.142000000000000000e+03,2.670000000000000000e+02,9.900000000000000000e+01,1.330000000000000000e+02,9.300000000000000000e+01,8.400000000000000000e+01,1.600000000000000033e-01,3.600347300000000000e+09
2.150000000000000000e+02,7.010000000000000000e+02,1.095000000000000000e+03,2.710000000000000000e+02,9.700000000000000000e+01,1.170000000000000000e+02,9.400000000000000000e+01,8.500000000000000000e+01,1.600000000000000033e-01,3.600358500000000000e+09
2.070000000000000000e+02,6.780000000000000000e+02,1.146000000000000000e+03,2.660000000000000000e+02,1.030000000000000000e+02,7.600000000000000000e+01,7.000000000000000000e+01,8.100000000000000000e+01,1.499999999999999944e-01,3.619730600000000000e+09
1.990000000000000000e+02,6.250000000000000000e+02,1.274000000000000000e+03,2.820000000000000000e+02,1.060000000000000000e+02,8.700000000000000000e+01,6.000000000000000000e+01,8.100000000000000000e+01,1.300000000000000044e-01,3.660251300000000000e+09
1.960000000000000000e+02,6.370000000000000000e+02,1.232000000000000000e+03,3.160000000000000000e+02,1.200000000000000000e+02,8.400000000000000000e+01,6.100000000000000000e+01,9.100000000000000000e+01,1.300000000000000044e-01,3.660266000000000000e+09
2.510000000000000000e+02,7.260000000000000000e+02,1.204000000000000000e+03,4.220000000000000000e+02,1.450000000000000000e+02,9.100000000000000000e+01,7.500000000000000000e+01,1.200000000000000000e+02,1.100000000000000006e-01,3.699361800000000000e+09
2.540000000000000000e+02,7.460000000000000000e+02,1.200000000000000000e+03,4.600000000000000000e+02,1.500000000000000000e+02,9.600000000000000000e+01,7.300000000000000000e+01,1.200000000000000000e+02,1.100000000000000006e-01,3.699373700000000000e+09
2.790000000000000000e+02,7.630000000000000000e+02,1.147000000000000000e+03,5.250000000000000000e+02,1.690000000000000000e+02,1.100000000000000000e+02,8.300000000000000000e+01,1.330000000000000000e+02,8.999999999999999667e-02,3.738798200000000000e+09
3.100000000000000000e+02,8.200000000000000000e+02,1.125000000000000000e+03,5.600000000000000000e+02,1.880000000000000000e+02,1.030000000000000000e+02,9.100000000000000000e+01,1.450000000000000000e+02,8.999999999999999667e-02,3.738809600000000000e+09
3.600000000000000000e+02,8.550000000000000000e+02,1.188000000000000000e+03,5.650000000000000000e+02,1.910000000000000000e+02,1.100000000000000000e+02,9.600000000000000000e+01,1.570000000000000000e+02,8.000000000000000167e-02,3.757904700000000000e+09
3.490000000000000000e+02,8.680000000000000000e+02,1.292000000000000000e+03,5.170000000000000000e+02,1.770000000000000000e+02,1.050000000000000000e+02,9.000000000000000000e+01,1.480000000000000000e+02,5.999999999999999778e-02,3.800334100000000000e+09
3.610000000000000000e+02,8.440000000000000000e+02,1.327000000000000000e+03,5.180000000000000000e+02,2.060000000000000000e+02,1.220000000000000000e+02,1.020000000000000000e+02,1.580000000000000000e+02,5.999999999999999778e-02,3.800351200000000000e+09
4.520000000000000000e+02,9.350000000000000000e+02,1.363000000000000000e+03,5.280000000000000000e+02,2.340000000000000000e+02,1.500000000000000000e+02,1.330000000000000000e+02,2.080000000000000000e+02,5.000000000000000278e-02,3.819538000000000000e+09
4.920000000000000000e+02,1.020000000000000000e+03,1.339000000000000000e+03,6.050000000000000000e+02,2.480000000000000000e+02,1.680000000000000000e+02,1.430000000000000000e+02,2.240000000000000000e+02,2.999999999999999889e-02,3.857933700000000000e+09
4.940000000000000000e+02,1.127000000000000000e+03,1.379000000000000000e+03,6.710000000000000000e+02,2.700000000000000000e+02,1.870000000000000000e+02,1.500000000000000000e+02,2.290000000000000000e+02,2.999999999999999889e-02,3.857945700000000000e+09
5.240000000000000000e+02,1.133000000000000000e+03,1.325000000000000000e+03,7.240000000000000000e+02,3.030000000000000000e+02,2.030000000000000000e+02,1.640000000000000000e+02,2.430000000000000000e+02,2.000000000000000042e-02,3.879321000000000000e+09
5.500000000000000000e+02,1.220000000000000000e+03,1.359000000000000000e+03,7.720000000000000000e+02,3.160000000000000000e+02,2.010000000000000000e+02,1.680000000000000000e+02,2.610000000000000000e+02,0.000000000000000000e+00,3.920073200000000000e+09
4.750000000000000000e+02,1.199000000000000000e+03,1.397000000000000000e+03,7.260000000000000000e+02,2.860000000000000000e+02,1.840000000000000000e+02,1.390000000000000000e+02,2.190000000000000000e+02,1.000000000000000021e-02,3.939074500000000000e+09
4.150000000000000000e+02,1.112000000000000000e+03,1.348000000000000000e+03,6.490000000000000000e+02,2.690000000000000000e+02,1.820000000000000000e+02,1.270000000000000000e+02,1.980000000000000000e+02,1.000000000000000021e-02,3.939086200000000000e+09
3.870000000000000000e+02,1.000000000000000000e+03,1.396000000000000000e+03,6.260000000000000000e+02,2.510000000000000000e+02,1.960000000000000000e+02,1.280000000000000000e+02,1.910000000000000000e+02,2.999999999999999889e-02,3.980519200000000000e+09
3.170000000000000000e+02,8.960000000000000000e+02,1.411000000000000000e+03,5.350000000000000000e+02,2.000000000000000000e+02,1.900000000000000000e+02,1.150000000000000000e+02,1.680000000000000000e+02,2.999999999999999889e-02,3.980530600000000000e+09
2.440000000000000000e+02,7.070000000000000000e+02,1.374000000000000000e+03,4.170000000000000000e+02,1.400000000000000000e+02,2.560000000000000000e+02,1.230000000000000000e+02,2.980000000000000000e+02,4.000000000000000083e-02,3.999261500000000000e+09
2.160000000000000000e+02,5.720000000000000000e+02,1.273000000000000000e+03,3.910000000000000000e+02,1.310000000000000000e+02,3.580000000000000000e+02,1.370000000000000000e+02,3.720000000000000000e+02,5.999999999999999778e-02,4.040462100000000000e+09
2.280000000000000000e+02,5.770000000000000000e+02,1.223000000000000000e+03,3.390000000000000000e+02,1.120000000000000000e+02,3.920000000000000000e+02,2.290000000000000000e+02,4.740000000000000000e+02,5.999999999999999778e-02,4.040477000000000000e+09
1.990000000000000000e+02,4.930000000000000000e+02,1.071000000000000000e+03,2.130000000000000000e+02,9.700000000000000000e+01,4.300000000000000000e+02,2.830000000000000000e+02,5.770000000000000000e+02,7.000000000000000666e-02,4.059286900000000000e+09
2.110000000000000000e+02,4.800000000000000000e+02,9.330000000000000000e+02,2.090000000000000000e+02,1.010000000000000000e+02,4.800000000000000000e+02,3.610000000000000000e+02,6.380000000000000000e+02,8.999999999999999667e-02,4.099798600000000000e+09
2.130000000000000000e+02,4.900000000000000000e+02,7.900000000000000000e+02,2.010000000000000000e+02,1.250000000000000000e+02,5.850000000000000000e+02,4.210000000000000000e+02,7.010000000000000000e+02,8.999999999999999667e-02,4.099810200000000000e+09
2.500000000000000000e+02,5.150000000000000000e+02,7.490000000000000000e+02,2.010000000000000000e+02,1.430000000000000000e+02,6.670000000000000000e+02,5.150000000000000000e+02,7.490000000000000000e+02,1.100000000000000006e-01,4.137994700000000000e+09
2.390000000000000000e+02,5.320000000000000000e+02,8.220000000000000000e+02,2.120000000000000000e+02,1.500000000000000000e+02,7.530000000000000000e+02,5.460000000000000000e+02,8.090000000000000000e+02,1.199999999999999956e-01,4.159305100000000000e+09
2.360000000000000000e+02,6.200000000000000000e+02,7.170000000000000000e+02,1.870000000000000000e+02,1.480000000000000000e+02,8.100000000000000000e+02,6.060000000000000000e+02,8.070000000000000000e+02,1.300000000000000044e-01,4.178294000000000000e+09
2.270000000000000000e+02,6.070000000000000000e+02,7.090000000000000000e+02,1.770000000000000000e+02,1.520000000000000000e+02,8.230000000000000000e+02,6.370000000000000000e+02,7.860000000000000000e+02,1.400000000000000133e-01,4.199730600000000000e+09
2.940000000000000000e+02,6.540000000000000000e+02,7.830000000000000000e+02,2.230000000000000000e+02,1.470000000000000000e+02,9.510000000000000000e+02,6.520000000000000000e+02,7.410000000000000000e+02,1.499999999999999944e-01,4.218524800000000000e+09
2.800000000000000000e+02,6.310000000000000000e+02,8.100000000000000000e+02,2.070000000000000000e+02,1.260000000000000000e+02,9.450000000000000000e+02,6.420000000000000000e+02,7.490000000000000000e+02,1.600000000000000033e-01,4.237979300000000000e+09
2.730000000000000000e+02,5.410000000000000000e+02,6.810000000000000000e+02,1.920000000000000000e+02,1.130000000000000000e+02,8.810000000000000000e+02,6.200000000000000000e+02,6.860000000000000000e+02,1.600000000000000033e-01,4.237991700000000000e+09
2.660000000000000000e+02,4.060000000000000000e+02,6.660000000000000000e+02,1.800000000000000000e+02,9.900000000000000000e+01,8.460000000000000000e+02,5.730000000000000000e+02,6.500000000000000000e+02,1.799999999999999933e-01,4.278976600000000000e+09
2.860000000000000000e+02,3.830000000000000000e+02,7.380000000000000000e+02,1.830000000000000000e+02,9.500000000000000000e+01,8.420000000000000000e+02,5.260000000000000000e+02,7.380000000000000000e+02,1.799999999999999933e-01,4.279000500000000000e+09
2.180000000000000000e+02,2.640000000000000000e+02,7.450000000000000000e+02,1.520000000000000000e+02,6.900000000000000000e+01,6.340000000000000000e+02,5.390000000000000000e+02,7.310000000000000000e+02,1.900000000000000022e-01,4.298328500000000000e+09
2.070000000000000000e+02,3.450000000000000000e+02,7.630000000000000000e+02,1.580000000000000000e+02,6.300000000000000000e+01,5.410000000000000000e+02,4.970000000000000000e+02,6.860000000000000000e+02,2.099999999999999922e-01,4.339194500000000000e+09
2.110000000000000000e+02,3.770000000000000000e+02,8.620000000000000000e+02,1.590000000000000000e+02,6.400000000000000000e+01,5.390000000000000000e+02,4.650000000000000000e+02,7.620000000000000000e+02,2.099999999999999922e-01,4.339206700000000000e+09
2.060000000000000000e+02,3.650000000000000000e+02,8.400000000000000000e+02,1.600000000000000000e+02,7.500000000000000000e+01,5.980000000000000000e+02,4.730000000000000000e+02,7.740000000000000000e+02,2.200000000000000011e-01,4.358403700000000000e+09
1.730000000000000000e+02,3.650000000000000000e+02,7.460000000000000000e+02,1.530000000000000000e+02,7.000000000000000000e+01,6.210000000000000000e+02,4.980000000000000000e+02,7.220000000000000000e+02,2.399999999999999911e-01,4.399386700000000000e+09
2.040000000000000000e+02,4.220000000000000000e+02,6.700000000000000000e+02,1.210000000000000000e+02,6.600000000000000000e+01,5.950000000000000000e+02,4.720000000000000000e+02,7.250000000000000000e+02,2.500000000000000000e-01,4.418919000000000000e+09
1.930000000000000000e+02,3.890000000000000000e+02,6.690000000000000000e+02,1.340000000000000000e+02,7.200000000000000000e+01,5.760000000000000000e+02,4.600000000000000000e+02,7.620000000000000000e+02,2.600000000000000089e-01,4.440432500000000000e+09
2.050000000000000000e+02,3.570000000000000000e+02,5.580000000000000000e+02,1.390000000000000000e+02,7.400000000000000000e+01,5.810000000000000000e+02,4.660000000000000000e+02,6.720000000000000000e+02,2.700000000000000178e-01,4.459118900000000000e+09
2.040000000000000000e+02,3.660000000000000000e+02,5.580000000000000000e+02,1.350000000000000000e+02,6.600000000000000000e+01,5.240000000000000000e+02,5.700000000000000000e+02,6.730000000000000000e+02,2.899999999999999800e-01,4.499573800000000000e+09
2.250000000000000000e+02,4.230000000000000000e+02,5.520000000000000000e+02,1.310000000000000000e+02,5.800000000000000000e+01,4.720000000000000000e+02,5.850000000000000000e+02,7.170000000000000000e+02,2.899999999999999800e-01,4.499589000000000000e+09
1.910000000000000000e+02,3.770000000000000000e+02,5.550000000000000000e+02,1.300000000000000000e+02,6.500000000000000000e+01,4.540000000000000000e+02,5.920000000000000000e+02,7.170000000000000000e+02,2.999999999999999889e-01,4.518471600000000000e+09
2.330000000000000000e+02,4.130000000000000000e+02,5.500000000000000000e+02,1.590000000000000000e+02,7.200000000000000000e+01,4.600000000000000000e+02,5.890000000000000000e+02,6.550000000000000000e+02,3.099999999999999978e-01,4.539960500000000000e+09
2.280000000000000000e+02,4.360000000000000000e+02,5.630000000000000000e+02,1.560000000000000000e+02,7.000000000000000000e+01,4.460000000000000000e+02,5.950000000000000000e+02,6.750000000000000000e+02,3.099999999999999978e-01,4.539972600000000000e+09
2.340000000000000000e+02,4.210000000000000000e+02,5.630000000000000000e+02,1.550000000000000000e+02,6.800000000000000000e+01,3.760000000000000000e+02,5.040000000000000000e+02,6.650000000000000000e+02,3.300000000000000155e-01,4.578114200000000000e+09
2.120000000000000000e+02,3.580000000000000000e+02,5.900000000000000000e+02,1.540000000000000000e+02,6.600000000000000000e+01,3.550000000000000000e+02,4.350000000000000000e+02,6.080000000000000000e+02,3.400000000000000244e-01,4.597893100000000000e+09
2.190000000000000000e+02,3.920000000000000000e+02,6.230000000000000000e+02,1.550000000000000000e+02,6.200000000000000000e+01,3.630000000000000000e+02,4.010000000000000000e+02,5.960000000000000000e+02,3.499999999999999778e-01,4.619556800000000000e+09
1.690000000000000000e+02,3.560000000000000000e+02,5.530000000000000000e+02,8.600000000000000000e+01,4.300000000000000000e+01,3.340000000000000000e+02,4.560000000000000000e+02,6.420000000000000000e+02,3.599999999999999867e-01,4.638448600000000000e+09
1.620000000000000000e+02,3.160000000000000000e+02,5.040000000000000000e+02,6.700000000000000000e+01,3.900000000000000000e+01,3.090000000000000000e+02,5.420000000000000000e+02,6.530000000000000000e+02,3.800000000000000044e-01,4.679745700000000000e+09
1.700000000000000000e+02,3.380000000000000000e+02,4.970000000000000000e+02,6.700000000000000000e+01,3.700000000000000000e+01,2.880000000000000000e+02,4.970000000000000000e+02,6.800000000000000000e+02,3.800000000000000044e-01,4.679759400000000000e+09
1.650000000000000000e+02,3.580000000000000000e+02,4.650000000000000000e+02,6.800000000000000000e+01,4.200000000000000000e+01,3.200000000000000000e+02,5.300000000000000000e+02,7.020000000000000000e+02,3.900000000000000133e-01,4.698672000000000000e+09
1.620000000000000000e+02,4.350000000000000000e+02,3.500000000000000000e+02,5.600000000000000000e+01,4.200000000000000000e+01,3.060000000000000000e+02,5.580000000000000000e+02,7.530000000000000000e+02,4.000000000000000222e-01,4.717962500000000000e+09
1.720000000000000000e+02,4.180000000000000000e+02,3.020000000000000000e+02,6.300000000000000000e+01,4.200000000000000000e+01,3.140000000000000000e+02,5.400000000000000000e+02,7.450000000000000000e+02,4.000000000000000222e-01,4.717973800000000000e+09
1.690000000000000000e+02,4.220000000000000000e+02,3.560000000000000000e+02,6.700000000000000000e+01,4.300000000000000000e+01,3.850000000000000000e+02,4.990000000000000000e+02,7.020000000000000000e+02,4.199999999999999845e-01,4.759278200000000000e+09
1.790000000000000000e+02,4.340000000000000000e+02,3.610000000000000000e+02,6.600000000000000000e+01,4.500000000000000000e+01,3.820000000000000000e+02,5.390000000000000000e+02,6.700000000000000000e+02,4.299999999999999933e-01,4.778486800000000000e+09
1.900000000000000000e+02,4.810000000000000000e+02,4.770000000000000000e+02,8.200000000000000000e+01,4.500000000000000000e+01,3.580000000000000000e+02,7.160000000000000000e+02,7.690000000000000000e+02,4.400000000000000022e-01,4.799936600000000000e+09
1.850000000000000000e+02,3.850000000000000000e+02,5.040000000000000000e+02,8.200000000000000000e+01,4.600000000000000000e+01,3.440000000000000000e+02,7.060000000000000000e+02,7.110000000000000000e+02,4.500000000000000111e-01,4.819008600000000000e+09
1.840000000000000000e+02,3.760000000000000000e+02,4.840000000000000000e+02,7.700000000000000000e+01,5.100000000000000000e+01,3.630000000000000000e+02,7.030000000000000000e+02,7.180000000000000000e+02,4.600000000000000200e-01,4.838659700000000000e+09
1.770000000000000000e+02,4.010000000000000000e+02,5.150000000000000000e+02,8.100000000000000000e+01,5.600000000000000000e+01,3.270000000000000000e+02,7.160000000000000000e+02,7.090000000000000000e+02,4.699999999999999734e-01,4.857788100000000000e+09
1.730000000000000000e+02,3.730000000000000000e+02,5.220000000000000000e+02,8.200000000000000000e+01,5.700000000000000000e+01,3.460000000000000000e+02,7.080000000000000000e+02,7.410000000000000000e+02,4.799999999999999822e-01,4.879582200000000000e+09
1.700000000000000000e+02,3.130000000000000000e+02,4.260000000000000000e+02,6.700000000000000000e+01,6.200000000000000000e+01,3.770000000000000000e+02,5.070000000000000000e+02,5.940000000000000000e+02,4.899999999999999911e-01,4.898909100000000000e+09
2.010000000000000000e+02,3.420000000000000000e+02,4.640000000000000000e+02,7.900000000000000000e+01,6.900000000000000000e+01,4.440000000000000000e+02,4.750000000000000000e+02,5.910000000000000000e+02,4.899999999999999911e-01,4.898921100000000000e+09
2.050000000000000000e+02,3.730000000000000000e+02,5.050000000000000000e+02,8.100000000000000000e+01,6.600000000000000000e+01,4.140000000000000000e+02,4.630000000000000000e+02,5.620000000000000000e+02,5.100000000000000089e-01,4.940144100000000000e+09
2.120000000000000000e+02,3.460000000000000000e+02,4.770000000000000000e+02,7.700000000000000000e+01,6.200000000000000000e+01,3.830000000000000000e+02,4.710000000000000000e+02,6.530000000000000000e+02,5.200000000000000178e-01,4.959127000000000000e+09
2.020000000000000000e+02,3.580000000000000000e+02,4.710000000000000000e+02,7.600000000000000000e+01,6.400000000000000000e+01,4.020000000000000000e+02,5.150000000000000000e+02,5.960000000000000000e+02,5.300000000000000266e-01,4.978085300000000000e+09
2.060000000000000000e+02,3.800000000000000000e+02,4.850000000000000000e+02,7.500000000000000000e+01,5.900000000000000000e+01,3.520000000000000000e+02,5.940000000000000000e+02,6.370000000000000000e+02,5.400000000000000355e-01,4.999604900000000000e+09
1.810000000000000000e+02,3.540000000000000000e+02,4.040000000000000000e+02,5.500000000000000000e+01,4.800000000000000000e+01,2.630000000000000000e+02,6.010000000000000000e+02,7.210000000000000000e+02,5.500000000000000444e-01,5.018730300000000000e+09
1.870000000000000000e+02,3.560000000000000000e+02,4.270000000000000000e+02,5.800000000000000000e+01,5.000000000000000000e+01,3.300000000000000000e+02,6.830000000000000000e+02,7.570000000000000000e+02,5.500000000000000444e-01,5.018758800000000000e+09
1.820000000000000000e+02,3.640000000000000000e+02,3.850000000000000000e+02,5.300000000000000000e+01,5.000000000000000000e+01,3.460000000000000000e+02,6.820000000000000000e+02,7.700000000000000000e+02,5.699999999999999512e-01,5.059972100000000000e+09
1.930000000000000000e+02,4.040000000000000000e+02,3.750000000000000000e+02,5.300000000000000000e+01,4.800000000000000000e+01,3.730000000000000000e+02,6.400000000000000000e+02,7.980000000000000000e+02,5.799999999999999600e-01,5.079296400000000000e+09
2.100000000000000000e+02,3.940000000000000000e+02,3.490000000000000000e+02,5.200000000000000000e+01,5.100000000000000000e+01,4.130000000000000000e+02,5.800000000000000000e+02,8.370000000000000000e+02,5.799999999999999600e-01,5.079308200000000000e+09
2.220000000000000000e+02,3.970000000000000000e+02,4.060000000000000000e+02,6.500000000000000000e+01,5.900000000000000000e+01,4.440000000000000000e+02,5.950000000000000000e+02,8.120000000000000000e+02,5.999999999999999778e-01,5.120281800000000000e+09
2.080000000000000000e+02,3.610000000000000000e+02,3.410000000000000000e+02,5.700000000000000000e+01,5.800000000000000000e+01,4.080000000000000000e+02,5.560000000000000000e+02,7.910000000000000000e+02,6.099999999999999867e-01,5.139221100000000000e+09
2.270000000000000000e+02,3.720000000000000000e+02,3.390000000000000000e+02,5.800000000000000000e+01,5.900000000000000000e+01,4.880000000000000000e+02,6.310000000000000000e+02,7.590000000000000000e+02,6.099999999999999867e-01,5.139232800000000000e+09
2.240000000000000000e+02,3.520000000000000000e+02,3.470000000000000000e+02,5.700000000000000000e+01,5.800000000000000000e+01,5.140000000000000000e+02,6.670000000000000000e+02,7.410000000000000000e+02,6.300000000000000044e-01,5.180051800000000000e+09
2.160000000000000000e+02,3.640000000000000000e+02,3.570000000000000000e+02,5.700000000000000000e+01,5.700000000000000000e+01,4.990000000000000000e+02,7.090000000000000000e+02,7.110000000000000000e+02,6.400000000000000133e-01,5.199102900000000000e+09
2.010000000000000000e+02,3.390000000000000000e+02,3.180000000000000000e+02,4.900000000000000000e+01,4.900000000000000000e+01,4.790000000000000000e+02,6.900000000000000000e+02,7.070000000000000000e+02,6.500000000000000222e-01,5.218357500000000000e+09
2.120000000000000000e+02,3.480000000000000000e+02,2.790000000000000000e+02,5.000000000000000000e+01,4.700000000000000000e+01,5.410000000000000000e+02,7.020000000000000000e+02,7.590000000000000000e+02,6.600000000000000311e-01,5.240323600000000000e+09
2.080000000000000000e+02,3.750000000000000000e+02,2.710000000000000000e+02,5.400000000000000000e+01,5.600000000000000000e+01,5.400000000000000000e+02,7.290000000000000000e+02,7.900000000000000000e+02,6.700000000000000400e-01,5.259236800000000000e+09
2.000000000000000000e+02,3.670000000000000000e+02,2.590000000000000000e+02,5.500000000000000000e+01,5.900000000000000000e+01,5.080000000000000000e+02,7.400000000000000000e+02,7.980000000000000000e+02,6.700000000000000400e-01,5.259248700000000000e+09
2.060000000000000000e+02,3.240000000000000000e+02,2.630000000000000000e+02,5.500000000000000000e+01,5.700000000000000000e+01,5.780000000000000000e+02,7.280000000000000000e+02,7.870000000000000000e+02,6.899999999999999467e-01,5.300134000000000000e+09
2.510000000000000000e+02,3.490000000000000000e+02,2.970000000000000000e+02,5.700000000000000000e+01,6.800000000000000000e+01,6.110000000000000000e+02,7.910000000000000000e+02,8.000000000000000000e+02,6.999999999999999556e-01,5.319387700000000000e+09
2.480000000000000000e+02,3.550000000000000000e+02,3.410000000000000000e+02,7.000000000000000000e+01,7.400000000000000000e+01,6.330000000000000000e+02,7.980000000000000000e+02,7.830000000000000000e+02,7.099999999999999645e-01,5.338462400000000000e+09
2.510000000000000000e+02,3.480000000000000000e+02,3.470000000000000000e+02,6.900000000000000000e+01,6.900000000000000000e+01,6.340000000000000000e+02,7.100000000000000000e+02,7.450000000000000000e+02,7.199999999999999734e-01,5.357811600000000000e+09
2.560000000000000000e+02,3.360000000000000000e+02,3.480000000000000000e+02,6.900000000000000000e+01,7.200000000000000000e+01,6.990000000000000000e+02,6.860000000000000000e+02,7.720000000000000000e+02,7.299999999999999822e-01,5.379632200000000000e+09
2.640000000000000000e+02,3.590000000000000000e+02,3.300000000000000000e+02,6.900000000000000000e+01,7.400000000000000000e+01,6.690000000000000000e+02,6.650000000000000000e+02,7.780000000000000000e+02,7.399999999999999911e-01,5.398845600000000000e+09
2.370000000000000000e+02,3.870000000000000000e+02,2.490000000000000000e+02,6.500000000000000000e+01,7.700000000000000000e+01,7.630000000000000000e+02,6.250000000000000000e+02,7.710000000000000000e+02,7.500000000000000000e-01,5.417968900000000000e+09
2.420000000000000000e+02,3.740000000000000000e+02,1.980000000000000000e+02,5.200000000000000000e+01,8.200000000000000000e+01,8.470000000000000000e+02,5.930000000000000000e+02,7.380000000000000000e+02,7.600000000000000089e-01,5.439970400000000000e+09
2.200000000000000000e+02,3.460000000000000000e+02,1.920000000000000000e+02,4.900000000000000000e+01,8.500000000000000000e+01,8.280000000000000000e+02,6.290000000000000000e+02,7.720000000000000000e+02,7.700000000000000178e-01,5.458968500000000000e+09
2.250000000000000000e+02,3.380000000000000000e+02,2.200000000000000000e+02,5.300000000000000000e+01,8.500000000000000000e+01,8.160000000000000000e+02,6.260000000000000000e+02,7.390000000000000000e+02,7.800000000000000266e-01,5.477840300000000000e+09
2.230000000000000000e+02,3.410000000000000000e+02,2.200000000000000000e+02,5.500000000000000000e+01,8.500000000000000000e+01,8.520000000000000000e+02,6.370000000000000000e+02,8.050000000000000000e+02,7.900000000000000355e-01,5.499419600000000000e+09
2.410000000000000000e+02,3.110000000000000000e+02,2.190000000000000000e+02,4.900000000000000000e+01,8.500000000000000000e+01,8.570000000000000000e+02,6.520000000000000000e+02,8.360000000000000000e+02,8.100000000000000533e-01,5.539765000000000000e+09
3.180000000000000000e+02,3.160000000000000000e+02,1.780000000000000000e+02,5.000000000000000000e+01,7.900000000000000000e+01,7.860000000000000000e+02,6.340000000000000000e+02,9.290000000000000000e+02,8.100000000000000533e-01,5.539799700000000000e+09
3.420000000000000000e+02,3.110000000000000000e+02,1.710000000000000000e+02,5.300000000000000000e+01,8.200000000000000000e+01,8.210000000000000000e+02,5.520000000000000000e+02,9.320000000000000000e+02,8.199999999999999512e-01,5.558639400000000000e+09
3.440000000000000000e+02,3.610000000000000000e+02,1.310000000000000000e+02,5.100000000000000000e+01,8.200000000000000000e+01,8.250000000000000000e+02,5.720000000000000000e+02,9.470000000000000000e+02,8.299999999999999600e-01,5.578044600000000000e+09
3.430000000000000000e+02,4.270000000000000000e+02,1.300000000000000000e+02,4.800000000000000000e+01,8.100000000000000000e+01,8.010000000000000000e+02,6.170000000000000000e+02,9.170000000000000000e+02,8.399999999999999689e-01,5.599895900000000000e+09
3.520000000000000000e+02,4.370000000000000000e+02,1.460000000000000000e+02,5.000000000000000000e+01,7.600000000000000000e+01,7.910000000000000000e+02,6.050000000000000000e+02,8.800000000000000000e+02,8.499999999999999778e-01,5.619222800000000000e+09
2.970000000000000000e+02,4.650000000000000000e+02,2.260000000000000000e+02,5.600000000000000000e+01,8.600000000000000000e+01,7.880000000000000000e+02,6.270000000000000000e+02,8.360000000000000000e+02,8.599999999999999867e-01,5.638720500000000000e+09
2.950000000000000000e+02,5.040000000000000000e+02,2.830000000000000000e+02,6.100000000000000000e+01,8.400000000000000000e+01,8.120000000000000000e+02,7.620000000000000000e+02,8.060000000000000000e+02,8.699999999999999956e-01,5.657956300000000000e+09
3.330000000000000000e+02,5.570000000000000000e+02,2.880000000000000000e+02,6.400000000000000000e+01,9.100000000000000000e+01,9.030000000000000000e+02,8.100000000000000000e+02,9.130000000000000000e+02,8.800000000000000044e-01,5.680109100000000000e+09
3.450000000000000000e+02,5.140000000000000000e+02,2.870000000000000000e+02,7.100000000000000000e+01,1.080000000000000000e+02,1.001000000000000000e+03,9.140000000000000000e+02,8.890000000000000000e+02,8.900000000000000133e-01,5.699058400000000000e+09
3.540000000000000000e+02,5.320000000000000000e+02,2.790000000000000000e+02,7.000000000000000000e+01,1.140000000000000000e+02,1.060000000000000000e+03,9.220000000000000000e+02,9.870000000000000000e+02,9.000000000000000222e-01,5.718139400000000000e+09
3.650000000000000000e+02,5.390000000000000000e+02,2.270000000000000000e+02,7.700000000000000000e+01,1.290000000000000000e+02,1.082000000000000000e+03,9.760000000000000000e+02,9.790000000000000000e+02,9.100000000000000311e-01,5.740222300000000000e+09
4.010000000000000000e+02,6.110000000000000000e+02,2.370000000000000000e+02,7.900000000000000000e+01,1.340000000000000000e+02,1.157000000000000000e+03,9.520000000000000000e+02,1.035000000000000000e+03,9.200000000000000400e-01,5.758875700000000000e+09
3.830000000000000000e+02,7.630000000000000000e+02,3.010000000000000000e+02,1.020000000000000000e+02,1.840000000000000000e+02,1.203000000000000000e+03,1.041000000000000000e+03,1.020000000000000000e+03,9.300000000000000488e-01,5.777921900000000000e+09
4.710000000000000000e+02,7.980000000000000000e+02,3.200000000000000000e+02,1.240000000000000000e+02,2.380000000000000000e+02,1.279000000000000000e+03,1.011000000000000000e+03,1.100000000000000000e+03,9.399999999999999467e-01,5.799535900000000000e+09
5.040000000000000000e+02,7.950000000000000000e+02,3.290000000000000000e+02,1.320000000000000000e+02,2.600000000000000000e+02,1.337000000000000000e+03,1.081000000000000000e+03,1.070000000000000000e+03,9.499999999999999556e-01,5.818591100000000000e+09
5.470000000000000000e+02,7.960000000000000000e+02,3.550000000000000000e+02,1.350000000000000000e+02,2.670000000000000000e+02,1.389000000000000000e+03,1.096000000000000000e+03,1.052000000000000000e+03,9.599999999999999645e-01,5.840323100000000000e+09
5.600000000000000000e+02,7.410000000000000000e+02,3.190000000000000000e+02,1.390000000000000000e+02,2.950000000000000000e+02,1.400000000000000000e+03,1.081000000000000000e+03,1.020000000000000000e+03,9.699999999999999734e-01,5.859045500000000000e+09
5.810000000000000000e+02,5.580000000000000000e+02,2.680000000000000000e+02,1.340000000000000000e+02,2.830000000000000000e+02,1.448000000000000000e+03,9.790000000000000000e+02,9.380000000000000000e+02,9.799999999999999822e-01,5.880194200000000000e+09
6.370000000000000000e+02,5.480000000000000000e+02,2.850000000000000000e+02,1.200000000000000000e+02,2.510000000000000000e+02,1.433000000000000000e+03,1.055000000000000000e+03,9.680000000000000000e+02,9.899999999999999911e-01,5.899526100000000000e+09
6.380000000000000000e+02,5.680000000000000000e+02,2.970000000000000000e+02,1.240000000000000000e+02,2.510000000000000000e+02,1.337000000000000000e+03,1.058000000000000000e+03,9.280000000000000000e+02,9.799999999999999822e-01,5.918380100000000000e+09
6.010000000000000000e+02,6.770000000000000000e+02,2.580000000000000000e+02,1.260000000000000000e+02,2.790000000000000000e+02,1.370000000000000000e+03,1.031000000000000000e+03,9.510000000000000000e+02,9.699999999999999734e-01,5.940106900000000000e+09
5.940000000000000000e+02,7.010000000000000000e+02,2.720000000000000000e+02,1.480000000000000000e+02,2.910000000000000000e+02,1.356000000000000000e+03,1.111000000000000000e+03,9.630000000000000000e+02,9.599999999999999645e-01,5.959280400000000000e+09
6.250000000000000000e+02,7.740000000000000000e+02,3.160000000000000000e+02,1.550000000000000000e+02,3.070000000000000000e+02,1.242000000000000000e+03,1.213000000000000000e+03,1.007000000000000000e+03,9.499999999999999556e-01,5.978302200000000000e+09
5.240000000000000000e+02,8.410000000000000000e+02,4.050000000000000000e+02,1.520000000000000000e+02,3.050000000000000000e+02,1.241000000000000000e+03,1.106000000000000000e+03,8.800000000000000000e+02,9.399999999999999467e-01,5.999856400000000000e+09
5.110000000000000000e+02,8.640000000000000000e+02,4.670000000000000000e+02,1.520000000000000000e+02,3.080000000000000000e+02,1.381000000000000000e+03,1.076000000000000000e+03,8.580000000000000000e+02,9.300000000000000488e-01,6.018895900000000000e+09
5.140000000000000000e+02,7.770000000000000000e+02,5.440000000000000000e+02,1.450000000000000000e+02,2.740000000000000000e+02,1.331000000000000000e+03,1.030000000000000000e+03,7.960000000000000000e+02,9.200000000000000400e-01,6.037989200000000000e+09
4.660000000000000000e+02,7.670000000000000000e+02,6.620000000000000000e+02,1.210000000000000000e+02,2.270000000000000000e+02,1.246000000000000000e+03,9.170000000000000000e+02,6.920000000000000000e+02,9.100000000000000311e-01,6.059672500000000000e+09
3.880000000000000000e+02,7.040000000000000000e+02,7.060000000000000000e+02,1.140000000000000000e+02,1.860000000000000000e+02,1.211000000000000000e+03,7.190000000000000000e+02,5.730000000000000000e+02,9.000000000000000222e-01,6.078767400000000000e+09
3.260000000000000000e+02,5.950000000000000000e+02,7.110000000000000000e+02,1.290000000000000000e+02,1.690000000000000000e+02,1.134000000000000000e+03,6.280000000000000000e+02,4.900000000000000000e+02,8.900000000000000133e-01,6.099137900000000000e+09
2.450000000000000000e+02,5.240000000000000000e+02,7.190000000000000000e+02,1.230000000000000000e+02,1.160000000000000000e+02,8.850000000000000000e+02,4.700000000000000000e+02,3.550000000000000000e+02,8.800000000000000044e-01,6.118489800000000000e+09
1.930000000000000000e+02,5.120000000000000000e+02,7.920000000000000000e+02,1.300000000000000000e+02,9.500000000000000000e+01,7.560000000000000000e+02,4.020000000000000000e+02,2.700000000000000000e+02,8.699999999999999956e-01,6.140162000000000000e+09
1.910000000000000000e+02,4.920000000000000000e+02,7.010000000000000000e+02,1.290000000000000000e+02,9.300000000000000000e+01,7.360000000000000000e+02,2.760000000000000000e+02,2.070000000000000000e+02,8.599999999999999867e-01,6.159089700000000000e+09
1.480000000000000000e+02,4.030000000000000000e+02,7.240000000000000000e+02,1.220000000000000000e+02,7.000000000000000000e+01,6.680000000000000000e+02,2.240000000000000000e+02,2.140000000000000000e+02,8.399999999999999689e-01,6.199450100000000000e+09
1.580000000000000000e+02,3.760000000000000000e+02,6.970000000000000000e+02,1.190000000000000000e+02,6.100000000000000000e+01,5.070000000000000000e+02,1.710000000000000000e+02,1.910000000000000000e+02,8.399999999999999689e-01,6.199463400000000000e+09
1.580000000000000000e+02,3.720000000000000000e+02,6.770000000000000000e+02,1.250000000000000000e+02,5.900000000000000000e+01,4.670000000000000000e+02,1.690000000000000000e+02,1.910000000000000000e+02,8.299999999999999600e-01,6.218431200000000000e+09
1.630000000000000000e+02,3.670000000000000000e+02,6.500000000000000000e+02,1.380000000000000000e+02,6.400000000000000000e+01,5.170000000000000000e+02,1.620000000000000000e+02,1.860000000000000000e+02,8.199999999999999512e-01,6.240318400000000000e+09
1.660000000000000000e+02,3.390000000000000000e+02,7.190000000000000000e+02,1.570000000000000000e+02,6.800000000000000000e+01,5.020000000000000000e+02,1.480000000000000000e+02,1.880000000000000000e+02,8.199999999999999512e-01,6.240330200000000000e+09
1.600000000000000000e+02,3.430000000000000000e+02,6.850000000000000000e+02,1.520000000000000000e+02,6.700000000000000000e+01,5.010000000000000000e+02,1.160000000000000000e+02,1.350000000000000000e+02,8.000000000000000444e-01,6.278476300000000000e+09
1.420000000000000000e+02,3.730000000000000000e+02,6.700000000000000000e+02,1.530000000000000000e+02,6.700000000000000000e+01,4.750000000000000000e+02,1.210000000000000000e+02,1.240000000000000000e+02,7.900000000000000355e-01,6.300110200000000000e+09
1.330000000000000000e+02,3.700000000000000000e+02,7.290000000000000000e+02,1.480000000000000000e+02,6.900000000000000000e+01,4.960000000000000000e+02,1.110000000000000000e+02,8.500000000000000000e+01,7.800000000000000266e-01,6.319368300000000000e+09
1.810000000000000000e+02,3.600000000000000000e+02,7.830000000000000000e+02,1.310000000000000000e+02,6.400000000000000000e+01,5.550000000000000000e+02,1.320000000000000000e+02,8.000000000000000000e+01,7.700000000000000178e-01,6.340458300000000000e+09
1.830000000000000000e+02,3.360000000000000000e+02,7.910000000000000000e+02,1.130000000000000000e+02,5.900000000000000000e+01,5.840000000000000000e+02,1.310000000000000000e+02,6.300000000000000000e+01,7.600000000000000089e-01,6.359673200000000000e+09
1.900000000000000000e+02,3.570000000000000000e+02,7.670000000000000000e+02,1.160000000000000000e+02,5.800000000000000000e+01,5.550000000000000000e+02,1.310000000000000000e+02,5.600000000000000000e+01,7.500000000000000000e-01,6.379373300000000000e+09
1.840000000000000000e+02,3.320000000000000000e+02,8.670000000000000000e+02,1.170000000000000000e+02,5.300000000000000000e+01,5.510000000000000000e+02,1.230000000000000000e+02,5.000000000000000000e+01,7.399999999999999911e-01,6.398646600000000000e+09
1.880000000000000000e+02,3.360000000000000000e+02,8.400000000000000000e+02,1.240000000000000000e+02,5.800000000000000000e+01,5.400000000000000000e+02,1.220000000000000000e+02,4.800000000000000000e+01,7.299999999999999822e-01,6.418022900000000000e+09
1.460000000000000000e+02,3.640000000000000000e+02,8.140000000000000000e+02,1.250000000000000000e+02,5.400000000000000000e+01,3.680000000000000000e+02,8.100000000000000000e+01,4.200000000000000000e+01,7.199999999999999734e-01,6.439629400000000000e+09
1.650000000000000000e+02,3.840000000000000000e+02,7.690000000000000000e+02,1.220000000000000000e+02,5.000000000000000000e+01,2.330000000000000000e+02,7.600000000000000000e+01,4.000000000000000000e+01,7.099999999999999645e-01,6.458716000000000000e+09
1.550000000000000000e+02,3.720000000000000000e+02,8.280000000000000000e+02,1.240000000000000000e+02,5.000000000000000000e+01,2.140000000000000000e+02,7.500000000000000000e+01,3.600000000000000000e+01,6.999999999999999556e-01,6.478312700000000000e+09
1.570000000000000000e+02,3.510000000000000000e+02,8.560000000000000000e+02,1.110000000000000000e+02,5.100000000000000000e+01,1.820000000000000000e+02,7.900000000000000000e+01,3.800000000000000000e+01,6.899999999999999467e-01,6.500080600000000000e+09
1.540000000000000000e+02,3.630000000000000000e+02,1.045000000000000000e+03,1.340000000000000000e+02,5.800000000000000000e+01,1.630000000000000000e+02,7.800000000000000000e+01,4.500000000000000000e+01,6.800000000000000488e-01,6.519299100000000000e+09
1.360000000000000000e+02,3.190000000000000000e+02,9.970000000000000000e+02,1.380000000000000000e+02,6.000000000000000000e+01,1.590000000000000000e+02,7.700000000000000000e+01,4.400000000000000000e+01,6.700000000000000400e-01,6.538731000000000000e+09
9.100000000000000000e+01,2.960000000000000000e+02,1.005000000000000000e+03,1.330000000000000000e+02,6.100000000000000000e+01,1.870000000000000000e+02,7.700000000000000000e+01,5.700000000000000000e+01,6.600000000000000311e-01,6.557844700000000000e+09
9.500000000000000000e+01,2.740000000000000000e+02,1.039000000000000000e+03,1.320000000000000000e+02,6.600000000000000000e+01,2.070000000000000000e+02,8.200000000000000000e+01,5.900000000000000000e+01,6.500000000000000222e-01,6.579750400000000000e+09
1.360000000000000000e+02,2.710000000000000000e+02,9.820000000000000000e+02,1.420000000000000000e+02,6.500000000000000000e+01,2.110000000000000000e+02,7.400000000000000000e+01,5.900000000000000000e+01,6.400000000000000133e-01,6.599573200000000000e+09
1.540000000000000000e+02,2.750000000000000000e+02,7.680000000000000000e+02,1.090000000000000000e+02,4.900000000000000000e+01,1.850000000000000000e+02,5.600000000000000000e+01,5.500000000000000000e+01,6.300000000000000044e-01,6.618817900000000000e+09
1.550000000000000000e+02,3.200000000000000000e+02,8.650000000000000000e+02,1.080000000000000000e+02,4.600000000000000000e+01,1.710000000000000000e+02,6.600000000000000000e+01,5.600000000000000000e+01,6.199999999999999956e-01,6.638103900000000000e+09
1.590000000000000000e+02,3.320000000000000000e+02,8.880000000000000000e+02,1.300000000000000000e+02,4.700000000000000000e+01,1.370000000000000000e+02,7.100000000000000000e+01,4.400000000000000000e+01,6.099999999999999867e-01,6.660164500000000000e+09
1.630000000000000000e+02,3.510000000000000000e+02,8.330000000000000000e+02,1.310000000000000000e+02,4.200000000000000000e+01,1.010000000000000000e+02,6.700000000000000000e+01,4.600000000000000000e+01,5.999999999999999778e-01,6.679079600000000000e+09
1.260000000000000000e+02,3.520000000000000000e+02,8.150000000000000000e+02,1.130000000000000000e+02,4.100000000000000000e+01,9.400000000000000000e+01,6.600000000000000000e+01,4.500000000000000000e+01,5.899999999999999689e-01,6.698482200000000000e+09
1.110000000000000000e+02,3.150000000000000000e+02,8.200000000000000000e+02,1.140000000000000000e+02,4.400000000000000000e+01,1.020000000000000000e+02,7.300000000000000000e+01,4.400000000000000000e+01,5.799999999999999600e-01,6.717893000000000000e+09
1.420000000000000000e+02,3.290000000000000000e+02,7.770000000000000000e+02,1.270000000000000000e+02,4.900000000000000000e+01,1.140000000000000000e+02,8.100000000000000000e+01,4.900000000000000000e+01,5.699999999999999512e-01,6.739637600000000000e+09
1.420000000000000000e+02,3.240000000000000000e+02,8.430000000000000000e+02,1.240000000000000000e+02,4.600000000000000000e+01,1.440000000000000000e+02,7.900000000000000000e+01,4.700000000000000000e+01,5.600000000000000533e-01,6.758730500000000000e+09
1.400000000000000000e+02,2.960000000000000000e+02,8.730000000000000000e+02,1.220000000000000000e+02,4.300000000000000000e+01,1.470000000000000000e+02,7.800000000000000000e+01,4.500000000000000000e+01,5.500000000000000444e-01,6.780421900000000000e+09
1.480000000000000000e+02,3.260000000000000000e+02,8.560000000000000000e+02,1.310000000000000000e+02,4.700000000000000000e+01,1.490000000000000000e+02,8.700000000000000000e+01,4.700000000000000000e+01,5.400000000000000355e-01,6.800044900000000000e+09
1.470000000000000000e+02,3.250000000000000000e+02,8.320000000000000000e+02,1.430000000000000000e+02,4.800000000000000000e+01,1.400000000000000000e+02,8.400000000000000000e+01,4.900000000000000000e+01,5.300000000000000266e-01,6.819304100000000000e+09
1.110000000000000000e+02,2.540000000000000000e+02,7.960000000000000000e+02,1.250000000000000000e+02,4.500000000000000000e+01,1.650000000000000000e+02,7.400000000000000000e+01,4.400000000000000000e+01,5.200000000000000178e-01,6.839035000000000000e+09
1.040000000000000000e+02,2.560000000000000000e+02,7.450000000000000000e+02,1.070000000000000000e+02,4.700000000000000000e+01,1.360000000000000000e+02,7.400000000000000000e+01,4.600000000000000000e+01,5.100000000000000089e-01,6.858611400000000000e+09
9.700000000000000000e+01,2.530000000000000000e+02,7.270000000000000000e+02,1.030000000000000000e+02,4.900000000000000000e+01,1.800000000000000000e+02,8.200000000000000000e+01,4.700000000000000000e+01,5.000000000000000000e-01,6.877838100000000000e+09
8.300000000000000000e+01,2.170000000000000000e+02,7.460000000000000000e+02,1.030000000000000000e+02,4.700000000000000000e+01,1.790000000000000000e+02,7.800000000000000000e+01,4.300000000000000000e+01,4.899999999999999911e-01,6.899832000000000000e+09
6.900000000000000000e+01,2.280000000000000000e+02,8.900000000000000000e+02,8.300000000000000000e+01,4.600000000000000000e+01,1.810000000000000000e+02,8.000000000000000000e+01,4.100000000000000000e+01,4.799999999999999822e-01,6.919060900000000000e+09
1.080000000000000000e+02,2.250000000000000000e+02,8.840000000000000000e+02,9.000000000000000000e+01,4.800000000000000000e+01,1.630000000000000000e+02,8.000000000000000000e+01,4.000000000000000000e+01,4.699999999999999734e-01,6.938160400000000000e+09
1.350000000000000000e+02,2.340000000000000000e+02,9.050000000000000000e+02,1.030000000000000000e+02,5.100000000000000000e+01,1.590000000000000000e+02,7.700000000000000000e+01,4.100000000000000000e+01,4.600000000000000200e-01,6.957921400000000000e+09
1.380000000000000000e+02,2.620000000000000000e+02,9.270000000000000000e+02,1.060000000000000000e+02,5.200000000000000000e+01,1.050000000000000000e+02,7.000000000000000000e+01,4.300000000000000000e+01,4.500000000000000111e-01,6.979702200000000000e+09
1.470000000000000000e+02,3.250000000000000000e+02,1.048000000000000000e+03,1.270000000000000000e+02,5.400000000000000000e+01,1.270000000000000000e+02,7.200000000000000000e+01,4.600000000000000000e+01,4.400000000000000022e-01,6.999157100000000000e+09
1.470000000000000000e+02,3.270000000000000000e+02,9.420000000000000000e+02,1.290000000000000000e+02,5.500000000000000000e+01,1.590000000000000000e+02,5.900000000000000000e+01,4.400000000000000000e+01,4.299999999999999933e-01,7.018699300000000000e+09
1.260000000000000000e+02,3.370000000000000000e+02,9.750000000000000000e+02,1.430000000000000000e+02,5.800000000000000000e+01,1.550000000000000000e+02,5.700000000000000000e+01,4.900000000000000000e+01,4.099999999999999756e-01,7.066562700000000000e+09
1.010000000000000000e+02,3.230000000000000000e+02,9.120000000000000000e+02,1.590000000000000000e+02,5.800000000000000000e+01,1.540000000000000000e+02,5.700000000000000000e+01,4.900000000000000000e+01,4.099999999999999756e-01,7.066576300000000000e+09
1.060000000000000000e+02,3.100000000000000000e+02,1.003000000000000000e+03,1.820000000000000000e+02,6.300000000000000000e+01,1.560000000000000000e+02,7.800000000000000000e+01,5.500000000000000000e+01,4.000000000000000222e-01,7.078025800000000000e+09
1.040000000000000000e+02,2.530000000000000000e+02,9.210000000000000000e+02,1.920000000000000000e+02,6.500000000000000000e+01,1.430000000000000000e+02,7.900000000000000000e+01,5.700000000000000000e+01,3.900000000000000133e-01,7.100439200000000000e+09
1.180000000000000000e+02,2.980000000000000000e+02,1.012000000000000000e+03,2.090000000000000000e+02,7.300000000000000000e+01,1.180000000000000000e+02,8.100000000000000000e+01,6.100000000000000000e+01,3.800000000000000044e-01,7.119768100000000000e+09
1.110000000000000000e+02,2.950000000000000000e+02,1.036000000000000000e+03,2.050000000000000000e+02,7.100000000000000000e+01,1.210000000000000000e+02,8.400000000000000000e+01,5.700000000000000000e+01,3.699999999999999956e-01,7.138836800000000000e+09
1.090000000000000000e+02,3.380000000000000000e+02,1.096000000000000000e+03,1.890000000000000000e+02,7.000000000000000000e+01,1.430000000000000000e+02,1.120000000000000000e+02,5.600000000000000000e+01,3.599999999999999867e-01,7.158052700000000000e+09
1.080000000000000000e+02,3.820000000000000000e+02,1.011000000000000000e+03,1.750000000000000000e+02,6.700000000000000000e+01,1.410000000000000000e+02,1.000000000000000000e+02,5.000000000000000000e+01,3.499999999999999778e-01,7.179468100000000000e+09
9.600000000000000000e+01,3.760000000000000000e+02,1.046000000000000000e+03,1.470000000000000000e+02,6.200000000000000000e+01,1.360000000000000000e+02,9.400000000000000000e+01,4.700000000000000000e+01,3.400000000000000244e-01,7.198791600000000000e+09
7.700000000000000000e+01,3.370000000000000000e+02,1.154000000000000000e+03,1.210000000000000000e+02,5.100000000000000000e+01,1.700000000000000000e+02,1.030000000000000000e+02,3.800000000000000000e+01,3.300000000000000155e-01,7.218226900000000000e+09
8.700000000000000000e+01,3.360000000000000000e+02,1.124000000000000000e+03,1.250000000000000000e+02,5.100000000000000000e+01,1.870000000000000000e+02,1.050000000000000000e+02,4.200000000000000000e+01,3.200000000000000067e-01,7.240273100000000000e+09
8.200000000000000000e+01,3.030000000000000000e+02,1.162000000000000000e+03,1.250000000000000000e+02,5.400000000000000000e+01,1.830000000000000000e+02,7.400000000000000000e+01,4.200000000000000000e+01,3.099999999999999978e-01,7.259891000000000000e+09
7.500000000000000000e+01,2.360000000000000000e+02,1.176000000000000000e+03,1.120000000000000000e+02,4.900000000000000000e+01,1.820000000000000000e+02,7.200000000000000000e+01,3.800000000000000000e+01,2.999999999999999889e-01,7.278972800000000000e+09
7.700000000000000000e+01,2.410000000000000000e+02,1.123000000000000000e+03,1.250000000000000000e+02,5.700000000000000000e+01,1.900000000000000000e+02,7.200000000000000000e+01,4.200000000000000000e+01,2.800000000000000266e-01,7.318123300000000000e+09
1.040000000000000000e+02,3.440000000000000000e+02,1.031000000000000000e+03,1.540000000000000000e+02,6.800000000000000000e+01,1.600000000000000000e+02,8.300000000000000000e+01,5.600000000000000000e+01,2.800000000000000266e-01,7.318135600000000000e+09
1.110000000000000000e+02,3.860000000000000000e+02,1.001000000000000000e+03,1.810000000000000000e+02,7.800000000000000000e+01,1.290000000000000000e+02,8.100000000000000000e+01,6.000000000000000000e+01,2.700000000000000178e-01,7.339816200000000000e+09
1.170000000000000000e+02,4.030000000000000000e+02,9.060000000000000000e+02,1.800000000000000000e+02,7.800000000000000000e+01,1.140000000000000000e+02,8.500000000000000000e+01,6.300000000000000000e+01,2.600000000000000089e-01,7.358877200000000000e+09
1.240000000000000000e+02,4.210000000000000000e+02,8.390000000000000000e+02,1.950000000000000000e+02,8.000000000000000000e+01,1.210000000000000000e+02,8.500000000000000000e+01,6.500000000000000000e+01,2.500000000000000000e-01,7.378988200000000000e+09
1.390000000000000000e+02,4.890000000000000000e+02,8.840000000000000000e+02,2.190000000000000000e+02,8.200000000000000000e+01,1.590000000000000000e+02,1.120000000000000000e+02,6.700000000000000000e+01,2.399999999999999911e-01,7.398898300000000000e+09
1.330000000000000000e+02,4.730000000000000000e+02,8.070000000000000000e+02,2.070000000000000000e+02,7.700000000000000000e+01,1.630000000000000000e+02,1.030000000000000000e+02,6.000000000000000000e+01,2.300000000000000100e-01,7.417906300000000000e+09
1.320000000000000000e+02,4.860000000000000000e+02,8.790000000000000000e+02,1.860000000000000000e+02,7.500000000000000000e+01,1.660000000000000000e+02,9.900000000000000000e+01,5.900000000000000000e+01,2.200000000000000011e-01,7.442150100000000000e+09
1.390000000000000000e+02,5.370000000000000000e+02,9.150000000000000000e+02,2.170000000000000000e+02,7.600000000000000000e+01,1.670000000000000000e+02,9.900000000000000000e+01,6.100000000000000000e+01,2.099999999999999922e-01,7.459896300000000000e+09
1.460000000000000000e+02,5.850000000000000000e+02,1.104000000000000000e+03,2.200000000000000000e+02,8.100000000000000000e+01,1.630000000000000000e+02,1.000000000000000000e+02,6.300000000000000000e+01,2.000000000000000111e-01,7.479198700000000000e+09
1.480000000000000000e+02,5.480000000000000000e+02,1.147000000000000000e+03,2.190000000000000000e+02,9.100000000000000000e+01,1.320000000000000000e+02,7.100000000000000000e+01,6.600000000000000000e+01,1.900000000000000022e-01,7.498606200000000000e+09
1.480000000000000000e+02,5.160000000000000000e+02,1.223000000000000000e+03,2.230000000000000000e+02,9.100000000000000000e+01,1.130000000000000000e+02,5.600000000000000000e+01,6.800000000000000000e+01,1.799999999999999933e-01,7.518033700000000000e+09
1.740000000000000000e+02,5.650000000000000000e+02,1.278000000000000000e+03,2.450000000000000000e+02,9.700000000000000000e+01,1.260000000000000000e+02,8.300000000000000000e+01,8.200000000000000000e+01,1.700000000000000122e-01,7.539485200000000000e+09
1.710000000000000000e+02,5.600000000000000000e+02,1.287000000000000000e+03,2.480000000000000000e+02,1.010000000000000000e+02,1.240000000000000000e+02,8.200000000000000000e+01,8.000000000000000000e+01,1.600000000000000033e-01,7.558825000000000000e+09
2.030000000000000000e+02,5.870000000000000000e+02,1.150000000000000000e+03,2.880000000000000000e+02,1.350000000000000000e+02,1.240000000000000000e+02,9.000000000000000000e+01,9.800000000000000000e+01,1.499999999999999944e-01,7.578469900000000000e+09
2.180000000000000000e+02,6.850000000000000000e+02,1.224000000000000000e+03,2.850000000000000000e+02,1.350000000000000000e+02,1.070000000000000000e+02,9.400000000000000000e+01,1.030000000000000000e+02,1.400000000000000133e-01,7.600413800000000000e+09
2.770000000000000000e+02,7.710000000000000000e+02,1.181000000000000000e+03,4.220000000000000000e+02,1.700000000000000000e+02,1.200000000000000000e+02,1.000000000000000000e+02,1.260000000000000000e+02,1.300000000000000044e-01,7.619470000000000000e+09
3.250000000000000000e+02,8.190000000000000000e+02,1.158000000000000000e+03,5.260000000000000000e+02,1.950000000000000000e+02,1.130000000000000000e+02,8.800000000000000000e+01,1.430000000000000000e+02,1.199999999999999956e-01,7.638796100000000000e+09
3.250000000000000000e+02,8.220000000000000000e+02,1.175000000000000000e+03,5.290000000000000000e+02,1.970000000000000000e+02,1.140000000000000000e+02,8.700000000000000000e+01,1.430000000000000000e+02,1.100000000000000006e-01,7.660469200000000000e+09
3.200000000000000000e+02,9.270000000000000000e+02,1.279000000000000000e+03,5.570000000000000000e+02,1.980000000000000000e+02,1.260000000000000000e+02,1.010000000000000000e+02,1.400000000000000000e+02,1.000000000000000056e-01,7.679554900000000000e+09
3.200000000000000000e+02,9.280000000000000000e+02,1.177000000000000000e+03,5.710000000000000000e+02,2.130000000000000000e+02,1.310000000000000000e+02,1.220000000000000000e+02,1.420000000000000000e+02,8.999999999999999667e-02,7.698618300000000000e+09
2.900000000000000000e+02,9.670000000000000000e+02,1.171000000000000000e+03,5.080000000000000000e+02,2.020000000000000000e+02,1.270000000000000000e+02,1.240000000000000000e+02,1.300000000000000000e+02,7.000000000000000666e-02,7.739302200000000000e+09
2.600000000000000000e+02,9.590000000000000000e+02,1.131000000000000000e+03,4.430000000000000000e+02,2.000000000000000000e+02,1.230000000000000000e+02,1.310000000000000000e+02,1.210000000000000000e+02,7.000000000000000666e-02,7.739321000000000000e+09
3.510000000000000000e+02,1.106000000000000000e+03,1.133000000000000000e+03,5.350000000000000000e+02,2.340000000000000000e+02,1.430000000000000000e+02,1.460000000000000000e+02,1.580000000000000000e+02,5.999999999999999778e-02,7.758453100000000000e+09
3.620000000000000000e+02,1.057000000000000000e+03,9.970000000000000000e+02,5.710000000000000000e+02,2.330000000000000000e+02,1.420000000000000000e+02,1.380000000000000000e+02,1.620000000000000000e+02,5.000000000000000278e-02,7.780212000000000000e+09
4.180000000000000000e+02,1.083000000000000000e+03,1.021000000000000000e+03,7.020000000000000000e+02,2.540000000000000000e+02,1.540000000000000000e+02,1.350000000000000000e+02,1.860000000000000000e+02,4.000000000000000083e-02,7.799102600000000000e+09
4.340000000000000000e+02,1.083000000000000000e+03,1.033000000000000000e+03,7.620000000000000000e+02,2.430000000000000000e+02,1.510000000000000000e+02,1.340000000000000000e+02,1.900000000000000000e+02,2.999999999999999889e-02,7.818493900000000000e+09
4.410000000000000000e+02,1.086000000000000000e+03,1.097000000000000000e+03,7.770000000000000000e+02,2.350000000000000000e+02,1.500000000000000000e+02,1.260000000000000000e+02,1.860000000000000000e+02,2.000000000000000042e-02,7.840221300000000000e+09
4.070000000000000000e+02,1.020000000000000000e+03,1.158000000000000000e+03,8.020000000000000000e+02,2.330000000000000000e+02,1.500000000000000000e+02,1.210000000000000000e+02,1.750000000000000000e+02,1.000000000000000021e-02,7.859572600000000000e+09
4.530000000000000000e+02,1.095000000000000000e+03,1.239000000000000000e+03,8.420000000000000000e+02,2.560000000000000000e+02,2.000000000000000000e+02,1.400000000000000000e+02,1.920000000000000000e+02,0.000000000000000000e+00,7.878870500000000000e+09
4.310000000000000000e+02,1.076000000000000000e+03,1.228000000000000000e+03,7.870000000000000000e+02,2.530000000000000000e+02,2.050000000000000000e+02,1.320000000000000000e+02,1.810000000000000000e+02,1.000000000000000021e-02,7.898238000000000000e+09
4.190000000000000000e+02,1.064000000000000000e+03,1.214000000000000000e+03,7.360000000000000000e+02,2.650000000000000000e+02,2.090000000000000000e+02,1.310000000000000000e+02,1.790000000000000000e+02,2.000000000000000042e-02,7.917863200000000000e+09
3.990000000000000000e+02,1.057000000000000000e+03,1.188000000000000000e+03,7.020000000000000000e+02,2.590000000000000000e+02,2.150000000000000000e+02,1.430000000000000000e+02,1.870000000000000000e+02,2.999999999999999889e-02,7.939946900000000000e+09
3.760000000000000000e+02,9.570000000000000000e+02,1.121000000000000000e+03,6.200000000000000000e+02,2.470000000000000000e+02,3.350000000000000000e+02,2.030000000000000000e+02,4.110000000000000000e+02,4.000000000000000083e-02,7.959264700000000000e+09
3.030000000000000000e+02,7.840000000000000000e+02,1.002000000000000000e+03,4.910000000000000000e+02,2.060000000000000000e+02,3.950000000000000000e+02,2.270000000000000000e+02,4.550000000000000000e+02,5.000000000000000278e-02,7.978816800000000000e+09
2.420000000000000000e+02,6.970000000000000000e+02,9.070000000000000000e+02,3.890000000000000000e+02,1.640000000000000000e+02,4.980000000000000000e+02,2.900000000000000000e+02,5.380000000000000000e+02,5.999999999999999778e-02,8.000176800000000000e+09
2.240000000000000000e+02,5.990000000000000000e+02,8.000000000000000000e+02,3.290000000000000000e+02,1.420000000000000000e+02,6.090000000000000000e+02,4.360000000000000000e+02,6.330000000000000000e+02,7.000000000000000666e-02,8.018979600000000000e+09
2.340000000000000000e+02,4.560000000000000000e+02,6.440000000000000000e+02,2.960000000000000000e+02,1.440000000000000000e+02,7.040000000000000000e+02,5.090000000000000000e+02,7.470000000000000000e+02,8.000000000000000167e-02,8.038007000000000000e+09
2.660000000000000000e+02,4.950000000000000000e+02,6.290000000000000000e+02,2.570000000000000000e+02,1.360000000000000000e+02,8.050000000000000000e+02,5.830000000000000000e+02,7.980000000000000000e+02,8.999999999999999667e-02,8.059649700000000000e+09
2.720000000000000000e+02,5.490000000000000000e+02,7.180000000000000000e+02,2.640000000000000000e+02,1.440000000000000000e+02,8.610000000000000000e+02,6.380000000000000000e+02,9.010000000000000000e+02,1.000000000000000056e-01,8.078326200000000000e+09
3.210000000000000000e+02,5.470000000000000000e+02,7.200000000000000000e+02,2.440000000000000000e+02,1.470000000000000000e+02,8.840000000000000000e+02,6.990000000000000000e+02,9.710000000000000000e+02,1.100000000000000006e-01,8.100266200000000000e+09
3.120000000000000000e+02,5.080000000000000000e+02,7.230000000000000000e+02,2.410000000000000000e+02,1.540000000000000000e+02,9.060000000000000000e+02,7.830000000000000000e+02,9.550000000000000000e+02,1.199999999999999956e-01,8.119145800000000000e+09
3.450000000000000000e+02,5.700000000000000000e+02,7.700000000000000000e+02,2.690000000000000000e+02,1.540000000000000000e+02,9.680000000000000000e+02,8.690000000000000000e+02,9.390000000000000000e+02,1.400000000000000133e-01,8.159594200000000000e+09
3.210000000000000000e+02,5.870000000000000000e+02,8.430000000000000000e+02,2.680000000000000000e+02,1.300000000000000000e+02,8.780000000000000000e+02,8.200000000000000000e+02,8.900000000000000000e+02,1.400000000000000133e-01,8.159608100000000000e+09
3.190000000000000000e+02,5.310000000000000000e+02,7.870000000000000000e+02,2.280000000000000000e+02,1.210000000000000000e+02,9.000000000000000000e+02,8.290000000000000000e+02,7.930000000000000000e+02,1.499999999999999944e-01,8.178647800000000000e+09
2.680000000000000000e+02,5.060000000000000000e+02,7.560000000000000000e+02,2.170000000000000000e+02,1.200000000000000000e+02,8.840000000000000000e+02,7.760000000000000000e+02,7.570000000000000000e+02,1.600000000000000033e-01,8.197812100000000000e+09
2.830000000000000000e+02,5.290000000000000000e+02,7.790000000000000000e+02,2.390000000000000000e+02,1.160000000000000000e+02,8.380000000000000000e+02,6.460000000000000000e+02,7.680000000000000000e+02,1.700000000000000122e-01,8.219949600000000000e+09
3.100000000000000000e+02,5.120000000000000000e+02,7.520000000000000000e+02,2.470000000000000000e+02,1.230000000000000000e+02,7.840000000000000000e+02,5.340000000000000000e+02,7.340000000000000000e+02,1.799999999999999933e-01,8.238773000000000000e+09
3.010000000000000000e+02,4.620000000000000000e+02,5.440000000000000000e+02,2.050000000000000000e+02,1.210000000000000000e+02,7.610000000000000000e+02,5.430000000000000000e+02,7.230000000000000000e+02,1.900000000000000022e-01,8.260218600000000000e+09
2.950000000000000000e+02,4.550000000000000000e+02,5.320000000000000000e+02,1.970000000000000000e+02,1.190000000000000000e+02,6.660000000000000000e+02,5.190000000000000000e+02,7.030000000000000000e+02,2.000000000000000111e-01,8.278842100000000000e+09
3.030000000000000000e+02,4.460000000000000000e+02,5.230000000000000000e+02,1.970000000000000000e+02,1.090000000000000000e+02,6.030000000000000000e+02,5.830000000000000000e+02,6.430000000000000000e+02,2.099999999999999922e-01,8.298135300000000000e+09
2.900000000000000000e+02,4.370000000000000000e+02,5.430000000000000000e+02,1.780000000000000000e+02,9.900000000000000000e+01,5.350000000000000000e+02,5.540000000000000000e+02,5.690000000000000000e+02,2.200000000000000011e-01,8.320467200000000000e+09
2.090000000000000000e+02,5.240000000000000000e+02,5.510000000000000000e+02,1.290000000000000000e+02,7.500000000000000000e+01,4.090000000000000000e+02,4.810000000000000000e+02,5.340000000000000000e+02,2.300000000000000100e-01,8.339266600000000000e+09
1.970000000000000000e+02,4.920000000000000000e+02,5.320000000000000000e+02,1.280000000000000000e+02,7.200000000000000000e+01,3.870000000000000000e+02,4.490000000000000000e+02,4.210000000000000000e+02,2.399999999999999911e-01,8.358563700000000000e+09
1.820000000000000000e+02,5.070000000000000000e+02,4.920000000000000000e+02,1.290000000000000000e+02,7.100000000000000000e+01,3.240000000000000000e+02,3.810000000000000000e+02,3.910000000000000000e+02,2.500000000000000000e-01,8.380498200000000000e+09
1.710000000000000000e+02,5.550000000000000000e+02,4.990000000000000000e+02,1.370000000000000000e+02,8.100000000000000000e+01,3.430000000000000000e+02,2.670000000000000000e+02,3.510000000000000000e+02,2.600000000000000089e-01,8.399519500000000000e+09
1.700000000000000000e+02,5.390000000000000000e+02,4.400000000000000000e+02,1.400000000000000000e+02,8.000000000000000000e+01,3.680000000000000000e+02,3.240000000000000000e+02,4.440000000000000000e+02,2.700000000000000178e-01,8.418779000000000000e+09
1.320000000000000000e+02,4.260000000000000000e+02,4.430000000000000000e+02,1.040000000000000000e+02,6.700000000000000000e+01,3.240000000000000000e+02,4.100000000000000000e+02,4.270000000000000000e+02,2.800000000000000266e-01,8.438221800000000000e+09
1.320000000000000000e+02,4.320000000000000000e+02,4.750000000000000000e+02,9.900000000000000000e+01,6.300000000000000000e+01,3.430000000000000000e+02,4.490000000000000000e+02,4.240000000000000000e+02,2.899999999999999800e-01,8.460078900000000000e+09
1.500000000000000000e+02,4.020000000000000000e+02,4.650000000000000000e+02,9.600000000000000000e+01,5.700000000000000000e+01,3.680000000000000000e+02,4.510000000000000000e+02,4.410000000000000000e+02,3.099999999999999978e-01,8.498071200000000000e+09
1.590000000000000000e+02,3.660000000000000000e+02,4.500000000000000000e+02,8.400000000000000000e+01,4.400000000000000000e+01,3.600000000000000000e+02,4.480000000000000000e+02,4.800000000000000000e+02,3.099999999999999978e-01,8.498084700000000000e+09
1.700000000000000000e+02,3.790000000000000000e+02,5.890000000000000000e+02,1.020000000000000000e+02,4.800000000000000000e+01,3.310000000000000000e+02,4.020000000000000000e+02,4.310000000000000000e+02,3.200000000000000067e-01,8.520235400000000000e+09
1.720000000000000000e+02,4.070000000000000000e+02,6.030000000000000000e+02,1.180000000000000000e+02,5.400000000000000000e+01,3.280000000000000000e+02,3.380000000000000000e+02,4.360000000000000000e+02,3.300000000000000155e-01,8.539121200000000000e+09
1.730000000000000000e+02,4.100000000000000000e+02,5.930000000000000000e+02,1.210000000000000000e+02,5.900000000000000000e+01,3.330000000000000000e+02,4.050000000000000000e+02,4.790000000000000000e+02,3.400000000000000244e-01,8.558382500000000000e+09
1.660000000000000000e+02,4.110000000000000000e+02,5.920000000000000000e+02,1.200000000000000000e+02,5.800000000000000000e+01,3.270000000000000000e+02,4.130000000000000000e+02,5.000000000000000000e+02,3.499999999999999778e-01,8.577812100000000000e+09
1.580000000000000000e+02,3.870000000000000000e+02,5.970000000000000000e+02,1.180000000000000000e+02,5.600000000000000000e+01,2.910000000000000000e+02,4.660000000000000000e+02,4.670000000000000000e+02,3.599999999999999867e-01,8.599800700000000000e+09
1.520000000000000000e+02,3.730000000000000000e+02,5.150000000000000000e+02,8.000000000000000000e+01,4.700000000000000000e+01,2.880000000000000000e+02,4.770000000000000000e+02,5.080000000000000000e+02,3.699999999999999956e-01,8.619012500000000000e+09
1.720000000000000000e+02,3.270000000000000000e+02,4.310000000000000000e+02,7.200000000000000000e+01,4.900000000000000000e+01,3.300000000000000000e+02,4.700000000000000000e+02,5.010000000000000000e+02,3.900000000000000133e-01,8.660259300000000000e+09
1.770000000000000000e+02,2.920000000000000000e+02,3.890000000000000000e+02,6.900000000000000000e+01,4.400000000000000000e+01,3.250000000000000000e+02,4.150000000000000000e+02,5.050000000000000000e+02,3.900000000000000133e-01,8.660272100000000000e+09
1.660000000000000000e+02,2.880000000000000000e+02,3.870000000000000000e+02,7.000000000000000000e+01,4.300000000000000000e+01,2.870000000000000000e+02,4.280000000000000000e+02,5.190000000000000000e+02,4.000000000000000222e-01,8.679656900000000000e+09
1.770000000000000000e+02,3.300000000000000000e+02,3.720000000000000000e+02,7.100000000000000000e+01,4.500000000000000000e+01,2.700000000000000000e+02,4.090000000000000000e+02,4.930000000000000000e+02,4.099999999999999756e-01,8.698949200000000000e+09
1.820000000000000000e+02,3.710000000000000000e+02,3.310000000000000000e+02,7.100000000000000000e+01,4.700000000000000000e+01,2.920000000000000000e+02,4.350000000000000000e+02,4.420000000000000000e+02,4.199999999999999845e-01,8.718689600000000000e+09
1.700000000000000000e+02,3.620000000000000000e+02,3.800000000000000000e+02,5.700000000000000000e+01,3.800000000000000000e+01,3.200000000000000000e+02,4.370000000000000000e+02,5.480000000000000000e+02,4.299999999999999933e-01,8.740394900000000000e+09
1.740000000000000000e+02,3.950000000000000000e+02,3.930000000000000000e+02,5.500000000000000000e+01,3.900000000000000000e+01,3.320000000000000000e+02,4.040000000000000000e+02,5.550000000000000000e+02,4.400000000000000022e-01,8.760254800000000000e+09
1.830000000000000000e+02,3.940000000000000000e+02,3.990000000000000000e+02,5.300000000000000000e+01,3.900000000000000000e+01,3.440000000000000000e+02,3.950000000000000000e+02,5.370000000000000000e+02,4.500000000000000111e-01,8.779218400000000000e+09
1.770000000000000000e+02,3.860000000000000000e+02,4.060000000000000000e+02,5.300000000000000000e+01,3.800000000000000000e+01,3.520000000000000000e+02,4.070000000000000000e+02,5.800000000000000000e+02,4.600000000000000200e-01,8.798175800000000000e+09
1.620000000000000000e+02,3.560000000000000000e+02,3.860000000000000000e+02,5.700000000000000000e+01,3.900000000000000000e+01,3.290000000000000000e+02,3.710000000000000000e+02,6.400000000000000000e+02,4.799999999999999822e-01,8.839127400000000000e+09
1.480000000000000000e+02,3.590000000000000000e+02,3.580000000000000000e+02,6.700000000000000000e+01,4.100000000000000000e+01,2.860000000000000000e+02,3.760000000000000000e+02,5.700000000000000000e+02,4.799999999999999822e-01,8.839139200000000000e+09
1.610000000000000000e+02,3.760000000000000000e+02,3.570000000000000000e+02,7.100000000000000000e+01,4.100000000000000000e+01,2.550000000000000000e+02,3.870000000000000000e+02,5.870000000000000000e+02,4.899999999999999911e-01,8.858010200000000000e+09
1.610000000000000000e+02,4.280000000000000000e+02,3.530000000000000000e+02,7.000000000000000000e+01,4.200000000000000000e+01,3.200000000000000000e+02,3.880000000000000000e+02,7.450000000000000000e+02,5.000000000000000000e-01,8.879929600000000000e+09
1.440000000000000000e+02,4.190000000000000000e+02,3.500000000000000000e+02,6.900000000000000000e+01,4.100000000000000000e+01,3.100000000000000000e+02,3.510000000000000000e+02,6.970000000000000000e+02,5.200000000000000178e-01,8.918419300000000000e+09
1.410000000000000000e+02,3.930000000000000000e+02,3.070000000000000000e+02,6.200000000000000000e+01,4.000000000000000000e+01,3.080000000000000000e+02,3.750000000000000000e+02,6.410000000000000000e+02,5.200000000000000178e-01,8.918457600000000000e+09
1.410000000000000000e+02,3.750000000000000000e+02,2.190000000000000000e+02,3.800000000000000000e+01,3.500000000000000000e+01,2.810000000000000000e+02,3.590000000000000000e+02,6.380000000000000000e+02,5.300000000000000266e-01,8.940290500000000000e+09
1.390000000000000000e+02,3.400000000000000000e+02,1.780000000000000000e+02,2.700000000000000000e+01,3.400000000000000000e+01,3.200000000000000000e+02,3.980000000000000000e+02,6.310000000000000000e+02,5.400000000000000355e-01,8.959443100000000000e+09
1.220000000000000000e+02,2.710000000000000000e+02,1.540000000000000000e+02,2.600000000000000000e+01,3.100000000000000000e+01,2.570000000000000000e+02,3.660000000000000000e+02,4.280000000000000000e+02,5.500000000000000444e-01,8.979202600000000000e+09
1.230000000000000000e+02,2.920000000000000000e+02,1.270000000000000000e+02,2.600000000000000000e+01,3.000000000000000000e+01,2.590000000000000000e+02,3.320000000000000000e+02,4.420000000000000000e+02,5.600000000000000533e-01,8.997772400000000000e+09
1.300000000000000000e+02,3.020000000000000000e+02,1.100000000000000000e+02,2.600000000000000000e+01,3.100000000000000000e+01,2.990000000000000000e+02,3.410000000000000000e+02,5.040000000000000000e+02,5.699999999999999512e-01,9.019754800000000000e+09
1.520000000000000000e+02,3.230000000000000000e+02,9.500000000000000000e+01,2.900000000000000000e+01,3.500000000000000000e+01,3.520000000000000000e+02,3.920000000000000000e+02,5.600000000000000000e+02,5.799999999999999600e-01,9.038746500000000000e+09
1.300000000000000000e+02,3.090000000000000000e+02,2.560000000000000000e+02,5.000000000000000000e+01,3.600000000000000000e+01,3.390000000000000000e+02,3.960000000000000000e+02,5.250000000000000000e+02,5.899999999999999689e-01,9.060178800000000000e+09
1.470000000000000000e+02,3.160000000000000000e+02,2.730000000000000000e+02,5.300000000000000000e+01,3.800000000000000000e+01,3.450000000000000000e+02,4.130000000000000000e+02,5.170000000000000000e+02,5.999999999999999778e-01,9.079414100000000000e+09
1.590000000000000000e+02,3.110000000000000000e+02,2.870000000000000000e+02,5.800000000000000000e+01,4.000000000000000000e+01,3.430000000000000000e+02,4.500000000000000000e+02,5.240000000000000000e+02,6.099999999999999867e-01,9.099090200000000000e+09
1.530000000000000000e+02,3.220000000000000000e+02,3.010000000000000000e+02,6.200000000000000000e+01,4.600000000000000000e+01,3.310000000000000000e+02,4.500000000000000000e+02,4.810000000000000000e+02,6.199999999999999956e-01,9.118546900000000000e+09
1.360000000000000000e+02,3.450000000000000000e+02,3.070000000000000000e+02,6.300000000000000000e+01,4.700000000000000000e+01,3.270000000000000000e+02,4.180000000000000000e+02,4.610000000000000000e+02,6.300000000000000044e-01,9.138076600000000000e+09
1.460000000000000000e+02,3.900000000000000000e+02,2.010000000000000000e+02,4.800000000000000000e+01,4.700000000000000000e+01,3.250000000000000000e+02,3.780000000000000000e+02,5.020000000000000000e+02,6.400000000000000133e-01,9.159920000000000000e+09
1.510000000000000000e+02,3.870000000000000000e+02,2.350000000000000000e+02,4.700000000000000000e+01,4.900000000000000000e+01,3.320000000000000000e+02,3.640000000000000000e+02,5.790000000000000000e+02,6.500000000000000222e-01,9.180347300000000000e+09
1.610000000000000000e+02,4.000000000000000000e+02,2.250000000000000000e+02,4.100000000000000000e+01,4.800000000000000000e+01,3.390000000000000000e+02,4.150000000000000000e+02,5.700000000000000000e+02,6.600000000000000311e-01,9.198117300000000000e+09
1.820000000000000000e+02,3.900000000000000000e+02,2.030000000000000000e+02,3.400000000000000000e+01,4.000000000000000000e+01,3.770000000000000000e+02,3.910000000000000000e+02,5.650000000000000000e+02,6.700000000000000400e-01,9.219957700000000000e+09
1.810000000000000000e+02,3.980000000000000000e+02,2.230000000000000000e+02,3.000000000000000000e+01,3.800000000000000000e+01,3.620000000000000000e+02,3.970000000000000000e+02,6.070000000000000000e+02,6.800000000000000488e-01,9.238998500000000000e+09
1.730000000000000000e+02,3.490000000000000000e+02,2.280000000000000000e+02,3.100000000000000000e+01,3.700000000000000000e+01,3.830000000000000000e+02,4.240000000000000000e+02,5.830000000000000000e+02,6.899999999999999467e-01,9.258433000000000000e+09
1.610000000000000000e+02,3.430000000000000000e+02,2.100000000000000000e+02,2.800000000000000000e+01,3.500000000000000000e+01,4.500000000000000000e+02,4.820000000000000000e+02,5.240000000000000000e+02,6.999999999999999556e-01,9.279746000000000000e+09
1.420000000000000000e+02,3.110000000000000000e+02,2.190000000000000000e+02,3.300000000000000000e+01,4.200000000000000000e+01,4.810000000000000000e+02,3.920000000000000000e+02,5.270000000000000000e+02,7.199999999999999734e-01,9.317912100000000000e+09
1.130000000000000000e+02,2.960000000000000000e+02,2.210000000000000000e+02,3.200000000000000000e+01,4.700000000000000000e+01,5.130000000000000000e+02,4.110000000000000000e+02,6.020000000000000000e+02,7.299999999999999822e-01,9.339631100000000000e+09
1.360000000000000000e+02,2.750000000000000000e+02,2.110000000000000000e+02,3.500000000000000000e+01,6.000000000000000000e+01,6.160000000000000000e+02,4.290000000000000000e+02,6.350000000000000000e+02,7.399999999999999911e-01,9.358990900000000000e+09
1.680000000000000000e+02,3.190000000000000000e+02,2.730000000000000000e+02,3.700000000000000000e+01,6.300000000000000000e+01,6.090000000000000000e+02,4.570000000000000000e+02,6.840000000000000000e+02,7.399999999999999911e-01,9.359002100000000000e+09
1.760000000000000000e+02,3.130000000000000000e+02,2.470000000000000000e+02,3.700000000000000000e+01,6.400000000000000000e+01,6.330000000000000000e+02,4.070000000000000000e+02,7.460000000000000000e+02,7.500000000000000000e-01,9.378089700000000000e+09
1.800000000000000000e+02,3.020000000000000000e+02,2.660000000000000000e+02,3.700000000000000000e+01,6.200000000000000000e+01,6.150000000000000000e+02,4.430000000000000000e+02,8.020000000000000000e+02,7.700000000000000178e-01,9.418664700000000000e+09
1.940000000000000000e+02,3.240000000000000000e+02,2.690000000000000000e+02,4.100000000000000000e+01,6.300000000000000000e+01,5.820000000000000000e+02,4.470000000000000000e+02,7.680000000000000000e+02,7.700000000000000178e-01,9.418702000000000000e+09
1.830000000000000000e+02,3.260000000000000000e+02,2.580000000000000000e+02,3.700000000000000000e+01,4.800000000000000000e+01,4.620000000000000000e+02,4.250000000000000000e+02,7.090000000000000000e+02,7.800000000000000266e-01,9.437802400000000000e+09
1.530000000000000000e+02,2.860000000000000000e+02,2.160000000000000000e+02,4.200000000000000000e+01,4.600000000000000000e+01,4.790000000000000000e+02,4.050000000000000000e+02,6.500000000000000000e+02,7.900000000000000355e-01,9.457950600000000000e+09
1.550000000000000000e+02,4.300000000000000000e+02,2.460000000000000000e+02,4.700000000000000000e+01,5.000000000000000000e+01,4.620000000000000000e+02,4.400000000000000000e+02,6.060000000000000000e+02,8.000000000000000444e-01,9.478943300000000000e+09
1.840000000000000000e+02,4.370000000000000000e+02,2.180000000000000000e+02,4.500000000000000000e+01,5.300000000000000000e+01,5.070000000000000000e+02,4.870000000000000000e+02,6.120000000000000000e+02,8.199999999999999512e-01,9.517875500000000000e+09
1.800000000000000000e+02,4.430000000000000000e+02,2.120000000000000000e+02,4.700000000000000000e+01,6.400000000000000000e+01,5.980000000000000000e+02,5.870000000000000000e+02,6.880000000000000000e+02,8.199999999999999512e-01,9.517887800000000000e+09
1.860000000000000000e+02,4.390000000000000000e+02,2.130000000000000000e+02,5.000000000000000000e+01,6.800000000000000000e+01,7.040000000000000000e+02,6.530000000000000000e+02,6.960000000000000000e+02,8.299999999999999600e-01,9.540088900000000000e+09
1.940000000000000000e+02,4.610000000000000000e+02,1.960000000000000000e+02,4.700000000000000000e+01,7.400000000000000000e+01,7.640000000000000000e+02,6.620000000000000000e+02,8.000000000000000000e+02,8.399999999999999689e-01,9.559189500000000000e+09
1.980000000000000000e+02,3.630000000000000000e+02,2.010000000000000000e+02,4.800000000000000000e+01,7.800000000000000000e+01,7.500000000000000000e+02,6.910000000000000000e+02,7.940000000000000000e+02,8.499999999999999778e-01,9.578569200000000000e+09
2.000000000000000000e+02,3.480000000000000000e+02,1.920000000000000000e+02,4.800000000000000000e+01,8.100000000000000000e+01,8.070000000000000000e+02,7.480000000000000000e+02,8.220000000000000000e+02,8.599999999999999867e-01,9.599971600000000000e+09
2.220000000000000000e+02,4.400000000000000000e+02,2.080000000000000000e+02,5.300000000000000000e+01,7.700000000000000000e+01,9.340000000000000000e+02,6.990000000000000000e+02,7.820000000000000000e+02,8.699999999999999956e-01,9.619394200000000000e+09
