72.00 ,293.00 ,610.00 ,125.00 ,46.00 ,98.00 ,62.00 ,220.00 ,0.21 ,464388600.00 
77.00 ,305.00 ,676.00 ,129.00 ,48.00 ,94.00 ,61.00 ,226.00 ,0.22 ,483501900.00 
108.00 ,348.00 ,815.00 ,180.00 ,66.00 ,86.00 ,67.00 ,228.00 ,0.23 ,501894800.00 
108.00 ,323.00 ,887.00 ,193.00 ,67.00 ,72.00 ,67.00 ,179.00 ,0.24 ,526042100.00 
104.00 ,293.00 ,944.00 ,194.00 ,67.00 ,64.00 ,52.00 ,154.00 ,0.25 ,541660400.00 
111.00 ,396.00 ,1051.00 ,236.00 ,79.00 ,61.00 ,53.00 ,155.00 ,0.26 ,565932700.00 
120.00 ,428.00 ,1130.00 ,265.00 ,86.00 ,119.00 ,81.00 ,233.00 ,0.27 ,580417500.00 
134.00 ,514.00 ,1120.00 ,265.00 ,87.00 ,120.00 ,91.00 ,242.00 ,0.28 ,598488700.00 
143.00 ,640.00 ,1154.00 ,268.00 ,97.00 ,123.00 ,92.00 ,219.00 ,0.29 ,622530300.00 
163.00 ,668.00 ,1137.00 ,269.00 ,100.00 ,129.00 ,94.00 ,223.00 ,0.30 ,645886400.00 
174.00 ,677.00 ,1165.00 ,270.00 ,100.00 ,131.00 ,97.00 ,215.00 ,0.31 ,661684500.00 
184.00 ,686.00 ,1185.00 ,290.00 ,110.00 ,140.00 ,87.00 ,159.00 ,0.32 ,678652400.00 
219.00 ,702.00 ,1207.00 ,353.00 ,139.00 ,176.00 ,85.00 ,156.00 ,0.33 ,699723100.00 
244.00 ,673.00 ,1166.00 ,391.00 ,145.00 ,180.00 ,91.00 ,165.00 ,0.34 ,719679800.00 
244.00 ,700.00 ,1190.00 ,420.00 ,159.00 ,207.00 ,99.00 ,166.00 ,0.35 ,739748900.00 
270.00 ,717.00 ,1092.00 ,434.00 ,166.00 ,205.00 ,107.00 ,172.00 ,0.36 ,761517300.00 
278.00 ,747.00 ,1103.00 ,432.00 ,170.00 ,173.00 ,102.00 ,137.00 ,0.37 ,779279100.00 
258.00 ,751.00 ,1162.00 ,384.00 ,158.00 ,146.00 ,99.00 ,127.00 ,0.38 ,800063300.00 
236.00 ,733.00 ,1254.00 ,348.00 ,150.00 ,137.00 ,97.00 ,110.00 ,0.39 ,818603600.00 
241.00 ,761.00 ,1280.00 ,343.00 ,152.00 ,170.00 ,104.00 ,139.00 ,0.40 ,838966100.00 
217.00 ,740.00 ,1357.00 ,318.00 ,151.00 ,315.00 ,160.00 ,404.00 ,0.41 ,859743500.00 
235.00 ,754.00 ,1324.00 ,404.00 ,172.00 ,430.00 ,233.00 ,497.00 ,0.42 ,880665300.00 
221.00 ,724.00 ,1264.00 ,414.00 ,171.00 ,580.00 ,397.00 ,601.00 ,0.43 ,899321700.00 
237.00 ,672.00 ,1102.00 ,406.00 ,181.00 ,772.00 ,655.00 ,718.00 ,0.44 ,919290600.00 
232.00 ,584.00 ,967.00 ,379.00 ,195.00 ,1023.00 ,857.00 ,810.00 ,0.45 ,941519300.00 
218.00 ,555.00 ,805.00 ,362.00 ,202.00 ,1073.00 ,1098.00 ,908.00 ,0.46 ,960257400.00 
215.00 ,479.00 ,752.00 ,250.00 ,200.00 ,1118.00 ,1195.00 ,983.00 ,0.47 ,981080000.00 
274.00 ,535.00 ,592.00 ,222.00 ,234.00 ,1244.00 ,1382.00 ,1035.00 ,0.48 ,1001046000.00 
284.00 ,536.00 ,565.00 ,224.00 ,244.00 ,1293.00 ,1356.00 ,1045.00 ,0.49 ,1020943800.00 
283.00 ,527.00 ,540.00 ,215.00 ,241.00 ,1161.00 ,1364.00 ,1123.00 ,0.50 ,1042664600.00 
335.00 ,603.00 ,587.00 ,215.00 ,240.00 ,1187.00 ,1217.00 ,1020.00 ,0.51 ,1059221200.00 
339.00 ,710.00 ,547.00 ,197.00 ,225.00 ,1183.00 ,1155.00 ,992.00 ,0.52 ,1079778800.00 
308.00 ,640.00 ,670.00 ,176.00 ,181.00 ,1074.00 ,975.00 ,948.00 ,0.53 ,1101139300.00 
344.00 ,641.00 ,666.00 ,158.00 ,158.00 ,1037.00 ,1014.00 ,1043.00 ,0.54 ,1118765000.00 
337.00 ,639.00 ,685.00 ,156.00 ,137.00 ,1091.00 ,922.00 ,974.00 ,0.55 ,1141290900.00 
287.00 ,642.00 ,737.00 ,155.00 ,126.00 ,1096.00 ,947.00 ,1032.00 ,0.56 ,1161341100.00 
264.00 ,520.00 ,732.00 ,135.00 ,116.00 ,1028.00 ,947.00 ,1010.00 ,0.57 ,1190900200.00 
246.00 ,474.00 ,647.00 ,118.00 ,109.00 ,934.00 ,924.00 ,970.00 ,0.58 ,1199414200.00 
170.00 ,527.00 ,666.00 ,132.00 ,119.00 ,887.00 ,860.00 ,816.00 ,0.59 ,1219729300.00 
184.00 ,527.00 ,658.00 ,135.00 ,115.00 ,875.00 ,961.00 ,790.00 ,0.60 ,1240137900.00 
188.00 ,420.00 ,553.00 ,121.00 ,103.00 ,750.00 ,914.00 ,732.00 ,0.61 ,1261445700.00 
191.00 ,409.00 ,483.00 ,103.00 ,103.00 ,779.00 ,892.00 ,688.00 ,0.62 ,1279741200.00 
205.00 ,463.00 ,489.00 ,106.00 ,111.00 ,858.00 ,879.00 ,693.00 ,0.63 ,1300671100.00 
198.00 ,381.00 ,473.00 ,93.00 ,100.00 ,765.00 ,941.00 ,690.00 ,0.64 ,1321077600.00 
186.00 ,382.00 ,476.00 ,85.00 ,93.00 ,704.00 ,871.00 ,684.00 ,0.66 ,1361864300.00 
192.00 ,394.00 ,507.00 ,86.00 ,98.00 ,699.00 ,928.00 ,697.00 ,0.66 ,1361878400.00 
180.00 ,391.00 ,528.00 ,104.00 ,110.00 ,740.00 ,1009.00 ,683.00 ,0.67 ,1379295900.00 
214.00 ,383.00 ,559.00 ,140.00 ,135.00 ,806.00 ,1047.00 ,788.00 ,0.68 ,1399994100.00 
234.00 ,426.00 ,538.00 ,139.00 ,135.00 ,951.00 ,1046.00 ,802.00 ,0.69 ,1420687700.00 
265.00 ,437.00 ,546.00 ,138.00 ,133.00 ,956.00 ,1075.00 ,821.00 ,0.70 ,1440488500.00 
267.00 ,406.00 ,518.00 ,140.00 ,141.00 ,1005.00 ,1066.00 ,850.00 ,0.71 ,1460356200.00 
273.00 ,398.00 ,475.00 ,125.00 ,138.00 ,1229.00 ,1059.00 ,933.00 ,0.72 ,1480531100.00 
244.00 ,379.00 ,476.00 ,97.00 ,116.00 ,1231.00 ,1050.00 ,901.00 ,0.73 ,1501530400.00 
261.00 ,376.00 ,497.00 ,124.00 ,128.00 ,1214.00 ,1006.00 ,921.00 ,0.74 ,1519463000.00 
263.00 ,385.00 ,502.00 ,132.00 ,139.00 ,1338.00 ,998.00 ,982.00 ,0.75 ,1540361200.00 
269.00 ,418.00 ,488.00 ,132.00 ,139.00 ,1404.00 ,995.00 ,938.00 ,0.76 ,1558403000.00 
262.00 ,429.00 ,495.00 ,132.00 ,135.00 ,1270.00 ,958.00 ,917.00 ,0.77 ,1579590700.00 
260.00 ,459.00 ,456.00 ,130.00 ,145.00 ,1273.00 ,1081.00 ,1009.00 ,0.78 ,1600701200.00 
230.00 ,473.00 ,514.00 ,129.00 ,136.00 ,1228.00 ,1066.00 ,1004.00 ,0.80 ,1640978600.00 
198.00 ,488.00 ,486.00 ,123.00 ,130.00 ,1142.00 ,1062.00 ,981.00 ,0.80 ,1640997100.00 
222.00 ,476.00 ,478.00 ,119.00 ,127.00 ,1136.00 ,1086.00 ,1029.00 ,0.81 ,1664049500.00 
243.00 ,483.00 ,469.00 ,122.00 ,133.00 ,1135.00 ,1115.00 ,1047.00 ,0.82 ,1682607500.00 
254.00 ,443.00 ,448.00 ,112.00 ,111.00 ,1101.00 ,948.00 ,979.00 ,0.83 ,1699063200.00 
252.00 ,408.00 ,363.00 ,79.00 ,115.00 ,1130.00 ,967.00 ,990.00 ,0.84 ,1719100400.00 
258.00 ,416.00 ,367.00 ,81.00 ,123.00 ,1214.00 ,872.00 ,990.00 ,0.85 ,1739772800.00 
251.00 ,486.00 ,433.00 ,82.00 ,125.00 ,1230.00 ,861.00 ,922.00 ,0.86 ,1760509700.00 
284.00 ,499.00 ,423.00 ,81.00 ,131.00 ,1225.00 ,867.00 ,959.00 ,0.87 ,1781524400.00 
316.00 ,545.00 ,383.00 ,79.00 ,152.00 ,1360.00 ,875.00 ,906.00 ,0.88 ,1801905300.00 
323.00 ,641.00 ,502.00 ,90.00 ,149.00 ,1370.00 ,859.00 ,910.00 ,0.89 ,1820023600.00 
347.00 ,620.00 ,499.00 ,90.00 ,144.00 ,1243.00 ,925.00 ,916.00 ,0.90 ,1840414600.00 
347.00 ,672.00 ,469.00 ,89.00 ,137.00 ,1151.00 ,938.00 ,969.00 ,0.91 ,1860016300.00 
321.00 ,683.00 ,455.00 ,83.00 ,123.00 ,1216.00 ,927.00 ,890.00 ,0.92 ,1879831600.00 
294.00 ,739.00 ,463.00 ,82.00 ,109.00 ,1054.00 ,1002.00 ,909.00 ,0.93 ,1899248500.00 
295.00 ,688.00 ,358.00 ,72.00 ,110.00 ,1075.00 ,1012.00 ,864.00 ,0.94 ,1918393100.00 
289.00 ,741.00 ,346.00 ,74.00 ,105.00 ,1079.00 ,1005.00 ,818.00 ,0.95 ,1939104700.00 
332.00 ,708.00 ,312.00 ,83.00 ,141.00 ,1195.00 ,995.00 ,850.00 ,0.96 ,1964639100.00 
344.00 ,785.00 ,426.00 ,99.00 ,177.00 ,1214.00 ,1004.00 ,853.00 ,0.97 ,1981332300.00 
375.00 ,753.00 ,412.00 ,113.00 ,219.00 ,1257.00 ,973.00 ,957.00 ,0.98 ,2001486900.00 
423.00 ,848.00 ,370.00 ,133.00 ,277.00 ,1304.00 ,996.00 ,1049.00 ,0.99 ,2021743600.00 
449.00 ,898.00 ,375.00 ,144.00 ,316.00 ,1460.00 ,991.00 ,1061.00 ,0.98 ,2039010600.00 
460.00 ,932.00 ,404.00 ,146.00 ,304.00 ,1439.00 ,1025.00 ,1065.00 ,0.97 ,2059987900.00 
464.00 ,937.00 ,363.00 ,150.00 ,304.00 ,1400.00 ,1055.00 ,1127.00 ,0.96 ,2079921300.00 
484.00 ,929.00 ,404.00 ,158.00 ,317.00 ,1427.00 ,1056.00 ,1022.00 ,0.94 ,2118365600.00 
482.00 ,850.00 ,422.00 ,153.00 ,294.00 ,1444.00 ,1125.00 ,961.00 ,0.94 ,2118377900.00 
540.00 ,939.00 ,447.00 ,154.00 ,281.00 ,1429.00 ,1104.00 ,1118.00 ,0.93 ,2141214700.00 
566.00 ,961.00 ,500.00 ,159.00 ,283.00 ,1425.00 ,1092.00 ,1124.00 ,0.92 ,2160844700.00 
637.00 ,920.00 ,552.00 ,188.00 ,309.00 ,1471.00 ,1049.00 ,1113.00 ,0.90 ,2198809200.00 
674.00 ,1020.00 ,587.00 ,204.00 ,284.00 ,1563.00 ,1017.00 ,1129.00 ,0.90 ,2198855400.00 
667.00 ,1030.00 ,566.00 ,223.00 ,308.00 ,1512.00 ,895.00 ,1176.00 ,0.89 ,2219530400.00 
644.00 ,881.00 ,563.00 ,217.00 ,293.00 ,1408.00 ,945.00 ,1033.00 ,0.87 ,2261135400.00 
621.00 ,827.00 ,528.00 ,212.00 ,300.00 ,1408.00 ,910.00 ,995.00 ,0.87 ,2261149300.00 
550.00 ,871.00 ,449.00 ,180.00 ,251.00 ,1273.00 ,896.00 ,930.00 ,0.85 ,2299864400.00 
459.00 ,731.00 ,374.00 ,144.00 ,226.00 ,1036.00 ,827.00 ,871.00 ,0.85 ,2299876300.00 
421.00 ,676.00 ,461.00 ,129.00 ,144.00 ,898.00 ,761.00 ,717.00 ,0.84 ,2319587600.00 
339.00 ,640.00 ,512.00 ,133.00 ,125.00 ,822.00 ,626.00 ,568.00 ,0.82 ,2359125000.00 
247.00 ,533.00 ,653.00 ,141.00 ,108.00 ,736.00 ,501.00 ,401.00 ,0.82 ,2359138300.00 
206.00 ,331.00 ,722.00 ,149.00 ,113.00 ,735.00 ,349.00 ,235.00 ,0.81 ,2378778300.00 
258.00 ,252.00 ,787.00 ,170.00 ,113.00 ,698.00 ,332.00 ,178.00 ,0.80 ,2399563600.00 
254.00 ,267.00 ,811.00 ,164.00 ,116.00 ,716.00 ,277.00 ,138.00 ,0.79 ,2422066300.00 
243.00 ,305.00 ,946.00 ,207.00 ,120.00 ,797.00 ,236.00 ,108.00 ,0.78 ,2440501700.00 
253.00 ,338.00 ,942.00 ,231.00 ,117.00 ,796.00 ,226.00 ,107.00 ,0.77 ,2461364700.00 
277.00 ,350.00 ,960.00 ,230.00 ,110.00 ,747.00 ,176.00 ,91.00 ,0.76 ,2479527100.00 
249.00 ,444.00 ,961.00 ,222.00 ,110.00 ,735.00 ,162.00 ,81.00 ,0.75 ,2500080900.00 
252.00 ,444.00 ,934.00 ,222.00 ,109.00 ,829.00 ,199.00 ,85.00 ,0.73 ,2540862000.00 
259.00 ,416.00 ,840.00 ,179.00 ,98.00 ,814.00 ,207.00 ,162.00 ,0.73 ,2540874900.00 
257.00 ,413.00 ,788.00 ,142.00 ,79.00 ,734.00 ,179.00 ,153.00 ,0.72 ,2560803900.00 
227.00 ,415.00 ,746.00 ,133.00 ,78.00 ,743.00 ,181.00 ,158.00 ,0.70 ,2598602600.00 
176.00 ,319.00 ,733.00 ,118.00 ,88.00 ,896.00 ,190.00 ,171.00 ,0.70 ,2598636100.00 
208.00 ,313.00 ,772.00 ,94.00 ,83.00 ,832.00 ,187.00 ,340.00 ,0.69 ,2619632200.00 
213.00 ,370.00 ,719.00 ,91.00 ,74.00 ,759.00 ,207.00 ,375.00 ,0.68 ,2640309700.00 
233.00 ,403.00 ,671.00 ,117.00 ,80.00 ,744.00 ,208.00 ,397.00 ,0.67 ,2661257100.00 
227.00 ,479.00 ,677.00 ,121.00 ,82.00 ,777.00 ,219.00 ,404.00 ,0.66 ,2678721400.00 
230.00 ,469.00 ,679.00 ,123.00 ,70.00 ,657.00 ,239.00 ,449.00 ,0.65 ,2699143300.00 
226.00 ,516.00 ,686.00 ,126.00 ,67.00 ,620.00 ,274.00 ,413.00 ,0.64 ,2725047700.00 
243.00 ,505.00 ,695.00 ,129.00 ,69.00 ,571.00 ,252.00 ,369.00 ,0.62 ,2761272500.00 
228.00 ,506.00 ,721.00 ,97.00 ,65.00 ,559.00 ,261.00 ,357.00 ,0.62 ,2761287000.00 
230.00 ,426.00 ,712.00 ,94.00 ,71.00 ,594.00 ,268.00 ,382.00 ,0.61 ,2780939400.00 
233.00 ,421.00 ,886.00 ,94.00 ,71.00 ,555.00 ,281.00 ,361.00 ,0.59 ,2820392800.00 
206.00 ,365.00 ,816.00 ,92.00 ,73.00 ,502.00 ,216.00 ,280.00 ,0.59 ,2820439000.00 
226.00 ,384.00 ,934.00 ,108.00 ,76.00 ,491.00 ,214.00 ,263.00 ,0.58 ,2841018300.00 
231.00 ,346.00 ,1035.00 ,124.00 ,87.00 ,525.00 ,205.00 ,248.00 ,0.56 ,2881003000.00 
227.00 ,347.00 ,1027.00 ,135.00 ,88.00 ,525.00 ,192.00 ,201.00 ,0.56 ,2881048800.00 
225.00 ,374.00 ,865.00 ,138.00 ,85.00 ,504.00 ,149.00 ,147.00 ,0.55 ,2899063300.00 
229.00 ,381.00 ,942.00 ,145.00 ,84.00 ,521.00 ,150.00 ,135.00 ,0.53 ,2940801600.00 
165.00 ,359.00 ,841.00 ,139.00 ,84.00 ,630.00 ,155.00 ,132.00 ,0.53 ,2940836400.00 
151.00 ,349.00 ,771.00 ,139.00 ,80.00 ,632.00 ,210.00 ,135.00 ,0.52 ,2960826200.00 
152.00 ,457.00 ,915.00 ,138.00 ,67.00 ,530.00 ,196.00 ,119.00 ,0.50 ,3000420600.00 
170.00 ,461.00 ,921.00 ,143.00 ,72.00 ,573.00 ,201.00 ,80.00 ,0.50 ,3000434500.00 
167.00 ,467.00 ,948.00 ,146.00 ,70.00 ,562.00 ,200.00 ,74.00 ,0.49 ,3020246400.00 
173.00 ,579.00 ,1059.00 ,149.00 ,70.00 ,470.00 ,215.00 ,74.00 ,0.47 ,3062005800.00 
170.00 ,618.00 ,1123.00 ,136.00 ,61.00 ,431.00 ,163.00 ,72.00 ,0.47 ,3062019600.00 
178.00 ,579.00 ,1050.00 ,148.00 ,64.00 ,400.00 ,164.00 ,73.00 ,0.46 ,3078993800.00 
157.00 ,584.00 ,1103.00 ,164.00 ,68.00 ,390.00 ,165.00 ,66.00 ,0.44 ,3120039700.00 
133.00 ,567.00 ,1067.00 ,161.00 ,75.00 ,397.00 ,168.00 ,72.00 ,0.43 ,3140883700.00 
146.00 ,493.00 ,956.00 ,190.00 ,77.00 ,350.00 ,140.00 ,71.00 ,0.42 ,3158673700.00 
183.00 ,575.00 ,928.00 ,256.00 ,95.00 ,361.00 ,142.00 ,84.00 ,0.41 ,3179872600.00 
185.00 ,577.00 ,899.00 ,257.00 ,102.00 ,438.00 ,168.00 ,88.00 ,0.41 ,3179884500.00 
187.00 ,600.00 ,876.00 ,263.00 ,104.00 ,376.00 ,151.00 ,89.00 ,0.40 ,3199401100.00 
201.00 ,637.00 ,933.00 ,268.00 ,107.00 ,359.00 ,153.00 ,89.00 ,0.38 ,3238505700.00 
196.00 ,619.00 ,917.00 ,272.00 ,117.00 ,358.00 ,149.00 ,93.00 ,0.38 ,3238519300.00 
158.00 ,534.00 ,1076.00 ,231.00 ,114.00 ,426.00 ,139.00 ,78.00 ,0.37 ,3261601800.00 
152.00 ,530.00 ,1244.00 ,235.00 ,111.00 ,408.00 ,93.00 ,75.00 ,0.35 ,3299620500.00 
148.00 ,577.00 ,1281.00 ,238.00 ,109.00 ,397.00 ,80.00 ,73.00 ,0.35 ,3299668800.00 
141.00 ,613.00 ,1382.00 ,250.00 ,114.00 ,394.00 ,64.00 ,70.00 ,0.34 ,3320032700.00 
139.00 ,622.00 ,1441.00 ,295.00 ,113.00 ,392.00 ,60.00 ,65.00 ,0.32 ,3360041400.00 
140.00 ,607.00 ,1289.00 ,297.00 ,110.00 ,281.00 ,54.00 ,58.00 ,0.32 ,3360055700.00 
140.00 ,659.00 ,1154.00 ,313.00 ,118.00 ,182.00 ,70.00 ,60.00 ,0.31 ,3380377300.00 
153.00 ,623.00 ,1218.00 ,305.00 ,121.00 ,170.00 ,74.00 ,73.00 ,0.29 ,3419956500.00 
187.00 ,670.00 ,1076.00 ,364.00 ,138.00 ,171.00 ,81.00 ,94.00 ,0.29 ,3419994000.00 
177.00 ,683.00 ,1024.00 ,330.00 ,134.00 ,211.00 ,87.00 ,93.00 ,0.28 ,3439704200.00 
196.00 ,738.00 ,1098.00 ,381.00 ,141.00 ,205.00 ,87.00 ,98.00 ,0.26 ,3484609400.00 
215.00 ,809.00 ,1197.00 ,414.00 ,140.00 ,185.00 ,74.00 ,102.00 ,0.26 ,3484625300.00 
229.00 ,859.00 ,1117.00 ,436.00 ,149.00 ,188.00 ,83.00 ,106.00 ,0.24 ,3519333300.00 
238.00 ,783.00 ,1180.00 ,400.00 ,135.00 ,190.00 ,81.00 ,102.00 ,0.23 ,3540526100.00 
258.00 ,807.00 ,1229.00 ,408.00 ,134.00 ,145.00 ,80.00 ,104.00 ,0.23 ,3540538600.00 
285.00 ,788.00 ,1202.00 ,443.00 ,172.00 ,154.00 ,85.00 ,112.00 ,0.22 ,3561289400.00 
283.00 ,775.00 ,1078.00 ,437.00 ,180.00 ,177.00 ,90.00 ,114.00 ,0.20 ,3598702400.00 
300.00 ,787.00 ,1135.00 ,460.00 ,191.00 ,180.00 ,87.00 ,121.00 ,0.20 ,3598714600.00 
283.00 ,821.00 ,1067.00 ,476.00 ,194.00 ,181.00 ,84.00 ,118.00 ,0.19 ,3618924600.00 
273.00 ,862.00 ,994.00 ,523.00 ,213.00 ,205.00 ,105.00 ,119.00 ,0.17 ,3659917000.00 
403.00 ,1007.00 ,1022.00 ,642.00 ,258.00 ,237.00 ,127.00 ,172.00 ,0.16 ,3680110200.00 
425.00 ,1042.00 ,1116.00 ,692.00 ,265.00 ,226.00 ,136.00 ,184.00 ,0.16 ,3680122200.00 
440.00 ,1053.00 ,1057.00 ,706.00 ,259.00 ,231.00 ,137.00 ,196.00 ,0.14 ,3720219000.00 
443.00 ,1080.00 ,1156.00 ,728.00 ,257.00 ,235.00 ,154.00 ,196.00 ,0.13 ,3741115200.00 
465.00 ,1109.00 ,1229.00 ,711.00 ,257.00 ,237.00 ,151.00 ,203.00 ,0.13 ,3741128000.00 
353.00 ,997.00 ,1236.00 ,590.00 ,205.00 ,225.00 ,141.00 ,167.00 ,0.11 ,3779354300.00 
333.00 ,1035.00 ,1195.00 ,548.00 ,206.00 ,236.00 ,139.00 ,163.00 ,0.10 ,3798305200.00 
320.00 ,1052.00 ,1230.00 ,555.00 ,218.00 ,285.00 ,153.00 ,158.00 ,0.10 ,3798343800.00 
349.00 ,1049.00 ,1186.00 ,542.00 ,233.00 ,311.00 ,142.00 ,172.00 ,0.08 ,3838155000.00 
347.00 ,1021.00 ,1208.00 ,545.00 ,235.00 ,301.00 ,156.00 ,174.00 ,0.07 ,3860713200.00 
331.00 ,979.00 ,1143.00 ,508.00 ,213.00 ,283.00 ,151.00 ,183.00 ,0.07 ,3860727500.00 
380.00 ,930.00 ,1162.00 ,521.00 ,224.00 ,328.00 ,158.00 ,195.00 ,0.05 ,3900058300.00 
368.00 ,910.00 ,1100.00 ,532.00 ,226.00 ,333.00 ,147.00 ,204.00 ,0.04 ,3919716100.00 
344.00 ,924.00 ,1121.00 ,516.00 ,217.00 ,306.00 ,149.00 ,214.00 ,0.04 ,3919734000.00 
317.00 ,844.00 ,1040.00 ,497.00 ,198.00 ,326.00 ,141.00 ,220.00 ,0.02 ,3960192700.00 
316.00 ,862.00 ,1089.00 ,489.00 ,195.00 ,374.00 ,139.00 ,240.00 ,0.01 ,3980795400.00 
232.00 ,732.00 ,1008.00 ,427.00 ,165.00 ,348.00 ,130.00 ,223.00 ,0.01 ,3980837100.00 
206.00 ,620.00 ,983.00 ,329.00 ,131.00 ,444.00 ,145.00 ,296.00 ,0.01 ,4018220100.00 
196.00 ,526.00 ,898.00 ,317.00 ,129.00 ,470.00 ,159.00 ,419.00 ,0.02 ,4038675400.00 
193.00 ,512.00 ,894.00 ,274.00 ,124.00 ,479.00 ,237.00 ,491.00 ,0.02 ,4038689400.00 
219.00 ,545.00 ,769.00 ,278.00 ,126.00 ,567.00 ,373.00 ,614.00 ,0.04 ,4081420200.00 
216.00 ,568.00 ,778.00 ,272.00 ,117.00 ,606.00 ,391.00 ,718.00 ,0.05 ,4099462400.00 
226.00 ,566.00 ,757.00 ,249.00 ,116.00 ,660.00 ,476.00 ,827.00 ,0.05 ,4099474300.00 
211.00 ,519.00 ,686.00 ,183.00 ,103.00 ,817.00 ,574.00 ,855.00 ,0.07 ,4138595800.00 
223.00 ,524.00 ,703.00 ,182.00 ,109.00 ,934.00 ,639.00 ,867.00 ,0.08 ,4159865200.00 
194.00 ,477.00 ,831.00 ,158.00 ,103.00 ,909.00 ,595.00 ,788.00 ,0.09 ,4180756400.00 
240.00 ,457.00 ,826.00 ,133.00 ,97.00 ,932.00 ,641.00 ,718.00 ,0.10 ,4198329800.00 
235.00 ,457.00 ,840.00 ,140.00 ,105.00 ,878.00 ,733.00 ,687.00 ,0.11 ,4218770500.00 
245.00 ,493.00 ,859.00 ,149.00 ,94.00 ,857.00 ,751.00 ,785.00 ,0.11 ,4218784300.00 
242.00 ,523.00 ,875.00 ,149.00 ,88.00 ,793.00 ,783.00 ,854.00 ,0.12 ,4241402100.00 
240.00 ,537.00 ,740.00 ,133.00 ,91.00 ,795.00 ,802.00 ,991.00 ,0.14 ,4278161200.00 
196.00 ,590.00 ,759.00 ,162.00 ,115.00 ,920.00 ,809.00 ,1018.00 ,0.15 ,4300937000.00 
190.00 ,582.00 ,698.00 ,172.00 ,124.00 ,975.00 ,810.00 ,1036.00 ,0.16 ,4320464900.00 
185.00 ,569.00 ,644.00 ,164.00 ,129.00 ,948.00 ,793.00 ,959.00 ,0.17 ,4340916000.00 
188.00 ,532.00 ,594.00 ,156.00 ,129.00 ,954.00 ,742.00 ,1006.00 ,0.17 ,4340928400.00 
201.00 ,483.00 ,644.00 ,151.00 ,126.00 ,933.00 ,773.00 ,889.00 ,0.19 ,4381258900.00 
216.00 ,418.00 ,593.00 ,136.00 ,106.00 ,768.00 ,775.00 ,903.00 ,0.20 ,4405538200.00 
214.00 ,397.00 ,595.00 ,110.00 ,85.00 ,738.00 ,722.00 ,900.00 ,0.20 ,4405551700.00 
206.00 ,392.00 ,642.00 ,118.00 ,70.00 ,635.00 ,664.00 ,883.00 ,0.22 ,4440483000.00 
183.00 ,352.00 ,746.00 ,124.00 ,67.00 ,547.00 ,612.00 ,726.00 ,0.23 ,4458786900.00 
199.00 ,369.00 ,730.00 ,127.00 ,66.00 ,560.00 ,651.00 ,736.00 ,0.23 ,4458798800.00 
192.00 ,291.00 ,698.00 ,103.00 ,68.00 ,607.00 ,702.00 ,692.00 ,0.24 ,4481648900.00 
193.00 ,308.00 ,687.00 ,105.00 ,68.00 ,597.00 ,733.00 ,561.00 ,0.26 ,4518296200.00 
204.00 ,440.00 ,680.00 ,120.00 ,72.00 ,619.00 ,729.00 ,518.00 ,0.26 ,4518489200.00 
222.00 ,552.00 ,555.00 ,141.00 ,67.00 ,606.00 ,754.00 ,576.00 ,0.27 ,4546212600.00 
200.00 ,559.00 ,583.00 ,143.00 ,72.00 ,608.00 ,677.00 ,626.00 ,0.29 ,4579268700.00 
189.00 ,557.00 ,585.00 ,137.00 ,72.00 ,698.00 ,632.00 ,679.00 ,0.29 ,4579284800.00 
185.00 ,569.00 ,585.00 ,136.00 ,70.00 ,635.00 ,524.00 ,696.00 ,0.31 ,4620502000.00 
176.00 ,556.00 ,665.00 ,127.00 ,71.00 ,616.00 ,613.00 ,691.00 ,0.32 ,4638258700.00 
198.00 ,476.00 ,634.00 ,129.00 ,88.00 ,642.00 ,608.00 ,671.00 ,0.33 ,4659171500.00 
198.00 ,465.00 ,559.00 ,123.00 ,88.00 ,631.00 ,731.00 ,655.00 ,0.34 ,4679862600.00 
213.00 ,465.00 ,570.00 ,125.00 ,84.00 ,466.00 ,710.00 ,612.00 ,0.35 ,4698702600.00 
237.00 ,494.00 ,587.00 ,126.00 ,83.00 ,462.00 ,776.00 ,586.00 ,0.36 ,4718551700.00 
367.00 ,456.00 ,589.00 ,180.00 ,91.00 ,461.00 ,741.00 ,592.00 ,0.37 ,4741022700.00 
371.00 ,448.00 ,612.00 ,186.00 ,85.00 ,458.00 ,754.00 ,610.00 ,0.38 ,4760487800.00 
374.00 ,422.00 ,596.00 ,189.00 ,89.00 ,501.00 ,718.00 ,645.00 ,0.39 ,4780488600.00 
382.00 ,422.00 ,581.00 ,189.00 ,92.00 ,541.00 ,728.00 ,649.00 ,0.40 ,4800041700.00 
393.00 ,370.00 ,568.00 ,189.00 ,101.00 ,626.00 ,725.00 ,720.00 ,0.41 ,4820754600.00 
303.00 ,295.00 ,456.00 ,127.00 ,90.00 ,647.00 ,718.00 ,739.00 ,0.42 ,4839182700.00 
283.00 ,291.00 ,532.00 ,96.00 ,83.00 ,702.00 ,714.00 ,739.00 ,0.43 ,4860287500.00 
302.00 ,363.00 ,551.00 ,95.00 ,77.00 ,676.00 ,697.00 ,739.00 ,0.44 ,4881201900.00 
280.00 ,384.00 ,551.00 ,93.00 ,73.00 ,730.00 ,695.00 ,750.00 ,0.45 ,4898584200.00 
253.00 ,381.00 ,550.00 ,92.00 ,61.00 ,644.00 ,666.00 ,706.00 ,0.46 ,4918759900.00 
272.00 ,486.00 ,568.00 ,97.00 ,61.00 ,617.00 ,663.00 ,658.00 ,0.47 ,4938666000.00 
271.00 ,500.00 ,398.00 ,75.00 ,54.00 ,555.00 ,635.00 ,647.00 ,0.48 ,4958195300.00 
268.00 ,505.00 ,410.00 ,68.00 ,58.00 ,633.00 ,609.00 ,577.00 ,0.49 ,4981069500.00 
281.00 ,523.00 ,439.00 ,73.00 ,59.00 ,572.00 ,618.00 ,583.00 ,0.50 ,5001944300.00 
320.00 ,547.00 ,481.00 ,76.00 ,64.00 ,642.00 ,627.00 ,660.00 ,0.51 ,5018694600.00 
307.00 ,448.00 ,487.00 ,78.00 ,65.00 ,710.00 ,667.00 ,728.00 ,0.52 ,5039244900.00 
301.00 ,473.00 ,562.00 ,84.00 ,68.00 ,863.00 ,762.00 ,725.00 ,0.53 ,5060220700.00 
280.00 ,421.00 ,533.00 ,83.00 ,66.00 ,827.00 ,757.00 ,805.00 ,0.54 ,5080838000.00 
278.00 ,420.00 ,517.00 ,83.00 ,68.00 ,824.00 ,838.00 ,817.00 ,0.55 ,5098386300.00 
248.00 ,386.00 ,502.00 ,81.00 ,60.00 ,793.00 ,802.00 ,878.00 ,0.56 ,5118869900.00 
229.00 ,392.00 ,491.00 ,70.00 ,60.00 ,829.00 ,846.00 ,877.00 ,0.57 ,5139362400.00 
232.00 ,317.00 ,430.00 ,67.00 ,56.00 ,671.00 ,843.00 ,848.00 ,0.58 ,5160775800.00 
225.00 ,349.00 ,460.00 ,72.00 ,55.00 ,663.00 ,893.00 ,801.00 ,0.59 ,5180490100.00 
237.00 ,294.00 ,455.00 ,66.00 ,73.00 ,813.00 ,802.00 ,794.00 ,0.60 ,5200348000.00 
214.00 ,308.00 ,428.00 ,66.00 ,81.00 ,815.00 ,850.00 ,759.00 ,0.61 ,5220107100.00 
202.00 ,297.00 ,330.00 ,68.00 ,91.00 ,839.00 ,796.00 ,814.00 ,0.62 ,5239565400.00 
192.00 ,469.00 ,355.00 ,86.00 ,95.00 ,856.00 ,736.00 ,846.00 ,0.63 ,5261709700.00 
203.00 ,444.00 ,392.00 ,85.00 ,106.00 ,889.00 ,674.00 ,833.00 ,0.63 ,5261721800.00 
184.00 ,453.00 ,386.00 ,88.00 ,103.00 ,791.00 ,754.00 ,817.00 ,0.65 ,5304496700.00 
177.00 ,467.00 ,386.00 ,86.00 ,102.00 ,921.00 ,723.00 ,812.00 ,0.66 ,5318411500.00 
182.00 ,495.00 ,391.00 ,86.00 ,96.00 ,875.00 ,730.00 ,723.00 ,0.67 ,5339310700.00 
212.00 ,403.00 ,388.00 ,76.00 ,102.00 ,903.00 ,734.00 ,793.00 ,0.68 ,5359156400.00 
214.00 ,561.00 ,457.00 ,92.00 ,103.00 ,948.00 ,742.00 ,854.00 ,0.69 ,5378623200.00 
211.00 ,570.00 ,483.00 ,92.00 ,92.00 ,948.00 ,676.00 ,857.00 ,0.70 ,5398810000.00 
208.00 ,572.00 ,480.00 ,93.00 ,98.00 ,917.00 ,699.00 ,755.00 ,0.71 ,5418521000.00 
202.00 ,541.00 ,494.00 ,95.00 ,103.00 ,1042.00 ,698.00 ,777.00 ,0.72 ,5441062400.00 
250.00 ,604.00 ,440.00 ,84.00 ,99.00 ,1148.00 ,767.00 ,796.00 ,0.72 ,5441076500.00 
246.00 ,505.00 ,334.00 ,72.00 ,108.00 ,1204.00 ,808.00 ,767.00 ,0.74 ,5480191200.00 
256.00 ,499.00 ,335.00 ,85.00 ,108.00 ,1236.00 ,890.00 ,831.00 ,0.75 ,5501016200.00 
266.00 ,517.00 ,363.00 ,87.00 ,113.00 ,1255.00 ,983.00 ,923.00 ,0.75 ,5501028900.00 
290.00 ,571.00 ,340.00 ,92.00 ,119.00 ,1204.00 ,1024.00 ,1017.00 ,0.77 ,5538789500.00 
271.00 ,504.00 ,350.00 ,91.00 ,118.00 ,1129.00 ,1045.00 ,961.00 ,0.78 ,5560252300.00 
307.00 ,554.00 ,322.00 ,88.00 ,133.00 ,1161.00 ,1079.00 ,990.00 ,0.79 ,5580627800.00 
323.00 ,564.00 ,284.00 ,79.00 ,145.00 ,1184.00 ,1075.00 ,973.00 ,0.80 ,5600506600.00 
364.00 ,621.00 ,265.00 ,92.00 ,161.00 ,1179.00 ,1013.00 ,918.00 ,0.81 ,5619137200.00 
365.00 ,616.00 ,365.00 ,85.00 ,167.00 ,1323.00 ,1041.00 ,888.00 ,0.82 ,5638699200.00 
376.00 ,683.00 ,354.00 ,93.00 ,218.00 ,1396.00 ,1016.00 ,992.00 ,0.83 ,5658612700.00 
397.00 ,675.00 ,363.00 ,106.00 ,230.00 ,1416.00 ,1030.00 ,1051.00 ,0.84 ,5678639900.00 
431.00 ,666.00 ,416.00 ,109.00 ,259.00 ,1531.00 ,1062.00 ,1106.00 ,0.85 ,5699724200.00 
478.00 ,663.00 ,440.00 ,116.00 ,267.00 ,1517.00 ,1034.00 ,1169.00 ,0.86 ,5720509800.00 
485.00 ,733.00 ,429.00 ,124.00 ,273.00 ,1429.00 ,1020.00 ,1160.00 ,0.87 ,5741617700.00 
532.00 ,719.00 ,491.00 ,127.00 ,248.00 ,1405.00 ,1056.00 ,1132.00 ,0.88 ,5760190400.00 
613.00 ,758.00 ,506.00 ,133.00 ,247.00 ,1370.00 ,1041.00 ,1073.00 ,0.89 ,5781283600.00 
645.00 ,803.00 ,567.00 ,146.00 ,260.00 ,1338.00 ,1025.00 ,1036.00 ,0.90 ,5798905900.00 
681.00 ,783.00 ,572.00 ,155.00 ,300.00 ,1377.00 ,1079.00 ,1053.00 ,0.91 ,5818694300.00 
733.00 ,891.00 ,646.00 ,178.00 ,339.00 ,1379.00 ,1037.00 ,1069.00 ,0.92 ,5838344600.00 
741.00 ,918.00 ,615.00 ,190.00 ,354.00 ,1507.00 ,1084.00 ,1073.00 ,0.93 ,5861182300.00 
726.00 ,902.00 ,642.00 ,184.00 ,356.00 ,1499.00 ,1079.00 ,1099.00 ,0.94 ,5880694800.00 
685.00 ,904.00 ,564.00 ,181.00 ,338.00 ,1431.00 ,1095.00 ,1113.00 ,0.95 ,5900477400.00 
621.00 ,904.00 ,567.00 ,164.00 ,292.00 ,1422.00 ,1079.00 ,1086.00 ,0.97 ,5941303800.00 
562.00 ,865.00 ,427.00 ,138.00 ,235.00 ,1429.00 ,1084.00 ,1071.00 ,0.97 ,5941316900.00 
563.00 ,982.00 ,469.00 ,138.00 ,232.00 ,1303.00 ,956.00 ,1023.00 ,0.98 ,5958969300.00 
473.00 ,1031.00 ,409.00 ,134.00 ,229.00 ,1366.00 ,982.00 ,1042.00 ,0.99 ,5979872300.00 
486.00 ,1025.00 ,431.00 ,127.00 ,229.00 ,1376.00 ,946.00 ,1033.00 ,0.98 ,6000705700.00 
477.00 ,1010.00 ,501.00 ,134.00 ,229.00 ,1320.00 ,907.00 ,1008.00 ,0.97 ,6021460200.00 
468.00 ,930.00 ,535.00 ,133.00 ,227.00 ,1259.00 ,902.00 ,986.00 ,0.96 ,6041052800.00 
389.00 ,808.00 ,484.00 ,107.00 ,198.00 ,1265.00 ,937.00 ,1003.00 ,0.95 ,6062312300.00 
421.00 ,702.00 ,469.00 ,114.00 ,183.00 ,1194.00 ,812.00 ,919.00 ,0.94 ,6078964500.00 
400.00 ,708.00 ,528.00 ,113.00 ,156.00 ,1215.00 ,798.00 ,873.00 ,0.93 ,6098604400.00 
404.00 ,853.00 ,429.00 ,101.00 ,154.00 ,1337.00 ,785.00 ,908.00 ,0.92 ,6121341700.00 
386.00 ,830.00 ,382.00 ,97.00 ,148.00 ,1330.00 ,758.00 ,844.00 ,0.91 ,6138324400.00 
363.00 ,748.00 ,381.00 ,99.00 ,145.00 ,1228.00 ,711.00 ,814.00 ,0.90 ,6159129000.00 
327.00 ,759.00 ,386.00 ,91.00 ,146.00 ,1217.00 ,795.00 ,816.00 ,0.89 ,6180125200.00 
303.00 ,735.00 ,452.00 ,108.00 ,142.00 ,1092.00 ,671.00 ,768.00 ,0.88 ,6200685800.00 
237.00 ,524.00 ,470.00 ,112.00 ,127.00 ,872.00 ,610.00 ,628.00 ,0.87 ,6219546400.00 
223.00 ,506.00 ,600.00 ,136.00 ,137.00 ,789.00 ,540.00 ,605.00 ,0.86 ,6240263600.00 
235.00 ,523.00 ,737.00 ,139.00 ,133.00 ,838.00 ,506.00 ,536.00 ,0.85 ,6260429600.00 
210.00 ,525.00 ,840.00 ,141.00 ,105.00 ,688.00 ,298.00 ,444.00 ,0.84 ,6280153700.00 
208.00 ,555.00 ,829.00 ,153.00 ,106.00 ,632.00 ,275.00 ,407.00 ,0.83 ,6298208200.00 
211.00 ,577.00 ,827.00 ,171.00 ,107.00 ,635.00 ,259.00 ,377.00 ,0.82 ,6320948200.00 
213.00 ,573.00 ,786.00 ,151.00 ,99.00 ,735.00 ,287.00 ,359.00 ,0.81 ,6340858200.00 
201.00 ,635.00 ,780.00 ,153.00 ,87.00 ,651.00 ,232.00 ,289.00 ,0.80 ,6364290300.00 
232.00 ,603.00 ,735.00 ,171.00 ,86.00 ,594.00 ,208.00 ,239.00 ,0.79 ,6378342500.00 
210.00 ,565.00 ,736.00 ,159.00 ,80.00 ,581.00 ,200.00 ,224.00 ,0.78 ,6399200600.00 
212.00 ,540.00 ,778.00 ,145.00 ,73.00 ,599.00 ,206.00 ,212.00 ,0.77 ,6419677800.00 
246.00 ,508.00 ,788.00 ,164.00 ,72.00 ,500.00 ,172.00 ,190.00 ,0.76 ,6440517800.00 
234.00 ,377.00 ,762.00 ,171.00 ,71.00 ,440.00 ,149.00 ,151.00 ,0.75 ,6460663800.00 
187.00 ,343.00 ,724.00 ,168.00 ,70.00 ,432.00 ,140.00 ,103.00 ,0.74 ,6480317300.00 
215.00 ,305.00 ,713.00 ,166.00 ,64.00 ,423.00 ,148.00 ,89.00 ,0.73 ,6500119900.00 
212.00 ,377.00 ,746.00 ,171.00 ,68.00 ,430.00 ,164.00 ,100.00 ,0.72 ,6518427000.00 
202.00 ,413.00 ,759.00 ,176.00 ,70.00 ,370.00 ,141.00 ,107.00 ,0.71 ,6538523900.00 
199.00 ,477.00 ,706.00 ,168.00 ,66.00 ,374.00 ,137.00 ,105.00 ,0.70 ,6558213300.00 
201.00 ,467.00 ,734.00 ,148.00 ,69.00 ,367.00 ,133.00 ,111.00 ,0.69 ,6581601100.00 
205.00 ,473.00 ,740.00 ,140.00 ,72.00 ,366.00 ,123.00 ,116.00 ,0.68 ,6599134500.00 
206.00 ,452.00 ,768.00 ,130.00 ,67.00 ,448.00 ,104.00 ,106.00 ,0.67 ,6619756500.00 
185.00 ,407.00 ,801.00 ,122.00 ,66.00 ,412.00 ,103.00 ,87.00 ,0.66 ,6640171000.00 
209.00 ,320.00 ,852.00 ,131.00 ,65.00 ,402.00 ,99.00 ,89.00 ,0.65 ,6665844200.00 
216.00 ,385.00 ,886.00 ,179.00 ,61.00 ,412.00 ,104.00 ,83.00 ,0.64 ,6680145200.00 
180.00 ,380.00 ,920.00 ,190.00 ,59.00 ,408.00 ,101.00 ,76.00 ,0.63 ,6699853000.00 
232.00 ,364.00 ,912.00 ,195.00 ,82.00 ,451.00 ,98.00 ,77.00 ,0.62 ,6719846400.00 
233.00 ,398.00 ,885.00 ,184.00 ,77.00 ,461.00 ,85.00 ,68.00 ,0.61 ,6739464600.00 
219.00 ,415.00 ,924.00 ,178.00 ,79.00 ,462.00 ,101.00 ,78.00 ,0.60 ,6759591400.00 
216.00 ,382.00 ,950.00 ,138.00 ,79.00 ,465.00 ,99.00 ,74.00 ,0.59 ,6779540600.00 
219.00 ,379.00 ,885.00 ,129.00 ,85.00 ,478.00 ,104.00 ,73.00 ,0.58 ,6799970400.00 
162.00 ,412.00 ,831.00 ,147.00 ,80.00 ,490.00 ,124.00 ,69.00 ,0.57 ,6818718900.00 
145.00 ,394.00 ,839.00 ,151.00 ,87.00 ,544.00 ,142.00 ,73.00 ,0.56 ,6839769900.00 
133.00 ,364.00 ,798.00 ,148.00 ,86.00 ,553.00 ,142.00 ,59.00 ,0.55 ,6860897000.00 
151.00 ,415.00 ,739.00 ,188.00 ,90.00 ,548.00 ,143.00 ,67.00 ,0.54 ,6878861200.00 
164.00 ,466.00 ,817.00 ,234.00 ,95.00 ,538.00 ,146.00 ,76.00 ,0.53 ,6899662800.00 
158.00 ,419.00 ,800.00 ,221.00 ,86.00 ,395.00 ,129.00 ,74.00 ,0.52 ,6920126200.00 
150.00 ,418.00 ,761.00 ,220.00 ,82.00 ,341.00 ,119.00 ,73.00 ,0.51 ,6940172400.00 
245.00 ,465.00 ,773.00 ,231.00 ,85.00 ,335.00 ,108.00 ,73.00 ,0.50 ,6960127600.00 
252.00 ,441.00 ,767.00 ,221.00 ,83.00 ,329.00 ,107.00 ,71.00 ,0.49 ,6978485300.00 
255.00 ,386.00 ,781.00 ,202.00 ,78.00 ,334.00 ,100.00 ,67.00 ,0.48 ,6998352200.00 
263.00 ,397.00 ,847.00 ,212.00 ,82.00 ,334.00 ,107.00 ,68.00 ,0.47 ,7018849900.00 
271.00 ,414.00 ,933.00 ,228.00 ,88.00 ,330.00 ,112.00 ,74.00 ,0.46 ,7039020500.00 
191.00 ,441.00 ,1069.00 ,237.00 ,90.00 ,348.00 ,119.00 ,76.00 ,0.45 ,7060252800.00 
191.00 ,443.00 ,1127.00 ,218.00 ,85.00 ,354.00 ,115.00 ,71.00 ,0.44 ,7080825200.00 
174.00 ,469.00 ,1091.00 ,186.00 ,79.00 ,365.00 ,115.00 ,66.00 ,0.43 ,7098547600.00 
169.00 ,468.00 ,1058.00 ,173.00 ,80.00 ,440.00 ,111.00 ,67.00 ,0.42 ,7124323600.00 
157.00 ,452.00 ,1073.00 ,152.00 ,74.00 ,458.00 ,103.00 ,61.00 ,0.41 ,7141373900.00 
157.00 ,409.00 ,925.00 ,139.00 ,72.00 ,436.00 ,95.00 ,59.00 ,0.40 ,7161222300.00 
151.00 ,401.00 ,901.00 ,149.00 ,75.00 ,434.00 ,98.00 ,60.00 ,0.39 ,7180578200.00 
160.00 ,400.00 ,876.00 ,160.00 ,72.00 ,424.00 ,104.00 ,67.00 ,0.38 ,7200110100.00 
172.00 ,388.00 ,943.00 ,190.00 ,66.00 ,313.00 ,102.00 ,65.00 ,0.37 ,7220059800.00 
190.00 ,394.00 ,897.00 ,221.00 ,72.00 ,241.00 ,94.00 ,68.00 ,0.36 ,7241026500.00 
186.00 ,359.00 ,922.00 ,221.00 ,71.00 ,449.00 ,143.00 ,72.00 ,0.35 ,7258637400.00 
163.00 ,350.00 ,912.00 ,248.00 ,79.00 ,470.00 ,148.00 ,74.00 ,0.34 ,7280818500.00 
179.00 ,427.00 ,943.00 ,260.00 ,88.00 ,460.00 ,150.00 ,72.00 ,0.33 ,7301544200.00 
174.00 ,454.00 ,981.00 ,251.00 ,88.00 ,444.00 ,143.00 ,75.00 ,0.32 ,7318522400.00 
155.00 ,470.00 ,994.00 ,234.00 ,86.00 ,499.00 ,159.00 ,76.00 ,0.31 ,7339208600.00 
182.00 ,515.00 ,952.00 ,243.00 ,90.00 ,333.00 ,146.00 ,83.00 ,0.30 ,7359112800.00 
189.00 ,537.00 ,955.00 ,232.00 ,86.00 ,316.00 ,146.00 ,88.00 ,0.29 ,7378762100.00 
192.00 ,565.00 ,1018.00 ,281.00 ,104.00 ,325.00 ,142.00 ,92.00 ,0.28 ,7398486200.00 
182.00 ,619.00 ,994.00 ,284.00 ,105.00 ,400.00 ,154.00 ,88.00 ,0.27 ,7418183400.00 
184.00 ,616.00 ,1075.00 ,286.00 ,106.00 ,469.00 ,156.00 ,88.00 ,0.26 ,7439603000.00 
168.00 ,612.00 ,1080.00 ,291.00 ,104.00 ,479.00 ,138.00 ,78.00 ,0.25 ,7460442300.00 
155.00 ,610.00 ,1114.00 ,292.00 ,104.00 ,471.00 ,135.00 ,65.00 ,0.24 ,7481270600.00 
159.00 ,601.00 ,1121.00 ,290.00 ,92.00 ,482.00 ,142.00 ,72.00 ,0.23 ,7498365700.00 
182.00 ,614.00 ,1094.00 ,299.00 ,97.00 ,434.00 ,139.00 ,79.00 ,0.22 ,7518934500.00 
217.00 ,665.00 ,1011.00 ,403.00 ,117.00 ,318.00 ,154.00 ,88.00 ,0.21 ,7539546600.00 
253.00 ,827.00 ,1176.00 ,465.00 ,140.00 ,317.00 ,160.00 ,107.00 ,0.20 ,7559983700.00 
255.00 ,868.00 ,1147.00 ,497.00 ,160.00 ,339.00 ,169.00 ,113.00 ,0.19 ,7581277700.00 
269.00 ,899.00 ,1119.00 ,545.00 ,182.00 ,336.00 ,169.00 ,123.00 ,0.18 ,7601144600.00 
374.00 ,976.00 ,1225.00 ,617.00 ,220.00 ,342.00 ,172.00 ,159.00 ,0.17 ,7620733000.00 
392.00 ,1019.00 ,1257.00 ,598.00 ,224.00 ,442.00 ,221.00 ,164.00 ,0.16 ,7640258500.00 
425.00 ,1059.00 ,1165.00 ,678.00 ,266.00 ,491.00 ,220.00 ,174.00 ,0.15 ,7659962000.00 
467.00 ,1099.00 ,1232.00 ,746.00 ,283.00 ,475.00 ,217.00 ,182.00 ,0.14 ,7680559400.00 
471.00 ,1147.00 ,1248.00 ,736.00 ,287.00 ,475.00 ,213.00 ,179.00 ,0.13 ,7698603800.00 
453.00 ,1124.00 ,1127.00 ,740.00 ,287.00 ,466.00 ,206.00 ,174.00 ,0.12 ,7719351000.00 
471.00 ,1196.00 ,1160.00 ,782.00 ,302.00 ,347.00 ,124.00 ,183.00 ,0.11 ,7739058700.00 
443.00 ,1131.00 ,1239.00 ,734.00 ,265.00 ,294.00 ,114.00 ,171.00 ,0.10 ,7760514800.00 
418.00 ,1128.00 ,1185.00 ,704.00 ,249.00 ,299.00 ,112.00 ,168.00 ,0.09 ,7781072900.00 
442.00 ,1094.00 ,1237.00 ,720.00 ,246.00 ,350.00 ,121.00 ,177.00 ,0.08 ,7801329900.00 
436.00 ,1105.00 ,1314.00 ,719.00 ,255.00 ,359.00 ,128.00 ,175.00 ,0.07 ,7821310400.00 
420.00 ,1021.00 ,1254.00 ,680.00 ,236.00 ,366.00 ,129.00 ,165.00 ,0.06 ,7841075400.00 
428.00 ,1017.00 ,1261.00 ,676.00 ,244.00 ,389.00 ,126.00 ,173.00 ,0.05 ,7860565500.00 
484.00 ,982.00 ,1287.00 ,676.00 ,266.00 ,434.00 ,147.00 ,203.00 ,0.04 ,7885160800.00 
469.00 ,949.00 ,1246.00 ,651.00 ,265.00 ,434.00 ,154.00 ,212.00 ,0.03 ,7899257900.00 
517.00 ,970.00 ,1205.00 ,712.00 ,293.00 ,438.00 ,177.00 ,235.00 ,0.02 ,7920017300.00 
547.00 ,1073.00 ,1206.00 ,756.00 ,310.00 ,448.00 ,185.00 ,255.00 ,0.01 ,7940416300.00 
559.00 ,1051.00 ,1140.00 ,744.00 ,315.00 ,404.00 ,199.00 ,266.00 ,0.00 ,7961455300.00 
501.00 ,992.00 ,1088.00 ,699.00 ,293.00 ,369.00 ,189.00 ,241.00 ,0.01 ,7979847800.00 
500.00 ,1007.00 ,1144.00 ,677.00 ,283.00 ,424.00 ,187.00 ,234.00 ,0.02 ,8000166000.00 
407.00 ,926.00 ,1138.00 ,553.00 ,222.00 ,486.00 ,157.00 ,232.00 ,0.03 ,8020028500.00 
345.00 ,737.00 ,1074.00 ,468.00 ,191.00 ,495.00 ,154.00 ,286.00 ,0.04 ,8038511800.00 
334.00 ,670.00 ,989.00 ,420.00 ,179.00 ,721.00 ,214.00 ,391.00 ,0.05 ,8058870800.00 
340.00 ,684.00 ,977.00 ,384.00 ,178.00 ,863.00 ,235.00 ,519.00 ,0.06 ,8078317000.00 
305.00 ,583.00 ,842.00 ,356.00 ,169.00 ,872.00 ,261.00 ,535.00 ,0.07 ,8100873000.00 
302.00 ,585.00 ,791.00 ,399.00 ,188.00 ,875.00 ,288.00 ,589.00 ,0.08 ,8118322900.00 
303.00 ,667.00 ,813.00 ,363.00 ,187.00 ,993.00 ,356.00 ,618.00 ,0.09 ,8138619000.00 
273.00 ,654.00 ,779.00 ,366.00 ,177.00 ,948.00 ,349.00 ,653.00 ,0.10 ,8159823500.00 
267.00 ,647.00 ,705.00 ,376.00 ,182.00 ,923.00 ,424.00 ,646.00 ,0.11 ,8181490100.00 
264.00 ,640.00 ,613.00 ,368.00 ,181.00 ,881.00 ,529.00 ,674.00 ,0.12 ,8200445400.00 
247.00 ,598.00 ,670.00 ,285.00 ,147.00 ,839.00 ,531.00 ,694.00 ,0.13 ,8221355400.00 
225.00 ,482.00 ,674.00 ,276.00 ,138.00 ,684.00 ,511.00 ,702.00 ,0.14 ,8241241000.00 
245.00 ,447.00 ,657.00 ,224.00 ,133.00 ,660.00 ,574.00 ,813.00 ,0.15 ,8260981500.00 
232.00 ,474.00 ,649.00 ,202.00 ,115.00 ,583.00 ,670.00 ,839.00 ,0.17 ,8300209700.00 
244.00 ,541.00 ,708.00 ,213.00 ,124.00 ,669.00 ,643.00 ,861.00 ,0.17 ,8300222900.00 
260.00 ,524.00 ,613.00 ,228.00 ,129.00 ,668.00 ,636.00 ,829.00 ,0.18 ,8319881900.00 
259.00 ,514.00 ,635.00 ,222.00 ,128.00 ,730.00 ,630.00 ,853.00 ,0.19 ,8341918000.00 
222.00 ,504.00 ,604.00 ,212.00 ,121.00 ,807.00 ,634.00 ,720.00 ,0.20 ,8359587600.00 
226.00 ,458.00 ,603.00 ,206.00 ,117.00 ,832.00 ,602.00 ,650.00 ,0.21 ,8380644000.00 
241.00 ,523.00 ,754.00 ,213.00 ,113.00 ,757.00 ,575.00 ,605.00 ,0.23 ,8421539400.00 
212.00 ,515.00 ,713.00 ,175.00 ,104.00 ,774.00 ,601.00 ,629.00 ,0.23 ,8421552100.00 
242.00 ,495.00 ,629.00 ,149.00 ,98.00 ,813.00 ,623.00 ,737.00 ,0.25 ,8458192600.00 
226.00 ,499.00 ,621.00 ,143.00 ,86.00 ,669.00 ,634.00 ,786.00 ,0.25 ,8458238100.00 
239.00 ,531.00 ,675.00 ,177.00 ,86.00 ,579.00 ,545.00 ,769.00 ,0.26 ,8479013900.00 
244.00 ,595.00 ,449.00 ,161.00 ,72.00 ,571.00 ,506.00 ,756.00 ,0.27 ,8500585500.00 
256.00 ,574.00 ,438.00 ,143.00 ,76.00 ,635.00 ,487.00 ,808.00 ,0.29 ,8539763100.00 
224.00 ,597.00 ,436.00 ,142.00 ,73.00 ,516.00 ,493.00 ,725.00 ,0.29 ,8539776600.00 
241.00 ,614.00 ,451.00 ,145.00 ,72.00 ,456.00 ,440.00 ,708.00 ,0.30 ,8560987300.00 
214.00 ,652.00 ,549.00 ,116.00 ,61.00 ,446.00 ,427.00 ,741.00 ,0.31 ,8578611200.00 
213.00 ,537.00 ,559.00 ,139.00 ,64.00 ,436.00 ,421.00 ,764.00 ,0.32 ,8599450300.00 
197.00 ,542.00 ,571.00 ,144.00 ,65.00 ,386.00 ,464.00 ,738.00 ,0.33 ,8619528100.00 
217.00 ,527.00 ,590.00 ,148.00 ,80.00 ,549.00 ,538.00 ,704.00 ,0.34 ,8638788300.00 
214.00 ,523.00 ,570.00 ,146.00 ,79.00 ,557.00 ,507.00 ,637.00 ,0.35 ,8661030700.00 
226.00 ,484.00 ,432.00 ,149.00 ,87.00 ,563.00 ,485.00 ,649.00 ,0.36 ,8680583500.00 
204.00 ,455.00 ,434.00 ,126.00 ,85.00 ,616.00 ,531.00 ,636.00 ,0.37 ,8700282300.00 
209.00 ,456.00 ,420.00 ,120.00 ,81.00 ,647.00 ,521.00 ,634.00 ,0.38 ,8719654800.00 
183.00 ,510.00 ,399.00 ,113.00 ,63.00 ,551.00 ,509.00 ,606.00 ,0.39 ,8739090900.00 
210.00 ,499.00 ,412.00 ,113.00 ,63.00 ,537.00 ,536.00 ,622.00 ,0.40 ,8759099800.00 
213.00 ,522.00 ,440.00 ,105.00 ,57.00 ,518.00 ,567.00 ,639.00 ,0.41 ,8779099300.00 
208.00 ,562.00 ,437.00 ,96.00 ,60.00 ,514.00 ,528.00 ,635.00 ,0.42 ,8801365100.00 
210.00 ,561.00 ,433.00 ,93.00 ,61.00 ,431.00 ,596.00 ,660.00 ,0.43 ,8818890300.00 
207.00 ,493.00 ,444.00 ,95.00 ,65.00 ,433.00 ,552.00 ,760.00 ,0.44 ,8839256700.00 
177.00 ,538.00 ,435.00 ,93.00 ,65.00 ,454.00 ,601.00 ,803.00 ,0.45 ,8859933200.00 
176.00 ,544.00 ,437.00 ,113.00 ,70.00 ,544.00 ,644.00 ,759.00 ,0.46 ,8880196600.00 
162.00 ,441.00 ,423.00 ,117.00 ,59.00 ,518.00 ,745.00 ,807.00 ,0.47 ,8899850500.00 
155.00 ,423.00 ,430.00 ,120.00 ,66.00 ,575.00 ,725.00 ,764.00 ,0.48 ,8919421000.00 
148.00 ,430.00 ,408.00 ,120.00 ,64.00 ,611.00 ,766.00 ,690.00 ,0.49 ,8938464800.00 
138.00 ,368.00 ,423.00 ,126.00 ,67.00 ,610.00 ,732.00 ,679.00 ,0.50 ,8959647400.00 
153.00 ,361.00 ,430.00 ,130.00 ,67.00 ,543.00 ,679.00 ,660.00 ,0.51 ,8978796500.00 
150.00 ,409.00 ,440.00 ,125.00 ,70.00 ,529.00 ,569.00 ,580.00 ,0.52 ,8999019400.00 
158.00 ,461.00 ,450.00 ,124.00 ,63.00 ,540.00 ,552.00 ,620.00 ,0.53 ,9019634400.00 
196.00 ,476.00 ,452.00 ,124.00 ,69.00 ,549.00 ,599.00 ,645.00 ,0.54 ,9040090700.00 
202.00 ,524.00 ,439.00 ,116.00 ,65.00 ,567.00 ,595.00 ,589.00 ,0.55 ,9061313100.00 
189.00 ,502.00 ,392.00 ,78.00 ,57.00 ,598.00 ,619.00 ,626.00 ,0.56 ,9078582900.00 
203.00 ,504.00 ,364.00 ,73.00 ,58.00 ,636.00 ,643.00 ,661.00 ,0.57 ,9100666800.00 
199.00 ,462.00 ,348.00 ,69.00 ,62.00 ,633.00 ,688.00 ,638.00 ,0.58 ,9120255300.00 
172.00 ,463.00 ,345.00 ,68.00 ,56.00 ,643.00 ,704.00 ,605.00 ,0.59 ,9139680800.00 
185.00 ,455.00 ,487.00 ,77.00 ,65.00 ,702.00 ,740.00 ,670.00 ,0.60 ,9159354500.00 
206.00 ,537.00 ,491.00 ,88.00 ,66.00 ,687.00 ,753.00 ,684.00 ,0.61 ,9178751500.00 
200.00 ,552.00 ,519.00 ,87.00 ,63.00 ,676.00 ,740.00 ,672.00 ,0.62 ,9198598800.00 
207.00 ,583.00 ,522.00 ,89.00 ,58.00 ,608.00 ,748.00 ,686.00 ,0.63 ,9219030800.00 
228.00 ,617.00 ,534.00 ,89.00 ,59.00 ,577.00 ,736.00 ,740.00 ,0.64 ,9239304300.00 
234.00 ,630.00 ,467.00 ,88.00 ,59.00 ,701.00 ,696.00 ,695.00 ,0.65 ,9259695700.00 
230.00 ,563.00 ,490.00 ,79.00 ,61.00 ,760.00 ,736.00 ,774.00 ,0.66 ,9281674300.00 
230.00 ,533.00 ,463.00 ,72.00 ,64.00 ,800.00 ,806.00 ,799.00 ,0.67 ,9299115200.00 
228.00 ,526.00 ,459.00 ,69.00 ,66.00 ,868.00 ,814.00 ,821.00 ,0.68 ,9319665900.00 
214.00 ,528.00 ,465.00 ,73.00 ,73.00 ,961.00 ,747.00 ,759.00 ,0.69 ,9339707900.00 
231.00 ,502.00 ,426.00 ,71.00 ,74.00 ,902.00 ,833.00 ,846.00 ,0.70 ,9359318000.00 
233.00 ,488.00 ,407.00 ,65.00 ,74.00 ,861.00 ,812.00 ,762.00 ,0.72 ,9403545600.00 
240.00 ,547.00 ,397.00 ,66.00 ,99.00 ,951.00 ,776.00 ,787.00 ,0.72 ,9403558100.00 
250.00 ,586.00 ,399.00 ,68.00 ,114.00 ,965.00 ,736.00 ,823.00 ,0.73 ,9420333100.00 
252.00 ,576.00 ,388.00 ,67.00 ,116.00 ,905.00 ,789.00 ,896.00 ,0.74 ,9441254500.00 
223.00 ,613.00 ,395.00 ,70.00 ,117.00 ,877.00 ,723.00 ,882.00 ,0.75 ,9458568400.00 
231.00 ,677.00 ,358.00 ,72.00 ,124.00 ,1070.00 ,713.00 ,930.00 ,0.76 ,9479410300.00 
224.00 ,690.00 ,330.00 ,66.00 ,115.00 ,1073.00 ,802.00 ,947.00 ,0.77 ,9499961800.00 
239.00 ,690.00 ,333.00 ,66.00 ,117.00 ,1115.00 ,901.00 ,927.00 ,0.78 ,9520046000.00 
232.00 ,671.00 ,326.00 ,68.00 ,121.00 ,1172.00 ,889.00 ,920.00 ,0.79 ,9541030700.00 
244.00 ,673.00 ,432.00 ,78.00 ,124.00 ,1202.00 ,934.00 ,966.00 ,0.80 ,9559180000.00 
263.00 ,645.00 ,416.00 ,85.00 ,156.00 ,1217.00 ,933.00 ,1104.00 ,0.81 ,9578821100.00 
315.00 ,607.00 ,406.00 ,97.00 ,177.00 ,1205.00 ,916.00 ,1111.00 ,0.82 ,9598361200.00 
310.00 ,652.00 ,420.00 ,107.00 ,191.00 ,1220.00 ,884.00 ,1134.00 ,0.83 ,9621143500.00 
313.00 ,695.00 ,446.00 ,112.00 ,194.00 ,1270.00 ,856.00 ,1135.00 ,0.84 ,9640649500.00 
304.00 ,713.00 ,431.00 ,120.00 ,198.00 ,1285.00 ,810.00 ,1033.00 ,0.85 ,9661568700.00 
298.00 ,810.00 ,457.00 ,122.00 ,183.00 ,1200.00 ,868.00 ,910.00 ,0.87 ,9699521100.00 
301.00 ,870.00 ,439.00 ,121.00 ,174.00 ,1254.00 ,836.00 ,925.00 ,0.87 ,9699557900.00 
314.00 ,893.00 ,507.00 ,126.00 ,179.00 ,1325.00 ,831.00 ,843.00 ,0.88 ,9719150800.00 
357.00 ,889.00 ,510.00 ,139.00 ,193.00 ,1251.00 ,879.00 ,812.00 ,0.89 ,9739884800.00 
402.00 ,865.00 ,424.00 ,131.00 ,213.00 ,1303.00 ,967.00 ,852.00 ,0.91 ,9779758900.00 
427.00 ,805.00 ,405.00 ,129.00 ,219.00 ,1344.00 ,1002.00 ,881.00 ,0.91 ,9779771400.00 
428.00 ,802.00 ,455.00 ,137.00 ,220.00 ,1261.00 ,1061.00 ,912.00 ,0.92 ,9799200600.00 
542.00 ,810.00 ,472.00 ,196.00 ,279.00 ,1217.00 ,1069.00 ,940.00 ,0.93 ,9819148800.00 
570.00 ,847.00 ,481.00 ,196.00 ,285.00 ,1317.00 ,1067.00 ,1047.00 ,0.94 ,9838911800.00 
593.00 ,876.00 ,559.00 ,203.00 ,288.00 ,1239.00 ,1143.00 ,1073.00 ,0.95 ,9860440900.00 
684.00 ,970.00 ,659.00 ,234.00 ,416.00 ,1359.00 ,1103.00 ,1117.00 ,0.96 ,9880977000.00 
676.00 ,935.00 ,670.00 ,236.00 ,435.00 ,1463.00 ,1087.00 ,1100.00 ,0.97 ,9898559000.00 
582.00 ,968.00 ,678.00 ,185.00 ,407.00 ,1463.00 ,1040.00 ,1081.00 ,0.99 ,9939539800.00 
543.00 ,935.00 ,709.00 ,182.00 ,395.00 ,1456.00 ,1049.00 ,1068.00 ,0.99 ,9939579400.00 
516.00 ,994.00 ,738.00 ,189.00 ,398.00 ,1460.00 ,930.00 ,1119.00 ,0.98 ,9960876200.00 
421.00 ,959.00 ,731.00 ,183.00 ,269.00 ,1343.00 ,960.00 ,1041.00 ,0.97 ,9981312600.00 
447.00 ,1032.00 ,731.00 ,175.00 ,240.00 ,1293.00 ,976.00 ,1090.00 ,0.96 ,10001417000.00 
497.00 ,995.00 ,688.00 ,179.00 ,237.00 ,1334.00 ,945.00 ,1109.00 ,0.94 ,10039495000.00 
500.00 ,981.00 ,685.00 ,176.00 ,244.00 ,1285.00 ,994.00 ,977.00 ,0.94 ,10039514600.00 
503.00 ,963.00 ,693.00 ,178.00 ,227.00 ,1373.00 ,997.00 ,954.00 ,0.93 ,10060863800.00 
454.00 ,900.00 ,624.00 ,138.00 ,205.00 ,1326.00 ,956.00 ,952.00 ,0.92 ,10080537000.00 
421.00 ,786.00 ,582.00 ,136.00 ,195.00 ,1290.00 ,884.00 ,837.00 ,0.91 ,10100865800.00 
415.00 ,769.00 ,553.00 ,137.00 ,164.00 ,1212.00 ,980.00 ,917.00 ,0.90 ,10118328600.00 
426.00 ,839.00 ,535.00 ,128.00 ,159.00 ,1230.00 ,902.00 ,947.00 ,0.89 ,10139255100.00 
390.00 ,731.00 ,406.00 ,97.00 ,136.00 ,1066.00 ,818.00 ,838.00 ,0.88 ,10165255900.00 
358.00 ,688.00 ,485.00 ,117.00 ,129.00 ,993.00 ,745.00 ,731.00 ,0.87 ,10179243600.00 
345.00 ,659.00 ,522.00 ,112.00 ,114.00 ,923.00 ,680.00 ,662.00 ,0.86 ,10199605900.00 
251.00 ,552.00 ,686.00 ,102.00 ,105.00 ,917.00 ,484.00 ,417.00 ,0.85 ,10219391000.00 
215.00 ,428.00 ,743.00 ,115.00 ,87.00 ,771.00 ,327.00 ,298.00 ,0.84 ,10238915900.00 
195.00 ,461.00 ,844.00 ,140.00 ,88.00 ,763.00 ,244.00 ,262.00 ,0.83 ,10258852100.00 
214.00 ,465.00 ,916.00 ,162.00 ,94.00 ,741.00 ,281.00 ,253.00 ,0.81 ,10300957900.00 
211.00 ,525.00 ,944.00 ,176.00 ,94.00 ,721.00 ,417.00 ,281.00 ,0.80 ,10319688800.00 
233.00 ,530.00 ,892.00 ,176.00 ,85.00 ,605.00 ,521.00 ,347.00 ,0.80 ,10319701300.00 
195.00 ,498.00 ,823.00 ,166.00 ,79.00 ,572.00 ,623.00 ,378.00 ,0.79 ,10340232500.00 
207.00 ,460.00 ,780.00 ,169.00 ,79.00 ,564.00 ,637.00 ,371.00 ,0.77 ,10378821200.00 
229.00 ,413.00 ,689.00 ,133.00 ,67.00 ,548.00 ,617.00 ,372.00 ,0.77 ,10378833700.00 
241.00 ,348.00 ,715.00 ,119.00 ,62.00 ,480.00 ,520.00 ,340.00 ,0.76 ,10399652800.00 
224.00 ,361.00 ,816.00 ,140.00 ,61.00 ,359.00 ,418.00 ,246.00 ,0.74 ,10440426700.00 
226.00 ,368.00 ,822.00 ,144.00 ,59.00 ,231.00 ,252.00 ,176.00 ,0.74 ,10440470300.00 
208.00 ,341.00 ,793.00 ,111.00 ,50.00 ,239.00 ,253.00 ,199.00 ,0.73 ,10460325400.00 
164.00 ,338.00 ,875.00 ,126.00 ,56.00 ,220.00 ,232.00 ,197.00 ,0.71 ,10498134700.00 
128.00 ,412.00 ,856.00 ,145.00 ,63.00 ,208.00 ,221.00 ,192.00 ,0.71 ,10498146600.00 
114.00 ,384.00 ,752.00 ,126.00 ,59.00 ,216.00 ,202.00 ,190.00 ,0.70 ,10521054700.00 
120.00 ,392.00 ,761.00 ,125.00 ,67.00 ,306.00 ,189.00 ,172.00 ,0.68 ,10559154200.00 
160.00 ,403.00 ,785.00 ,136.00 ,68.00 ,298.00 ,141.00 ,92.00 ,0.68 ,10559185200.00 
167.00 ,397.00 ,674.00 ,128.00 ,65.00 ,295.00 ,140.00 ,76.00 ,0.67 ,10580706600.00 
165.00 ,347.00 ,699.00 ,117.00 ,62.00 ,309.00 ,148.00 ,72.00 ,0.65 ,10620104500.00 
183.00 ,422.00 ,665.00 ,120.00 ,62.00 ,302.00 ,144.00 ,70.00 ,0.65 ,10620117100.00 
178.00 ,400.00 ,678.00 ,135.00 ,60.00 ,192.00 ,112.00 ,58.00 ,0.64 ,10640772400.00 
148.00 ,420.00 ,652.00 ,138.00 ,57.00 ,188.00 ,95.00 ,74.00 ,0.62 ,10680318200.00 
138.00 ,438.00 ,611.00 ,142.00 ,53.00 ,229.00 ,107.00 ,195.00 ,0.62 ,10680359000.00 
152.00 ,445.00 ,640.00 ,155.00 ,57.00 ,221.00 ,103.00 ,202.00 ,0.61 ,10699633700.00 
142.00 ,397.00 ,654.00 ,151.00 ,55.00 ,217.00 ,107.00 ,204.00 ,0.59 ,10738739900.00 
186.00 ,449.00 ,671.00 ,155.00 ,74.00 ,213.00 ,110.00 ,208.00 ,0.59 ,10738765400.00 
191.00 ,472.00 ,724.00 ,174.00 ,115.00 ,213.00 ,116.00 ,207.00 ,0.58 ,10759384700.00 
193.00 ,456.00 ,741.00 ,185.00 ,127.00 ,261.00 ,107.00 ,148.00 ,0.56 ,10799890800.00 
194.00 ,527.00 ,788.00 ,186.00 ,136.00 ,267.00 ,113.00 ,155.00 ,0.56 ,10799914400.00 
226.00 ,516.00 ,758.00 ,183.00 ,137.00 ,271.00 ,134.00 ,373.00 ,0.55 ,10820509300.00 
192.00 ,472.00 ,823.00 ,174.00 ,132.00 ,271.00 ,132.00 ,397.00 ,0.54 ,10841608500.00 
183.00 ,432.00 ,864.00 ,149.00 ,101.00 ,264.00 ,126.00 ,408.00 ,0.53 ,10858541700.00 
184.00 ,470.00 ,908.00 ,136.00 ,86.00 ,186.00 ,123.00 ,401.00 ,0.51 ,10901409500.00 
166.00 ,389.00 ,851.00 ,110.00 ,62.00 ,166.00 ,116.00 ,396.00 ,0.50 ,10922952700.00 
150.00 ,448.00 ,897.00 ,126.00 ,63.00 ,202.00 ,106.00 ,269.00 ,0.50 ,10922968700.00 
166.00 ,453.00 ,916.00 ,127.00 ,52.00 ,209.00 ,121.00 ,274.00 ,0.48 ,10959453400.00 
187.00 ,534.00 ,874.00 ,161.00 ,60.00 ,198.00 ,125.00 ,263.00 ,0.47 ,10980785000.00 
186.00 ,548.00 ,893.00 ,163.00 ,62.00 ,235.00 ,120.00 ,256.00 ,0.47 ,10980799300.00 
184.00 ,522.00 ,892.00 ,170.00 ,66.00 ,253.00 ,113.00 ,254.00 ,0.45 ,11019594600.00 
148.00 ,469.00 ,881.00 ,174.00 ,67.00 ,311.00 ,116.00 ,192.00 ,0.44 ,11039959200.00 
127.00 ,538.00 ,849.00 ,170.00 ,71.00 ,338.00 ,102.00 ,122.00 ,0.44 ,11040000700.00 
142.00 ,528.00 ,921.00 ,153.00 ,65.00 ,350.00 ,103.00 ,104.00 ,0.43 ,11060511800.00 
136.00 ,483.00 ,954.00 ,145.00 ,64.00 ,328.00 ,100.00 ,96.00 ,0.41 ,11098677000.00 
146.00 ,493.00 ,903.00 ,149.00 ,62.00 ,350.00 ,100.00 ,87.00 ,0.40 ,11121194300.00 
182.00 ,542.00 ,945.00 ,183.00 ,76.00 ,372.00 ,88.00 ,87.00 ,0.40 ,11121237600.00 
197.00 ,483.00 ,932.00 ,230.00 ,89.00 ,387.00 ,94.00 ,94.00 ,0.38 ,11160404500.00 
167.00 ,400.00 ,820.00 ,224.00 ,86.00 ,376.00 ,90.00 ,92.00 ,0.37 ,11179761300.00 
174.00 ,545.00 ,835.00 ,220.00 ,86.00 ,365.00 ,91.00 ,91.00 ,0.36 ,11200241900.00 
184.00 ,578.00 ,882.00 ,229.00 ,92.00 ,341.00 ,94.00 ,96.00 ,0.35 ,11226286300.00 
170.00 ,598.00 ,823.00 ,211.00 ,89.00 ,386.00 ,117.00 ,80.00 ,0.35 ,11226298600.00 
149.00 ,599.00 ,822.00 ,180.00 ,73.00 ,369.00 ,119.00 ,65.00 ,0.34 ,11240175800.00 
172.00 ,729.00 ,910.00 ,188.00 ,77.00 ,371.00 ,114.00 ,66.00 ,0.33 ,11261305400.00 
173.00 ,680.00 ,827.00 ,227.00 ,87.00 ,385.00 ,120.00 ,78.00 ,0.31 ,11299194900.00 
160.00 ,642.00 ,892.00 ,226.00 ,84.00 ,383.00 ,121.00 ,78.00 ,0.30 ,11318953700.00 
141.00 ,601.00 ,893.00 ,219.00 ,76.00 ,364.00 ,114.00 ,85.00 ,0.29 ,11338501200.00 
199.00 ,651.00 ,883.00 ,282.00 ,117.00 ,383.00 ,114.00 ,100.00 ,0.28 ,11361225100.00 
193.00 ,519.00 ,839.00 ,314.00 ,125.00 ,401.00 ,123.00 ,107.00 ,0.28 ,11361256600.00 
204.00 ,509.00 ,913.00 ,297.00 ,122.00 ,391.00 ,118.00 ,108.00 ,0.26 ,11399872700.00 
206.00 ,524.00 ,880.00 ,294.00 ,129.00 ,457.00 ,126.00 ,109.00 ,0.25 ,11420697500.00 
211.00 ,544.00 ,932.00 ,304.00 ,129.00 ,369.00 ,102.00 ,120.00 ,0.25 ,11420710600.00 
192.00 ,541.00 ,1004.00 ,312.00 ,119.00 ,321.00 ,98.00 ,117.00 ,0.24 ,11440928100.00 
214.00 ,547.00 ,998.00 ,312.00 ,117.00 ,302.00 ,90.00 ,113.00 ,0.22 ,11479135800.00 
200.00 ,510.00 ,1084.00 ,318.00 ,114.00 ,298.00 ,101.00 ,107.00 ,0.21 ,11500385300.00 
205.00 ,614.00 ,1098.00 ,338.00 ,116.00 ,195.00 ,91.00 ,108.00 ,0.20 ,11520797100.00 
204.00 ,650.00 ,1087.00 ,349.00 ,125.00 ,177.00 ,95.00 ,90.00 ,0.19 ,11539672000.00 
197.00 ,727.00 ,1093.00 ,342.00 ,119.00 ,192.00 ,89.00 ,104.00 ,0.18 ,11559164600.00 
162.00 ,790.00 ,1199.00 ,336.00 ,118.00 ,195.00 ,85.00 ,101.00 ,0.17 ,11578829600.00 
176.00 ,822.00 ,1144.00 ,348.00 ,126.00 ,191.00 ,74.00 ,103.00 ,0.16 ,11598387800.00 
196.00 ,903.00 ,1156.00 ,405.00 ,139.00 ,200.00 ,74.00 ,109.00 ,0.15 ,11621236600.00 
246.00 ,981.00 ,1217.00 ,515.00 ,170.00 ,188.00 ,78.00 ,122.00 ,0.15 ,11621271000.00 
258.00 ,1034.00 ,1157.00 ,521.00 ,171.00 ,205.00 ,80.00 ,110.00 ,0.13 ,11658891500.00 
279.00 ,1023.00 ,1080.00 ,551.00 ,188.00 ,203.00 ,86.00 ,125.00 ,0.12 ,11681553400.00 
295.00 ,1039.00 ,1095.00 ,576.00 ,206.00 ,227.00 ,88.00 ,125.00 ,0.12 ,11681565400.00 
318.00 ,983.00 ,1143.00 ,642.00 ,241.00 ,212.00 ,100.00 ,141.00 ,0.09 ,11740421500.00 
348.00 ,989.00 ,1216.00 ,631.00 ,250.00 ,220.00 ,107.00 ,156.00 ,0.09 ,11740434400.00 
366.00 ,855.00 ,1314.00 ,632.00 ,261.00 ,215.00 ,112.00 ,161.00 ,0.08 ,11760066100.00 
360.00 ,891.00 ,1329.00 ,614.00 ,251.00 ,209.00 ,110.00 ,157.00 ,0.07 ,11780189100.00 
382.00 ,949.00 ,1303.00 ,607.00 ,251.00 ,191.00 ,110.00 ,171.00 ,0.07 ,11780227400.00 
352.00 ,915.00 ,1289.00 ,525.00 ,220.00 ,191.00 ,98.00 ,154.00 ,0.05 ,11819392400.00 
299.00 ,799.00 ,1290.00 ,473.00 ,194.00 ,195.00 ,88.00 ,136.00 ,0.04 ,11840474500.00 
272.00 ,792.00 ,1239.00 ,454.00 ,185.00 ,166.00 ,81.00 ,127.00 ,0.03 ,11861472300.00 
278.00 ,722.00 ,1184.00 ,479.00 ,196.00 ,223.00 ,89.00 ,128.00 ,0.02 ,11878811100.00 
229.00 ,569.00 ,1136.00 ,455.00 ,178.00 ,222.00 ,88.00 ,105.00 ,0.01 ,11899543900.00 
269.00 ,600.00 ,1056.00 ,467.00 ,176.00 ,219.00 ,114.00 ,128.00 ,0.00 ,11919948500.00 
260.00 ,579.00 ,895.00 ,419.00 ,161.00 ,253.00 ,118.00 ,196.00 ,0.01 ,11938592600.00 
245.00 ,609.00 ,852.00 ,391.00 ,141.00 ,324.00 ,181.00 ,317.00 ,0.02 ,11959989500.00 
258.00 ,622.00 ,849.00 ,354.00 ,123.00 ,315.00 ,186.00 ,340.00 ,0.03 ,11985002800.00 
253.00 ,658.00 ,828.00 ,345.00 ,114.00 ,417.00 ,202.00 ,546.00 ,0.04 ,11998475800.00 
213.00 ,668.00 ,851.00 ,257.00 ,85.00 ,513.00 ,213.00 ,562.00 ,0.05 ,12020987400.00 
209.00 ,684.00 ,779.00 ,240.00 ,81.00 ,554.00 ,236.00 ,584.00 ,0.05 ,12020999800.00 
247.00 ,679.00 ,739.00 ,226.00 ,94.00 ,618.00 ,222.00 ,615.00 ,0.06 ,12040915700.00 
233.00 ,664.00 ,701.00 ,167.00 ,134.00 ,786.00 ,290.00 ,661.00 ,0.08 ,12079633800.00 
366.00 ,657.00 ,696.00 ,139.00 ,155.00 ,904.00 ,306.00 ,613.00 ,0.09 ,12100727300.00 
368.00 ,545.00 ,670.00 ,132.00 ,159.00 ,976.00 ,341.00 ,710.00 ,0.10 ,12121015400.00 
390.00 ,517.00 ,677.00 ,136.00 ,163.00 ,1039.00 ,556.00 ,834.00 ,0.11 ,12140265700.00 
380.00 ,468.00 ,592.00 ,128.00 ,158.00 ,1065.00 ,631.00 ,849.00 ,0.11 ,12140278900.00 
415.00 ,466.00 ,665.00 ,144.00 ,117.00 ,978.00 ,697.00 ,837.00 ,0.12 ,12161461600.00 
303.00 ,428.00 ,726.00 ,147.00 ,91.00 ,873.00 ,712.00 ,849.00 ,0.14 ,12198728900.00 
301.00 ,459.00 ,695.00 ,132.00 ,78.00 ,844.00 ,707.00 ,828.00 ,0.15 ,12218281500.00 
279.00 ,445.00 ,678.00 ,121.00 ,76.00 ,835.00 ,631.00 ,763.00 ,0.16 ,12238313100.00 
294.00 ,460.00 ,695.00 ,129.00 ,84.00 ,829.00 ,571.00 ,739.00 ,0.17 ,12260729700.00 
249.00 ,530.00 ,634.00 ,211.00 ,102.00 ,810.00 ,503.00 ,791.00 ,0.18 ,12280068200.00 
253.00 ,543.00 ,492.00 ,237.00 ,106.00 ,787.00 ,555.00 ,806.00 ,0.19 ,12299243300.00 
240.00 ,506.00 ,403.00 ,237.00 ,110.00 ,783.00 ,666.00 ,892.00 ,0.20 ,12320299100.00 
241.00 ,533.00 ,394.00 ,240.00 ,108.00 ,709.00 ,612.00 ,877.00 ,0.21 ,12340943700.00 
248.00 ,575.00 ,489.00 ,238.00 ,102.00 ,639.00 ,601.00 ,867.00 ,0.21 ,12340956900.00 
220.00 ,478.00 ,500.00 ,177.00 ,89.00 ,637.00 ,603.00 ,814.00 ,0.23 ,12379213200.00 
234.00 ,458.00 ,492.00 ,142.00 ,85.00 ,687.00 ,598.00 ,837.00 ,0.24 ,12400199300.00 
245.00 ,448.00 ,492.00 ,137.00 ,75.00 ,746.00 ,528.00 ,842.00 ,0.25 ,12419687100.00 
236.00 ,462.00 ,489.00 ,132.00 ,72.00 ,723.00 ,593.00 ,835.00 ,0.26 ,12440796500.00 
189.00 ,458.00 ,373.00 ,135.00 ,67.00 ,714.00 ,605.00 ,833.00 ,0.27 ,12460816800.00 
234.00 ,542.00 ,502.00 ,120.00 ,69.00 ,709.00 ,606.00 ,944.00 ,0.28 ,12480655500.00 
225.00 ,594.00 ,518.00 ,123.00 ,73.00 ,660.00 ,606.00 ,880.00 ,0.29 ,12500469300.00 
228.00 ,601.00 ,516.00 ,123.00 ,78.00 ,561.00 ,629.00 ,821.00 ,0.30 ,12520876600.00 
237.00 ,548.00 ,516.00 ,121.00 ,86.00 ,662.00 ,624.00 ,900.00 ,0.31 ,12538392400.00 
230.00 ,565.00 ,511.00 ,110.00 ,87.00 ,694.00 ,673.00 ,919.00 ,0.32 ,12559208700.00 
190.00 ,533.00 ,382.00 ,92.00 ,84.00 ,710.00 ,665.00 ,847.00 ,0.34 ,12599131400.00 
222.00 ,519.00 ,402.00 ,84.00 ,80.00 ,709.00 ,704.00 ,881.00 ,0.34 ,12599147100.00 
253.00 ,540.00 ,412.00 ,81.00 ,74.00 ,670.00 ,667.00 ,885.00 ,0.35 ,12620044600.00 
244.00 ,553.00 ,415.00 ,79.00 ,63.00 ,638.00 ,688.00 ,768.00 ,0.36 ,12639676300.00 
261.00 ,510.00 ,405.00 ,80.00 ,62.00 ,599.00 ,751.00 ,793.00 ,0.37 ,12659148300.00 
316.00 ,488.00 ,382.00 ,92.00 ,56.00 ,563.00 ,764.00 ,786.00 ,0.38 ,12678612800.00 
292.00 ,437.00 ,350.00 ,83.00 ,47.00 ,556.00 ,681.00 ,792.00 ,0.39 ,12698354800.00 
278.00 ,542.00 ,356.00 ,83.00 ,53.00 ,682.00 ,728.00 ,794.00 ,0.40 ,12720902200.00 
286.00 ,536.00 ,346.00 ,85.00 ,55.00 ,635.00 ,778.00 ,845.00 ,0.41 ,12742841400.00 
275.00 ,493.00 ,345.00 ,85.00 ,50.00 ,649.00 ,684.00 ,784.00 ,0.42 ,12760043400.00 
220.00 ,498.00 ,278.00 ,55.00 ,56.00 ,758.00 ,730.00 ,836.00 ,0.43 ,12781060800.00 
215.00 ,536.00 ,372.00 ,56.00 ,61.00 ,764.00 ,782.00 ,794.00 ,0.44 ,12798276200.00 
192.00 ,416.00 ,387.00 ,67.00 ,57.00 ,658.00 ,745.00 ,762.00 ,0.45 ,12818570300.00 
188.00 ,417.00 ,399.00 ,67.00 ,61.00 ,683.00 ,625.00 ,808.00 ,0.46 ,12839115600.00 
242.00 ,427.00 ,413.00 ,65.00 ,66.00 ,680.00 ,710.00 ,819.00 ,0.47 ,12858959000.00 
230.00 ,410.00 ,403.00 ,63.00 ,59.00 ,596.00 ,670.00 ,737.00 ,0.48 ,12878434800.00 
227.00 ,362.00 ,346.00 ,64.00 ,56.00 ,594.00 ,619.00 ,785.00 ,0.49 ,12899896300.00 
222.00 ,458.00 ,347.00 ,58.00 ,55.00 ,571.00 ,647.00 ,779.00 ,0.50 ,12919916000.00 
228.00 ,491.00 ,350.00 ,64.00 ,59.00 ,611.00 ,708.00 ,693.00 ,0.51 ,12940332600.00 
181.00 ,570.00 ,337.00 ,70.00 ,68.00 ,702.00 ,645.00 ,760.00 ,0.52 ,12960773600.00 
180.00 ,549.00 ,337.00 ,74.00 ,81.00 ,720.00 ,684.00 ,770.00 ,0.53 ,12981511500.00 
229.00 ,544.00 ,271.00 ,68.00 ,89.00 ,803.00 ,811.00 ,743.00 ,0.54 ,12998712700.00 
247.00 ,553.00 ,443.00 ,96.00 ,106.00 ,925.00 ,829.00 ,764.00 ,0.55 ,13019429600.00 
272.00 ,547.00 ,460.00 ,99.00 ,115.00 ,960.00 ,867.00 ,828.00 ,0.56 ,13045119800.00 
321.00 ,556.00 ,454.00 ,95.00 ,128.00 ,1134.00 ,897.00 ,859.00 ,0.57 ,13058897500.00 
350.00 ,558.00 ,454.00 ,95.00 ,129.00 ,1222.00 ,881.00 ,868.00 ,0.58 ,13079060700.00 
326.00 ,605.00 ,455.00 ,96.00 ,131.00 ,1227.00 ,901.00 ,945.00 ,0.59 ,13098602700.00 
342.00 ,591.00 ,242.00 ,65.00 ,119.00 ,1146.00 ,894.00 ,918.00 ,0.60 ,13121398800.00 
318.00 ,581.00 ,217.00 ,54.00 ,114.00 ,1176.00 ,847.00 ,946.00 ,0.60 ,13121410500.00 
268.00 ,496.00 ,392.00 ,59.00 ,97.00 ,1038.00 ,876.00 ,930.00 ,0.62 ,13160991600.00 
323.00 ,582.00 ,425.00 ,70.00 ,116.00 ,995.00 ,919.00 ,1076.00 ,0.63 ,13178430600.00 
370.00 ,587.00 ,441.00 ,71.00 ,133.00 ,1066.00 ,831.00 ,1042.00 ,0.64 ,13201293500.00 
402.00 ,586.00 ,460.00 ,87.00 ,143.00 ,1194.00 ,926.00 ,1114.00 ,0.65 ,13218414400.00 
433.00 ,645.00 ,445.00 ,97.00 ,181.00 ,1317.00 ,919.00 ,1128.00 ,0.66 ,13239630200.00 
445.00 ,693.00 ,309.00 ,98.00 ,185.00 ,1365.00 ,908.00 ,1132.00 ,0.67 ,13260351400.00 
414.00 ,656.00 ,268.00 ,100.00 ,185.00 ,1398.00 ,965.00 ,1041.00 ,0.68 ,13280527000.00 
409.00 ,682.00 ,248.00 ,106.00 ,191.00 ,1421.00 ,1000.00 ,1120.00 ,0.69 ,13300190600.00 
359.00 ,749.00 ,288.00 ,99.00 ,195.00 ,1430.00 ,947.00 ,1081.00 ,0.70 ,13319753600.00 
388.00 ,712.00 ,324.00 ,105.00 ,188.00 ,1395.00 ,1029.00 ,1037.00 ,0.71 ,13339896900.00 
426.00 ,715.00 ,382.00 ,115.00 ,202.00 ,1368.00 ,1030.00 ,1031.00 ,0.72 ,13361177900.00 
436.00 ,813.00 ,421.00 ,119.00 ,238.00 ,1439.00 ,959.00 ,1049.00 ,0.73 ,13380922800.00 
487.00 ,822.00 ,430.00 ,144.00 ,279.00 ,1414.00 ,984.00 ,1037.00 ,0.74 ,13398621500.00 
562.00 ,741.00 ,477.00 ,165.00 ,328.00 ,1458.00 ,960.00 ,1050.00 ,0.75 ,13419838800.00 
543.00 ,756.00 ,531.00 ,179.00 ,336.00 ,1411.00 ,850.00 ,1065.00 ,0.76 ,13440646800.00 
516.00 ,807.00 ,552.00 ,210.00 ,358.00 ,1479.00 ,904.00 ,1019.00 ,0.77 ,13461686600.00 
516.00 ,792.00 ,618.00 ,230.00 ,335.00 ,1434.00 ,1004.00 ,1012.00 ,0.78 ,13478572600.00 
470.00 ,869.00 ,741.00 ,234.00 ,298.00 ,1470.00 ,1029.00 ,931.00 ,0.79 ,13500024400.00 
395.00 ,953.00 ,720.00 ,229.00 ,268.00 ,1441.00 ,1059.00 ,882.00 ,0.80 ,13520717700.00 
464.00 ,1003.00 ,690.00 ,225.00 ,256.00 ,1426.00 ,1101.00 ,833.00 ,0.81 ,13540115300.00 
489.00 ,981.00 ,665.00 ,197.00 ,241.00 ,1409.00 ,1117.00 ,876.00 ,0.82 ,13559757900.00 
507.00 ,933.00 ,583.00 ,176.00 ,278.00 ,1393.00 ,1010.00 ,881.00 ,0.83 ,13579797700.00 
510.00 ,903.00 ,559.00 ,155.00 ,284.00 ,1374.00 ,1044.00 ,968.00 ,0.84 ,13600100500.00 
534.00 ,857.00 ,622.00 ,137.00 ,275.00 ,1316.00 ,1088.00 ,995.00 ,0.85 ,13620885900.00 
508.00 ,776.00 ,618.00 ,128.00 ,285.00 ,1309.00 ,1139.00 ,1069.00 ,0.86 ,13638216400.00 
593.00 ,823.00 ,598.00 ,139.00 ,355.00 ,1396.00 ,1085.00 ,1114.00 ,0.87 ,13660406600.00 
583.00 ,883.00 ,633.00 ,148.00 ,352.00 ,1356.00 ,1165.00 ,1082.00 ,0.88 ,13678262600.00 
612.00 ,831.00 ,618.00 ,150.00 ,349.00 ,1291.00 ,1097.00 ,1030.00 ,0.89 ,13698899800.00 
606.00 ,824.00 ,510.00 ,161.00 ,366.00 ,1318.00 ,1086.00 ,1063.00 ,0.90 ,13718271800.00 
663.00 ,932.00 ,487.00 ,169.00 ,378.00 ,1362.00 ,1075.00 ,1147.00 ,0.91 ,13741784500.00 
621.00 ,931.00 ,559.00 ,165.00 ,303.00 ,1159.00 ,1085.00 ,1109.00 ,0.92 ,13758413700.00 
635.00 ,924.00 ,583.00 ,161.00 ,289.00 ,1191.00 ,1013.00 ,1160.00 ,0.93 ,13781103800.00 
609.00 ,956.00 ,468.00 ,162.00 ,305.00 ,1370.00 ,990.00 ,1146.00 ,0.94 ,13804836200.00 
610.00 ,1005.00 ,514.00 ,156.00 ,269.00 ,1327.00 ,968.00 ,1134.00 ,0.94 ,13804848000.00 
504.00 ,970.00 ,583.00 ,188.00 ,240.00 ,1303.00 ,924.00 ,1011.00 ,0.96 ,13838375600.00 
458.00 ,952.00 ,535.00 ,179.00 ,233.00 ,1316.00 ,891.00 ,1056.00 ,0.97 ,13859296300.00 
423.00 ,900.00 ,503.00 ,168.00 ,213.00 ,1347.00 ,881.00 ,1040.00 ,0.98 ,13879791900.00 
427.00 ,914.00 ,561.00 ,164.00 ,199.00 ,1328.00 ,943.00 ,1092.00 ,0.99 ,13900882500.00 
406.00 ,844.00 ,522.00 ,180.00 ,208.00 ,1339.00 ,889.00 ,1036.00 ,0.98 ,13921166300.00 
403.00 ,822.00 ,460.00 ,161.00 ,207.00 ,1421.00 ,877.00 ,969.00 ,0.97 ,13940526500.00 
368.00 ,787.00 ,455.00 ,163.00 ,200.00 ,1454.00 ,867.00 ,903.00 ,0.96 ,13965029500.00 
356.00 ,813.00 ,403.00 ,170.00 ,208.00 ,1487.00 ,916.00 ,862.00 ,0.95 ,13978671900.00 
310.00 ,746.00 ,336.00 ,171.00 ,191.00 ,1336.00 ,795.00 ,703.00 ,0.94 ,13998456500.00 
278.00 ,709.00 ,472.00 ,200.00 ,176.00 ,1260.00 ,739.00 ,651.00 ,0.93 ,14021204300.00 
272.00 ,655.00 ,611.00 ,187.00 ,149.00 ,1094.00 ,692.00 ,629.00 ,0.92 ,14038599500.00 
258.00 ,625.00 ,697.00 ,197.00 ,163.00 ,1098.00 ,693.00 ,573.00 ,0.91 ,14059017700.00 
240.00 ,578.00 ,709.00 ,191.00 ,151.00 ,1045.00 ,613.00 ,567.00 ,0.90 ,14079413700.00 
226.00 ,518.00 ,700.00 ,222.00 ,149.00 ,993.00 ,587.00 ,534.00 ,0.89 ,14099973500.00 
251.00 ,495.00 ,734.00 ,202.00 ,145.00 ,1013.00 ,564.00 ,528.00 ,0.88 ,14118640300.00 
233.00 ,482.00 ,665.00 ,217.00 ,143.00 ,968.00 ,510.00 ,509.00 ,0.87 ,14139425800.00 
217.00 ,423.00 ,694.00 ,220.00 ,119.00 ,949.00 ,418.00 ,440.00 ,0.86 ,14159475100.00 
241.00 ,343.00 ,706.00 ,227.00 ,98.00 ,842.00 ,296.00 ,246.00 ,0.85 ,14178816500.00 
236.00 ,426.00 ,793.00 ,316.00 ,105.00 ,858.00 ,273.00 ,207.00 ,0.84 ,14198359500.00 
198.00 ,428.00 ,727.00 ,397.00 ,116.00 ,844.00 ,242.00 ,177.00 ,0.83 ,14218455500.00 
201.00 ,403.00 ,757.00 ,421.00 ,120.00 ,858.00 ,333.00 ,162.00 ,0.81 ,14259076800.00 
199.00 ,451.00 ,762.00 ,418.00 ,114.00 ,745.00 ,295.00 ,155.00 ,0.81 ,14259123700.00 
173.00 ,457.00 ,805.00 ,426.00 ,112.00 ,638.00 ,287.00 ,92.00 ,0.80 ,14281976300.00 
156.00 ,425.00 ,731.00 ,361.00 ,103.00 ,564.00 ,296.00 ,87.00 ,0.79 ,14299461400.00 
158.00 ,423.00 ,705.00 ,287.00 ,110.00 ,687.00 ,309.00 ,81.00 ,0.78 ,14320075000.00 
155.00 ,425.00 ,712.00 ,250.00 ,108.00 ,676.00 ,196.00 ,76.00 ,0.77 ,14340398100.00 
172.00 ,381.00 ,644.00 ,243.00 ,107.00 ,616.00 ,188.00 ,67.00 ,0.76 ,14360435500.00 
175.00 ,406.00 ,660.00 ,262.00 ,110.00 ,628.00 ,173.00 ,58.00 ,0.75 ,14380428200.00 
179.00 ,409.00 ,831.00 ,263.00 ,105.00 ,719.00 ,182.00 ,64.00 ,0.74 ,14399733000.00 
179.00 ,391.00 ,881.00 ,241.00 ,76.00 ,636.00 ,162.00 ,62.00 ,0.73 ,14421477700.00 
183.00 ,391.00 ,881.00 ,244.00 ,71.00 ,595.00 ,146.00 ,54.00 ,0.72 ,14438322400.00 
164.00 ,384.00 ,900.00 ,268.00 ,66.00 ,597.00 ,139.00 ,53.00 ,0.71 ,14461159900.00 
143.00 ,429.00 ,942.00 ,266.00 ,71.00 ,607.00 ,144.00 ,61.00 ,0.70 ,14478685700.00 
202.00 ,386.00 ,879.00 ,245.00 ,77.00 ,580.00 ,176.00 ,69.00 ,0.69 ,14499840600.00 
212.00 ,390.00 ,842.00 ,227.00 ,82.00 ,647.00 ,195.00 ,70.00 ,0.67 ,14538569200.00 
205.00 ,396.00 ,840.00 ,206.00 ,80.00 ,632.00 ,192.00 ,69.00 ,0.67 ,14538619700.00 
208.00 ,391.00 ,829.00 ,226.00 ,91.00 ,648.00 ,194.00 ,73.00 ,0.66 ,14561526300.00 
188.00 ,285.00 ,770.00 ,183.00 ,86.00 ,621.00 ,194.00 ,69.00 ,0.65 ,14580921400.00 
111.00 ,249.00 ,668.00 ,188.00 ,81.00 ,557.00 ,154.00 ,50.00 ,0.64 ,14600901800.00 
87.00 ,270.00 ,732.00 ,231.00 ,78.00 ,394.00 ,118.00 ,49.00 ,0.63 ,14620266100.00 
108.00 ,243.00 ,651.00 ,231.00 ,78.00 ,394.00 ,118.00 ,48.00 ,0.62 ,14640391200.00 
107.00 ,243.00 ,634.00 ,192.00 ,67.00 ,370.00 ,111.00 ,43.00 ,0.61 ,14660005200.00 
156.00 ,283.00 ,604.00 ,217.00 ,73.00 ,389.00 ,106.00 ,54.00 ,0.60 ,14679501000.00 
159.00 ,296.00 ,753.00 ,211.00 ,68.00 ,430.00 ,88.00 ,55.00 ,0.59 ,14700213500.00 
162.00 ,293.00 ,717.00 ,175.00 ,72.00 ,537.00 ,92.00 ,61.00 ,0.58 ,14726127900.00 
149.00 ,298.00 ,744.00 ,168.00 ,75.00 ,547.00 ,93.00 ,61.00 ,0.58 ,14726140000.00 
151.00 ,311.00 ,740.00 ,157.00 ,80.00 ,544.00 ,98.00 ,65.00 ,0.56 ,14761181200.00 
143.00 ,322.00 ,865.00 ,137.00 ,85.00 ,539.00 ,97.00 ,66.00 ,0.55 ,14778367700.00 
153.00 ,328.00 ,748.00 ,147.00 ,87.00 ,489.00 ,99.00 ,68.00 ,0.54 ,14798946800.00 
150.00 ,319.00 ,722.00 ,146.00 ,86.00 ,439.00 ,108.00 ,62.00 ,0.53 ,14818559900.00 
151.00 ,324.00 ,758.00 ,140.00 ,86.00 ,421.00 ,121.00 ,63.00 ,0.52 ,14838367000.00 
144.00 ,363.00 ,823.00 ,140.00 ,82.00 ,409.00 ,120.00 ,59.00 ,0.51 ,14858299600.00 
113.00 ,345.00 ,787.00 ,160.00 ,71.00 ,403.00 ,119.00 ,55.00 ,0.50 ,14880089300.00 
98.00 ,333.00 ,857.00 ,170.00 ,73.00 ,387.00 ,125.00 ,284.00 ,0.49 ,14900321000.00 
102.00 ,346.00 ,952.00 ,172.00 ,68.00 ,227.00 ,120.00 ,310.00 ,0.48 ,14920817700.00 
100.00 ,355.00 ,963.00 ,178.00 ,74.00 ,248.00 ,112.00 ,323.00 ,0.47 ,14938371100.00 
110.00 ,330.00 ,909.00 ,206.00 ,78.00 ,244.00 ,109.00 ,341.00 ,0.46 ,14958952400.00 
99.00 ,320.00 ,816.00 ,178.00 ,74.00 ,224.00 ,108.00 ,343.00 ,0.45 ,14979695500.00 
113.00 ,332.00 ,780.00 ,183.00 ,75.00 ,248.00 ,100.00 ,220.00 ,0.44 ,15000323200.00 
111.00 ,319.00 ,735.00 ,187.00 ,73.00 ,253.00 ,90.00 ,186.00 ,0.43 ,15021027400.00 
115.00 ,349.00 ,810.00 ,206.00 ,76.00 ,296.00 ,102.00 ,171.00 ,0.41 ,15058687800.00 
119.00 ,409.00 ,865.00 ,181.00 ,71.00 ,311.00 ,108.00 ,137.00 ,0.41 ,15058734800.00 
133.00 ,475.00 ,935.00 ,186.00 ,77.00 ,315.00 ,112.00 ,129.00 ,0.40 ,15081412800.00 
131.00 ,486.00 ,1024.00 ,194.00 ,74.00 ,294.00 ,106.00 ,93.00 ,0.39 ,15101044100.00 
138.00 ,542.00 ,1083.00 ,213.00 ,83.00 ,285.00 ,102.00 ,90.00 ,0.38 ,15120544100.00 
149.00 ,534.00 ,1030.00 ,242.00 ,85.00 ,223.00 ,86.00 ,80.00 ,0.37 ,15141371100.00 
149.00 ,477.00 ,1103.00 ,246.00 ,91.00 ,198.00 ,82.00 ,78.00 ,0.36 ,15158808200.00 
159.00 ,547.00 ,1142.00 ,263.00 ,97.00 ,213.00 ,85.00 ,87.00 ,0.35 ,15180674200.00 
199.00 ,649.00 ,1089.00 ,301.00 ,112.00 ,212.00 ,82.00 ,101.00 ,0.34 ,15201098000.00 
214.00 ,707.00 ,1046.00 ,320.00 ,119.00 ,188.00 ,80.00 ,103.00 ,0.33 ,15218185400.00 
221.00 ,777.00 ,1036.00 ,319.00 ,117.00 ,166.00 ,77.00 ,104.00 ,0.32 ,15238749900.00 
220.00 ,797.00 ,1027.00 ,325.00 ,119.00 ,168.00 ,72.00 ,103.00 ,0.31 ,15258443300.00 
221.00 ,755.00 ,976.00 ,334.00 ,118.00 ,146.00 ,67.00 ,97.00 ,0.30 ,15278508900.00 
196.00 ,693.00 ,1016.00 ,373.00 ,123.00 ,145.00 ,69.00 ,85.00 ,0.29 ,15298151500.00 
232.00 ,632.00 ,995.00 ,381.00 ,144.00 ,178.00 ,79.00 ,101.00 ,0.28 ,15320890500.00 
236.00 ,686.00 ,1106.00 ,443.00 ,162.00 ,167.00 ,81.00 ,102.00 ,0.27 ,15339017400.00 
278.00 ,818.00 ,1047.00 ,501.00 ,177.00 ,175.00 ,94.00 ,116.00 ,0.26 ,15359337400.00 
281.00 ,817.00 ,1122.00 ,550.00 ,188.00 ,223.00 ,93.00 ,121.00 ,0.25 ,15380116200.00 
284.00 ,822.00 ,1068.00 ,516.00 ,186.00 ,220.00 ,90.00 ,249.00 ,0.23 ,15418517200.00 
284.00 ,858.00 ,1079.00 ,544.00 ,194.00 ,205.00 ,119.00 ,318.00 ,0.23 ,15418532700.00 
333.00 ,844.00 ,996.00 ,662.00 ,251.00 ,260.00 ,134.00 ,339.00 ,0.22 ,15439349500.00 
352.00 ,865.00 ,962.00 ,750.00 ,292.00 ,257.00 ,144.00 ,343.00 ,0.21 ,15460330800.00 
370.00 ,890.00 ,901.00 ,745.00 ,294.00 ,223.00 ,147.00 ,350.00 ,0.20 ,15485365000.00 
422.00 ,1055.00 ,961.00 ,809.00 ,316.00 ,236.00 ,156.00 ,293.00 ,0.19 ,15498967500.00 
433.00 ,1141.00 ,1012.00 ,801.00 ,309.00 ,233.00 ,135.00 ,228.00 ,0.17 ,15538349600.00 
401.00 ,1117.00 ,1020.00 ,675.00 ,261.00 ,176.00 ,121.00 ,263.00 ,0.17 ,15538363600.00 
410.00 ,1161.00 ,1018.00 ,638.00 ,228.00 ,202.00 ,111.00 ,266.00 ,0.16 ,15560981600.00 
455.00 ,1233.00 ,1005.00 ,716.00 ,235.00 ,221.00 ,116.00 ,278.00 ,0.15 ,15578470300.00 
406.00 ,1103.00 ,990.00 ,686.00 ,206.00 ,220.00 ,104.00 ,265.00 ,0.14 ,15599023900.00 
419.00 ,1049.00 ,895.00 ,735.00 ,246.00 ,232.00 ,113.00 ,277.00 ,0.13 ,15619439100.00 
431.00 ,1139.00 ,980.00 ,749.00 ,251.00 ,237.00 ,114.00 ,217.00 ,0.12 ,15638153300.00 
423.00 ,1046.00 ,1005.00 ,700.00 ,240.00 ,216.00 ,112.00 ,214.00 ,0.11 ,15659514600.00 
363.00 ,955.00 ,1120.00 ,607.00 ,229.00 ,198.00 ,101.00 ,184.00 ,0.10 ,15680622900.00 
376.00 ,976.00 ,1113.00 ,618.00 ,260.00 ,208.00 ,107.00 ,182.00 ,0.09 ,15698405000.00 
339.00 ,1001.00 ,1195.00 ,561.00 ,218.00 ,192.00 ,90.00 ,144.00 ,0.08 ,15721316900.00 
325.00 ,894.00 ,1131.00 ,544.00 ,216.00 ,186.00 ,89.00 ,145.00 ,0.06 ,15760857200.00 
291.00 ,880.00 ,1147.00 ,558.00 ,219.00 ,184.00 ,84.00 ,136.00 ,0.06 ,15760871200.00 
287.00 ,869.00 ,965.00 ,582.00 ,230.00 ,173.00 ,102.00 ,146.00 ,0.05 ,15780385700.00 
282.00 ,828.00 ,927.00 ,550.00 ,208.00 ,153.00 ,97.00 ,137.00 ,0.04 ,15799060600.00 
265.00 ,746.00 ,934.00 ,526.00 ,209.00 ,154.00 ,97.00 ,129.00 ,0.02 ,15840740800.00 
250.00 ,688.00 ,918.00 ,512.00 ,198.00 ,151.00 ,94.00 ,122.00 ,0.02 ,15840784200.00 
239.00 ,716.00 ,910.00 ,443.00 ,186.00 ,179.00 ,94.00 ,111.00 ,0.01 ,15861359500.00 
246.00 ,719.00 ,975.00 ,380.00 ,165.00 ,184.00 ,86.00 ,104.00 ,0.01 ,15898856700.00 
234.00 ,723.00 ,1060.00 ,334.00 ,142.00 ,213.00 ,88.00 ,119.00 ,0.01 ,15898871800.00 
222.00 ,654.00 ,985.00 ,302.00 ,121.00 ,233.00 ,111.00 ,229.00 ,0.02 ,15918375500.00 
214.00 ,658.00 ,947.00 ,289.00 ,116.00 ,358.00 ,196.00 ,253.00 ,0.04 ,15959414900.00 
225.00 ,615.00 ,932.00 ,283.00 ,111.00 ,607.00 ,229.00 ,322.00 ,0.05 ,15979084200.00 
200.00 ,578.00 ,870.00 ,265.00 ,100.00 ,659.00 ,256.00 ,393.00 ,0.05 ,15979122800.00 
188.00 ,584.00 ,804.00 ,218.00 ,89.00 ,705.00 ,261.00 ,411.00 ,0.06 ,15998475600.00 
192.00 ,579.00 ,861.00 ,235.00 ,93.00 ,719.00 ,292.00 ,425.00 ,0.08 ,16039117200.00 
194.00 ,568.00 ,829.00 ,238.00 ,99.00 ,804.00 ,304.00 ,603.00 ,0.08 ,16039157400.00 
167.00 ,495.00 ,797.00 ,225.00 ,89.00 ,707.00 ,387.00 ,626.00 ,0.09 ,16059691100.00 
179.00 ,484.00 ,821.00 ,201.00 ,98.00 ,715.00 ,404.00 ,684.00 ,0.10 ,16080637700.00 
181.00 ,465.00 ,770.00 ,198.00 ,93.00 ,682.00 ,472.00 ,745.00 ,0.11 ,16099638100.00 
173.00 ,451.00 ,693.00 ,178.00 ,91.00 ,735.00 ,482.00 ,757.00 ,0.13 ,16139448400.00 
180.00 ,461.00 ,685.00 ,158.00 ,79.00 ,612.00 ,471.00 ,687.00 ,0.13 ,16139460900.00 
194.00 ,424.00 ,685.00 ,133.00 ,75.00 ,539.00 ,433.00 ,707.00 ,0.14 ,16159431000.00 
220.00 ,474.00 ,730.00 ,143.00 ,87.00 ,559.00 ,603.00 ,758.00 ,0.15 ,16179058000.00 
221.00 ,451.00 ,719.00 ,134.00 ,87.00 ,561.00 ,728.00 ,757.00 ,0.16 ,16198811100.00 
241.00 ,469.00 ,652.00 ,109.00 ,79.00 ,517.00 ,735.00 ,759.00 ,0.18 ,16243992900.00 
239.00 ,440.00 ,663.00 ,105.00 ,104.00 ,623.00 ,867.00 ,809.00 ,0.18 ,16244007000.00 
249.00 ,593.00 ,725.00 ,136.00 ,114.00 ,640.00 ,866.00 ,771.00 ,0.19 ,16259184200.00 
217.00 ,576.00 ,662.00 ,122.00 ,99.00 ,571.00 ,766.00 ,779.00 ,0.20 ,16280053500.00 
223.00 ,571.00 ,632.00 ,136.00 ,119.00 ,699.00 ,654.00 ,902.00 ,0.22 ,16319270500.00 
209.00 ,582.00 ,648.00 ,141.00 ,129.00 ,804.00 ,790.00 ,908.00 ,0.22 ,16319282900.00 
214.00 ,578.00 ,611.00 ,137.00 ,110.00 ,715.00 ,657.00 ,886.00 ,0.23 ,16340100100.00 
234.00 ,538.00 ,583.00 ,167.00 ,106.00 ,687.00 ,650.00 ,877.00 ,0.24 ,16359852100.00 
237.00 ,520.00 ,671.00 ,170.00 ,104.00 ,680.00 ,631.00 ,813.00 ,0.26 ,16400639000.00 
223.00 ,517.00 ,661.00 ,158.00 ,84.00 ,575.00 ,623.00 ,644.00 ,0.26 ,16400653200.00 
226.00 ,492.00 ,636.00 ,158.00 ,79.00 ,389.00 ,548.00 ,672.00 ,0.27 ,16420312100.00 
220.00 ,501.00 ,632.00 ,161.00 ,80.00 ,388.00 ,566.00 ,583.00 ,0.28 ,16440095300.00 
161.00 ,395.00 ,635.00 ,103.00 ,70.00 ,400.00 ,579.00 ,577.00 ,0.29 ,16460898000.00 
159.00 ,333.00 ,536.00 ,100.00 ,68.00 ,402.00 ,569.00 ,488.00 ,0.30 ,16481544200.00 
164.00 ,303.00 ,566.00 ,108.00 ,67.00 ,324.00 ,523.00 ,552.00 ,0.31 ,16499099900.00 
151.00 ,283.00 ,565.00 ,101.00 ,52.00 ,424.00 ,468.00 ,572.00 ,0.32 ,16519656300.00 
151.00 ,252.00 ,566.00 ,96.00 ,53.00 ,424.00 ,516.00 ,658.00 ,0.33 ,16545225700.00 
142.00 ,238.00 ,475.00 ,97.00 ,58.00 ,415.00 ,533.00 ,702.00 ,0.34 ,16558781600.00 
149.00 ,423.00 ,443.00 ,121.00 ,68.00 ,417.00 ,586.00 ,716.00 ,0.35 ,16578348400.00 
179.00 ,473.00 ,404.00 ,119.00 ,68.00 ,490.00 ,669.00 ,712.00 ,0.37 ,16620225700.00 
182.00 ,491.00 ,390.00 ,122.00 ,82.00 ,545.00 ,779.00 ,751.00 ,0.37 ,16620239100.00 
181.00 ,502.00 ,386.00 ,122.00 ,82.00 ,553.00 ,801.00 ,858.00 ,0.38 ,16639897900.00 
194.00 ,501.00 ,307.00 ,109.00 ,81.00 ,636.00 ,807.00 ,959.00 ,0.39 ,16659371800.00 
202.00 ,440.00 ,322.00 ,92.00 ,74.00 ,661.00 ,786.00 ,960.00 ,0.40 ,16680179100.00 
201.00 ,413.00 ,330.00 ,83.00 ,72.00 ,643.00 ,821.00 ,943.00 ,0.41 ,16699084200.00 
194.00 ,408.00 ,336.00 ,80.00 ,59.00 ,564.00 ,732.00 ,939.00 ,0.42 ,16719786900.00 
207.00 ,421.00 ,339.00 ,79.00 ,59.00 ,630.00 ,737.00 ,866.00 ,0.43 ,16740651900.00 
214.00 ,419.00 ,334.00 ,78.00 ,58.00 ,577.00 ,797.00 ,814.00 ,0.44 ,16761285900.00 
212.00 ,331.00 ,360.00 ,62.00 ,59.00 ,549.00 ,792.00 ,832.00 ,0.45 ,16778297400.00 
185.00 ,294.00 ,400.00 ,80.00 ,63.00 ,504.00 ,692.00 ,861.00 ,0.46 ,16801247500.00 
182.00 ,282.00 ,402.00 ,79.00 ,60.00 ,496.00 ,738.00 ,886.00 ,0.48 ,16840164900.00 
172.00 ,264.00 ,400.00 ,79.00 ,69.00 ,514.00 ,697.00 ,896.00 ,0.48 ,16840177500.00 
171.00 ,348.00 ,404.00 ,81.00 ,67.00 ,510.00 ,596.00 ,843.00 ,0.49 ,16858425000.00 
152.00 ,389.00 ,321.00 ,77.00 ,65.00 ,520.00 ,629.00 ,849.00 ,0.50 ,16881285700.00 
165.00 ,409.00 ,294.00 ,59.00 ,65.00 ,554.00 ,658.00 ,806.00 ,0.51 ,16898780400.00 
180.00 ,409.00 ,311.00 ,67.00 ,71.00 ,599.00 ,628.00 ,681.00 ,0.52 ,16919374000.00 
179.00 ,414.00 ,320.00 ,68.00 ,63.00 ,537.00 ,601.00 ,577.00 ,0.53 ,16940348800.00 
194.00 ,455.00 ,308.00 ,66.00 ,69.00 ,583.00 ,720.00 ,718.00 ,0.54 ,16961220900.00 
206.00 ,442.00 ,292.00 ,63.00 ,79.00 ,679.00 ,819.00 ,778.00 ,0.55 ,16978174100.00 
214.00 ,452.00 ,246.00 ,67.00 ,89.00 ,741.00 ,870.00 ,833.00 ,0.56 ,16999689000.00 
229.00 ,530.00 ,423.00 ,91.00 ,100.00 ,750.00 ,906.00 ,950.00 ,0.57 ,17019656600.00 
300.00 ,674.00 ,459.00 ,104.00 ,103.00 ,792.00 ,921.00 ,991.00 ,0.58 ,17039311600.00 
314.00 ,601.00 ,462.00 ,103.00 ,106.00 ,880.00 ,879.00 ,900.00 ,0.59 ,17058791200.00 
315.00 ,591.00 ,459.00 ,102.00 ,102.00 ,905.00 ,825.00 ,907.00 ,0.60 ,17078395000.00 
321.00 ,616.00 ,455.00 ,99.00 ,92.00 ,906.00 ,818.00 ,858.00 ,0.61 ,17101231500.00 
307.00 ,556.00 ,334.00 ,79.00 ,83.00 ,888.00 ,708.00 ,818.00 ,0.62 ,17121346900.00 
248.00 ,490.00 ,313.00 ,77.00 ,90.00 ,932.00 ,761.00 ,838.00 ,0.63 ,17138717300.00 
208.00 ,498.00 ,343.00 ,80.00 ,87.00 ,966.00 ,752.00 ,890.00 ,0.64 ,17160966000.00 
229.00 ,598.00 ,347.00 ,86.00 ,101.00 ,945.00 ,816.00 ,859.00 ,0.65 ,17181632100.00 
230.00 ,659.00 ,338.00 ,89.00 ,107.00 ,939.00 ,878.00 ,942.00 ,0.66 ,17198852400.00 
287.00 ,712.00 ,317.00 ,93.00 ,113.00 ,1089.00 ,956.00 ,912.00 ,0.67 ,17219316600.00 
290.00 ,652.00 ,334.00 ,85.00 ,135.00 ,1184.00 ,1026.00 ,899.00 ,0.68 ,17238743500.00 
338.00 ,696.00 ,399.00 ,98.00 ,143.00 ,1142.00 ,1064.00 ,885.00 ,0.70 ,17278556700.00 
369.00 ,643.00 ,408.00 ,100.00 ,148.00 ,1240.00 ,1085.00 ,948.00 ,0.70 ,17278571200.00 
401.00 ,634.00 ,413.00 ,101.00 ,163.00 ,1407.00 ,1040.00 ,942.00 ,0.71 ,17303371000.00 
412.00 ,604.00 ,442.00 ,107.00 ,193.00 ,1412.00 ,1055.00 ,961.00 ,0.72 ,17320069800.00 
472.00 ,634.00 ,514.00 ,130.00 ,197.00 ,1390.00 ,949.00 ,1011.00 ,0.73 ,17340307800.00 
464.00 ,710.00 ,485.00 ,125.00 ,202.00 ,1476.00 ,929.00 ,1084.00 ,0.74 ,17360781400.00 
491.00 ,728.00 ,547.00 ,134.00 ,220.00 ,1479.00 ,904.00 ,1045.00 ,0.75 ,17381508900.00 
526.00 ,671.00 ,560.00 ,144.00 ,242.00 ,1470.00 ,915.00 ,1073.00 ,0.76 ,17399071400.00 
540.00 ,814.00 ,566.00 ,148.00 ,252.00 ,1427.00 ,880.00 ,1140.00 ,0.78 ,17439948200.00 
487.00 ,852.00 ,506.00 ,131.00 ,254.00 ,1444.00 ,917.00 ,1196.00 ,0.78 ,17439993700.00 
537.00 ,804.00 ,549.00 ,154.00 ,293.00 ,1428.00 ,889.00 ,1207.00 ,0.79 ,17458218300.00 
525.00 ,866.00 ,588.00 ,149.00 ,294.00 ,1339.00 ,917.00 ,1247.00 ,0.81 ,17500093800.00 
558.00 ,891.00 ,646.00 ,147.00 ,275.00 ,1297.00 ,947.00 ,1195.00 ,0.81 ,17500105900.00 
637.00 ,819.00 ,622.00 ,153.00 ,281.00 ,1343.00 ,966.00 ,1251.00 ,0.82 ,17519365200.00 
687.00 ,883.00 ,620.00 ,172.00 ,303.00 ,1407.00 ,1027.00 ,1242.00 ,0.83 ,17539336400.00 
715.00 ,962.00 ,666.00 ,179.00 ,290.00 ,1365.00 ,1104.00 ,1169.00 ,0.84 ,17564306600.00 
719.00 ,918.00 ,709.00 ,205.00 ,313.00 ,1473.00 ,1101.00 ,1131.00 ,0.85 ,17578967800.00 
679.00 ,1009.00 ,685.00 ,213.00 ,338.00 ,1483.00 ,1155.00 ,1178.00 ,0.86 ,17600148300.00 
606.00 ,1027.00 ,673.00 ,205.00 ,327.00 ,1436.00 ,1160.00 ,1027.00 ,0.87 ,17619069200.00 
648.00 ,1076.00 ,682.00 ,206.00 ,337.00 ,1357.00 ,1098.00 ,937.00 ,0.88 ,17639435800.00 
655.00 ,1000.00 ,668.00 ,202.00 ,334.00 ,1340.00 ,1091.00 ,951.00 ,0.90 ,17680084200.00 
691.00 ,1081.00 ,570.00 ,183.00 ,301.00 ,1266.00 ,1009.00 ,931.00 ,0.90 ,17680130300.00 
728.00 ,1061.00 ,526.00 ,169.00 ,278.00 ,1257.00 ,960.00 ,841.00 ,0.91 ,17699483000.00 
719.00 ,1064.00 ,605.00 ,170.00 ,276.00 ,1397.00 ,1041.00 ,861.00 ,0.92 ,17719295900.00 
655.00 ,994.00 ,616.00 ,152.00 ,237.00 ,1422.00 ,1080.00 ,874.00 ,0.93 ,17739144800.00 
666.00 ,1010.00 ,534.00 ,125.00 ,210.00 ,1432.00 ,1069.00 ,908.00 ,0.94 ,17760544400.00 
607.00 ,981.00 ,557.00 ,121.00 ,237.00 ,1460.00 ,1069.00 ,939.00 ,0.95 ,17778362800.00 
546.00 ,950.00 ,600.00 ,128.00 ,235.00 ,1391.00 ,1015.00 ,963.00 ,0.96 ,17798786200.00 
536.00 ,970.00 ,594.00 ,119.00 ,209.00 ,1207.00 ,862.00 ,892.00 ,0.97 ,17818981800.00 
556.00 ,944.00 ,579.00 ,121.00 ,196.00 ,1117.00 ,783.00 ,849.00 ,0.98 ,17840351000.00 
437.00 ,947.00 ,590.00 ,113.00 ,198.00 ,1207.00 ,657.00 ,817.00 ,0.99 ,17861443800.00 
429.00 ,940.00 ,561.00 ,100.00 ,157.00 ,1147.00 ,623.00 ,764.00 ,0.98 ,17881490900.00 
417.00 ,873.00 ,598.00 ,106.00 ,135.00 ,1072.00 ,522.00 ,690.00 ,0.96 ,17919143900.00 
376.00 ,750.00 ,657.00 ,121.00 ,139.00 ,1039.00 ,483.00 ,684.00 ,0.95 ,17938645900.00 
354.00 ,688.00 ,662.00 ,126.00 ,140.00 ,1031.00 ,403.00 ,675.00 ,0.94 ,17958221500.00 
339.00 ,663.00 ,672.00 ,127.00 ,126.00 ,885.00 ,454.00 ,584.00 ,0.93 ,17980782200.00 
325.00 ,589.00 ,643.00 ,125.00 ,122.00 ,844.00 ,531.00 ,560.00 ,0.92 ,18001691200.00 
302.00 ,647.00 ,589.00 ,106.00 ,118.00 ,861.00 ,533.00 ,546.00 ,0.92 ,18001703200.00 
303.00 ,655.00 ,607.00 ,123.00 ,113.00 ,824.00 ,510.00 ,547.00 ,0.90 ,18040307800.00 
249.00 ,629.00 ,585.00 ,118.00 ,97.00 ,735.00 ,499.00 ,459.00 ,0.89 ,18065718900.00 
232.00 ,559.00 ,555.00 ,123.00 ,95.00 ,681.00 ,465.00 ,420.00 ,0.89 ,18065731300.00 
197.00 ,483.00 ,627.00 ,128.00 ,86.00 ,670.00 ,315.00 ,330.00 ,0.88 ,18079331300.00 
177.00 ,421.00 ,748.00 ,191.00 ,100.00 ,615.00 ,280.00 ,308.00 ,0.86 ,18119424400.00 
231.00 ,463.00 ,738.00 ,188.00 ,96.00 ,596.00 ,263.00 ,278.00 ,0.86 ,18119439000.00 
240.00 ,483.00 ,748.00 ,189.00 ,94.00 ,633.00 ,254.00 ,247.00 ,0.85 ,18139133500.00 
251.00 ,488.00 ,815.00 ,186.00 ,100.00 ,680.00 ,183.00 ,161.00 ,0.83 ,18178582600.00 
252.00 ,473.00 ,809.00 ,187.00 ,97.00 ,635.00 ,172.00 ,145.00 ,0.83 ,18178626800.00 
287.00 ,447.00 ,822.00 ,142.00 ,80.00 ,630.00 ,167.00 ,118.00 ,0.82 ,18200978800.00 
240.00 ,454.00 ,910.00 ,161.00 ,86.00 ,637.00 ,171.00 ,105.00 ,0.80 ,18240298500.00 
196.00 ,433.00 ,923.00 ,166.00 ,90.00 ,676.00 ,196.00 ,91.00 ,0.80 ,18240313600.00 
195.00 ,455.00 ,879.00 ,169.00 ,71.00 ,564.00 ,165.00 ,60.00 ,0.79 ,18260403100.00 
198.00 ,474.00 ,932.00 ,172.00 ,71.00 ,514.00 ,159.00 ,63.00 ,0.78 ,18281289300.00 
184.00 ,494.00 ,952.00 ,186.00 ,73.00 ,498.00 ,154.00 ,63.00 ,0.77 ,18299357000.00 
187.00 ,444.00 ,854.00 ,186.00 ,69.00 ,479.00 ,148.00 ,60.00 ,0.76 ,18319913000.00 
193.00 ,419.00 ,894.00 ,195.00 ,72.00 ,450.00 ,111.00 ,69.00 ,0.74 ,18359481000.00 
173.00 ,378.00 ,900.00 ,194.00 ,81.00 ,469.00 ,123.00 ,73.00 ,0.74 ,18359493500.00 
173.00 ,362.00 ,854.00 ,196.00 ,82.00 ,502.00 ,120.00 ,70.00 ,0.73 ,18380501200.00 
136.00 ,324.00 ,725.00 ,178.00 ,81.00 ,502.00 ,118.00 ,69.00 ,0.71 ,18420026900.00 
132.00 ,312.00 ,789.00 ,160.00 ,83.00 ,504.00 ,114.00 ,70.00 ,0.71 ,18420040200.00 
118.00 ,330.00 ,714.00 ,142.00 ,74.00 ,347.00 ,97.00 ,59.00 ,0.70 ,18440760200.00 
118.00 ,355.00 ,706.00 ,146.00 ,79.00 ,352.00 ,70.00 ,53.00 ,0.68 ,18479796500.00 
115.00 ,347.00 ,747.00 ,161.00 ,84.00 ,339.00 ,69.00 ,52.00 ,0.68 ,18479809000.00 
181.00 ,322.00 ,797.00 ,158.00 ,84.00 ,340.00 ,70.00 ,52.00 ,0.67 ,18500576700.00 
185.00 ,306.00 ,684.00 ,136.00 ,78.00 ,345.00 ,72.00 ,52.00 ,0.65 ,18540810000.00 
204.00 ,292.00 ,730.00 ,141.00 ,74.00 ,380.00 ,78.00 ,56.00 ,0.65 ,18540822300.00 
209.00 ,278.00 ,719.00 ,144.00 ,73.00 ,381.00 ,111.00 ,68.00 ,0.64 ,18560553100.00 
215.00 ,268.00 ,698.00 ,129.00 ,67.00 ,361.00 ,117.00 ,69.00 ,0.62 ,18600151100.00 
163.00 ,338.00 ,689.00 ,154.00 ,71.00 ,355.00 ,121.00 ,75.00 ,0.62 ,18600166800.00 
209.00 ,461.00 ,810.00 ,165.00 ,74.00 ,342.00 ,122.00 ,78.00 ,0.61 ,18619833800.00 
192.00 ,465.00 ,799.00 ,156.00 ,74.00 ,295.00 ,116.00 ,75.00 ,0.59 ,18659898600.00 
217.00 ,479.00 ,931.00 ,150.00 ,60.00 ,188.00 ,80.00 ,59.00 ,0.59 ,18659912500.00 
213.00 ,485.00 ,925.00 ,139.00 ,60.00 ,172.00 ,71.00 ,57.00 ,0.57 ,18699451200.00 
213.00 ,437.00 ,900.00 ,120.00 ,49.00 ,187.00 ,65.00 ,51.00 ,0.56 ,18720007400.00 
186.00 ,330.00 ,851.00 ,107.00 ,53.00 ,274.00 ,80.00 ,54.00 ,0.56 ,18720046100.00 
216.00 ,419.00 ,878.00 ,150.00 ,66.00 ,338.00 ,77.00 ,60.00 ,0.55 ,18740757200.00 
234.00 ,480.00 ,758.00 ,162.00 ,71.00 ,332.00 ,78.00 ,72.00 ,0.54 ,18761081500.00 
231.00 ,479.00 ,689.00 ,164.00 ,70.00 ,340.00 ,78.00 ,71.00 ,0.53 ,18780740700.00 
238.00 ,504.00 ,702.00 ,173.00 ,77.00 ,522.00 ,99.00 ,87.00 ,0.52 ,18800895100.00 
231.00 ,530.00 ,653.00 ,177.00 ,75.00 ,502.00 ,88.00 ,159.00 ,0.51 ,18822225800.00 
263.00 ,521.00 ,725.00 ,167.00 ,73.00 ,466.00 ,87.00 ,169.00 ,0.49 ,18861249800.00 
230.00 ,469.00 ,802.00 ,183.00 ,86.00 ,460.00 ,87.00 ,169.00 ,0.49 ,18861262200.00 
235.00 ,463.00 ,833.00 ,181.00 ,87.00 ,454.00 ,86.00 ,173.00 ,0.47 ,18899290100.00 
225.00 ,450.00 ,825.00 ,161.00 ,90.00 ,365.00 ,100.00 ,170.00 ,0.46 ,18919714100.00 
221.00 ,419.00 ,888.00 ,177.00 ,98.00 ,425.00 ,121.00 ,119.00 ,0.46 ,18919725900.00 
180.00 ,328.00 ,895.00 ,186.00 ,96.00 ,432.00 ,132.00 ,113.00 ,0.45 ,18941024000.00 
176.00 ,277.00 ,961.00 ,198.00 ,86.00 ,438.00 ,135.00 ,108.00 ,0.43 ,18980888400.00 
215.00 ,291.00 ,1016.00 ,219.00 ,87.00 ,447.00 ,144.00 ,104.00 ,0.43 ,18980908400.00 
222.00 ,306.00 ,1061.00 ,227.00 ,91.00 ,439.00 ,128.00 ,98.00 ,0.42 ,19000986800.00 
221.00 ,307.00 ,1038.00 ,222.00 ,84.00 ,410.00 ,112.00 ,81.00 ,0.40 ,19040409600.00 
199.00 ,335.00 ,998.00 ,205.00 ,86.00 ,412.00 ,94.00 ,63.00 ,0.40 ,19040421800.00 
201.00 ,372.00 ,908.00 ,177.00 ,84.00 ,421.00 ,89.00 ,61.00 ,0.38 ,19080025200.00 
149.00 ,374.00 ,891.00 ,151.00 ,81.00 ,418.00 ,86.00 ,56.00 ,0.37 ,19098364700.00 
133.00 ,355.00 ,910.00 ,147.00 ,69.00 ,330.00 ,99.00 ,53.00 ,0.36 ,19119285600.00 
134.00 ,342.00 ,881.00 ,172.00 ,71.00 ,359.00 ,112.00 ,54.00 ,0.35 ,19141274400.00 
174.00 ,323.00 ,862.00 ,187.00 ,72.00 ,369.00 ,114.00 ,60.00 ,0.34 ,19158682400.00 
186.00 ,324.00 ,824.00 ,204.00 ,73.00 ,368.00 ,120.00 ,81.00 ,0.34 ,19158694500.00 
194.00 ,335.00 ,808.00 ,206.00 ,76.00 ,410.00 ,122.00 ,85.00 ,0.32 ,19199702600.00 
199.00 ,352.00 ,736.00 ,209.00 ,79.00 ,419.00 ,115.00 ,86.00 ,0.31 ,19219192300.00 
203.00 ,391.00 ,793.00 ,202.00 ,79.00 ,370.00 ,104.00 ,86.00 ,0.31 ,19219205100.00 
178.00 ,458.00 ,953.00 ,210.00 ,82.00 ,347.00 ,108.00 ,85.00 ,0.29 ,19258980300.00 
168.00 ,497.00 ,1004.00 ,229.00 ,90.00 ,343.00 ,109.00 ,70.00 ,0.28 ,19280406600.00 
178.00 ,545.00 ,1035.00 ,256.00 ,100.00 ,417.00 ,147.00 ,88.00 ,0.28 ,19280419100.00 
191.00 ,629.00 ,1024.00 ,284.00 ,106.00 ,426.00 ,146.00 ,95.00 ,0.26 ,19321479100.00 
243.00 ,774.00 ,983.00 ,308.00 ,121.00 ,414.00 ,142.00 ,101.00 ,0.25 ,19338897900.00 
239.00 ,766.00 ,909.00 ,298.00 ,116.00 ,408.00 ,140.00 ,102.00 ,0.25 ,19338911400.00 
239.00 ,771.00 ,943.00 ,281.00 ,111.00 ,395.00 ,136.00 ,98.00 ,0.23 ,19380194500.00 
229.00 ,742.00 ,930.00 ,281.00 ,114.00 ,410.00 ,118.00 ,85.00 ,0.22 ,19400947900.00 
245.00 ,692.00 ,1010.00 ,334.00 ,142.00 ,401.00 ,114.00 ,104.00 ,0.21 ,19420462700.00 
249.00 ,566.00 ,1105.00 ,318.00 ,140.00 ,390.00 ,119.00 ,114.00 ,0.20 ,19442713900.00 
280.00 ,722.00 ,1068.00 ,337.00 ,145.00 ,396.00 ,121.00 ,124.00 ,0.19 ,19460379400.00 
301.00 ,751.00 ,1081.00 ,390.00 ,165.00 ,415.00 ,133.00 ,144.00 ,0.19 ,19460393600.00 
316.00 ,822.00 ,1043.00 ,422.00 ,173.00 ,289.00 ,115.00 ,149.00 ,0.17 ,19499637500.00 
311.00 ,912.00 ,1062.00 ,376.00 ,148.00 ,253.00 ,110.00 ,132.00 ,0.16 ,19519343800.00 
301.00 ,925.00 ,1067.00 ,468.00 ,159.00 ,252.00 ,106.00 ,135.00 ,0.16 ,19519356900.00 
324.00 ,893.00 ,1158.00 ,522.00 ,188.00 ,259.00 ,108.00 ,150.00 ,0.14 ,19560451500.00 
330.00 ,971.00 ,1169.00 ,593.00 ,205.00 ,246.00 ,92.00 ,145.00 ,0.13 ,19582958200.00 
334.00 ,1021.00 ,1313.00 ,607.00 ,219.00 ,235.00 ,77.00 ,144.00 ,0.13 ,19582971100.00 
342.00 ,1084.00 ,1270.00 ,644.00 ,242.00 ,294.00 ,90.00 ,153.00 ,0.11 ,19621146300.00 
423.00 ,1244.00 ,1171.00 ,762.00 ,298.00 ,294.00 ,110.00 ,176.00 ,0.10 ,19638603800.00 
462.00 ,1305.00 ,1155.00 ,756.00 ,311.00 ,292.00 ,119.00 ,172.00 ,0.09 ,19658349100.00 
449.00 ,1251.00 ,1124.00 ,718.00 ,308.00 ,328.00 ,150.00 ,195.00 ,0.08 ,19681006400.00 
480.00 ,1245.00 ,1157.00 ,715.00 ,300.00 ,365.00 ,154.00 ,204.00 ,0.07 ,19700499000.00 
503.00 ,1243.00 ,1169.00 ,722.00 ,302.00 ,359.00 ,153.00 ,210.00 ,0.07 ,19700512700.00 
458.00 ,1107.00 ,1273.00 ,574.00 ,254.00 ,368.00 ,149.00 ,194.00 ,0.05 ,19738335200.00 
393.00 ,1095.00 ,1175.00 ,549.00 ,225.00 ,379.00 ,139.00 ,183.00 ,0.04 ,19759438900.00 
410.00 ,1102.00 ,1182.00 ,547.00 ,226.00 ,344.00 ,120.00 ,158.00 ,0.04 ,19759452300.00 
418.00 ,1145.00 ,1120.00 ,583.00 ,236.00 ,324.00 ,125.00 ,161.00 ,0.02 ,19800475700.00 
406.00 ,1088.00 ,1124.00 ,578.00 ,228.00 ,304.00 ,121.00 ,155.00 ,0.01 ,19821064400.00 
389.00 ,1124.00 ,1125.00 ,574.00 ,221.00 ,310.00 ,107.00 ,163.00 ,0.00 ,19841163700.00 
387.00 ,1019.00 ,1193.00 ,587.00 ,226.00 ,329.00 ,128.00 ,174.00 ,0.00 ,19841175800.00 
374.00 ,1020.00 ,1187.00 ,578.00 ,207.00 ,326.00 ,114.00 ,167.00 ,0.02 ,19886233600.00 
328.00 ,1020.00 ,1115.00 ,532.00 ,186.00 ,320.00 ,110.00 ,154.00 ,0.03 ,19900116200.00 
353.00 ,1043.00 ,1111.00 ,539.00 ,200.00 ,335.00 ,120.00 ,169.00 ,0.04 ,19919667000.00 
348.00 ,999.00 ,1037.00 ,519.00 ,191.00 ,325.00 ,126.00 ,193.00 ,0.05 ,19939465000.00 
344.00 ,996.00 ,1021.00 ,506.00 ,179.00 ,314.00 ,113.00 ,215.00 ,0.06 ,19959320700.00 
336.00 ,957.00 ,955.00 ,472.00 ,174.00 ,349.00 ,129.00 ,250.00 ,0.07 ,19980226900.00 
321.00 ,809.00 ,897.00 ,435.00 ,164.00 ,365.00 ,129.00 ,250.00 ,0.08 ,20001393100.00 
265.00 ,679.00 ,884.00 ,369.00 ,126.00 ,501.00 ,275.00 ,371.00 ,0.09 ,20019075000.00 
221.00 ,590.00 ,835.00 ,328.00 ,115.00 ,581.00 ,321.00 ,516.00 ,0.10 ,20041191200.00 
217.00 ,528.00 ,733.00 ,273.00 ,101.00 ,630.00 ,335.00 ,597.00 ,0.11 ,20058231100.00 
225.00 ,525.00 ,776.00 ,262.00 ,104.00 ,669.00 ,364.00 ,703.00 ,0.12 ,20078394100.00 
235.00 ,610.00 ,740.00 ,255.00 ,111.00 ,728.00 ,438.00 ,783.00 ,0.13 ,20098314300.00 
227.00 ,662.00 ,670.00 ,223.00 ,116.00 ,735.00 ,471.00 ,909.00 ,0.14 ,20121038600.00 
228.00 ,648.00 ,662.00 ,216.00 ,116.00 ,755.00 ,626.00 ,872.00 ,0.15 ,20140521800.00 
217.00 ,678.00 ,643.00 ,211.00 ,123.00 ,781.00 ,698.00 ,915.00 ,0.16 ,20159801900.00 
195.00 ,651.00 ,546.00 ,165.00 ,120.00 ,921.00 ,733.00 ,877.00 ,0.17 ,20179883000.00 
181.00 ,652.00 ,544.00 ,175.00 ,120.00 ,914.00 ,725.00 ,847.00 ,0.18 ,20198660000.00 
166.00 ,575.00 ,630.00 ,182.00 ,117.00 ,931.00 ,694.00 ,748.00 ,0.19 ,20220705500.00 
165.00 ,633.00 ,581.00 ,164.00 ,116.00 ,937.00 ,628.00 ,806.00 ,0.20 ,20241015300.00 
185.00 ,611.00 ,576.00 ,156.00 ,104.00 ,913.00 ,619.00 ,780.00 ,0.21 ,20258532000.00 
225.00 ,653.00 ,641.00 ,186.00 ,103.00 ,797.00 ,637.00 ,826.00 ,0.22 ,20279240600.00 
227.00 ,548.00 ,654.00 ,175.00 ,100.00 ,845.00 ,629.00 ,897.00 ,0.23 ,20299153700.00 
223.00 ,553.00 ,638.00 ,155.00 ,83.00 ,770.00 ,664.00 ,913.00 ,0.24 ,20318248000.00 
226.00 ,595.00 ,624.00 ,148.00 ,77.00 ,740.00 ,689.00 ,871.00 ,0.25 ,20339519000.00 
226.00 ,620.00 ,597.00 ,153.00 ,77.00 ,758.00 ,702.00 ,917.00 ,0.26 ,20359136100.00 
208.00 ,652.00 ,605.00 ,148.00 ,74.00 ,700.00 ,669.00 ,895.00 ,0.27 ,20378534700.00 
202.00 ,685.00 ,589.00 ,162.00 ,82.00 ,686.00 ,667.00 ,848.00 ,0.28 ,20398214900.00 
202.00 ,686.00 ,463.00 ,156.00 ,85.00 ,665.00 ,713.00 ,854.00 ,0.29 ,20419083300.00 
216.00 ,588.00 ,452.00 ,160.00 ,89.00 ,726.00 ,767.00 ,868.00 ,0.30 ,20439588600.00 
209.00 ,564.00 ,466.00 ,157.00 ,88.00 ,673.00 ,730.00 ,792.00 ,0.31 ,20461463900.00 
206.00 ,567.00 ,477.00 ,120.00 ,86.00 ,752.00 ,781.00 ,738.00 ,0.32 ,20479826800.00 
208.00 ,565.00 ,572.00 ,82.00 ,78.00 ,715.00 ,819.00 ,764.00 ,0.33 ,20499308000.00 
207.00 ,590.00 ,588.00 ,77.00 ,71.00 ,709.00 ,820.00 ,682.00 ,0.34 ,20519386500.00 
186.00 ,602.00 ,604.00 ,62.00 ,70.00 ,617.00 ,731.00 ,695.00 ,0.35 ,20538973400.00 
212.00 ,678.00 ,605.00 ,65.00 ,71.00 ,609.00 ,754.00 ,798.00 ,0.36 ,20558978700.00 
197.00 ,618.00 ,630.00 ,75.00 ,67.00 ,499.00 ,713.00 ,882.00 ,0.37 ,20579234300.00 
209.00 ,616.00 ,599.00 ,79.00 ,60.00 ,433.00 ,738.00 ,823.00 ,0.38 ,20600289300.00 
207.00 ,583.00 ,595.00 ,83.00 ,66.00 ,450.00 ,669.00 ,825.00 ,0.39 ,20619984400.00 
232.00 ,613.00 ,574.00 ,82.00 ,59.00 ,433.00 ,636.00 ,801.00 ,0.40 ,20645301100.00 
211.00 ,534.00 ,562.00 ,82.00 ,62.00 ,534.00 ,655.00 ,716.00 ,0.40 ,20645335700.00 
228.00 ,654.00 ,448.00 ,81.00 ,63.00 ,546.00 ,613.00 ,716.00 ,0.42 ,20680311700.00 
210.00 ,625.00 ,319.00 ,74.00 ,64.00 ,538.00 ,569.00 ,709.00 ,0.43 ,20701164200.00 
207.00 ,609.00 ,278.00 ,67.00 ,66.00 ,596.00 ,616.00 ,717.00 ,0.44 ,20719169100.00 
177.00 ,582.00 ,385.00 ,71.00 ,67.00 ,633.00 ,696.00 ,742.00 ,0.45 ,20739695000.00 
185.00 ,662.00 ,421.00 ,73.00 ,62.00 ,561.00 ,681.00 ,751.00 ,0.46 ,20759514500.00 
159.00 ,536.00 ,385.00 ,53.00 ,60.00 ,617.00 ,721.00 ,726.00 ,0.47 ,20778907100.00 
165.00 ,537.00 ,451.00 ,77.00 ,66.00 ,729.00 ,797.00 ,784.00 ,0.48 ,20799936000.00 
172.00 ,610.00 ,463.00 ,82.00 ,69.00 ,794.00 ,753.00 ,827.00 ,0.49 ,20819968700.00 
186.00 ,647.00 ,384.00 ,86.00 ,81.00 ,855.00 ,749.00 ,813.00 ,0.50 ,20839471800.00 
176.00 ,621.00 ,342.00 ,84.00 ,86.00 ,871.00 ,740.00 ,877.00 ,0.51 ,20860155600.00 
213.00 ,647.00 ,309.00 ,85.00 ,86.00 ,818.00 ,772.00 ,869.00 ,0.52 ,20880673700.00 
214.00 ,673.00 ,286.00 ,70.00 ,87.00 ,772.00 ,680.00 ,844.00 ,0.53 ,20901590100.00 
224.00 ,714.00 ,303.00 ,67.00 ,92.00 ,752.00 ,743.00 ,912.00 ,0.54 ,20918570900.00 
223.00 ,727.00 ,294.00 ,61.00 ,91.00 ,677.00 ,720.00 ,886.00 ,0.55 ,20938985900.00 
231.00 ,689.00 ,288.00 ,66.00 ,101.00 ,774.00 ,729.00 ,808.00 ,0.56 ,20961196100.00 
269.00 ,686.00 ,293.00 ,62.00 ,103.00 ,909.00 ,703.00 ,866.00 ,0.57 ,20981088800.00 
294.00 ,653.00 ,360.00 ,66.00 ,103.00 ,942.00 ,796.00 ,877.00 ,0.58 ,21000946400.00 
296.00 ,657.00 ,401.00 ,82.00 ,101.00 ,978.00 ,785.00 ,873.00 ,0.59 ,21020480100.00 
317.00 ,658.00 ,451.00 ,91.00 ,107.00 ,1041.00 ,786.00 ,887.00 ,0.60 ,21040332900.00 
322.00 ,670.00 ,459.00 ,90.00 ,98.00 ,985.00 ,873.00 ,928.00 ,0.61 ,21059675600.00 
280.00 ,705.00 ,453.00 ,93.00 ,110.00 ,981.00 ,892.00 ,891.00 ,0.62 ,21080165100.00 
310.00 ,795.00 ,577.00 ,111.00 ,128.00 ,1020.00 ,856.00 ,877.00 ,0.63 ,21099629500.00 
315.00 ,717.00 ,570.00 ,102.00 ,151.00 ,1218.00 ,843.00 ,788.00 ,0.64 ,21120815900.00 
310.00 ,705.00 ,530.00 ,93.00 ,147.00 ,1215.00 ,881.00 ,847.00 ,0.65 ,21141196400.00 
302.00 ,726.00 ,529.00 ,92.00 ,147.00 ,1248.00 ,887.00 ,831.00 ,0.66 ,21158939100.00 
300.00 ,718.00 ,532.00 ,95.00 ,156.00 ,1235.00 ,885.00 ,806.00 ,0.67 ,21179463200.00 
272.00 ,674.00 ,328.00 ,69.00 ,146.00 ,1276.00 ,889.00 ,859.00 ,0.68 ,21199165000.00 
270.00 ,755.00 ,255.00 ,67.00 ,135.00 ,1134.00 ,948.00 ,937.00 ,0.69 ,21218925800.00 
274.00 ,764.00 ,296.00 ,75.00 ,151.00 ,1173.00 ,905.00 ,955.00 ,0.70 ,21238734900.00 
325.00 ,754.00 ,400.00 ,111.00 ,174.00 ,1273.00 ,880.00 ,955.00 ,0.71 ,21260398200.00 
436.00 ,757.00 ,450.00 ,125.00 ,179.00 ,1309.00 ,911.00 ,1024.00 ,0.72 ,21279878900.00 
434.00 ,736.00 ,413.00 ,134.00 ,193.00 ,1237.00 ,907.00 ,1054.00 ,0.73 ,21300453800.00 
442.00 ,689.00 ,410.00 ,134.00 ,215.00 ,1211.00 ,899.00 ,1044.00 ,0.74 ,21322378900.00 
500.00 ,731.00 ,517.00 ,150.00 ,218.00 ,1289.00 ,916.00 ,1063.00 ,0.75 ,21340088400.00 
522.00 ,756.00 ,575.00 ,157.00 ,255.00 ,1445.00 ,984.00 ,1086.00 ,0.76 ,21360807000.00 
448.00 ,732.00 ,558.00 ,147.00 ,255.00 ,1483.00 ,966.00 ,1028.00 ,0.77 ,21378905500.00 
440.00 ,729.00 ,578.00 ,151.00 ,245.00 ,1500.00 ,952.00 ,1068.00 ,0.78 ,21400790200.00 
476.00 ,739.00 ,585.00 ,153.00 ,230.00 ,1529.00 ,983.00 ,1024.00 ,0.79 ,21420308600.00 
487.00 ,778.00 ,501.00 ,148.00 ,232.00 ,1467.00 ,1073.00 ,975.00 ,0.80 ,21440068400.00 
558.00 ,805.00 ,410.00 ,133.00 ,207.00 ,1279.00 ,952.00 ,991.00 ,0.81 ,21460022500.00 
564.00 ,898.00 ,446.00 ,160.00 ,229.00 ,1167.00 ,987.00 ,1041.00 ,0.82 ,21479759200.00 
625.00 ,952.00 ,440.00 ,163.00 ,258.00 ,1264.00 ,1003.00 ,983.00 ,0.83 ,21499570400.00 
604.00 ,1048.00 ,442.00 ,164.00 ,250.00 ,1252.00 ,993.00 ,967.00 ,0.84 ,21519338000.00 
620.00 ,1091.00 ,481.00 ,176.00 ,259.00 ,1271.00 ,904.00 ,1006.00 ,0.85 ,21540216100.00 
552.00 ,1110.00 ,430.00 ,170.00 ,253.00 ,1274.00 ,938.00 ,1028.00 ,0.86 ,21559315500.00 
579.00 ,1132.00 ,400.00 ,164.00 ,264.00 ,1351.00 ,907.00 ,1042.00 ,0.87 ,21580702200.00 
633.00 ,1152.00 ,488.00 ,168.00 ,293.00 ,1371.00 ,963.00 ,1057.00 ,0.88 ,21598428400.00 
697.00 ,1143.00 ,498.00 ,165.00 ,301.00 ,1355.00 ,992.00 ,1135.00 ,0.89 ,21619664900.00 
675.00 ,1118.00 ,506.00 ,143.00 ,296.00 ,1371.00 ,1036.00 ,1101.00 ,0.90 ,21639343100.00 
727.00 ,1113.00 ,520.00 ,144.00 ,292.00 ,1358.00 ,1105.00 ,1082.00 ,0.91 ,21659031300.00 
713.00 ,1093.00 ,528.00 ,125.00 ,261.00 ,1350.00 ,1090.00 ,1021.00 ,0.93 ,21703295100.00 
616.00 ,1090.00 ,468.00 ,108.00 ,192.00 ,1248.00 ,1078.00 ,1025.00 ,0.93 ,21703308100.00 
572.00 ,1051.00 ,503.00 ,122.00 ,199.00 ,1280.00 ,1081.00 ,1036.00 ,0.94 ,21719790500.00 
593.00 ,1031.00 ,443.00 ,121.00 ,194.00 ,1262.00 ,1096.00 ,1059.00 ,0.95 ,21740162600.00 
570.00 ,1009.00 ,463.00 ,135.00 ,203.00 ,1247.00 ,1027.00 ,1047.00 ,0.96 ,21760552900.00 
562.00 ,950.00 ,433.00 ,131.00 ,210.00 ,1209.00 ,983.00 ,1033.00 ,0.97 ,21780694500.00 
585.00 ,856.00 ,421.00 ,130.00 ,215.00 ,1187.00 ,932.00 ,988.00 ,0.98 ,21798581400.00 
568.00 ,793.00 ,445.00 ,133.00 ,205.00 ,1155.00 ,931.00 ,953.00 ,0.99 ,21819817300.00 
515.00 ,754.00 ,473.00 ,138.00 ,198.00 ,1292.00 ,812.00 ,911.00 ,0.98 ,21840266300.00 
431.00 ,705.00 ,443.00 ,115.00 ,163.00 ,1209.00 ,762.00 ,894.00 ,0.97 ,21858472200.00 
403.00 ,687.00 ,430.00 ,118.00 ,139.00 ,1181.00 ,756.00 ,869.00 ,0.96 ,21878209900.00 
385.00 ,707.00 ,429.00 ,125.00 ,137.00 ,1176.00 ,730.00 ,865.00 ,0.95 ,21901016000.00 
343.00 ,725.00 ,372.00 ,108.00 ,123.00 ,1089.00 ,566.00 ,827.00 ,0.94 ,21920643600.00 
280.00 ,636.00 ,368.00 ,101.00 ,102.00 ,733.00 ,521.00 ,769.00 ,0.93 ,21940953300.00 
243.00 ,624.00 ,499.00 ,134.00 ,103.00 ,727.00 ,456.00 ,645.00 ,0.92 ,21959379600.00 
233.00 ,570.00 ,663.00 ,151.00 ,102.00 ,734.00 ,445.00 ,600.00 ,0.91 ,21980251100.00 
168.00 ,545.00 ,654.00 ,146.00 ,103.00 ,867.00 ,357.00 ,507.00 ,0.90 ,22006283900.00 
229.00 ,541.00 ,649.00 ,146.00 ,100.00 ,858.00 ,279.00 ,389.00 ,0.89 ,22020929300.00 
232.00 ,526.00 ,679.00 ,150.00 ,99.00 ,871.00 ,278.00 ,358.00 ,0.88 ,22038454000.00 
234.00 ,486.00 ,714.00 ,147.00 ,105.00 ,871.00 ,264.00 ,356.00 ,0.87 ,22058843100.00 
230.00 ,485.00 ,705.00 ,138.00 ,104.00 ,803.00 ,263.00 ,350.00 ,0.86 ,22078542400.00 
216.00 ,488.00 ,723.00 ,152.00 ,100.00 ,633.00 ,267.00 ,311.00 ,0.85 ,22098528000.00 
122.00 ,396.00 ,716.00 ,152.00 ,96.00 ,701.00 ,222.00 ,192.00 ,0.84 ,22118363200.00 
167.00 ,398.00 ,720.00 ,146.00 ,96.00 ,697.00 ,209.00 ,166.00 ,0.83 ,22141200900.00 
179.00 ,415.00 ,703.00 ,138.00 ,86.00 ,696.00 ,201.00 ,147.00 ,0.82 ,22159339900.00 
185.00 ,414.00 ,667.00 ,155.00 ,81.00 ,710.00 ,196.00 ,133.00 ,0.81 ,22180177400.00 
192.00 ,402.00 ,673.00 ,162.00 ,59.00 ,624.00 ,140.00 ,103.00 ,0.80 ,22200700200.00 
192.00 ,380.00 ,748.00 ,167.00 ,49.00 ,523.00 ,121.00 ,84.00 ,0.79 ,22218312200.00 
151.00 ,365.00 ,812.00 ,178.00 ,54.00 ,492.00 ,134.00 ,80.00 ,0.78 ,22238870500.00 
183.00 ,347.00 ,774.00 ,184.00 ,51.00 ,464.00 ,130.00 ,70.00 ,0.77 ,22259060500.00 
176.00 ,334.00 ,750.00 ,178.00 ,58.00 ,389.00 ,130.00 ,62.00 ,0.76 ,22279504900.00 
178.00 ,374.00 ,847.00 ,173.00 ,62.00 ,352.00 ,134.00 ,66.00 ,0.75 ,22299007400.00 
179.00 ,405.00 ,829.00 ,170.00 ,64.00 ,259.00 ,109.00 ,65.00 ,0.74 ,22320270000.00 
175.00 ,408.00 ,767.00 ,172.00 ,62.00 ,251.00 ,82.00 ,55.00 ,0.73 ,22339785700.00 
127.00 ,385.00 ,761.00 ,162.00 ,63.00 ,226.00 ,81.00 ,56.00 ,0.72 ,22359457800.00 
130.00 ,416.00 ,789.00 ,169.00 ,61.00 ,206.00 ,72.00 ,66.00 ,0.71 ,22378833400.00 
116.00 ,389.00 ,768.00 ,162.00 ,54.00 ,211.00 ,63.00 ,59.00 ,0.70 ,22399671700.00 
122.00 ,355.00 ,805.00 ,180.00 ,56.00 ,237.00 ,67.00 ,65.00 ,0.69 ,22421005200.00 
115.00 ,337.00 ,806.00 ,169.00 ,61.00 ,453.00 ,85.00 ,64.00 ,0.68 ,22438243800.00 
96.00 ,335.00 ,777.00 ,162.00 ,59.00 ,475.00 ,87.00 ,64.00 ,0.67 ,22460557200.00 
90.00 ,327.00 ,736.00 ,144.00 ,55.00 ,494.00 ,85.00 ,55.00 ,0.66 ,22478391500.00 
90.00 ,374.00 ,771.00 ,151.00 ,58.00 ,480.00 ,86.00 ,58.00 ,0.65 ,22499238300.00 
98.00 ,436.00 ,767.00 ,181.00 ,70.00 ,480.00 ,99.00 ,58.00 ,0.64 ,22519151700.00 
113.00 ,485.00 ,872.00 ,200.00 ,70.00 ,351.00 ,92.00 ,63.00 ,0.63 ,22538620800.00 
110.00 ,479.00 ,874.00 ,198.00 ,73.00 ,344.00 ,91.00 ,59.00 ,0.62 ,22558366600.00 
114.00 ,487.00 ,922.00 ,199.00 ,74.00 ,322.00 ,92.00 ,62.00 ,0.61 ,22580816300.00 
107.00 ,479.00 ,881.00 ,186.00 ,73.00 ,338.00 ,92.00 ,59.00 ,0.60 ,22600463200.00 
91.00 ,445.00 ,890.00 ,147.00 ,62.00 ,342.00 ,74.00 ,50.00 ,0.59 ,22620019700.00 
83.00 ,399.00 ,769.00 ,132.00 ,58.00 ,270.00 ,62.00 ,42.00 ,0.58 ,22641117800.00 
90.00 ,414.00 ,809.00 ,141.00 ,58.00 ,282.00 ,59.00 ,45.00 ,0.57 ,22658300800.00 
95.00 ,377.00 ,808.00 ,171.00 ,67.00 ,311.00 ,100.00 ,51.00 ,0.56 ,22678950000.00 
105.00 ,339.00 ,845.00 ,180.00 ,71.00 ,303.00 ,98.00 ,55.00 ,0.55 ,22699599100.00 
99.00 ,343.00 ,813.00 ,170.00 ,68.00 ,263.00 ,100.00 ,53.00 ,0.54 ,22719873600.00 
108.00 ,353.00 ,869.00 ,202.00 ,75.00 ,260.00 ,104.00 ,55.00 ,0.53 ,22739861400.00 
130.00 ,375.00 ,920.00 ,211.00 ,79.00 ,312.00 ,121.00 ,57.00 ,0.52 ,22764425700.00 
135.00 ,395.00 ,894.00 ,207.00 ,86.00 ,412.00 ,111.00 ,53.00 ,0.51 ,22780911800.00 
129.00 ,381.00 ,857.00 ,201.00 ,82.00 ,418.00 ,111.00 ,49.00 ,0.50 ,22800513400.00 
133.00 ,392.00 ,883.00 ,200.00 ,83.00 ,425.00 ,109.00 ,50.00 ,0.49 ,22820023700.00 
128.00 ,419.00 ,913.00 ,179.00 ,81.00 ,456.00 ,147.00 ,48.00 ,0.48 ,22840366300.00 
114.00 ,404.00 ,879.00 ,181.00 ,77.00 ,426.00 ,136.00 ,47.00 ,0.47 ,22858616800.00 
109.00 ,430.00 ,966.00 ,167.00 ,64.00 ,300.00 ,121.00 ,47.00 ,0.46 ,22879757400.00 
110.00 ,438.00 ,988.00 ,171.00 ,63.00 ,288.00 ,137.00 ,51.00 ,0.45 ,22900465600.00 
120.00 ,472.00 ,1044.00 ,196.00 ,75.00 ,428.00 ,150.00 ,66.00 ,0.44 ,22919670400.00 
152.00 ,502.00 ,1083.00 ,235.00 ,93.00 ,406.00 ,122.00 ,80.00 ,0.43 ,22940259400.00 
165.00 ,533.00 ,1119.00 ,237.00 ,101.00 ,382.00 ,119.00 ,88.00 ,0.41 ,22979420800.00 
166.00 ,570.00 ,1146.00 ,251.00 ,110.00 ,383.00 ,119.00 ,90.00 ,0.41 ,22979440300.00 
210.00 ,655.00 ,1129.00 ,299.00 ,127.00 ,415.00 ,114.00 ,107.00 ,0.40 ,22998904600.00 
236.00 ,712.00 ,1087.00 ,337.00 ,144.00 ,281.00 ,100.00 ,109.00 ,0.39 ,23018476100.00 
222.00 ,698.00 ,1128.00 ,329.00 ,135.00 ,268.00 ,88.00 ,102.00 ,0.38 ,23038311800.00 
247.00 ,744.00 ,1096.00 ,353.00 ,148.00 ,296.00 ,91.00 ,108.00 ,0.37 ,23058974300.00 
300.00 ,740.00 ,1043.00 ,433.00 ,172.00 ,311.00 ,96.00 ,123.00 ,0.36 ,23081201700.00 
274.00 ,765.00 ,1091.00 ,408.00 ,161.00 ,261.00 ,93.00 ,109.00 ,0.35 ,23098890500.00 
291.00 ,753.00 ,1119.00 ,447.00 ,174.00 ,244.00 ,98.00 ,115.00 ,0.33 ,23140591000.00 
313.00 ,886.00 ,1053.00 ,489.00 ,190.00 ,243.00 ,102.00 ,123.00 ,0.33 ,23140604200.00 
294.00 ,883.00 ,1150.00 ,522.00 ,189.00 ,193.00 ,108.00 ,120.00 ,0.32 ,23160791100.00 
264.00 ,958.00 ,1224.00 ,492.00 ,174.00 ,171.00 ,103.00 ,112.00 ,0.31 ,23180555500.00 
284.00 ,949.00 ,1232.00 ,508.00 ,186.00 ,179.00 ,102.00 ,123.00 ,0.29 ,23219737800.00 
281.00 ,966.00 ,1212.00 ,532.00 ,186.00 ,188.00 ,107.00 ,134.00 ,0.29 ,23219779000.00 
297.00 ,946.00 ,1213.00 ,609.00 ,197.00 ,191.00 ,115.00 ,144.00 ,0.28 ,23239517600.00 
329.00 ,1108.00 ,1234.00 ,639.00 ,219.00 ,207.00 ,120.00 ,150.00 ,0.27 ,23259090100.00 
355.00 ,1053.00 ,1182.00 ,724.00 ,248.00 ,243.00 ,129.00 ,168.00 ,0.26 ,23279296100.00 
381.00 ,1174.00 ,1132.00 ,803.00 ,286.00 ,245.00 ,128.00 ,181.00 ,0.25 ,23299775700.00 
420.00 ,1230.00 ,1154.00 ,829.00 ,324.00 ,269.00 ,141.00 ,201.00 ,0.24 ,23320607100.00 
443.00 ,1267.00 ,1097.00 ,782.00 ,331.00 ,265.00 ,139.00 ,208.00 ,0.23 ,23340988400.00 
445.00 ,1181.00 ,988.00 ,745.00 ,322.00 ,300.00 ,139.00 ,207.00 ,0.22 ,23358897000.00 
479.00 ,1311.00 ,920.00 ,747.00 ,339.00 ,301.00 ,146.00 ,213.00 ,0.21 ,23381137500.00 
549.00 ,1244.00 ,903.00 ,730.00 ,336.00 ,302.00 ,160.00 ,235.00 ,0.20 ,23400919900.00 
557.00 ,1173.00 ,869.00 ,742.00 ,311.00 ,303.00 ,156.00 ,225.00 ,0.19 ,23421155300.00 
573.00 ,1140.00 ,884.00 ,796.00 ,321.00 ,324.00 ,161.00 ,236.00 ,0.17 ,23461333000.00 
580.00 ,1087.00 ,946.00 ,870.00 ,328.00 ,306.00 ,163.00 ,244.00 ,0.17 ,23461375500.00 
545.00 ,962.00 ,1004.00 ,854.00 ,291.00 ,285.00 ,157.00 ,239.00 ,0.16 ,23480784600.00 
566.00 ,986.00 ,1155.00 ,909.00 ,308.00 ,288.00 ,166.00 ,259.00 ,0.15 ,23498359200.00 
532.00 ,1026.00 ,1197.00 ,863.00 ,300.00 ,299.00 ,161.00 ,249.00 ,0.14 ,23521151000.00 
517.00 ,1049.00 ,1213.00 ,876.00 ,333.00 ,311.00 ,163.00 ,249.00 ,0.13 ,23538456700.00 
520.00 ,1112.00 ,1190.00 ,882.00 ,354.00 ,314.00 ,165.00 ,252.00 ,0.12 ,23559067800.00 
538.00 ,1110.00 ,1221.00 ,896.00 ,377.00 ,334.00 ,166.00 ,256.00 ,0.11 ,23579418800.00 
495.00 ,1151.00 ,1189.00 ,867.00 ,372.00 ,351.00 ,164.00 ,230.00 ,0.10 ,23600894500.00 
533.00 ,1196.00 ,1151.00 ,885.00 ,364.00 ,320.00 ,160.00 ,227.00 ,0.08 ,23639876000.00 
549.00 ,1207.00 ,1215.00 ,827.00 ,333.00 ,294.00 ,157.00 ,240.00 ,0.07 ,23659915800.00 
559.00 ,1236.00 ,1305.00 ,806.00 ,319.00 ,298.00 ,153.00 ,243.00 ,0.07 ,23659929400.00 
563.00 ,1273.00 ,1306.00 ,748.00 ,299.00 ,290.00 ,150.00 ,236.00 ,0.05 ,23701239100.00 
532.00 ,1197.00 ,1245.00 ,668.00 ,271.00 ,323.00 ,134.00 ,224.00 ,0.05 ,23701276500.00 
483.00 ,1140.00 ,1268.00 ,659.00 ,277.00 ,324.00 ,132.00 ,222.00 ,0.04 ,23718787200.00 
428.00 ,1050.00 ,1182.00 ,642.00 ,252.00 ,318.00 ,130.00 ,190.00 ,0.02 ,23760172400.00 
429.00 ,1044.00 ,1173.00 ,636.00 ,260.00 ,293.00 ,141.00 ,211.00 ,0.02 ,23760188600.00 
399.00 ,1030.00 ,1156.00 ,645.00 ,260.00 ,292.00 ,142.00 ,302.00 ,0.01 ,23780572200.00 
380.00 ,1010.00 ,1165.00 ,628.00 ,249.00 ,259.00 ,141.00 ,302.00 ,0.00 ,23798653400.00 
376.00 ,974.00 ,1095.00 ,572.00 ,240.00 ,331.00 ,141.00 ,318.00 ,0.01 ,23824675500.00 
382.00 ,1014.00 ,1162.00 ,556.00 ,248.00 ,348.00 ,134.00 ,317.00 ,0.02 ,23838415100.00 
365.00 ,889.00 ,1110.00 ,493.00 ,218.00 ,377.00 ,122.00 ,325.00 ,0.03 ,23861225000.00 
404.00 ,796.00 ,1038.00 ,468.00 ,218.00 ,380.00 ,123.00 ,308.00 ,0.04 ,23880936900.00 
380.00 ,781.00 ,993.00 ,472.00 ,214.00 ,391.00 ,151.00 ,317.00 ,0.05 ,23900995100.00 
375.00 ,776.00 ,1026.00 ,474.00 ,207.00 ,360.00 ,150.00 ,300.00 ,0.06 ,23920723700.00 
347.00 ,667.00 ,937.00 ,441.00 ,176.00 ,356.00 ,152.00 ,291.00 ,0.07 ,23941396900.00 
335.00 ,698.00 ,916.00 ,415.00 ,166.00 ,359.00 ,190.00 ,306.00 ,0.08 ,23958786900.00 
270.00 ,750.00 ,938.00 ,363.00 ,155.00 ,503.00 ,204.00 ,378.00 ,0.10 ,23998389600.00 
261.00 ,678.00 ,926.00 ,360.00 ,147.00 ,494.00 ,185.00 ,387.00 ,0.10 ,23998401400.00 
248.00 ,612.00 ,867.00 ,326.00 ,137.00 ,478.00 ,188.00 ,399.00 ,0.11 ,24019228200.00 
252.00 ,638.00 ,982.00 ,328.00 ,142.00 ,506.00 ,190.00 ,442.00 ,0.13 ,24058984700.00 
209.00 ,650.00 ,875.00 ,254.00 ,125.00 ,547.00 ,204.00 ,506.00 ,0.13 ,24058997100.00 
211.00 ,633.00 ,810.00 ,243.00 ,110.00 ,517.00 ,249.00 ,434.00 ,0.14 ,24078871600.00 
197.00 ,635.00 ,744.00 ,176.00 ,95.00 ,558.00 ,275.00 ,510.00 ,0.15 ,24098288500.00 
218.00 ,652.00 ,763.00 ,171.00 ,95.00 ,560.00 ,289.00 ,651.00 ,0.16 ,24120735200.00 
218.00 ,672.00 ,664.00 ,159.00 ,97.00 ,585.00 ,479.00 ,664.00 ,0.17 ,24139211000.00 
222.00 ,647.00 ,719.00 ,174.00 ,108.00 ,590.00 ,520.00 ,674.00 ,0.18 ,24159541600.00 
189.00 ,567.00 ,732.00 ,136.00 ,92.00 ,518.00 ,499.00 ,711.00 ,0.19 ,24180537300.00 
184.00 ,548.00 ,728.00 ,116.00 ,89.00 ,588.00 ,544.00 ,745.00 ,0.20 ,24201326500.00 
168.00 ,579.00 ,694.00 ,116.00 ,87.00 ,617.00 ,569.00 ,729.00 ,0.21 ,24218885800.00 
193.00 ,596.00 ,648.00 ,149.00 ,80.00 ,590.00 ,426.00 ,750.00 ,0.22 ,24238972200.00 
164.00 ,560.00 ,554.00 ,141.00 ,59.00 ,570.00 ,359.00 ,698.00 ,0.23 ,24259508300.00 
174.00 ,542.00 ,476.00 ,147.00 ,64.00 ,581.00 ,364.00 ,734.00 ,0.24 ,24281043500.00 
180.00 ,531.00 ,455.00 ,147.00 ,76.00 ,611.00 ,489.00 ,699.00 ,0.25 ,24301309100.00 
177.00 ,499.00 ,428.00 ,144.00 ,77.00 ,614.00 ,496.00 ,693.00 ,0.26 ,24321091300.00 
237.00 ,530.00 ,381.00 ,142.00 ,82.00 ,617.00 ,502.00 ,663.00 ,0.27 ,24340917900.00 
251.00 ,565.00 ,512.00 ,152.00 ,93.00 ,636.00 ,507.00 ,690.00 ,0.28 ,24360201900.00 
249.00 ,572.00 ,521.00 ,141.00 ,94.00 ,713.00 ,522.00 ,660.00 ,0.29 ,24380737700.00 
246.00 ,581.00 ,525.00 ,142.00 ,89.00 ,621.00 ,374.00 ,631.00 ,0.30 ,24398214900.00 
243.00 ,617.00 ,544.00 ,139.00 ,86.00 ,597.00 ,359.00 ,550.00 ,0.31 ,24419222800.00 
188.00 ,507.00 ,596.00 ,113.00 ,80.00 ,581.00 ,351.00 ,537.00 ,0.32 ,24438232200.00 
172.00 ,529.00 ,463.00 ,82.00 ,67.00 ,518.00 ,347.00 ,501.00 ,0.33 ,24459001200.00 
177.00 ,500.00 ,451.00 ,86.00 ,75.00 ,518.00 ,376.00 ,520.00 ,0.34 ,24479392600.00 
179.00 ,517.00 ,445.00 ,82.00 ,66.00 ,508.00 ,344.00 ,640.00 ,0.35 ,24499414700.00 
185.00 ,481.00 ,435.00 ,81.00 ,69.00 ,513.00 ,329.00 ,673.00 ,0.36 ,24519354300.00 
147.00 ,468.00 ,372.00 ,74.00 ,66.00 ,496.00 ,328.00 ,706.00 ,0.38 ,24558694400.00 
147.00 ,382.00 ,533.00 ,71.00 ,65.00 ,494.00 ,335.00 ,734.00 ,0.39 ,24578385500.00 
155.00 ,397.00 ,557.00 ,69.00 ,51.00 ,386.00 ,290.00 ,726.00 ,0.39 ,24578403500.00 
162.00 ,367.00 ,567.00 ,69.00 ,64.00 ,485.00 ,378.00 ,687.00 ,0.40 ,24600164900.00 
166.00 ,422.00 ,558.00 ,74.00 ,60.00 ,493.00 ,374.00 ,661.00 ,0.41 ,24619185000.00 
164.00 ,437.00 ,506.00 ,62.00 ,57.00 ,490.00 ,374.00 ,613.00 ,0.42 ,24638402200.00 
159.00 ,413.00 ,368.00 ,66.00 ,57.00 ,488.00 ,361.00 ,591.00 ,0.43 ,24658650200.00 
138.00 ,414.00 ,399.00 ,65.00 ,56.00 ,486.00 ,392.00 ,598.00 ,0.44 ,24681274400.00 
135.00 ,414.00 ,384.00 ,66.00 ,47.00 ,354.00 ,439.00 ,578.00 ,0.45 ,24699691800.00 
121.00 ,307.00 ,388.00 ,62.00 ,46.00 ,321.00 ,475.00 ,644.00 ,0.46 ,24719751200.00 
124.00 ,280.00 ,410.00 ,64.00 ,45.00 ,317.00 ,519.00 ,687.00 ,0.47 ,24741285400.00 
119.00 ,277.00 ,463.00 ,84.00 ,55.00 ,338.00 ,531.00 ,723.00 ,0.49 ,24780566300.00 
117.00 ,266.00 ,447.00 ,90.00 ,69.00 ,312.00 ,523.00 ,716.00 ,0.49 ,24780612400.00 
110.00 ,293.00 ,447.00 ,91.00 ,76.00 ,316.00 ,517.00 ,720.00 ,0.50 ,24800285700.00 
137.00 ,417.00 ,446.00 ,92.00 ,77.00 ,373.00 ,569.00 ,669.00 ,0.51 ,24821284600.00 
159.00 ,493.00 ,431.00 ,97.00 ,78.00 ,391.00 ,546.00 ,653.00 ,0.52 ,24838629800.00 
159.00 ,515.00 ,311.00 ,70.00 ,77.00 ,493.00 ,644.00 ,680.00 ,0.53 ,24859415300.00 
156.00 ,531.00 ,292.00 ,67.00 ,67.00 ,589.00 ,717.00 ,735.00 ,0.54 ,24880556700.00 
157.00 ,541.00 ,298.00 ,67.00 ,55.00 ,617.00 ,656.00 ,699.00 ,0.55 ,24900352600.00 
153.00 ,478.00 ,302.00 ,65.00 ,60.00 ,590.00 ,642.00 ,787.00 ,0.56 ,24920804600.00 
135.00 ,472.00 ,265.00 ,54.00 ,62.00 ,725.00 ,747.00 ,838.00 ,0.57 ,24940807600.00 
139.00 ,517.00 ,257.00 ,56.00 ,55.00 ,681.00 ,688.00 ,881.00 ,0.58 ,24960807600.00 
144.00 ,507.00 ,280.00 ,64.00 ,53.00 ,619.00 ,674.00 ,916.00 ,0.59 ,24980310300.00 
154.00 ,487.00 ,298.00 ,70.00 ,51.00 ,679.00 ,788.00 ,923.00 ,0.60 ,24999966600.00 
150.00 ,490.00 ,292.00 ,69.00 ,45.00 ,709.00 ,791.00 ,921.00 ,0.61 ,25020016200.00 
157.00 ,427.00 ,297.00 ,69.00 ,41.00 ,592.00 ,705.00 ,856.00 ,0.62 ,25041708100.00 
164.00 ,360.00 ,273.00 ,68.00 ,44.00 ,642.00 ,713.00 ,830.00 ,0.64 ,25079980300.00 
160.00 ,478.00 ,293.00 ,59.00 ,56.00 ,718.00 ,660.00 ,765.00 ,0.64 ,25079995100.00 
183.00 ,509.00 ,299.00 ,48.00 ,65.00 ,759.00 ,585.00 ,792.00 ,0.66 ,25119623000.00 
183.00 ,504.00 ,294.00 ,49.00 ,69.00 ,848.00 ,586.00 ,714.00 ,0.66 ,25119671000.00 
193.00 ,530.00 ,336.00 ,54.00 ,87.00 ,946.00 ,692.00 ,868.00 ,0.67 ,25140608100.00 
189.00 ,547.00 ,413.00 ,64.00 ,97.00 ,993.00 ,844.00 ,819.00 ,0.68 ,25160320900.00 
195.00 ,466.00 ,354.00 ,57.00 ,94.00 ,1058.00 ,861.00 ,841.00 ,0.69 ,25180166100.00 
170.00 ,461.00 ,327.00 ,61.00 ,99.00 ,1044.00 ,843.00 ,822.00 ,0.71 ,25220944300.00 
211.00 ,531.00 ,328.00 ,67.00 ,119.00 ,1033.00 ,875.00 ,890.00 ,0.71 ,25220962200.00 
214.00 ,554.00 ,284.00 ,63.00 ,113.00 ,1093.00 ,868.00 ,874.00 ,0.72 ,25241041800.00 
216.00 ,543.00 ,184.00 ,60.00 ,115.00 ,1040.00 ,744.00 ,917.00 ,0.73 ,25261470300.00 
226.00 ,612.00 ,213.00 ,64.00 ,115.00 ,1030.00 ,739.00 ,957.00 ,0.75 ,25299383300.00 
257.00 ,599.00 ,221.00 ,62.00 ,118.00 ,1117.00 ,796.00 ,989.00 ,0.75 ,25299431000.00 
249.00 ,527.00 ,218.00 ,63.00 ,108.00 ,1111.00 ,800.00 ,960.00 ,0.76 ,25320409200.00 
253.00 ,531.00 ,244.00 ,65.00 ,113.00 ,1076.00 ,770.00 ,975.00 ,0.77 ,25342382800.00 
269.00 ,577.00 ,232.00 ,60.00 ,110.00 ,1126.00 ,845.00 ,991.00 ,0.78 ,25359575600.00 
286.00 ,541.00 ,205.00 ,71.00 ,143.00 ,1145.00 ,926.00 ,922.00 ,0.79 ,25379144400.00 
278.00 ,560.00 ,191.00 ,75.00 ,157.00 ,1167.00 ,976.00 ,880.00 ,0.81 ,25418391800.00 
288.00 ,630.00 ,236.00 ,71.00 ,180.00 ,1339.00 ,968.00 ,925.00 ,0.81 ,25418438300.00 
319.00 ,648.00 ,233.00 ,80.00 ,198.00 ,1326.00 ,990.00 ,862.00 ,0.82 ,25441107800.00 
350.00 ,672.00 ,221.00 ,88.00 ,206.00 ,1386.00 ,980.00 ,791.00 ,0.84 ,25478934800.00 
362.00 ,713.00 ,285.00 ,90.00 ,200.00 ,1430.00 ,980.00 ,842.00 ,0.85 ,25501405200.00 
360.00 ,736.00 ,412.00 ,97.00 ,194.00 ,1452.00 ,932.00 ,961.00 ,0.85 ,25501417500.00 
360.00 ,742.00 ,442.00 ,109.00 ,195.00 ,1337.00 ,951.00 ,929.00 ,0.86 ,25519068900.00 
344.00 ,740.00 ,433.00 ,112.00 ,191.00 ,1399.00 ,968.00 ,982.00 ,0.88 ,25560249400.00 
432.00 ,711.00 ,471.00 ,134.00 ,206.00 ,1385.00 ,972.00 ,1031.00 ,0.89 ,25581090300.00 
506.00 ,716.00 ,451.00 ,134.00 ,207.00 ,1444.00 ,962.00 ,1052.00 ,0.89 ,25581111400.00 
551.00 ,697.00 ,356.00 ,129.00 ,216.00 ,1427.00 ,958.00 ,984.00 ,0.91 ,25620865200.00 
549.00 ,697.00 ,441.00 ,147.00 ,236.00 ,1476.00 ,915.00 ,940.00 ,0.91 ,25620878500.00 
550.00 ,750.00 ,526.00 ,150.00 ,232.00 ,1489.00 ,898.00 ,868.00 ,0.93 ,25659089800.00 
497.00 ,822.00 ,550.00 ,137.00 ,227.00 ,1453.00 ,885.00 ,948.00 ,0.94 ,25678645100.00 
429.00 ,807.00 ,560.00 ,143.00 ,248.00 ,1426.00 ,940.00 ,912.00 ,0.95 ,25698884900.00 
452.00 ,947.00 ,608.00 ,156.00 ,311.00 ,1471.00 ,973.00 ,914.00 ,0.96 ,25719797600.00 
472.00 ,941.00 ,631.00 ,150.00 ,297.00 ,1473.00 ,1005.00 ,1027.00 ,0.97 ,25740553700.00 
463.00 ,872.00 ,604.00 ,146.00 ,297.00 ,1463.00 ,990.00 ,1067.00 ,0.97 ,25740576200.00 
449.00 ,857.00 ,552.00 ,139.00 ,303.00 ,1462.00 ,984.00 ,1019.00 ,0.98 ,25760752100.00 
438.00 ,828.00 ,568.00 ,137.00 ,283.00 ,1383.00 ,971.00 ,1126.00 ,0.98 ,25799859300.00 
389.00 ,748.00 ,590.00 ,122.00 ,208.00 ,1284.00 ,977.00 ,1115.00 ,0.98 ,25799872500.00 
383.00 ,768.00 ,482.00 ,104.00 ,197.00 ,1218.00 ,971.00 ,1039.00 ,0.97 ,25819859800.00 
447.00 ,876.00 ,469.00 ,97.00 ,183.00 ,1113.00 ,982.00 ,1034.00 ,0.95 ,25859712700.00 
432.00 ,802.00 ,478.00 ,94.00 ,173.00 ,1270.00 ,959.00 ,1008.00 ,0.95 ,25859727600.00 
423.00 ,815.00 ,451.00 ,80.00 ,159.00 ,1210.00 ,872.00 ,803.00 ,0.94 ,25879527000.00 
387.00 ,776.00 ,343.00 ,81.00 ,138.00 ,1107.00 ,742.00 ,765.00 ,0.92 ,25919813900.00 
352.00 ,708.00 ,305.00 ,71.00 ,116.00 ,1105.00 ,653.00 ,701.00 ,0.92 ,25919828400.00 
275.00 ,655.00 ,243.00 ,72.00 ,118.00 ,1099.00 ,553.00 ,600.00 ,0.91 ,25941076000.00 
241.00 ,659.00 ,350.00 ,111.00 ,78.00 ,811.00 ,457.00 ,455.00 ,0.89 ,25980159500.00 
206.00 ,618.00 ,396.00 ,125.00 ,72.00 ,743.00 ,338.00 ,429.00 ,0.88 ,26001023700.00 
179.00 ,538.00 ,616.00 ,164.00 ,78.00 ,747.00 ,320.00 ,339.00 ,0.88 ,26001049200.00 
165.00 ,565.00 ,737.00 ,184.00 ,72.00 ,660.00 ,287.00 ,316.00 ,0.86 ,26040358900.00 
174.00 ,432.00 ,790.00 ,190.00 ,81.00 ,671.00 ,258.00 ,310.00 ,0.86 ,26040371700.00 
200.00 ,405.00 ,789.00 ,171.00 ,80.00 ,693.00 ,217.00 ,309.00 ,0.85 ,26059867400.00 
210.00 ,380.00 ,804.00 ,166.00 ,81.00 ,671.00 ,198.00 ,309.00 ,0.83 ,26100707900.00 
211.00 ,395.00 ,756.00 ,129.00 ,73.00 ,658.00 ,209.00 ,306.00 ,0.83 ,26100720400.00 
204.00 ,393.00 ,782.00 ,113.00 ,76.00 ,600.00 ,231.00 ,280.00 ,0.82 ,26120288500.00 
150.00 ,390.00 ,796.00 ,116.00 ,57.00 ,502.00 ,193.00 ,129.00 ,0.80 ,26160796300.00 
193.00 ,412.00 ,765.00 ,120.00 ,55.00 ,445.00 ,186.00 ,97.00 ,0.80 ,26160841700.00 
308.00 ,543.00 ,747.00 ,115.00 ,54.00 ,463.00 ,183.00 ,100.00 ,0.79 ,26180708900.00 
327.00 ,537.00 ,718.00 ,123.00 ,59.00 ,506.00 ,187.00 ,100.00 ,0.77 ,26219159500.00 
342.00 ,513.00 ,622.00 ,113.00 ,61.00 ,497.00 ,148.00 ,98.00 ,0.77 ,26219200300.00 
351.00 ,548.00 ,598.00 ,105.00 ,60.00 ,447.00 ,130.00 ,92.00 ,0.76 ,26240206800.00 
317.00 ,553.00 ,620.00 ,102.00 ,60.00 ,447.00 ,135.00 ,98.00 ,0.74 ,26281257200.00 
223.00 ,430.00 ,614.00 ,97.00 ,65.00 ,441.00 ,126.00 ,79.00 ,0.73 ,26300865200.00 
193.00 ,436.00 ,561.00 ,94.00 ,63.00 ,351.00 ,97.00 ,67.00 ,0.73 ,26300878400.00 
163.00 ,408.00 ,544.00 ,109.00 ,52.00 ,269.00 ,90.00 ,65.00 ,0.71 ,26340873000.00 
141.00 ,383.00 ,594.00 ,142.00 ,55.00 ,266.00 ,86.00 ,62.00 ,0.71 ,26340886900.00 
136.00 ,428.00 ,628.00 ,139.00 ,55.00 ,272.00 ,85.00 ,49.00 ,0.70 ,26361142400.00 
86.00 ,425.00 ,616.00 ,147.00 ,50.00 ,391.00 ,151.00 ,69.00 ,0.68 ,26403083400.00 
96.00 ,396.00 ,629.00 ,150.00 ,46.00 ,393.00 ,148.00 ,68.00 ,0.68 ,26403097200.00 
99.00 ,405.00 ,646.00 ,157.00 ,47.00 ,392.00 ,151.00 ,68.00 ,0.67 ,26420087200.00 
108.00 ,416.00 ,621.00 ,130.00 ,42.00 ,396.00 ,151.00 ,67.00 ,0.65 ,26460575800.00 
115.00 ,417.00 ,716.00 ,141.00 ,49.00 ,393.00 ,163.00 ,69.00 ,0.64 ,26480960900.00 
113.00 ,424.00 ,782.00 ,134.00 ,53.00 ,376.00 ,140.00 ,50.00 ,0.64 ,26480973500.00 
100.00 ,423.00 ,748.00 ,121.00 ,53.00 ,387.00 ,139.00 ,49.00 ,0.62 ,26520239100.00 
131.00 ,441.00 ,726.00 ,104.00 ,59.00 ,394.00 ,134.00 ,50.00 ,0.61 ,26540283000.00 
143.00 ,504.00 ,694.00 ,111.00 ,61.00 ,396.00 ,135.00 ,50.00 ,0.61 ,26540295100.00 
133.00 ,459.00 ,606.00 ,125.00 ,61.00 ,387.00 ,120.00 ,47.00 ,0.59 ,26578719700.00 
137.00 ,447.00 ,590.00 ,132.00 ,56.00 ,243.00 ,95.00 ,41.00 ,0.58 ,26598664600.00 
138.00 ,465.00 ,653.00 ,140.00 ,60.00 ,245.00 ,88.00 ,42.00 ,0.58 ,26598677600.00 
101.00 ,435.00 ,680.00 ,133.00 ,53.00 ,234.00 ,90.00 ,38.00 ,0.56 ,26641013700.00 
77.00 ,346.00 ,701.00 ,119.00 ,48.00 ,220.00 ,88.00 ,36.00 ,0.55 ,26658508300.00 
112.00 ,315.00 ,765.00 ,95.00 ,42.00 ,217.00 ,91.00 ,37.00 ,0.54 ,26678763900.00 
118.00 ,374.00 ,736.00 ,91.00 ,44.00 ,233.00 ,92.00 ,41.00 ,0.53 ,26698860800.00 
123.00 ,358.00 ,819.00 ,86.00 ,36.00 ,184.00 ,95.00 ,41.00 ,0.52 ,26719814000.00 
128.00 ,355.00 ,822.00 ,132.00 ,50.00 ,208.00 ,93.00 ,45.00 ,0.52 ,26719881000.00 
135.00 ,328.00 ,809.00 ,146.00 ,56.00 ,220.00 ,96.00 ,48.00 ,0.50 ,26759177000.00 
109.00 ,306.00 ,714.00 ,146.00 ,60.00 ,240.00 ,112.00 ,49.00 ,0.49 ,26778477100.00 
109.00 ,304.00 ,732.00 ,164.00 ,74.00 ,340.00 ,106.00 ,51.00 ,0.48 ,26799128100.00 
111.00 ,328.00 ,670.00 ,174.00 ,81.00 ,351.00 ,103.00 ,53.00 ,0.47 ,26820154300.00 
139.00 ,346.00 ,658.00 ,147.00 ,78.00 ,350.00 ,104.00 ,54.00 ,0.46 ,26840977700.00 
135.00 ,386.00 ,770.00 ,133.00 ,75.00 ,344.00 ,102.00 ,52.00 ,0.45 ,26859614600.00 
133.00 ,403.00 ,869.00 ,141.00 ,73.00 ,353.00 ,83.00 ,49.00 ,0.44 ,26881405000.00 
126.00 ,367.00 ,862.00 ,116.00 ,60.00 ,316.00 ,95.00 ,43.00 ,0.43 ,26898242300.00 
128.00 ,390.00 ,803.00 ,95.00 ,50.00 ,315.00 ,95.00 ,47.00 ,0.42 ,26921010400.00 
112.00 ,403.00 ,816.00 ,94.00 ,44.00 ,296.00 ,92.00 ,43.00 ,0.41 ,26940689500.00 
128.00 ,443.00 ,775.00 ,119.00 ,48.00 ,300.00 ,92.00 ,47.00 ,0.40 ,26968743200.00 
133.00 ,441.00 ,753.00 ,142.00 ,61.00 ,269.00 ,83.00 ,51.00 ,0.40 ,26968759500.00 
134.00 ,447.00 ,764.00 ,155.00 ,61.00 ,204.00 ,64.00 ,51.00 ,0.38 ,26999150400.00 
131.00 ,408.00 ,799.00 ,170.00 ,75.00 ,348.00 ,79.00 ,51.00 ,0.37 ,27021465400.00 
118.00 ,400.00 ,883.00 ,188.00 ,79.00 ,369.00 ,80.00 ,51.00 ,0.37 ,27021478100.00 
116.00 ,411.00 ,861.00 ,210.00 ,85.00 ,382.00 ,81.00 ,58.00 ,0.35 ,27060032500.00 
128.00 ,510.00 ,930.00 ,215.00 ,81.00 ,385.00 ,74.00 ,58.00 ,0.34 ,27081321900.00 
129.00 ,507.00 ,926.00 ,218.00 ,87.00 ,395.00 ,88.00 ,63.00 ,0.34 ,27081346900.00 
132.00 ,520.00 ,969.00 ,230.00 ,96.00 ,422.00 ,93.00 ,65.00 ,0.32 ,27118679900.00 
132.00 ,536.00 ,916.00 ,222.00 ,93.00 ,421.00 ,105.00 ,66.00 ,0.31 ,27141201900.00 
138.00 ,579.00 ,933.00 ,228.00 ,96.00 ,413.00 ,106.00 ,65.00 ,0.30 ,27162335400.00 
138.00 ,590.00 ,916.00 ,236.00 ,97.00 ,420.00 ,113.00 ,71.00 ,0.29 ,27179141900.00 
169.00 ,620.00 ,1018.00 ,278.00 ,105.00 ,413.00 ,106.00 ,84.00 ,0.28 ,27198812800.00 
177.00 ,636.00 ,1037.00 ,279.00 ,95.00 ,364.00 ,98.00 ,84.00 ,0.27 ,27218729700.00 
189.00 ,653.00 ,1195.00 ,307.00 ,97.00 ,415.00 ,105.00 ,89.00 ,0.26 ,27238746400.00 
209.00 ,642.00 ,1318.00 ,315.00 ,106.00 ,417.00 ,109.00 ,100.00 ,0.25 ,27260053800.00 
220.00 ,741.00 ,1317.00 ,310.00 ,110.00 ,414.00 ,107.00 ,104.00 ,0.24 ,27280375400.00 
199.00 ,742.00 ,1387.00 ,272.00 ,98.00 ,408.00 ,101.00 ,91.00 ,0.23 ,27298246900.00 
199.00 ,849.00 ,1401.00 ,274.00 ,96.00 ,321.00 ,102.00 ,94.00 ,0.22 ,27320589900.00 
189.00 ,837.00 ,1390.00 ,242.00 ,96.00 ,274.00 ,85.00 ,91.00 ,0.21 ,27338195300.00 
173.00 ,829.00 ,1365.00 ,241.00 ,87.00 ,264.00 ,79.00 ,81.00 ,0.20 ,27361107900.00 
158.00 ,693.00 ,1336.00 ,256.00 ,92.00 ,267.00 ,78.00 ,76.00 ,0.19 ,27380611100.00 
176.00 ,690.00 ,1267.00 ,362.00 ,125.00 ,244.00 ,78.00 ,83.00 ,0.17 ,27420130900.00 
188.00 ,595.00 ,1310.00 ,392.00 ,145.00 ,229.00 ,76.00 ,91.00 ,0.17 ,27420175300.00 
188.00 ,625.00 ,1232.00 ,420.00 ,150.00 ,184.00 ,74.00 ,90.00 ,0.16 ,27439900500.00 
192.00 ,621.00 ,1170.00 ,417.00 ,150.00 ,174.00 ,74.00 ,97.00 ,0.15 ,27464970700.00 
195.00 ,627.00 ,1206.00 ,409.00 ,143.00 ,211.00 ,103.00 ,95.00 ,0.14 ,27479339800.00 
227.00 ,726.00 ,1230.00 ,441.00 ,150.00 ,250.00 ,118.00 ,108.00 ,0.13 ,27500051800.00 
233.00 ,821.00 ,1158.00 ,471.00 ,155.00 ,273.00 ,124.00 ,111.00 ,0.12 ,27521087900.00 
276.00 ,887.00 ,1129.00 ,497.00 ,169.00 ,288.00 ,129.00 ,124.00 ,0.11 ,27539072800.00 
292.00 ,987.00 ,1123.00 ,533.00 ,190.00 ,300.00 ,135.00 ,127.00 ,0.10 ,27559843500.00 
315.00 ,1018.00 ,1088.00 ,590.00 ,215.00 ,264.00 ,126.00 ,144.00 ,0.09 ,27579714800.00 
300.00 ,1073.00 ,959.00 ,530.00 ,200.00 ,256.00 ,122.00 ,134.00 ,0.08 ,27599417400.00 
376.00 ,1075.00 ,980.00 ,580.00 ,228.00 ,257.00 ,132.00 ,165.00 ,0.07 ,27620617400.00 
424.00 ,1128.00 ,1079.00 ,652.00 ,245.00 ,248.00 ,149.00 ,189.00 ,0.06 ,27640218000.00 
437.00 ,1038.00 ,1054.00 ,675.00 ,252.00 ,234.00 ,151.00 ,197.00 ,0.05 ,27659679900.00 
449.00 ,1051.00 ,1106.00 ,654.00 ,253.00 ,244.00 ,144.00 ,210.00 ,0.04 ,27680295000.00 
508.00 ,995.00 ,1184.00 ,721.00 ,292.00 ,217.00 ,156.00 ,235.00 ,0.03 ,27698224700.00 
504.00 ,1050.00 ,1286.00 ,818.00 ,324.00 ,221.00 ,162.00 ,243.00 ,0.02 ,27719093800.00 
519.00 ,1032.00 ,1267.00 ,827.00 ,346.00 ,213.00 ,166.00 ,254.00 ,0.01 ,27739951000.00 
536.00 ,1131.00 ,1230.00 ,822.00 ,348.00 ,224.00 ,165.00 ,253.00 ,0.00 ,27760418500.00 
592.00 ,1223.00 ,1193.00 ,875.00 ,354.00 ,247.00 ,170.00 ,258.00 ,0.01 ,27779163600.00 
607.00 ,1252.00 ,1256.00 ,907.00 ,358.00 ,281.00 ,173.00 ,270.00 ,0.02 ,27798959100.00 
590.00 ,1258.00 ,1213.00 ,792.00 ,316.00 ,280.00 ,157.00 ,249.00 ,0.03 ,27818960600.00 
533.00 ,1255.00 ,1118.00 ,729.00 ,291.00 ,291.00 ,137.00 ,220.00 ,0.04 ,27838723500.00 
505.00 ,1219.00 ,1209.00 ,712.00 ,281.00 ,288.00 ,131.00 ,211.00 ,0.05 ,27859022200.00 
453.00 ,1115.00 ,1189.00 ,668.00 ,276.00 ,277.00 ,131.00 ,197.00 ,0.06 ,27878469900.00 
401.00 ,1095.00 ,1065.00 ,566.00 ,241.00 ,268.00 ,117.00 ,167.00 ,0.07 ,27898829800.00 
373.00 ,1025.00 ,1041.00 ,502.00 ,220.00 ,286.00 ,130.00 ,265.00 ,0.08 ,27921191300.00 
360.00 ,909.00 ,1017.00 ,455.00 ,199.00 ,352.00 ,153.00 ,295.00 ,0.09 ,27939203000.00 
343.00 ,810.00 ,898.00 ,410.00 ,179.00 ,364.00 ,195.00 ,353.00 ,0.10 ,27959675300.00 
298.00 ,738.00 ,882.00 ,316.00 ,152.00 ,570.00 ,409.00 ,556.00 ,0.11 ,27980612900.00 
280.00 ,605.00 ,824.00 ,231.00 ,127.00 ,604.00 ,440.00 ,659.00 ,0.12 ,28001204500.00 
253.00 ,425.00 ,615.00 ,229.00 ,134.00 ,753.00 ,591.00 ,694.00 ,0.12 ,28001235600.00 
263.00 ,458.00 ,573.00 ,226.00 ,130.00 ,748.00 ,708.00 ,750.00 ,0.14 ,28040740200.00 
264.00 ,538.00 ,566.00 ,194.00 ,132.00 ,844.00 ,752.00 ,753.00 ,0.15 ,28060810600.00 
260.00 ,619.00 ,539.00 ,191.00 ,130.00 ,865.00 ,701.00 ,709.00 ,0.16 ,28079109500.00 
200.00 ,618.00 ,510.00 ,178.00 ,122.00 ,910.00 ,803.00 ,802.00 ,0.17 ,28098551500.00 
216.00 ,594.00 ,519.00 ,184.00 ,134.00 ,976.00 ,825.00 ,828.00 ,0.18 ,28118742000.00 
202.00 ,587.00 ,602.00 ,149.00 ,123.00 ,1007.00 ,761.00 ,840.00 ,0.19 ,28141667500.00 
221.00 ,639.00 ,620.00 ,158.00 ,118.00 ,945.00 ,742.00 ,848.00 ,0.20 ,28160015700.00 
199.00 ,588.00 ,574.00 ,144.00 ,100.00 ,832.00 ,736.00 ,829.00 ,0.21 ,28180125300.00 
211.00 ,577.00 ,561.00 ,135.00 ,110.00 ,840.00 ,670.00 ,701.00 ,0.22 ,28198317100.00 
207.00 ,629.00 ,551.00 ,130.00 ,83.00 ,651.00 ,681.00 ,667.00 ,0.23 ,28223440700.00 
229.00 ,632.00 ,536.00 ,165.00 ,83.00 ,607.00 ,656.00 ,705.00 ,0.24 ,28239931700.00 
204.00 ,478.00 ,448.00 ,160.00 ,89.00 ,650.00 ,623.00 ,886.00 ,0.25 ,28260123000.00 
216.00 ,435.00 ,431.00 ,153.00 ,92.00 ,697.00 ,699.00 ,875.00 ,0.26 ,28279945700.00 
196.00 ,425.00 ,435.00 ,149.00 ,80.00 ,664.00 ,715.00 ,871.00 ,0.27 ,28299238300.00 
192.00 ,417.00 ,437.00 ,144.00 ,79.00 ,685.00 ,581.00 ,850.00 ,0.28 ,28318936200.00 
222.00 ,614.00 ,601.00 ,190.00 ,95.00 ,670.00 ,599.00 ,817.00 ,0.29 ,28340002000.00 
231.00 ,675.00 ,643.00 ,216.00 ,93.00 ,655.00 ,702.00 ,609.00 ,0.30 ,28360415200.00 
224.00 ,684.00 ,623.00 ,214.00 ,97.00 ,700.00 ,771.00 ,647.00 ,0.31 ,28379191500.00 
226.00 ,681.00 ,631.00 ,217.00 ,100.00 ,739.00 ,776.00 ,671.00 ,0.32 ,28400063500.00 
238.00 ,663.00 ,631.00 ,216.00 ,97.00 ,684.00 ,810.00 ,642.00 ,0.33 ,28420964800.00 
246.00 ,514.00 ,531.00 ,172.00 ,82.00 ,669.00 ,798.00 ,564.00 ,0.34 ,28440677400.00 
303.00 ,479.00 ,607.00 ,147.00 ,85.00 ,670.00 ,737.00 ,692.00 ,0.35 ,28460867900.00 
310.00 ,481.00 ,604.00 ,145.00 ,87.00 ,661.00 ,662.00 ,680.00 ,0.36 ,28480504600.00 
327.00 ,514.00 ,606.00 ,142.00 ,81.00 ,564.00 ,633.00 ,701.00 ,0.37 ,28499863300.00 
330.00 ,540.00 ,589.00 ,140.00 ,84.00 ,603.00 ,616.00 ,752.00 ,0.38 ,28519693100.00 
330.00 ,531.00 ,449.00 ,99.00 ,75.00 ,594.00 ,612.00 ,742.00 ,0.39 ,28538219300.00 
386.00 ,479.00 ,413.00 ,68.00 ,64.00 ,570.00 ,659.00 ,674.00 ,0.40 ,28558597100.00 
381.00 ,484.00 ,470.00 ,77.00 ,53.00 ,541.00 ,623.00 ,638.00 ,0.41 ,28579681600.00 
374.00 ,457.00 ,454.00 ,73.00 ,59.00 ,553.00 ,748.00 ,626.00 ,0.42 ,28600173500.00 
365.00 ,443.00 ,453.00 ,73.00 ,56.00 ,556.00 ,726.00 ,631.00 ,0.43 ,28621314000.00 
330.00 ,451.00 ,470.00 ,71.00 ,53.00 ,571.00 ,750.00 ,746.00 ,0.44 ,28638639600.00 
