7,65,23,1,3,3,-2,-39,0.19,351006100
-16,-30,-105,-24,-8,-8,-7,-41,0.19,351017100
13,16,48,15,5,6,2,9,0.19,351025700
-2,0,74,19,3,-1,0,-1,0.19,351033100
-3,-19,-128,-5,-3,-3,1,-2,0.2,361417100
-5,17,106,-1,0,10,1,-3,0.2,361427800
1,3,27,3,-2,-24,-4,8,0.21,383231700
-10,-25,-128,-9,-3,-3,-2,-22,0.21,383244800
8,20,57,11,0,8,7,30,0.21,383253600
-1,-17,-88,-7,-5,-2,-11,-16,0.21,383261200
-14,0,77,-5,-1,1,-6,-31,0.22,403759600
8,9,16,8,7,9,5,10,0.22,403774700
7,11,79,15,2,8,26,27,0.22,403783500
-15,-13,-67,-21,-12,-23,-50,15,0.22,403835800
4,9,109,13,2,2,6,39,0.23,418518400
-4,4,-107,-17,-7,5,-8,-63,0.23,418529300
3,-39,13,4,-1,-21,5,10,0.23,418538000
-4,-15,-12,-1,-1,12,1,8,0.23,418546300
3,53,86,18,5,-15,-2,-64,0.24,440084600
-8,-15,95,-7,-5,-1,0,2,0.24,440095600
-7,15,-128,-14,-3,8,-4,-83,0.24,440105300
-2,2,9,3,2,18,-4,10,0.24,440113200
-3,6,-57,-13,-5,3,7,30,0.25,461791700
3,3,58,1,-1,-44,-2,3,0.25,461840800
0,13,16,5,1,19,-1,2,0.25,461851100
2,5,5,4,0,0,-2,4,0.25,461859000
0,0,50,6,1,8,-1,0,0.26,483313500
-5,16,38,-5,-5,18,4,-5,0.26,483326100
0,-8,-110,8,0,3,2,5,0.26,483334400
7,-6,-42,-3,3,-11,-13,-5,0.26,483342800
-15,-18,50,-18,-6,-7,-9,-18,0.26,483350600
-6,-16,18,-6,-8,4,28,68,0.26,483358300
6,10,-25,8,4,2,0,-45,0.28,519481100
1,35,14,14,2,0,1,-62,0.28,519492100
3,-46,10,10,5,24,-6,-47,0.28,519500400
-7,-29,8,-26,-8,-33,-4,1,0.28,519508900
-7,-14,-30,4,-6,53,8,88,0.28,519546200
-4,2,26,-1,-4,-54,-41,-72,0.28,519557300
1,-7,15,8,3,-43,-16,0,0.29,541198600
-8,29,74,-1,1,7,22,-3,0.29,541209000
9,-33,-119,-13,1,19,17,56,0.29,541217400
-16,-17,-24,-3,-3,18,-30,-57,0.29,541225300
6,-3,40,9,2,-36,-37,15,0.3,564137700
-5,-13,-9,-5,-3,10,52,44,0.3,564149100
18,18,-30,7,6,43,13,86,0.3,564171800
10,1,35,-4,4,49,118,5,0.3,564212900
-22,-9,5,-5,-16,-128,-128,-70,0.31,577585500
-2,12,-31,-3,-2,73,-128,-128,0.31,577597000
-7,9,-7,0,7,22,127,127,0.31,577606200
-10,-5,-8,-8,-15,-128,-59,-29,0.31,577614200
-22,-41,-9,1,0,-14,127,-128,0.32,599371100
12,59,4,2,6,30,-121,127,0.32,599383900
-20,-4,-13,-7,-10,127,-40,76,0.32,599393000
-4,23,-19,7,-7,-128,45,-128,0.32,599432500
-18,-47,-24,-14,-7,-25,-16,7,0.33,617574100
5,-2,-11,0,6,10,15,2,0.33,617587900
7,38,57,2,8,24,29,127,0.34,638747500
-5,-17,-40,1,-1,47,41,-128,0.34,638759700
0,2,20,-13,-6,-22,74,-29,0.34,638770700
4,-35,108,14,4,12,54,77,0.34,638779400
13,9,-44,-1,13,51,127,127,0.34,638787500
-5,-42,-68,-5,-2,47,-50,-128,0.34,638796000
-12,13,122,-7,-14,-80,-128,-128,0.35,657515900
20,3,-102,-3,2,-29,59,69,0.35,657530800
-31,5,100,-1,-5,89,-39,-128,0.35,657565000
-3,-11,16,3,3,-62,95,-100,0.35,657582900
0,15,25,0,13,59,-54,-106,0.36,678781100
4,4,-62,-9,-16,-128,127,-128,0.36,678792400
-1,14,13,12,7,114,-128,-25,0.37,699505300
12,11,19,7,4,67,-128,-112,0.37,699524500
-45,-13,3,6,-6,-128,127,127,0.37,699533900
-10,-25,4,3,4,127,127,94,0.37,699541600
-13,7,-29,-7,-3,-55,-112,-128,0.38,718131900
-25,-5,-7,-6,-15,-128,-128,-26,0.38,718150400
10,8,17,5,6,72,-30,-16,0.38,718162100
24,7,-7,7,14,32,127,77,0.38,718170900
6,19,71,9,-5,-38,-128,3,0.39,738782300
-26,-80,-62,-36,-14,49,127,-2,0.39,738795900
-12,-8,-24,-6,0,-6,26,32,0.39,738805200
6,2,11,-4,3,5,71,102,0.39,738812800
9,45,112,26,13,32,-32,126,0.4,759512500
6,5,19,15,7,66,65,-82,0.4,759526600
-55,-12,33,-1,1,18,-36,-128,0.4,759536400
-6,-22,-108,-10,-11,-101,-83,-128,0.4,759547500
21,2,40,1,12,68,80,-128,0.4,759555100
-30,-5,47,-6,-16,-33,127,58,0.4,759562800
15,-15,18,9,-3,-128,-6,-32,0.41,779749100
-36,-7,-28,5,9,55,54,-128,0.41,779761300
7,31,18,2,0,49,127,-31,0.41,779794900
-24,-13,-10,-8,-9,37,-128,-128,0.41,779826600
27,0,1,6,13,21,127,127,0.42,799856500
21,15,9,2,-4,-128,88,-63,0.42,799869700
-45,-21,-10,-2,8,127,-67,120,0.42,799878300
15,-66,0,-1,-2,-119,-128,116,0.42,799900000
4,-19,-13,0,2,54,-128,47,0.43,818956100
-10,12,71,4,8,36,69,-50,0.43,819007100
-12,-6,-96,-1,1,12,-128,-15,0.43,819020900
25,72,127,25,23,76,92,-128,0.43,819031500
0,-55,30,-7,-9,-90,127,64,0.44,839691600
-52,-70,-128,-66,-35,-43,-128,1,0.44,839731600
3,37,88,6,5,27,81,125,0.45,858192100
3,-17,57,15,-4,-69,-5,127,0.45,858206200
16,32,11,10,14,127,-128,127,0.45,858214600
30,18,13,13,0,-111,127,125,0.45,858222200
34,26,-4,1,-3,-51,-83,-128,0.46,879408100
-4,19,-24,1,-11,-116,89,-90,0.46,879440300
12,28,3,-3,-5,4,-20,127,0.46,879468300
-11,-50,-30,0,-1,-11,68,50,0.46,879480300
50,51,1,17,15,100,115,58,0.46,879488900
-32,0,-19,-10,-8,-46,-96,-98,0.46,879497500
2,-14,-15,3,12,127,55,127,0.47,898996400
-31,-51,-13,-9,-17,-128,-128,-92,0.47,899009400
31,18,-6,-1,-6,-128,-128,-30,0.47,899020000
-8,8,4,-3,1,105,-128,-128,0.47,899029900
22,17,4,6,7,109,127,-128,0.48,919526200
30,17,22,2,6,98,117,127,0.48,919538300
-3,8,5,5,1,-77,-49,100,0.48,919547700
-20,-46,-95,-5,-9,8,6,-2,0.48,919557100
12,-47,-7,-9,-3,-23,45,-57,0.49,937966600
-2,-6,-14,-3,5,19,41,39,0.49,937979100
3,12,49,-1,10,127,-127,127,0.49,937990200
-26,6,60,2,-15,-128,24,-14,0.49,938039700
9,-5,4,10,13,127,127,127,0.5,959982500
-19,-41,-58,-15,-18,-128,127,-128,0.5,959994300
22,7,41,8,2,115,62,127,0.5,960003300
2,-45,-128,-25,-8,-20,118,-67,0.5,960010900
13,6,45,-4,2,-66,-128,-95,0.51,978563800
-3,-6,29,4,-5,4,-128,-128,0.51,978574700
-27,-42,2,6,-1,24,-22,127,0.51,978584500
6,21,13,7,-3,-123,-39,127,0.51,978594300
13,23,-8,-3,-2,-13,127,69,0.52,999618900
32,-3,-3,6,17,127,-128,-98,0.52,999630600
13,40,5,7,9,-83,127,-34,0.53,1018560300
-6,-62,-4,0,-22,-128,-128,127,0.53,1018572700
10,22,-8,-4,0,80,-111,87,0.53,1018581900
-43,-7,11,-8,-10,-55,66,-128,0.53,1018594500
-28,-13,-81,-8,-7,-50,84,127,0.53,1018602800
11,38,53,9,8,23,-108,-76,0.53,1018610500
7,13,-34,1,0,-16,-51,127,0.54,1039478900
43,-22,82,12,18,127,44,127,0.54,1039517400
-31,-14,-100,-13,-8,17,-128,65,0.54,1039552900
-44,-26,35,-6,3,-102,-128,127,0.54,1039562500
34,-24,49,9,5,33,127,127,0.55,1058212200
-49,2,-22,-6,-13,127,127,-97,0.55,1058257200
-38,-14,-13,-10,-5,70,-29,103,0.56,1078817400
52,-17,17,-6,-11,-114,-73,90,0.56,1078837000
-45,-12,1,-7,-19,-75,-60,103,0.56,1078876900
30,32,5,3,19,127,74,90,0.56,1078887700
-2,19,0,-5,-24,-128,-128,127,0.56,1078895900
6,-34,-25,-4,12,127,127,-128,0.56,1078903600
-43,-45,44,0,1,117,-76,-128,0.57,1099072600
27,-18,7,6,-6,-128,-9,127,0.57,1099083800
20,-1,-16,1,9,64,-124,-17,0.57,1099092800
12,-58,13,-13,-24,-128,-128,30,0.57,1099102700
39,49,-8,8,1,-128,127,76,0.58,1117590000
-19,-128,-15,-9,7,127,-127,127,0.58,1117631700
4,127,30,-5,-18,-128,127,14,0.59,1139164400
8,-73,-128,-30,-22,-96,-66,67,0.59,1139176900
7,-7,23,-1,-8,127,-1,54,0.59,1139186600
-69,25,114,14,12,87,127,-128,0.59,1139195900
-5,26,-93,3,0,72,127,-72,0.59,1139203700
-2,-38,-47,-8,6,111,-39,-128,0.59,1139211100
2,-3,-25,1,7,77,-33,127,0.6,1159857100
81,-68,24,-1,-5,-114,79,127,0.6,1159868800
-9,-31,17,1,-6,-128,-128,-53,0.61,1178066000
9,88,39,22,27,-21,106,-41,0.61,1178097100
-17,-128,-29,-7,3,127,-128,-128,0.61,1178121700
1,-2,-4,-5,-11,-128,-100,-128,0.61,1178133000
-7,17,0,1,-1,-22,66,29,0.62,1198561900
72,30,10,11,13,-119,17,106,0.62,1198573200
34,18,-10,3,-3,-41,127,127,0.62,1198582000
-53,-29,-15,-5,-4,44,-128,127,0.62,1198594500
3,10,18,-1,-12,-97,-7,127,0.63,1218415600
11,9,43,12,-4,-7,-12,127,0.63,1218426100
34,-11,-89,-3,-2,-128,21,-109,0.63,1218435200
-30,-66,-127,-33,-21,127,-128,60,0.63,1218443400
-10,-15,35,1,4,127,-18,10,0.63,1218451500
-37,-54,13,1,-6,124,-128,-82,0.63,1218458600
13,47,-2,8,26,78,89,3,0.64,1238850000
-59,-33,-21,-18,-15,-128,-116,127,0.64,1238899900
33,-5,82,8,18,127,-128,24,0.65,1259430200
48,28,-3,-4,-8,-128,2,127,0.65,1259440500
14,-8,11,0,-4,127,127,-125,0.65,1259450700
-15,-128,-3,4,4,12,127,-128,0.65,1259461400
8,-25,30,13,17,-128,-124,-128,0.65,1259469400
-3,20,-18,-10,-11,108,-128,-70,0.65,1259477600
-75,-128,9,-4,4,54,-123,23,0.67,1298441700
-4,-3,-15,3,2,-61,-7,-107,0.67,1298462100
34,30,6,1,-2,127,127,127,0.67,1298471700
44,-51,12,10,29,127,112,-103,0.67,1298480200
-22,-13,-8,-11,-28,-128,67,-73,0.67,1298489600
16,91,4,0,-13,-128,122,119,0.67,1298497300
-2,3,2,-4,-3,120,-128,-128,0.68,1319527300
49,16,14,14,26,127,-122,127,0.68,1319566900
82,24,8,4,-6,-128,127,127,0.68,1319589000
-47,-53,-15,-10,-9,-17,-128,-128,0.68,1319598200
-11,-26,6,-2,5,-128,127,-106,0.68,1319606200
35,2,10,9,7,-28,100,-36,0.68,1319613800
-50,-6,-106,-10,-7,-128,-77,-92,0.69,1340177700
-16,-34,12,-12,-16,-128,82,127,0.69,1340190200
-4,56,37,11,7,-128,127,39,0.69,1340199400
27,43,92,18,25,127,-128,-25,0.69,1340207300
30,26,6,-2,-15,-128,127,127,0.7,1358731800
-62,-53,-119,-31,-25,100,-128,37,0.7,1358755300
29,36,69,7,11,123,-91,12,0.71,1377505800
-32,-80,10,-3,7,127,20,-128,0.71,1377515900
-4,127,23,15,10,127,-128,127,0.71,1377524400
18,-9,-8,-4,-18,-96,-128,127,0.71,1377532800
-18,-65,-18,-11,-6,-55,-23,-128,0.71,1377540700
3,3,-31,-2,11,127,127,-65,0.71,1377568700
-5,3,-9,3,-2,-101,-52,-128,0.72,1398790000
46,28,1,2,1,-109,127,127,0.72,1398801900
-12,-24,8,-6,-3,127,-128,-89,0.72,1398810900
26,-12,17,3,3,127,-69,-128,0.72,1398818900
-13,-12,-24,-10,-9,-128,-61,90,0.73,1419409800
1,-102,-3,-3,-7,105,85,-128,0.73,1419447800
-13,55,0,1,4,124,-125,-128,0.74,1439684200
-12,20,2,-6,-10,28,127,-68,0.74,1439696000
57,32,13,9,3,-128,-15,127,0.74,1439706400
-14,-12,-2,2,-1,-128,127,-34,0.74,1439716500
51,88,53,11,23,127,-128,127,0.74,1439726400
53,36,-31,-4,-7,127,127,127,0.74,1439733700
4,-3,-124,-13,-6,-128,58,-84,0.75,1458059300
24,-1,63,15,18,127,127,127,0.75,1458072600
24,3,30,6,4,127,106,91,0.75,1458081600
8,10,18,-2,7,-128,-22,-103,0.75,1458092400
4,26,-11,-3,7,127,-63,-128,0.76,1479272700
-10,-14,17,4,-14,-128,89,-29,0.76,1479284100
11,1,6,4,4,127,-42,-95,0.77,1498864700
33,56,30,13,11,26,-128,53,0.77,1498876100
-1,-51,-29,-9,-8,127,95,-70,0.77,1498895700
-26,-22,-11,1,21,127,69,127,0.77,1498930100
114,26,23,10,16,127,127,127,0.77,1498949500
-6,-80,1,6,5,-128,127,127,0.77,1498958900
-8,-4,-5,-4,-8,127,87,-128,0.78,1518486300
2,-22,-30,-5,-2,127,55,-33,0.78,1518497800
-1,-128,13,1,3,-30,-38,31,0.79,1540769500
-16,16,-23,0,11,127,105,-128,0.79,1540798000
33,30,18,16,24,127,-89,-128,0.79,1540807200
64,-20,30,7,-5,-128,-128,127,0.79,1540815500
-57,11,-32,-3,-3,-88,-128,127,0.79,1540823700
-2,-36,-92,-12,-1,-128,-128,-83,0.79,1540832900
-2,-55,17,-5,-7,64,127,127,0.8,1558770900
-56,127,50,1,15,127,-128,-128,0.8,1558782600
4,13,-52,-4,7,-79,127,127,0.8,1558791500
6,-8,32,1,20,127,14,88,0.8,1558830700
23,-64,13,7,-5,-93,125,-73,0.81,1577681600
-36,22,7,-3,-1,127,5,-128,0.81,1577692100
13,51,19,6,-11,-128,-128,-60,0.82,1598020500
-26,15,8,-8,12,127,63,-25,0.82,1598032400
-63,48,-65,-10,-23,-128,-128,-92,0.82,1598046200
6,-85,29,0,5,117,-107,127,0.82,1598055100
31,-49,-101,-15,-13,90,-128,-128,0.83,1618681600
19,-7,-10,9,20,127,125,127,0.83,1618696500
24,-16,-6,-7,-2,127,-128,104,0.83,1618707700
-12,18,17,4,1,-66,-105,-128,0.83,1618717100
-51,9,-2,2,3,127,-127,-128,0.83,1618724800
-31,-50,1,-5,-5,60,-128,127,0.83,1618732300
12,28,-1,-1,-3,127,94,75,0.84,1637711700
-11,-13,-10,-10,-15,127,127,127,0.84,1637722200
2,0,7,7,2,-128,127,27,0.85,1658322100
20,28,3,4,8,127,127,127,0.85,1658377300
-30,-17,-9,-16,-53,-128,-128,-128,0.85,1658387600
-24,24,14,-9,-5,-85,-128,-128,0.85,1658395500
41,-85,-14,-7,-4,-128,127,99,0.86,1678558700
13,-95,-112,-14,-28,103,127,127,0.86,1678575800
36,115,58,15,32,127,-128,127,0.86,1678585100
14,110,87,2,-3,2,-128,20,0.86,1678593100
-78,-10,-38,-23,-33,-128,127,-128,0.86,1678602900
23,-52,32,6,8,127,127,70,0.86,1678610800
-7,34,5,-2,-11,-128,77,-128,0.87,1699390100
67,-12,24,10,4,127,45,127,0.87,1699402600
59,27,17,12,3,-128,65,-128,0.87,1699413800
-42,39,7,2,9,15,-128,38,0.87,1699425100
-49,65,2,2,8,60,-56,-128,0.88,1718030400
-25,-67,-13,-9,-27,-128,127,-128,0.88,1718078600
39,-29,-39,-6,3,127,-128,21,0.89,1739075400
33,26,1,-3,-11,-20,96,124,0.89,1739086800
-41,-99,-7,7,13,-128,-18,127,0.89,1739096500
52,-26,31,19,8,-128,99,127,0.89,1739130900
4,9,-7,-17,-29,127,127,-128,0.89,1739151900
32,39,30,10,15,-128,127,78,0.89,1739160500
-8,14,34,0,7,127,-128,-128,0.9,1759638700
-60,-9,-27,-25,-38,-128,115,91,0.9,1759650600
71,67,31,-3,12,127,67,127,0.9,1759659200
-38,84,54,7,21,127,-128,-128,0.9,1759667100
-5,-114,60,9,4,-128,127,127,0.91,1778184500
1,88,20,8,14,127,-125,68,0.91,1778200700
-33,-52,-50,-18,-26,-128,127,127,0.92,1799248000
-56,-22,-35,-13,-10,-85,-128,-18,0.92,1799260000
78,17,38,-5,1,127,-80,127,0.92,1799306000
-37,8,1,-11,-22,127,-128,127,0.92,1799320900
33,-2,16,2,0,-128,127,88,0.92,1799329300
-24,-45,12,8,19,127,-128,-128,0.92,1799337700
-106,11,-22,-14,-21,-81,127,4,0.93,1817516300
24,58,-11,-25,-20,-128,5,127,0.93,1817526600
32,24,7,22,17,72,-93,-40,0.94,1838076900
-10,-72,1,-1,1,-128,-128,28,0.94,1838091700
12,60,6,-11,-18,-128,-36,-128,0.94,1838100500
24,22,28,9,9,86,40,123,0.94,1838108100
14,-51,3,-3,-2,-128,-128,-113,0.95,1858909700
1,-30,36,-1,0,119,-128,11,0.95,1858921400
58,-38,-47,-2,-5,69,-128,-128,0.95,1858930100
-1,-76,-37,-6,8,124,-94,127,0.95,1858955700
-15,-96,-52,-15,-15,127,127,127,0.95,1858966000
-47,113,39,1,0,-128,127,-128,0.95,1858974000
18,-11,44,18,15,10,-128,-128,0.96,1877799500
104,63,27,20,20,-128,-128,-53,0.96,1877811300
17,1,3,3,-18,-128,127,127,0.96,1877844400
40,-1,1,-7,-26,127,-84,-128,0.96,1877863900
56,-96,-4,2,11,127,-88,127,0.97,1898551600
70,-110,62,17,32,119,127,127,0.97,1898579500
5,-21,-6,3,4,-128,127,76,0.98,1918716900
11,-25,-26,-13,-12,-81,19,127,0.98,1918732800
-13,-22,18,0,-10,-1,-93,56,0.98,1918744200
-9,19,12,-1,3,127,-57,-128,0.98,1918754400
-13,2,19,2,5,104,79,-48,0.98,1918762400
-27,43,33,7,5,1,3,5,0.98,1918769800
4,-1,21,0,0,-16,-7,-6,0.99,1939844400
3,-34,-68,-8,-3,-54,0,-10,0.99,1939855400
4,28,-4,-1,9,127,-105,-51,0.99,1939863600
17,22,30,4,-2,17,127,8,0.99,1939903100
6,-12,16,5,-4,-128,79,-128,0.98,1958684700
-10,13,46,6,-7,68,-60,5,0.98,1958695500
-1,-12,-21,1,4,127,-1,127,0.97,1979749800
7,-111,-128,-30,-18,44,5,127,0.97,1979764500
10,21,43,0,-3,41,-80,20,0.97,1979774100
2,-1,28,7,-5,-122,24,25,0.97,1979785800
5,-37,5,7,4,3,-3,-1,0.97,1979795700
4,5,18,-12,0,-20,6,-4,0.97,1979804200
2,10,24,12,3,16,-11,-1,0.96,1997603300
-6,-13,-41,-11,-12,-13,122,22,0.96,1997615300
-10,7,4,0,-3,-110,46,127,0.95,2018352400
-3,10,17,-2,-2,-7,-17,43,0.95,2018365400
-3,-7,13,0,-2,12,110,-3,0.95,2018376900
-7,-35,8,-2,4,127,-61,2,0.95,2018390300
-41,-26,0,-10,-1,81,127,127,0.94,2039961200
-4,-38,-111,-12,-13,-128,-6,96,0.94,2040005500
-4,-15,20,-9,1,127,-35,127,0.94,2040021300
11,-10,30,3,-2,-79,14,5,0.94,2040029900
-1,110,28,0,-1,3,25,-3,0.93,2057966500
-1,-27,5,9,0,32,6,10,0.93,2057979200
2,13,74,-5,3,-2,4,7,0.92,2078788700
1,-5,-103,-5,6,-23,3,-1,0.92,2078800300
-2,-20,-80,-2,-4,-13,0,-3,0.92,2078809600
-13,-49,-128,-18,-11,24,-3,-11,0.92,2078818300
1,4,113,-5,1,-23,-3,-4,0.92,2078829200
7,16,60,9,5,-14,9,0,0.92,2078840500
2,22,3,-26,2,-26,-12,-10,0.91,2099710500
-8,-31,-64,54,1,-48,1,-4,0.91,2099724600
-14,-26,-22,-21,-9,-38,-7,-6,0.91,2099734700
7,101,100,0,-3,-72,2,4,0.91,2099743200
23,1,27,-2,10,79,18,14,0.9,2118708100
12,69,13,2,0,-128,-70,1,0.9,2118719100
22,7,-6,3,2,69,-32,-3,0.9,2118728600
-15,29,23,-5,-11,-128,-48,127,0.9,2118739300
4,-64,15,2,-5,49,-78,21,0.9,2118749900
8,57,-27,-1,4,102,-18,-11,0.9,2118760600
-33,12,-9,-4,-3,81,-4,7,0.89,2137862800
7,-21,0,-2,6,52,5,1,0.89,2137874600
8,21,38,9,0,28,2,0,0.88,2158498300
-8,-27,-79,-3,-6,4,-2,-6,0.88,2158511200
9,19,46,1,-5,-4,-1,-2,0.88,2158519900
-3,36,-31,-7,0,-8,3,-1,0.88,2158528000
-11,-32,17,-19,-8,-13,-3,-7,0.87,2178884100
1,2,84,-17,-5,-9,-3,-2,0.87,2178924200
-7,-8,27,-15,-6,-8,-2,-5,0.87,2178934300
3,-3,59,41,5,-34,2,0,0.87,2178943100
2,30,-64,10,5,-38,2,1,0.86,2199760100
6,14,123,-12,-5,-27,-4,-3,0.86,2199772800
-3,5,-25,-6,-1,-19,0,2,0.86,2199783300
17,5,-10,-10,-2,11,2,-5,0.86,2199793600
-8,3,25,19,4,25,25,2,0.85,2218434300
1,3,13,4,5,67,-40,5,0.85,2218446200
8,17,-12,8,2,-28,-5,-7,0.85,2218490900
-14,-27,-65,-21,-14,-93,-20,-8,0.85,2218503900
2,-1,16,-3,-2,43,0,4,0.84,2238729600
6,12,0,2,2,42,-3,0,0.84,2238739800
0,-28,18,-3,-3,27,2,-4,0.84,2238748700
32,75,-37,1,0,9,-10,2,0.84,2238757700
7,30,127,14,0,4,1,4,0.84,2238765800
-21,-57,-128,-40,-15,-5,-6,-8,0.84,2238773500
-9,-20,-8,6,-4,-2,-3,-6,0.83,2258998000
0,24,66,-18,2,-7,3,2,0.83,2259054500
8,-3,43,7,5,-7,-4,4,0.82,2277729700
31,-64,103,3,0,-1,3,-6,0.82,2277741300
-9,-4,-100,-1,0,-12,3,-10,0.82,2277786900
-7,-14,51,1,-4,6,-3,-1,0.82,2277801400
3,3,-50,0,-2,1,1,-5,0.81,2299079700
8,-10,-36,-4,4,57,-36,12,0.81,2299090600
-23,-45,-17,-2,-11,-128,13,-14,0.81,2299099400
14,12,84,10,3,15,-19,13,0.81,2299108600
-1,4,-64,2,4,16,3,-4,0.81,2299147300
-9,-43,-86,-22,-8,14,-7,-5,0.81,2299169500
24,-5,-110,-23,-7,23,-6,-2,0.8,2319663100
8,19,29,21,9,-3,3,4,0.8,2319698300
-6,10,85,-3,-2,1,1,-3,0.79,2337788700
3,8,31,4,-1,1,0,2,0.79,2337802200
4,13,112,16,4,-1,3,-1,0.79,2337812200
5,21,38,11,5,-3,3,3,0.79,2337819600
-11,-43,-128,-23,-5,-3,-3,-8,0.78,2358490300
-5,-7,-20,-9,-6,-2,3,-4,0.78,2358501200
-3,22,88,8,-2,0,-3,3,0.78,2358510900
3,65,-72,6,3,-5,4,4,0.78,2358522500
-7,43,23,9,6,12,24,5,0.78,2358534300
6,-25,-64,-17,0,44,-12,-7,0.78,2358543100
3,33,127,10,-6,-69,1,13,0.77,2379429300
2,55,16,-4,2,17,-14,-7,0.77,2379461100
-15,-69,-128,-19,-12,-125,21,-18,0.76,2399847000
-7,-25,-52,-11,1,40,5,3,0.76,2399859800
-10,-1,-83,-11,0,1,-10,28,0.76,2399880300
7,23,83,15,1,17,-2,2,0.76,2399916200
5,23,66,13,4,15,-1,3,0.75,2419855900
16,-71,-34,19,11,9,2,3,0.75,2419870300
-9,-23,24,-32,-7,1,-1,0,0.75,2419879600
0,-7,39,-1,0,8,-4,-1,0.75,2419902700
-19,13,-128,3,-1,-6,3,-4,0.75,2419910500
5,2,40,12,-1,-3,-3,2,0.75,2419917700
-6,-25,3,-14,-4,-5,-1,-4,0.74,2439940800
-22,4,-19,-18,-3,-1,-4,-7,0.74,2439991000
-14,-11,-91,-19,-8,-10,-1,-11,0.73,2458978400
0,-123,41,0,2,33,25,1,0.73,2459016000
1,-18,6,-5,-8,-47,-4,-3,0.73,2459028600
1,6,60,12,10,59,4,-11,0.73,2459039200
12,17,88,13,-8,-128,0,-7,0.72,2477580900
9,-5,-128,11,8,43,-25,11,0.72,2477592800
8,-10,47,-25,-15,-59,-1,-9,0.72,2477605600
-1,60,15,-1,2,13,-1,4,0.72,2477614000
1,-17,15,-2,-1,12,-3,1,0.71,2498385900
0,24,80,8,2,10,-3,2,0.71,2498419900
6,16,-7,4,3,0,-1,1,0.71,2498429000
1,-5,18,5,0,-3,-3,-4,0.71,2498436700
19,29,14,13,1,-1,3,5,0.7,2519166200
-76,82,-23,-10,-4,-1,-2,0,0.7,2519180800
-19,-128,-43,-36,-12,-3,-6,-8,0.7,2519192100
-5,-51,-45,-11,-2,-3,-1,0,0.7,2519200600
1,16,83,14,3,1,2,0,0.69,2538238800
8,19,-42,9,2,-2,7,3,0.69,2538252100
9,69,127,21,9,24,11,-5,0.69,2538261100
-6,-19,-128,-14,-9,-43,-5,11,0.69,2538269700
6,17,-41,18,8,-1,-25,-57,0.69,2538277500
-13,-37,93,-16,-6,10,0,-9,0.69,2538284900
0,24,-45,-8,0,5,-4,0,0.68,2558654100
0,26,47,5,0,20,2,4,0.68,2558666600
8,4,-15,3,2,-45,-19,-23,0.67,2584025900
10,-10,-18,2,-7,-28,31,-6,0.67,2584037100
12,14,127,18,7,12,2,10,0.67,2584046100
-20,-28,-87,-26,-11,-5,-6,29,0.67,2584054200
20,-61,29,2,-1,15,-20,-27,0.67,2584061800
5,66,26,16,8,11,4,0,0.67,2584069300
-1,-22,68,8,-5,-1,-5,3,0.66,2597922700
0,15,-34,-7,-1,-1,5,6,0.66,2597938300
50,2,-54,-7,-5,-3,-4,3,0.66,2597948500
9,26,108,24,8,5,9,7,0.66,2597960900
-8,-34,-128,-17,-6,7,-9,3,0.65,2619573200
-11,-3,-91,-12,-5,-17,-44,8,0.65,2619585300
-7,-25,-94,-22,-14,-24,-3,-5,0.64,2637833900
25,58,127,59,12,7,8,7,0.64,2637845200
-28,-73,-128,-24,-1,5,-1,-8,0.64,2637854400
-25,-58,10,-58,-22,-2,-11,-12,0.64,2637863000
18,33,37,17,12,17,6,4,0.63,2658351100
-4,15,59,22,4,-22,1,4,0.63,2658363200
-1,-19,-93,9,1,-5,-5,-3,0.63,2658373100
-4,67,27,5,0,6,0,-3,0.63,2658382000
-3,-20,61,-2,-5,12,-3,3,0.63,2658431200
-36,53,4,8,3,-6,3,-7,0.63,2659084000
0,5,-52,-1,-2,-7,-65,-10,0.62,2679002500
4,25,22,4,1,-21,-10,33,0.62,2679014100
-2,-25,-40,12,11,41,28,6,0.61,2697830600
-11,-108,-50,-31,-16,-67,10,83,0.61,2697851900
9,26,50,-5,1,15,-13,-76,0.61,2697861300
4,13,-78,14,1,7,-1,8,0.61,2697869200
35,-20,78,-7,-1,4,-2,2,0.6,2718835200
6,9,-102,-10,-1,7,2,6,0.6,2718847000
-2,-31,-86,-21,-10,-1,-4,1,0.6,2718856200
-6,12,127,19,1,8,13,-3,0.6,2718864300
-15,-18,-28,20,7,-12,-19,0,0.6,2718913500
21,3,15,5,2,-1,2,5,0.6,2718923900
33,16,-127,-1,1,-3,4,2,0.59,2739427800
-15,-33,121,-23,-11,-9,-13,-8,0.59,2739440900
4,31,-17,6,3,1,-15,3,0.58,2759206200
-4,-66,-20,-4,0,21,15,-5,0.58,2759217400
-3,11,-91,-11,-7,-8,0,-1,0.58,2759228400
4,-19,-8,14,7,50,-3,5,0.58,2759238600
-4,-17,60,2,-4,-69,27,-5,0.57,2777820700
-3,7,-44,11,4,52,1,-82,0.57,2777869100
-19,-27,-6,-15,-15,-76,-17,-23,0.57,2777892100
13,50,94,8,0,13,1,10,0.57,2777901900
0,-44,69,13,4,13,4,9,0.57,2777909800
-15,-30,-99,-34,-10,13,-3,-3,0.57,2777917600
16,64,84,1,-2,3,-2,4,0.56,2803982500
-21,-36,-45,-32,-14,-2,-4,-5,0.56,2803993400
12,72,127,16,4,1,3,4,0.56,2804001900
20,-7,76,20,5,-1,0,0,0.56,2804009600
-14,11,-104,0,-1,-5,-3,-3,0.55,2819840800
-4,-11,30,-1,0,1,-3,-4,0.55,2819855400
8,-10,-77,-10,-1,-2,2,1,0.54,2838157100
-12,-4,72,2,-2,14,3,2,0.54,2838168600
-3,7,-10,1,-4,-20,11,-1,0.54,2838177200
6,18,2,7,2,-5,0,3,0.54,2838197500
9,8,95,4,0,10,8,5,0.54,2838209400
0,4,-63,-3,0,-7,2,2,0.54,2838217500
-14,-100,127,7,-1,16,2,-3,0.53,2859665300
-12,-41,-82,-25,-11,17,-2,18,0.53,2859682900
16,52,41,12,2,-41,-5,3,0.52,2878521300
1,-4,-49,-11,-5,-2,-3,0,0.52,2878532600
20,-4,89,42,15,20,10,16,0.52,2878541100
-12,-13,127,-29,-10,-3,2,-1,0.52,2878549600
4,-8,-128,-5,-3,8,0,-10,0.51,2898808700
-4,-3,118,0,6,-6,0,-8,0.51,2898819600
33,66,24,25,5,1,4,8,0.51,2898832500
9,67,127,22,8,0,3,0,0.51,2898842000
-21,-128,-18,-55,-23,-21,-18,-21,0.51,2898849900
8,10,-128,-20,-8,5,0,1,0.51,2898857200
-6,28,76,14,6,5,2,-1,0.5,2919246700
12,63,36,41,17,-3,4,6,0.5,2919262700
-17,-59,33,-9,-17,-5,1,-11,0.49,2937543300
4,18,-11,-8,1,7,0,2,0.49,2937577900
0,-26,-1,-3,-4,0,-1,1,0.48,2958727500
12,54,85,27,7,-2,4,7,0.48,2958761700
-9,-48,-100,-12,-3,4,6,-2,0.48,2958771900
-3,31,75,-19,5,6,-43,0,0.48,2958780800
-9,-25,-4,5,-3,7,8,1,0.48,2958789100
-1,15,124,4,-4,-21,-5,-8,0.48,2958796500
1,-8,65,-9,-10,-33,2,-3,0.47,2979104600
13,68,43,17,15,19,6,7,0.47,2979121800
-21,-38,-128,-36,-7,6,-2,-10,0.47,2979137100
32,47,41,7,2,9,9,10,0.47,2979149300
-26,-55,-87,-13,-12,21,-24,-12,0.46,2999607600
20,-10,127,26,8,-41,3,7,0.46,2999619700
-8,89,63,33,11,5,6,8,0.46,2999629500
44,-86,-128,-25,-7,0,-5,-6,0.46,2999667200
-12,-29,-52,-15,-12,-7,-5,-5,0.45,3018200700
12,24,-42,8,7,6,1,3,0.45,3018243700
7,11,55,11,2,5,1,1,0.45,3018259300
6,6,4,6,2,-7,1,2,0.45,3018267600
-4,-13,59,-45,-12,-10,-4,-7,0.44,3038942100
11,90,127,13,4,12,4,6,0.44,3038979700
-27,-78,-128,-13,-3,1,-5,-9,0.44,3038989700
14,41,127,8,0,-8,2,2,0.44,3038998500
14,-11,-128,13,5,-7,-1,5,0.43,3060088100
-15,-3,127,-10,-7,5,1,-7,0.43,3060098800
21,111,-18,4,14,1,-10,11,0.42,3078161000
-15,-75,-128,-21,-12,7,5,-9,0.42,3078175200
-2,-38,-35,34,14,-2,-13,0,0.42,3078184200
4,-36,127,-38,-16,-26,-9,-3,0.42,3078192700
-6,13,127,-12,-10,16,1,-7,0.41,3099369000
26,51,123,30,0,-5,6,7,0.41,3099390500
9,20,53,42,15,16,8,21,0.41,3099399700
9,33,117,-3,3,29,5,5,0.41,3099408400
-20,-70,66,-13,-15,-19,-10,-12,0.41,3099417400
-22,80,127,43,15,4,7,7,0.41,3099425200
22,70,127,42,8,-2,4,6,0.4,3118305400
-4,-13,-128,-23,-6,-3,-4,-3,0.4,3118319200
-5,-50,0,-31,-5,-1,-3,0,0.4,3118329400
-11,-42,127,-26,-12,-2,-4,-9,0.4,3118338600
-27,-9,127,32,12,-4,-7,-11,0.39,3139782400
-21,-93,-128,-79,-24,-9,-11,-12,0.39,3139823400
41,72,-108,5,15,17,10,18,0.39,3139840900
-4,-18,-128,3,1,-5,0,0,0.39,3139849400
-6,22,17,8,4,-10,-7,-5,0.38,3157657700
36,-128,-107,7,-1,1,-3,-2,0.38,3157671300
5,107,127,40,13,0,3,0,0.38,3157680700
10,25,30,9,2,-2,1,5,0.38,3157689000
-6,-42,-128,-23,-6,-2,-1,-1,0.37,3178597200
4,-13,114,-2,-3,8,2,3,0.37,3178707700
-17,-32,-128,-7,10,10,5,1,0.37,3178721200
10,-8,-57,0,5,-5,3,1,0.37,3178729800
7,58,124,-11,2,0,0,1,0.36,3199535600
22,58,63,53,16,16,1,5,0.36,3199548200
-26,-85,117,-32,-16,-22,-8,-11,0.36,3199556800
47,86,127,40,4,-6,3,13,0.36,3199564800
-19,-71,-45,-16,6,3,-1,-8,0.35,3217840800
11,48,-128,33,17,12,2,7,0.35,3217856300
-22,7,106,-54,-28,-14,-9,-9,0.35,3217887300
0,-38,-128,12,0,1,1,-1,0.35,3217895500
10,34,-128,15,9,2,5,8,0.34,3238024700
-1,-59,-128,54,9,2,3,-1,0.34,3238035800
-63,-34,-128,-104,-32,-4,-12,-26,0.34,3238045400
0,-71,70,2,5,5,4,5,0.34,3238054700
9,72,-128,29,17,5,2,-4,0.33,3259050200
-26,-104,-128,-31,-25,-13,-9,-11,0.33,3259095800
36,73,-2,58,32,-1,15,16,0.33,3259106000
-27,-128,-128,-95,-34,-1,-11,-18,0.33,3259114800
-17,9,51,32,-5,3,-7,-10,0.32,3279889600
50,68,-50,34,5,-6,8,9,0.32,3279927900
-23,-109,-99,-32,-5,3,-6,-7,0.32,3279938400
12,81,-128,-3,-5,-19,-2,0,0.32,3279946700
34,30,-128,109,32,4,4,18,0.31,3298089500
-31,-86,-25,-72,-31,22,-10,-14,0.31,3298102700
35,99,127,58,13,-9,5,7,0.31,3298115100
34,-74,-128,39,35,0,14,18,0.31,3298123700
-68,-13,74,-128,-59,-24,-23,-30,0.3,3318822200
28,33,92,122,28,19,8,14,0.3,3318835300
-35,-32,-128,25,6,-3,-1,0,0.29,3339933600
-53,-57,-128,-128,-41,-17,-20,-29,0.29,3339947100
37,-80,-128,69,18,2,10,13,0.29,3339956600
17,93,17,-7,6,11,3,2,0.29,3339964700
-39,-77,127,-90,-35,-28,-17,-22,0.29,3339975000
1,-128,-128,6,3,17,2,2,0.29,3339985300
-14,-20,-128,-8,-14,-17,-6,-5,0.28,3358305700
-41,-124,127,-103,-38,-26,-20,-21,0.28,3358342800
-5,64,127,-55,-11,13,-5,-6,0.28,3358381600
62,9,127,113,30,8,24,24,0.28,3358392700
20,-50,127,41,10,16,5,31,0.27,3379157800
-76,-11,127,-38,-20,-23,-10,-12,0.27,3379183600
-20,-128,-128,-22,-2,5,1,-6,0.27,3379198700
69,127,127,125,62,0,35,40,0.27,3379212500
2,22,-27,-17,-11,17,28,7,0.26,3400082100
-59,-57,127,-27,-28,-34,-9,22,0.26,3400093700
-18,127,-128,-41,-7,20,-17,-51,0.26,3400139700
76,24,127,78,28,-1,20,-69,0.26,3400155600
-60,-128,-128,-128,-42,1,-15,-11,0.25,3418229900
-6,-31,-90,-57,2,37,6,17,0.25,3418243300
51,61,-128,76,31,-15,24,39,0.25,3418254300
1,127,-128,48,30,23,7,9,0.25,3418262200
-34,-67,-128,-102,-36,-17,-8,-5,0.24,3439247200
-31,-128,-128,-96,-31,-3,-9,1,0.24,3439259400
-33,15,-128,-43,-27,-2,-22,-93,0.24,3439268600
80,100,39,111,39,18,22,-28,0.24,3439277400
-58,-24,-128,-87,-33,-33,-17,-19,0.23,3459973200
-9,-128,-77,4,-8,17,-3,5,0.23,3459985000
-14,-128,-33,-105,-17,-4,-3,0,0.23,3459994100
-21,-14,-96,17,-4,-7,-8,-12,0.23,3460001900
26,127,127,108,19,4,15,15,0.22,3477958400
-31,-28,-128,-128,-43,-9,-14,-22,0.22,3477970100
-57,127,-56,-58,-10,-12,-10,-12,0.22,3477983600
37,-37,127,46,20,11,8,16,0.22,3478003400
25,83,-39,10,-4,9,3,18,0.21,3498821600
-20,-94,-128,-10,-20,-26,-17,-15,0.21,3498926800
-15,-114,-128,-80,-21,5,-8,-20,0.2,3519928100
5,116,127,61,19,17,12,37,0.2,3519972800
-23,-128,127,7,-10,-3,-7,-66,0.2,3520023000
28,15,-128,10,11,-9,4,27,0.2,3520056300
-48,12,127,-111,-41,16,-11,-43,0.2,3520066500
55,47,-46,45,23,28,10,24,0.2,3520075200
30,51,-57,97,47,-15,11,11,0.19,3537877700
-65,127,127,-73,-51,-14,-21,-29,0.19,3537889500
45,118,127,67,26,21,14,22,0.19,3537898800
4,61,127,-21,-10,-7,-6,-2,0.19,3537906500
-75,-57,-128,-59,-29,-23,-13,-17,0.18,3558699200
31,127,-128,83,4,-2,6,13,0.18,3558716600
-31,-128,127,-105,-17,-11,-3,-15,0.18,3558726500
-37,-80,-128,-30,-16,3,-7,-16,0.18,3558734300
12,-19,-37,9,4,-1,-6,2,0.17,3579472900
30,127,17,58,27,27,13,14,0.17,3579486700
-9,-67,-128,-57,-12,-11,-2,-5,0.17,3579506000
16,-18,127,56,22,8,6,7,0.17,3579514100
18,127,127,26,1,2,1,6,0.16,3597654200
-18,-17,-128,-8,-2,-3,-12,-14,0.16,3597667800
17,-40,-128,-20,2,10,2,4,0.16,3597685100
0,-128,-128,-28,-13,0,-4,26,0.16,3597704400
43,122,53,21,11,31,5,25,0.15,3618995700
-42,-119,-128,-6,-6,-82,-15,-82,0.15,3619040600
28,87,-102,-15,5,29,3,12,0.15,3619053700
-34,-128,-128,-46,-13,-5,-3,-6,0.15,3619062400
-25,21,-128,-68,-7,13,-4,-7,0.14,3639613800
-5,-70,-128,-27,-10,-7,-3,-2,0.14,3639638500
-4,15,-128,23,-5,16,-4,2,0.14,3639683500
-8,-59,-128,-66,-4,-13,2,-1,0.14,3639698800
-54,-43,-115,-107,-33,-1,-7,-15,0.13,3658114500
32,-109,127,121,20,-8,8,13,0.13,3658129100
-57,-55,-48,-88,-30,-18,-14,-26,0.13,3658137600
17,127,127,1,9,29,7,11,0.13,3658151900
10,-128,-128,113,23,4,5,5,0.12,3679291200
39,127,127,20,20,13,6,14,0.12,3679302300
-38,-128,-128,-118,-36,-2,-20,-23,0.12,3679311400
-23,-32,39,5,4,6,-2,-1,0.12,3679322500
1,-78,90,27,4,15,8,4,0.11,3698311600
62,127,127,94,48,16,22,23,0.11,3698324600
-25,-7,35,-100,-52,-26,-24,-10,0.11,3698389400
13,24,127,-37,-5,3,1,6,0.11,3698406600
16,-63,60,38,14,26,11,7,0.1,3718423900
-25,-53,127,20,0,-8,-6,-5,0.1,3718834800
45,16,-28,61,20,12,10,15,0.1,3719395600
-92,-10,-128,-108,-33,-7,-8,-14,0.1,3719410400
16,-54,19,9,3,25,4,0,0.09,3737699300
0,119,118,33,17,0,1,3,0.09,3737723000
11,127,72,82,23,4,6,10,0.08,3758042700
-27,-53,-128,-76,-24,-21,-10,-13,0.08,3758055200
-14,83,-47,-19,0,-6,-3,-4,0.08,3758096600
-26,81,127,1,-4,1,0,-1,0.08,3758111400
-83,-128,-102,-110,-43,-7,-24,-33,0.07,3779208600
60,94,127,81,26,41,18,30,0.07,3779220700
-12,-128,127,-79,-31,-41,-17,1,0.07,3779232000
17,-28,-128,-19,6,21,-3,-11,0.07,3779245100
-8,-59,127,3,-11,4,-5,-3,0.07,3779255500
14,-40,-54,22,8,-13,6,7,0.07,3779263400
13,25,53,81,26,24,1,9,0.06,3797601300
-1,0,10,-5,-2,15,7,6,0.06,3797622000
-16,6,21,29,12,-25,-6,-1,0.06,3797635100
-23,-14,-128,5,9,11,16,5,0.06,3797643700
24,21,127,15,1,14,-15,77,0.05,3819056800
3,25,51,-5,1,-20,17,-36,0.05,3819068000
-63,78,127,-35,-22,-13,-42,-96,0.05,3819089400
-10,-65,-3,-30,-7,3,6,26,0.05,3819131600
41,79,127,41,16,23,14,-29,0.04,3839460400
10,108,-35,0,-5,5,-4,1,0.04,3839508500
-12,5,-101,-7,2,-7,20,15,0.04,3839521200
-42,33,0,-48,-32,-15,-45,-38,0.04,3839534400
24,-118,-128,-6,-9,8,-7,-4,0.03,3857721600
-21,-32,-98,-29,-12,-8,-39,-15,0.03,3857733100
10,56,127,23,6,-14,-5,3,0.03,3857742800
3,-54,127,4,1,33,2,-5,0.03,3857750300
-3,18,-65,-5,-3,-27,4,-1,0.02,3878395000
-4,-2,91,-19,-1,31,17,0,0.02,3878406100
-28,11,-128,-49,-19,41,-50,-12,0.02,3878449500
-45,80,-58,6,2,-36,63,-5,0.02,3878462000
23,-11,5,10,1,97,-31,-62,0.01,3898753500
-10,-22,-7,3,-13,-128,-41,-86,0.01,3898765800
30,31,126,28,16,127,59,93,0.01,3898776600
-22,-21,16,-47,-28,-128,60,-80,0.01,3898784700
11,-40,15,-14,-8,86,58,-128,0,3920015100
-18,-32,-19,-1,1,7,48,-24,0,3920025700
-16,-19,-128,2,-5,-127,-31,127,0,3920035600
22,60,101,75,23,13,8,54,0,3920100600
2,49,-59,-21,-7,12,45,71,0.01,3938774200
-35,-13,-128,-61,-22,9,-21,-57,0.01,3938785600
-72,45,7,25,12,17,36,126,0.01,3938830000
47,23,127,34,15,34,-25,-118,0.01,3938847200
11,17,-51,11,2,44,41,-23,0.02,3959687700
23,36,127,26,1,-100,36,118,0.02,3959698700
0,8,-58,-41,-22,-82,17,18,0.02,3959707400
7,-69,-128,17,7,33,-7,105,0.02,3959715100
12,9,127,-10,-3,22,112,-39,0.03,3978297400
24,34,67,18,15,127,-26,127,0.03,3978313500
-21,-38,-9,-4,-16,-128,84,-28,0.03,3978365800
-33,-13,-104,-9,-13,-41,91,-128,0.03,3978379400
22,1,-5,1,-2,31,-128,56,0.04,3999403800
21,24,-53,24,21,36,-128,-115,0.04,3999415900
-3,24,127,8,13,-34,127,97,0.05,4018106100
-13,-33,-128,-21,-21,7,9,-128,0.05,4018121900
-17,24,127,-12,-13,-42,-128,-113,0.05,4018142300
-52,18,47,-1,7,-6,31,3,0.05,4018151900
24,-67,-120,27,7,-47,-103,-5,0.05,4018160000
8,-18,127,-35,-8,40,-1,127,0.05,4018167400
-73,121,-42,-15,-2,44,-16,-71,0.06,4038653300
27,28,-16,29,2,-4,24,-24,0.06,4038668800
-35,111,127,18,18,-9,50,32,0.06,4038681400
-6,-65,-3,-11,6,46,-10,87,0.06,4038689500
-14,-46,-50,-6,-12,62,81,-2,0.07,4059671600
27,1,0,-3,-12,-55,-83,-1,0.07,4059704800
11,-12,-10,-1,5,71,-128,127,0.08,4078037500
-1,19,10,4,-7,-86,44,94,0.08,4078051900
-15,-13,-9,1,11,26,4,0,0.08,4078061500
61,5,-18,-1,9,44,25,127,0.08,4078070400
-10,-53,-8,-9,-20,26,75,-128,0.09,4099458500
-7,16,17,15,10,-45,97,-15,0.09,4099471100
-19,-56,36,-15,-17,-84,-128,-22,0.09,4099482700
12,-9,124,14,7,55,-25,2,0.09,4099515200
-113,-80,-128,-42,-8,1,-128,-17,0.09,4099535000
-11,-93,19,-14,-5,24,35,-8,0.09,4099544000
0,78,127,25,10,31,25,9,0.1,4117963000
24,58,-16,-2,2,18,13,52,0.1,4117977200
9,46,-29,20,5,-23,-11,-128,0.1,4117986000
-32,7,127,12,1,-6,2,-90,0.1,4117994100
-26,-50,-118,-47,-21,70,40,-128,0.11,4139356900
4,54,-96,6,7,-30,37,-57,0.11,4139410100
37,12,25,8,3,127,65,127,0.11,4139428500
-1,-41,-7,2,-9,-78,-128,-128,0.11,4139442700
15,39,5,2,3,16,86,127,0.12,4159933000
6,-23,-6,-6,-9,-7,18,99,0.12,4159948500
1,0,4,7,9,-3,127,127,0.12,4159991500
3,15,-19,-15,-14,17,-6,-128,0.12,4160006800
-1,-16,-12,-2,5,35,108,3,0.13,4179240200
27,81,10,5,-5,0,-33,26,0.13,4179255100
-9,45,-76,-12,-5,-22,37,-9,0.13,4179305700
-1,23,-17,-1,-3,25,-17,-19,0.13,4179339200
20,-8,-24,24,14,34,24,-9,0.14,4199886000
-11,-65,127,-33,-17,10,-128,-29,0.14,4199900000
-49,14,-66,-32,-6,43,-24,-21,0.14,4199908600
13,-18,-39,1,1,3,-69,-73,0.14,4199916600
-2,-9,26,3,0,-8,5,15,0.15,4217883700
3,-47,-47,13,0,9,10,76,0.15,4217893700
-7,28,70,-3,1,-46,19,127,0.15,4217902100
3,-57,33,-5,3,15,114,-96,0.15,4217909400
-9,41,0,2,-15,-128,127,127,0.16,4239294800
-45,70,-21,4,15,127,-18,44,0.16,4239307200
6,-2,-14,-3,-13,-128,77,127,0.16,4239350600
-49,59,0,7,-1,20,-7,0,0.16,4239360500
-28,-21,-7,4,6,35,-128,54,0.17,4257864300
18,-3,-8,-4,-2,-90,-72,50,0.17,4257877900
12,-9,-6,-1,1,-11,18,75,0.18,4278694500
-39,33,27,6,10,53,66,-42,0.18,4278706900
20,2,-46,-7,-9,-5,-57,110,0.18,4278723000
-35,-77,-2,-2,-3,-18,-47,15,0.18,4278759000
-15,88,87,23,9,-13,-94,41,0.18,4278769300
-27,-7,-71,-6,0,-17,-77,3,0.18,4278777600
15,104,127,0,0,10,8,3,0.19,4299649700
-46,-46,-128,-19,-8,-15,-2,12,0.19,4299662200
1,10,6,-14,-10,-21,-13,4,0.19,4299711500
18,11,-1,10,7,11,12,15,0.19,4299728200
2,26,69,35,13,-3,-70,-128,0.2,4318385800
-15,-28,67,-13,-5,9,14,-128,0.2,4318433100
25,6,5,-7,-4,21,8,127,0.2,4318447600
2,7,8,3,-1,-128,-103,-128,0.2,4318457400
2,-6,-6,4,5,90,-33,-7,0.21,4339473400
10,3,-8,3,-6,-26,14,42,0.21,4339489700
-37,7,-9,1,0,-55,8,-128,0.21,4339509200
-2,-11,-5,3,6,59,60,2,0.21,4339518200
-34,1,-10,-2,-1,60,100,111,0.22,4357816100
23,-1,-7,-6,-5,-37,-128,-42,0.22,4357829500
10,-2,-1,0,1,-24,16,48,0.23,4379009400
4,-52,11,-3,-4,4,-3,26,0.23,4379022400
-38,-13,-26,-3,2,11,2,-3,0.23,4379031300
-28,-51,48,7,3,14,48,26,0.23,4379039300
-18,80,-51,-1,-4,-18,3,11,0.23,4379047400
31,35,90,22,12,-1,1,76,0.23,4379055400
-50,-72,-128,-63,-27,-19,-10,-10,0.24,4397620700
2,-44,127,-17,-7,-25,-5,25,0.24,4397632800
14,0,102,20,6,-3,17,94,0.25,4419047800
12,5,-3,10,8,25,63,-42,0.25,4419059100
3,6,18,10,-1,-23,20,41,0.25,4419067400
12,-3,10,4,0,3,4,127,0.25,4419075400
-8,-3,-34,1,1,28,121,-49,0.25,4419083400
15,-9,-16,1,-5,6,-128,82,0.25,4419090900
-26,-3,-17,-6,-6,-69,110,101,0.26,4437653600
7,-1,-13,1,3,44,20,-27,0.26,4437666000
2,-53,-9,-2,-1,16,44,65,0.26,4437677700
38,-69,-6,2,-1,3,-49,-85,0.26,4437689600
-32,-17,-12,-2,5,25,43,-128,0.27,4458384000
-12,-14,-9,-1,-8,-41,-54,-128,0.27,4458394600
-2,-5,1,2,2,-15,-27,7,0.27,4458402500
12,-33,26,5,-1,3,27,38,0.27,4458421600
4,6,-32,-5,-2,-5,-111,127,0.28,4479128300
62,-8,30,4,1,-5,12,-23,0.28,4479165300
45,-66,27,0,0,-21,11,21,0.29,4497904000
8,-24,114,-1,3,-3,2,10,0.29,4497915100
-13,-67,-128,-43,-15,-4,40,-8,0.29,4497945200
14,26,107,16,2,-2,-2,50,0.29,4497961800
-8,-9,-128,-2,1,-10,-6,83,0.29,4497970500
17,-41,58,-12,-9,71,92,-128,0.29,4497978000
11,15,13,11,5,-83,66,65,0.3,4519238000
6,-1,2,8,4,1,-49,16,0.3,4519253000
-6,1,-18,-2,0,41,79,124,0.3,4519265000
8,12,-8,7,4,7,-9,47,0.3,4519274000
14,38,-23,-3,-2,-40,84,79,0.31,4540041600
-68,21,-3,0,-8,-33,-128,101,0.31,4540052400
16,-29,-1,-4,-2,31,31,-8,0.31,4540062200
-3,-8,-8,1,9,32,-117,-128,0.31,4540073100
-8,5,-15,-4,-3,41,28,-85,0.32,4558373400
32,-27,-4,2,-2,5,-88,58,0.32,4558384400
-64,91,8,4,2,-3,-69,24,0.32,4558394600
8,-41,-9,-4,-1,4,21,-16,0.32,4558404000
13,30,30,-1,1,8,25,-16,0.33,4580059000
9,-101,23,-1,-2,1,-13,50,0.33,4580069600
-5,-108,-3,14,1,-15,-20,26,0.33,4580079400
1,-11,-20,1,10,1,14,9,0.33,4580088700
-42,-67,-128,-62,-25,0,64,-12,0.34,4598463300
-2,27,107,5,0,-16,71,16,0.34,4598482000
-15,13,68,15,1,0,-20,21,0.34,4598494000
15,30,52,16,9,-35,70,83,0.34,4598504900
-57,58,-21,6,3,3,-5,-128,0.35,4619259200
3,-3,16,3,-3,6,4,-7,0.35,4619285900
88,-33,-3,1,-7,-53,-9,9,0.35,4619318000
-4,-3,-7,-3,0,41,-106,-16,0.35,4619329300
-21,18,-4,-1,-2,-24,-15,-24,0.36,4637478500
-27,-9,-7,-4,-3,39,-13,-97,0.36,4637491900
9,-19,-10,0,3,37,-77,84,0.37,4658530600
74,-70,13,3,-1,-3,13,52,0.37,4658571300
-21,-24,-25,-9,-4,3,-32,-54,0.37,4658585900
14,-37,3,0,5,-1,15,74,0.37,4658598400
-29,-14,-6,-1,0,45,42,63,0.37,4658609700
21,-23,-20,-10,-11,-66,24,14,0.37,4658618400
-3,52,21,3,5,8,39,88,0.38,4679123300
0,-128,-10,13,8,16,9,-57,0.38,4679135000
38,57,127,19,5,6,-22,-55,0.38,4679172700
-7,-16,-128,-32,-12,-5,14,-6,0.38,4679192400
-15,-34,-24,-33,-10,-18,6,20,0.39,4698026800
17,6,26,10,0,5,0,21,0.39,4698051600
42,-2,79,13,4,3,2,8,0.39,4698089600
9,-11,39,7,5,13,21,13,0.39,4698104200
-3,-8,-59,2,2,6,-80,-36,0.4,4718925600
5,15,5,10,3,-75,62,-42,0.4,4718940000
-21,-39,-3,8,7,106,56,-128,0.4,4718951100
-62,-39,-72,-7,-10,-128,12,-128,0.4,4718960300
2,0,-9,0,1,33,68,-1,0.41,4737779100
-7,-6,-14,-5,-4,6,25,21,0.41,4737790300
-11,19,-1,3,1,46,-40,32,0.41,4737800000
-12,-8,-6,-6,-7,-22,57,-32,0.41,4737811700
18,-21,6,3,1,-7,41,-51,0.42,4758805400
-6,27,-12,-4,-2,-12,14,-10,0.42,4758819500
7,-21,-9,0,4,21,38,-106,0.43,4780203600
-9,-12,2,0,1,6,-128,-17,0.43,4780215000
29,17,-9,-1,2,3,-44,-6,0.43,4780224400
5,-36,1,1,6,56,37,-7,0.43,4780245900
-10,-7,21,-2,-5,-61,84,56,0.43,4780257100
-64,79,-10,4,1,-14,64,91,0.43,4780264900
94,-22,-5,-3,-6,10,18,64,0.44,4800631400
28,-3,64,12,4,1,-1,27,0.44,4800643100
26,28,-19,-16,-5,13,10,-29,0.44,4800742500
-16,-46,-46,-28,-6,82,-34,76,0.44,4800768400
10,18,8,8,-2,-108,38,67,0.45,4820201600
-8,23,53,10,-2,-53,-61,-128,0.45,4820213000
28,38,41,7,7,39,21,-16,0.45,4820221400
-6,-1,4,-2,-4,0,69,112,0.45,4820229300
-46,12,2,0,-3,42,11,124,0.46,4840577600
-15,-30,-7,-3,-1,-73,-21,-52,0.46,4840592600
-2,13,-19,-3,-6,-1,-102,-28,0.47,4859849600
4,-31,8,0,-2,6,-52,4,0.47,4859876000
0,-9,-17,-2,-4,9,45,127,0.47,4859920300
11,-3,2,-6,-4,13,76,127,0.47,4859931500
20,11,3,4,8,25,-17,71,0.47,4859939900
-25,-30,3,-1,-7,-49,31,3,0.47,4859948400
-15,-6,-6,-3,-7,-22,-128,-10,0.48,4878814200
-51,20,2,7,4,34,-13,-6,0.48,4878825900
64,38,-20,-9,-3,-11,-12,-128,0.49,4899462100
16,-31,58,1,-1,111,-15,69,0.49,4899491100
-13,12,-3,0,-3,-111,-48,26,0.49,4899500300
25,7,51,9,4,10,43,49,0.49,4899509600
-5,11,-97,-10,-2,-4,-8,32,0.5,4918451400
17,-50,53,-16,-9,-7,22,38,0.5,4918486600
-16,-53,-128,-31,-12,37,-20,-41,0.5,4918500500
12,9,71,4,6,-51,16,-6,0.5,4918514800
-9,26,56,9,2,0,1,68,0.5,4918526100
-7,24,40,11,8,71,-34,127,0.5,4918538500
16,14,16,9,2,-114,12,24,0.51,4939813500
-9,18,-7,-3,-6,-64,-29,20,0.51,4939826700
-5,-32,-26,-6,-5,20,-128,-113,0.51,4939838000
-1,3,-13,-4,-4,-6,-30,-51,0.51,4939847100
16,-1,-7,-1,5,83,15,53,0.52,4958309800
15,-7,-8,-3,-14,-115,80,112,0.52,4958321700
-5,10,-16,-3,0,18,55,-16,0.53,4979112700
-13,11,-2,-1,3,5,60,-96,0.53,4979144200
-54,9,-11,-3,2,28,-128,-45,0.53,4979153400
-12,2,7,-1,-5,-43,-128,-76,0.53,4979162300
9,-4,-6,-6,-4,20,7,77,0.53,4979170200
0,18,33,9,2,-8,-1,-9,0.53,4979177600
15,-67,-37,-6,-6,1,-128,42,0.54,4998023300
-17,39,-11,-2,8,22,46,64,0.54,4998033900
-7,10,32,-4,-6,-64,42,-34,0.54,4998042100
5,-4,1,-2,-1,30,-54,-128,0.54,4998049300
-6,8,17,-2,-3,-57,6,11,0.55,5019113700
-6,-9,-44,-4,-8,34,-1,-86,0.55,5019126600
-9,-16,12,0,-3,-13,64,-120,0.56,5038159400
-38,5,16,5,3,52,3,-87,0.56,5038204800
-10,-9,0,-4,-8,-67,67,-91,0.56,5038227500
-8,-3,3,-4,-4,-53,-111,-54,0.56,5038239700
0,8,45,7,5,40,66,-73,0.56,5038252500
0,1,-63,-1,-1,-24,-90,-128,0.56,5038264500
-3,-12,22,-12,-4,49,-4,60,0.57,5058763800
-13,0,3,-6,-1,-32,-17,107,0.57,5058774700
-3,3,5,0,0,10,-11,-89,0.57,5058783800
9,-4,6,3,-1,-27,56,68,0.57,5058794300
-10,46,-4,-5,-6,19,-15,-65,0.58,5079585300
-35,33,27,5,9,79,-55,10,0.58,5079607500
7,-43,96,11,-3,-91,55,-4,0.59,5098096800
-33,-39,-128,-12,-4,-4,22,-128,0.59,5098109900
3,-37,-48,-15,-5,58,-23,-66,0.59,5098120400
4,3,24,-5,0,-12,-128,-5,0.59,5098130300
-1,17,79,19,7,10,9,-14,0.59,5098138400
49,16,36,4,2,-21,-48,52,0.59,5098145700
-14,-12,-128,-16,-11,17,52,-12,0.6,5119010400
-3,4,69,-1,-5,-39,-50,-55,0.6,5119021800
-3,-38,-41,-6,3,20,-55,-128,0.6,5119030300
7,30,-26,0,-2,64,60,28,0.6,5119046400
-23,-2,52,3,-1,-42,-128,8,0.61,5139771300
-35,27,14,5,-1,-59,49,-69,0.61,5139786700
27,-2,21,7,2,31,127,-128,0.62,5159924100
5,11,3,1,2,16,-23,-7,0.62,5159939500
-3,-35,-3,-2,6,38,-104,-1,0.62,5159953200
-11,-26,-19,-6,-7,-79,30,-128,0.62,5159961900
-5,-1,-2,2,3,85,-38,-128,0.63,5178407300
24,49,13,4,0,-83,-35,63,0.63,5178418100
5,-36,-11,-1,5,27,62,-30,0.63,5178429500
-7,-26,13,4,0,-14,-25,-125,0.63,5178439900
-3,20,-24,-2,1,59,12,7,0.63,5178447600
1,-2,-96,-9,-6,8,38,-80,0.63,5178454800
-1,-33,40,-1,-3,21,-18,-95,0.64,5199529200
-18,33,48,-1,-6,-27,-5,12,0.64,5199543900
-8,-32,-7,2,3,34,127,127,0.65,5218101600
4,25,65,6,-3,-52,-7,-128,0.65,5218113200
-9,-26,-64,-9,-8,-54,38,127,0.65,5218167700
17,-43,-39,-10,-1,33,37,-128,0.65,5218185700
13,-2,1,-1,-4,-86,55,25,0.65,5218194900
7,-5,44,0,0,14,-74,41,0.65,5218202800
37,-21,-17,1,2,14,-71,127,0.66,5238755000
-24,-25,10,5,3,79,-4,-71,0.66,5238766400
30,47,5,3,1,-66,54,-128,0.66,5238776500
3,7,8,-2,6,44,3,-84,0.66,5238795700
-19,-114,-16,-8,-13,-70,-25,-128,0.67,5257568800
4,-37,4,-1,2,-20,-16,78,0.67,5257583000
6,6,-2,0,3,13,-8,96,0.68,5278608400
1,8,8,0,6,104,59,15,0.68,5278619400
0,34,-6,-3,-2,-10,-18,-128,0.68,5278631400
-6,-21,-11,-6,-8,10,-55,105,0.68,5278640500
-6,3,20,5,4,-1,43,-128,0.68,5278648500
-2,26,-3,-5,-4,1,-64,-8,0.68,5278656300
-40,-42,12,-7,-6,-20,-128,-93,0.69,5299761100
18,8,-36,-3,9,27,73,127,0.69,5299817500
-2,18,34,8,2,28,-38,-27,0.69,5299831000
24,25,-3,9,4,-26,-48,127,0.69,5299840400
8,11,-30,-6,-5,93,-43,127,0.7,5318139900
-35,-12,11,-7,-7,-98,127,-23,0.7,5318188000
28,20,3,8,8,127,-3,-128,0.71,5339293800
21,-11,-17,1,3,-77,-67,127,0.71,5339304400
19,11,4,-4,1,46,29,127,0.71,5339312500
-22,9,13,0,3,86,127,-128,0.71,5339320400
-31,-94,2,-3,-1,-58,-128,-74,0.71,5339328900
-53,49,-2,-1,-1,-19,-42,-13,0.71,5339337100
-7,48,37,5,11,78,102,-17,0.72,5359632900
-41,-4,-84,-9,-9,-88,32,-128,0.72,5359644800
24,109,19,1,-10,-55,-23,17,0.72,5359655700
31,17,-3,0,11,127,127,95,0.72,5359694600
-13,69,12,8,2,-123,127,-99,0.73,5377833700
-11,9,-12,-9,-2,88,127,-128,0.73,5377869200
2,-4,4,-4,1,21,11,4,0.74,5398520900
2,5,10,3,6,51,23,127,0.74,5398534900
-6,-10,-10,-4,6,35,118,127,0.74,5398544800
23,53,-6,6,5,29,-48,-30,0.74,5398552700
9,-33,75,7,4,-7,49,10,0.74,5398560900
-8,25,-53,7,4,-95,-31,-7,0.74,5398569300
-42,-54,-128,-25,-10,2,-58,-128,0.75,5420033200
-24,-13,57,-12,-22,-115,-128,-22,0.75,5420043900
-30,3,20,-6,-5,127,127,125,0.75,5420055000
-7,-46,24,8,-5,-128,127,-52,0.75,5420087400
4,4,12,-3,1,42,-107,-64,0.76,5438071600
6,25,19,8,14,85,32,-12,0.76,5438082900
1,-9,1,2,-5,-109,24,-41,0.77,5458208400
2,13,3,2,10,127,81,-128,0.77,5458222100
-24,47,1,-3,-11,-128,97,79,0.77,5458254800
41,-25,-11,-7,-8,16,-4,127,0.77,5458285700
10,-19,-20,1,4,-67,16,42,0.77,5458306800
16,124,-25,-7,-6,-36,-12,127,0.77,5458319100
-7,17,12,5,7,24,35,127,0.78,5479368300
37,31,12,5,0,-5,-89,127,0.78,5479379200
-25,2,-6,3,14,127,3,-128,0.78,5479393400
-7,13,4,-1,-17,-128,100,-128,0.78,5479411100
1,12,-7,-3,-3,2,-128,-10,0.79,5497911800
-18,5,-4,-5,-9,-89,-11,-53,0.79,5497944700
-21,-1,-4,-4,0,83,-54,127,0.8,5518744800
46,-62,19,12,22,127,2,9,0.8,5518760300
0,36,70,5,-12,1,-1,76,0.8,5518770800
17,-62,-101,-20,-16,-24,73,49,0.8,5518780500
-26,50,17,-21,-2,127,-88,-31,0.8,5518791200
0,-20,38,-3,-14,-31,-88,-128,0.8,5518805100
-14,-6,20,1,8,64,-2,-98,0.81,5539538200
-5,43,15,9,25,127,-128,-48,0.81,5539550000
33,18,0,2,-15,-128,-22,127,0.81,5539567600
-32,-4,-6,-10,-6,127,-72,20,0.81,5539582200
-32,-14,-7,8,30,96,55,-128,0.82,5557709900
69,37,12,17,18,127,91,127,0.82,5557720300
13,-24,-6,-5,-9,127,100,-66,0.83,5578834500
3,-6,-5,-5,-15,-128,95,-74,0.83,5578849200
-31,-9,-7,-9,0,127,127,127,0.83,5578872300
-7,14,-6,1,7,127,8,-128,0.83,5578883200
-17,12,-5,-8,-13,-128,-128,-128,0.83,5578891600
-11,-16,10,6,15,40,127,-67,0.83,5578900200
-50,-128,-3,-4,12,127,-128,-128,0.84,5600049600
0,113,1,-7,-9,-128,15,127,0.84,5600061800
21,-42,-17,3,4,53,-97,-128,0.84,5600070300
2,40,11,3,-5,-128,127,-15,0.84,5600078200
-59,-17,-1,-6,-11,-47,20,-128,0.85,5617988800
7,-8,0,2,-13,-128,90,-128,0.85,5618000200
47,-40,8,6,21,127,79,127,0.86,5638553200
29,-18,38,0,0,8,-128,-128,0.86,5638565100
-89,-128,-128,-40,-44,-128,-128,-99,0.86,5638574400
17,-105,-7,-2,8,127,57,32,0.86,5638582500
63,26,49,13,10,127,127,127,0.86,5638590200
-31,6,32,-1,3,-79,73,-128,0.86,5638597400
-69,-5,-20,-4,-7,-128,69,29,0.87,5660100500
15,8,13,3,-6,-99,50,27,0.87,5660112300
-11,-13,-1,-5,0,127,127,127,0.87,5660122500
19,31,7,3,3,103,-84,35,0.87,5660133600
60,3,10,5,15,127,-18,-12,0.88,5678621900
-24,-26,-6,2,-2,-128,127,127,0.88,5678635200
56,38,3,6,10,-128,-128,-120,0.89,5699264200
-12,15,-12,-11,-17,127,-43,92,0.89,5699306500
0,12,-5,-1,-4,-82,24,-48,0.89,5699322200
8,1,-2,2,5,121,26,-96,0.89,5699332300
28,-15,78,19,28,127,32,-12,0.89,5699340300
30,34,-17,5,-3,-128,-87,11,0.89,5699347800
-14,-28,-82,-12,3,127,5,76,0.91,5738574200
9,11,-39,-2,-7,-41,-100,-39,0.91,5738585800
5,-29,114,-12,-20,-128,-128,-101,0.91,5738594800
-14,-24,-128,-10,6,110,-128,-128,0.91,5738624800
-18,0,98,0,-9,16,127,-128,0.91,5738650200
49,1,-53,15,39,127,-95,127,0.91,5738658900
0,-11,1,-9,-23,-128,127,-75,0.92,5759932400
33,20,30,33,31,-128,127,127,0.92,5759983500
-24,-14,20,0,-4,-126,43,127,0.92,5759998600
11,-110,29,11,18,127,127,127,0.92,5760015900
100,66,3,3,2,-128,127,127,0.92,5760027000
-51,-57,-40,-8,-1,-128,127,99,0.92,5760038900
78,127,20,0,-2,70,37,40,0.93,5778508900
-35,-120,-16,3,3,-43,-128,-128,0.93,5778520800
3,66,12,1,-2,127,-128,126,0.93,5778531200
23,-3,1,-3,-7,-61,95,-101,0.93,5778539200
-30,0,-5,1,0,-128,-128,-128,0.94,5798965700
-48,30,-15,-17,-14,127,-79,127,0.94,5799003800
26,-18,13,18,50,127,82,127,0.95,5819779600
-31,15,6,-5,-27,-128,-128,39,0.95,5819792300
23,19,-5,-1,-12,12,-128,-128,0.95,5819803900
19,79,18,8,9,127,57,-25,0.95,5819812900
-21,-69,-40,-17,-33,-128,126,-128,0.96,5838341100
9,1,-1,10,18,127,127,127,0.96,5838352500
52,32,24,19,37,127,127,127,0.97,5858577100
8,37,71,7,-16,-128,127,127,0.97,5858589100
63,-72,3,10,-1,-117,-102,5,0.97,5858598600
5,-12,-18,3,14,127,-57,5,0.97,5858608900
117,-14,4,4,8,-128,127,127,0.97,5858618600
37,38,22,-4,2,127,-128,-128,0.97,5858625900
-49,48,7,-10,-19,57,-128,127,0.98,5880757400
23,15,7,9,22,127,37,-77,0.98,5880769400
-88,-74,15,-31,-52,-128,-128,-124,0.98,5880796200
-44,8,-83,-10,-22,127,-128,127,0.98,5880805200
28,23,-3,-12,-9,82,127,-66,0.99,5899085300
-23,-23,-45,-9,5,127,-53,-128,0.99,5899097200
33,-1,-1,3,1,32,127,-55,0.99,5899121100
75,51,20,15,34,127,65,127,0.99,5899153400
84,-8,2,-1,-2,-128,127,14,0.99,5899163700
-44,46,16,0,-3,-128,81,-18,0.99,5899172300
-78,-31,-7,-7,-7,127,-128,-1,0.98,5919741000
-36,-6,4,8,19,95,-89,127,0.98,5919753500
-27,-11,3,-10,-26,-128,-128,-102,0.97,5937899100
-60,21,-22,-12,-12,127,-20,-128,0.97,5937937700
3,22,62,15,22,7,-128,-128,0.97,5937947900
4,33,-79,-6,8,127,127,115,0.97,5937956200
-50,-67,-26,-27,-13,127,-74,127,0.96,5958355000
-15,26,1,-7,-16,73,-128,-128,0.96,5958371100
-12,114,-1,-11,-12,106,119,127,0.96,5958383600
11,50,1,8,2,-128,21,40,0.96,5958392800
-43,-72,-8,-10,-12,127,127,127,0.96,5958400800
-44,44,35,28,65,127,-128,-128,0.96,5958408600
19,-41,3,4,-20,-128,127,-128,0.94,5997820500
4,-3,-50,-5,-10,127,127,-128,0.94,5997841000
54,67,69,11,7,-10,127,-6,0.94,5997855300
-31,-128,4,-3,6,127,-106,-70,0.94,5997863800
17,10,-50,5,7,31,-25,-65,0.94,5997873500
-10,58,-15,-4,5,114,39,-7,0.94,5997881200
-18,12,45,3,-3,-128,-128,-40,0.93,6019156700
3,-16,10,0,-2,-105,11,-20,0.93,6019169200
3,-4,-4,-2,-8,-128,127,-11,0.93,6019179900
20,11,59,4,-5,10,-128,127,0.93,6019189100
5,24,-9,3,10,127,127,-30,0.93,6019233000
-15,43,-69,-5,-1,122,113,127,0.93,6019251500
50,-19,48,1,17,127,-108,-128,0.92,6037616800
-7,127,-65,6,1,-128,-128,-128,0.92,6037630800
-45,-10,15,-6,-13,-128,127,-109,0.91,6058257600
4,-66,62,12,10,22,33,-62,0.91,6058300700
4,9,-21,3,-1,21,38,11,0.91,6058312400
5,16,53,5,4,6,-17,1,0.91,6058320900
11,-4,-81,0,-1,20,-8,-3,0.9,6078800300
11,-88,5,-9,-6,32,-4,-4,0.9,6078811200
3,-15,9,4,8,127,-36,-6,0.9,6078819900
0,-10,10,2,-4,-7,18,-6,0.9,6078829500
-5,0,16,-1,-3,11,-2,-2,0.9,6078839500
1,3,-22,9,1,15,-4,-3,0.9,6078858300
-4,-24,71,6,2,-13,-4,-1,0.89,6100131700
3,-11,-66,-14,-6,-29,-2,1,0.89,6100146500
-2,-11,-70,-35,-11,-16,-4,-2,0.88,6119541700
-6,21,-39,-1,1,9,-8,1,0.88,6119553900
-3,-86,81,14,1,-46,-5,-1,0.88,6119563800
6,86,67,27,8,-28,1,0,0.88,6119575300
-34,8,68,15,8,36,-10,-1,0.87,6138580000
-18,-18,-42,-21,-12,101,1,-2,0.87,6138591400
-1,-23,-128,-20,-5,-128,-34,0,0.87,6138610200
-1,3,46,2,-8,-93,17,-4,0.87,6138644000
-3,20,90,8,-1,2,-8,0,0.87,6138653900
13,28,78,20,5,33,9,3,0.87,6138662700
6,-4,-22,4,4,17,-13,1,0.86,6158849200
-9,-17,-81,-31,-7,68,-33,-3,0.86,6158874300
-3,-55,28,-1,-3,-23,3,-3,0.85,6177737700
2,-20,-26,1,-1,-38,-4,-3,0.85,6177749600
4,-24,10,5,3,-31,2,4,0.85,6177762000
-11,18,28,12,5,-13,3,-6,0.85,6177772000
8,13,97,9,6,-17,0,4,0.84,6198698600
-3,-13,-119,-10,0,-8,-4,-1,0.84,6198710300
-8,-29,-102,-25,-9,19,0,-7,0.84,6198718600
-1,-1,98,4,-8,-18,27,-2,0.84,6198728000
46,53,-1,25,9,15,-4,3,0.84,6198738300
-8,-15,57,-15,-2,10,-5,-5,0.84,6198745900
-4,-13,-68,-22,-7,-9,12,-1,0.82,6239865800
-16,21,-128,-4,-3,-17,-8,2,0.82,6239918100
8,-4,-6,-14,-6,-29,3,-1,0.82,6239928300
-4,-26,-9,9,2,-47,0,0,0.82,6239938100
4,12,10,2,1,-67,-1,2,0.82,6239945900
1,12,33,-5,8,66,-31,6,0.82,6239953900
-6,-1,-11,-2,-14,-128,-47,-13,0.81,6258652700
-4,13,21,1,1,-22,4,-7,0.81,6258666500
-8,26,50,4,3,84,-1,2,0.81,6258686700
-7,-15,-93,-14,-5,73,-5,-2,0.81,6258705700
1,-1,2,-1,3,60,0,-5,0.81,6258716100
3,-79,4,2,3,39,1,1,0.81,6258724500
-3,12,-8,-1,-2,22,-1,1,0.8,6277673700
2,-6,-1,-2,-2,11,1,2,0.8,6277692500
28,39,-3,9,0,-3,0,1,0.79,6298483400
-2,-28,60,10,3,-7,-1,-1,0.79,6298496400
-6,-13,-128,-39,-11,-10,-2,-3,0.79,6298507100
-11,-22,-34,-3,-4,-10,-1,-7,0.79,6298515300
5,18,12,-6,-3,-1,0,0,0.78,6319219100
0,1,-39,-5,-5,-35,11,-1,0.78,6319230400
-7,-7,40,13,3,-47,-15,-4,0.78,6319270200
9,17,57,10,5,-42,4,-1,0.78,6319290000
-10,-21,-96,-8,-4,-48,3,-6,0.78,6319302000
6,6,69,9,0,-14,-4,23,0.78,6319311400
-5,11,-16,-3,0,24,20,-7,0.77,6337692800
-6,4,-41,-8,-4,-51,-6,1,0.77,6337705600
-6,-11,-55,-15,-4,95,26,-2,0.76,6359082500
-7,-17,-16,-9,-5,-22,-1,-6,0.76,6359126200
-6,-20,-16,4,3,44,-6,-4,0.76,6359144600
12,20,30,10,8,50,1,5,0.76,6359154600
3,-66,-6,9,1,40,-6,-6,0.75,6379809500
-8,-1,50,-5,1,16,3,-3,0.75,6379821100
-8,-17,49,9,-7,11,-6,-6,0.75,6379834400
-20,42,-30,-13,4,8,0,4,0.75,6379843300
11,19,-71,-4,-5,-2,-3,1,0.75,6379851800
-3,10,9,19,-8,-7,-3,-5,0.75,6379858900
-1,10,103,-3,8,-1,0,0,0.74,6399939400
2,10,-46,-2,2,-11,-1,-2,0.74,6399952900
2,-28,98,-4,1,-4,1,0,0.73,6418148900
-3,-15,-75,-18,-9,-6,-4,-2,0.73,6418206500
3,29,58,14,-1,1,17,0,0.73,6418217400
3,0,-25,8,0,-13,-8,2,0.73,6418245500
-4,-3,-11,-18,-4,9,10,-6,0.72,6439620000
3,-10,-53,-6,-5,-21,5,1,0.72,6439633000
1,12,-23,9,3,-10,9,1,0.72,6439645300
3,4,12,6,5,-15,-1,-2,0.72,6439654000
-27,43,-11,8,4,0,15,3,0.72,6439662200
-10,-12,-5,-17,-12,-67,-9,-10,0.72,6439670600
2,4,18,6,0,10,-4,0,0.71,6458200700
3,-2,88,7,0,-12,-2,1,0.71,6458240300
30,3,-91,-5,-4,18,1,3,0.7,6479285800
-2,7,-86,-16,-3,16,-1,3,0.7,6479325400
-4,-12,42,-4,-1,11,-3,-5,0.7,6479338600
8,15,37,-3,-1,4,1,3,0.7,6479347200
-4,0,-24,19,1,3,4,2,0.69,6499463800
19,28,17,13,7,5,3,4,0.69,6499492800
-14,-19,35,-30,-11,-4,-5,-5,0.69,6499504500
-16,-18,-55,-29,-14,-7,-4,-6,0.69,6499513500
7,2,32,8,0,1,0,3,0.69,6499522000
-1,-17,61,19,6,-3,3,0,0.69,6499530000
-2,-5,-110,1,-2,4,1,2,0.68,6518308800
-3,-10,8,-8,-4,-6,0,-1,0.68,6518322700
14,34,110,20,8,4,16,9,0.67,6539637400
-43,-35,-72,-11,-3,5,-56,-7,0.67,6539649700
-16,-47,-96,-28,-8,-1,11,-9,0.67,6539658500
5,13,40,5,-4,-47,8,-5,0.67,6539666500
-8,31,72,17,0,-34,9,-3,0.66,6557860100
5,-1,24,0,1,-2,-5,-1,0.66,6557871000
6,12,-1,6,2,14,-2,0,0.66,6557882200
-15,-47,29,6,3,18,-3,-4,0.66,6557892600
-11,-15,-36,2,-1,8,-2,-4,0.66,6557900700
11,-48,-39,-17,-5,8,-1,-2,0.66,6557908100
0,-9,-23,-10,-5,0,-4,-2,0.65,6578583700
-3,17,37,1,2,8,1,0,0.65,6578632600
1,-19,-35,-10,-1,0,-2,-2,0.64,6600112000
1,-14,-128,-7,-3,1,-4,1,0.64,6600131200
3,11,19,10,3,0,4,-1,0.64,6600140100
-14,-3,127,-21,-8,-6,-5,-8,0.64,6600148800
8,13,-84,4,1,-2,4,6,0.63,6618522400
-42,57,25,9,4,1,-1,-2,0.63,6618534500
-4,16,7,9,3,-6,0,0,0.63,6618543400
3,5,-81,2,-3,-5,2,0,0.63,6618576200
-11,-2,-58,-2,-5,1,6,-7,0.63,6618591600
1,7,-8,3,2,0,13,-1,0.63,6618599500
-2,-1,33,-1,-2,2,-5,1,0.62,6639377400
6,16,26,8,1,-10,3,3,0.62,6639391800
-52,-3,-56,-13,-5,-4,0,-6,0.61,6657743100
-10,-34,12,1,-2,11,-13,-5,0.61,6657775700
-2,-5,24,-5,0,-11,-6,-6,0.61,6657804600
2,-2,4,10,1,-13,-3,0,0.61,6657817800
7,-19,-52,-5,-6,-25,-1,-7,0.6,6679021500
-7,-22,85,-18,-8,4,-5,-5,0.6,6679034300
1,-15,-125,-3,0,16,-5,-2,0.6,6679043500
0,0,-9,13,5,0,3,-3,0.6,6679051100
5,36,29,5,0,3,0,-1,0.6,6679060200
-6,-19,29,-5,-5,0,-1,-4,0.6,6679069200
-7,-1,37,-10,-4,0,-2,-2,0.59,6698316300
-12,-10,74,3,4,1,2,-2,0.59,6698366900
-5,-7,-128,-4,0,3,-2,-2,0.58,6718929500
9,7,79,4,3,2,2,2,0.58,6718943000
-3,26,127,8,-2,-4,-4,-5,0.58,6718953500
8,-1,-84,-2,0,0,1,5,0.58,6718962900
-25,58,116,8,2,8,-4,2,0.57,6739900700
2,50,54,4,-1,-18,5,-2,0.57,6739919400
16,-4,-87,-24,-5,17,11,-3,0.57,6739929200
-14,-47,-96,-17,-10,0,4,-8,0.57,6739938800
7,17,3,9,-3,-10,-3,0,0.56,6758348800
3,10,49,15,6,3,-1,2,0.56,6758403100
11,-29,-20,3,2,3,-1,1,0.56,6758428200
-9,-2,-41,2,3,15,2,-2,0.56,6758437300
-4,5,89,-15,2,32,16,3,0.55,6779235900
-8,-8,-68,-2,-7,-27,3,-17,0.55,6779248100
6,-12,43,3,0,-12,-3,0,0.55,6779266800
44,91,-4,3,0,11,-1,2,0.55,6779299300
-7,-19,-7,-1,2,8,-3,-2,0.54,6799786200
-2,-25,26,-11,-6,4,-2,0,0.54,6799799400
-1,12,64,9,2,4,0,1,0.54,6799822000
7,19,-60,14,6,3,1,0,0.54,6799855200
-4,42,127,-23,-8,0,-3,-5,0.53,6818170600
-4,-5,-119,6,2,2,-2,-2,0.53,6818181500
13,25,57,5,0,1,-3,2,0.53,6818198300
-35,-8,2,-5,-5,-13,-1,-4,0.53,6818208700
1,16,-7,10,3,-1,0,-2,0.52,6839228800
0,6,-44,2,1,5,0,1,0.52,6839246000
1,-55,9,3,1,-1,1,3,0.52,6839255000
-6,0,-22,5,3,6,5,2,0.52,6839262900
0,-4,20,1,0,19,0,-1,0.51,6858187800
4,16,22,10,3,-24,0,-2,0.51,6858200800
18,-24,-37,-6,-4,0,1,1,0.51,6858209100
-15,-17,35,-14,-4,-3,-3,-4,0.51,6858219500
-4,6,18,-6,-1,2,0,-1,0.5,6879375400
9,12,-104,-1,1,14,1,1,0.5,6879420100
-11,-17,45,2,0,-8,-7,-7,0.5,6879432100
5,4,-35,14,1,-11,9,1,0.5,6879441900
-3,-39,-128,-39,-10,2,1,-1,0.49,6897930600
5,-16,127,27,10,14,9,1,0.49,6897943100
-24,-31,-128,-33,-12,-17,-12,-12,0.48,6918535600
1,-33,-14,18,1,-13,-1,-1,0.48,6918586500
25,-37,17,-2,1,0,-1,-7,0.48,6918599900
-3,-5,90,-13,-6,6,-2,-8,0.48,6918608800
7,35,44,32,11,6,-14,22,0.48,6918618400
-15,-37,-96,-32,-12,0,7,-9,0.48,6918626100
7,12,42,13,2,-6,1,5,0.47,6939908800
-13,7,34,8,2,10,-12,-6,0.47,6939952100
3,9,67,6,-1,-32,12,1,0.47,6939964700
3,0,-7,3,2,3,-10,-2,0.47,6939972700
3,9,-98,5,-1,0,0,0,0.46,6958771100
-8,-20,41,-35,-10,-1,-4,-5,0.46,6958782200
-10,11,32,16,7,10,9,1,0.46,6958792200
-15,56,-39,-6,-1,-1,1,-4,0.46,6958802500
0,2,13,6,-1,0,-4,-1,0.45,6979056900
4,6,55,0,-3,0,0,3,0.45,6979068300
0,-11,89,15,2,1,4,-3,0.45,6979077200
-8,15,-128,-14,-4,7,-1,-4,0.45,6979086300
-3,3,17,-3,-1,-11,7,1,0.44,6998015400
71,-16,84,6,-1,19,-4,0,0.44,6998028200
1,-16,-105,-3,-1,-42,-6,1,0.44,6998039900
-14,-32,-80,-12,-8,-25,-3,-8,0.44,6998050700
-5,-17,24,-6,-7,3,5,-3,0.43,7018662500
-2,-8,59,3,3,10,10,-1,0.43,7018675100
16,24,20,12,-2,-24,-4,1,0.43,7018686200
6,-9,-82,-3,0,1,1,6,0.43,7018696100
-8,5,127,-9,-2,0,-3,-4,0.42,7039918700
-6,-38,-128,-35,-11,6,5,-4,0.42,7039932000
-5,-4,127,-4,-4,0,-4,-4,0.42,7039941700
-5,-24,-128,1,-2,1,-12,-4,0.42,7039949400
12,27,75,9,3,-1,14,4,0.41,7057982800
-2,2,4,-8,-3,25,-1,2,0.41,7058000600
17,-24,31,12,-1,-48,1,-1,0.41,7058010300
-5,0,-37,-4,1,0,-4,-2,0.41,7058019300
-10,17,82,8,4,29,3,-2,0.4,7078982700
-2,-14,-128,-6,1,-8,1,0,0.4,7078995000
-2,2,7,0,-4,-24,2,-1,0.4,7079004900
-5,-10,-32,2,2,5,-1,-3,0.4,7079030300
28,-58,127,11,-2,9,-3,4,0.39,7099677000
3,1,-86,-9,0,8,-2,0,0.39,7099720100
-7,-22,-128,-13,-6,2,-4,-7,0.39,7099735300
-8,-17,78,0,1,0,-2,-1,0.39,7099748300
16,31,12,22,6,4,1,5,0.38,7118398000
14,66,10,33,17,7,4,5,0.38,7118410600
-34,-63,-128,-47,-19,-17,-11,-14,0.38,7118433600
-29,-32,-68,-21,-9,-2,-7,-15,0.38,7118451200
-5,-5,90,7,5,3,1,2,0.37,7139227600
9,23,-114,6,5,0,6,4,0.37,7139250200
-3,31,-48,0,-2,9,13,-3,0.37,7139262800
5,-1,124,9,6,5,2,1,0.37,7139271100
-31,-27,-128,-51,-24,3,-31,-17,0.36,7159624000
-6,-4,-17,8,4,-36,9,-4,0.36,7159638300
11,28,43,21,8,5,4,7,0.35,7178303600
1,-17,-128,-12,-4,15,-4,-3,0.35,7178317400
1,4,-123,-26,-6,-8,2,-2,0.35,7178327700
1,12,27,-2,1,-13,-6,4,0.35,7178337500
5,11,-12,30,7,2,1,1,0.35,7178345200
0,11,57,-10,-1,4,-1,0,0.35,7178352600
18,19,-59,-16,-6,27,-4,-2,0.34,7199181100
-24,-79,-64,-29,-19,-54,4,-10,0.34,7199193500
-18,24,-12,3,5,10,9,4,0.34,7199204500
5,-5,-128,6,3,-13,-30,-2,0.34,7199247600
4,2,102,-14,-5,3,-3,1,0.33,7217702400
-5,47,-42,15,2,9,9,9,0.33,7217713000
-9,30,30,-19,-7,-2,-5,-4,0.33,7217806200
-7,78,127,18,7,4,0,6,0.33,7217850300
12,5,-37,2,1,-7,1,2,0.32,7237789100
12,-11,-51,5,5,3,2,5,0.32,7237805100
-18,-53,73,-23,-13,-6,-10,-11,0.31,7258593900
2,72,107,8,-2,-3,-3,-1,0.31,7258642400
0,-25,-128,-3,2,1,2,0,0.31,7258655700
0,-34,-119,11,1,-5,-1,0,0.31,7258666600
2,59,127,-2,-8,1,7,2,0.3,7280073200
18,66,49,31,16,2,-22,8,0.3,7280085100
-16,-35,36,-18,-6,35,5,-8,0.3,7280093700
-4,44,127,-22,-12,-47,0,-7,0.3,7280107800
1,-38,-128,-11,-4,0,2,1,0.3,7280116000
13,31,56,35,8,5,5,5,0.3,7280124100
-9,-16,-76,-21,-4,2,-3,-2,0.29,7298290300
3,23,33,-4,-3,11,-1,-3,0.29,7298346900
-7,-30,-21,6,3,3,0,-4,0.29,7298359800
8,38,-2,21,3,4,1,5,0.29,7298370500
43,-9,95,-15,-3,3,1,2,0.28,7318933100
-7,-44,-128,-10,-4,-1,0,-3,0.28,7318945500
-7,-3,75,-37,-13,-4,-6,-6,0.28,7318956100
49,9,127,35,7,4,2,3,0.28,7318966600
-10,-39,-21,-20,-7,-3,-3,-5,0.27,7340002100
32,57,84,38,11,0,8,9,0.27,7340043200
-19,-71,-128,-27,-13,-8,-6,-7,0.27,7340075900
5,13,-41,-29,-14,-6,-2,0,0.27,7340085200
1,20,57,15,0,-5,0,0,0.25,7379737800
-13,-77,-112,-20,-9,-7,-6,-3,0.25,7379751300
9,27,25,19,13,6,4,5,0.25,7379760200
-14,-37,-128,-18,-6,-6,-4,-5,0.25,7379768600
1,20,127,13,2,-1,-1,-1,0.25,7379776600
4,79,127,20,4,3,2,0,0.25,7379784600
5,-37,-110,-15,2,1,4,4,0.24,7398304200
-20,-22,127,-46,-20,-11,-8,-11,0.24,7398344000
13,26,-128,26,5,12,7,8,0.24,7398364200
-9,15,-39,-17,-8,-9,-18,-6,0.24,7398381500
-13,-76,127,15,2,-5,-2,-3,0.24,7398390900
6,26,-128,-25,4,-2,1,4,0.24,7398398400
23,84,127,36,2,-3,4,5,0.23,7419257700
2,7,88,14,6,4,2,0,0.23,7419303400
-32,-87,75,-42,-23,-8,-12,-14,0.23,7419320400
-9,-3,127,1,-4,-1,-4,-5,0.23,7419421900
26,105,127,88,25,9,11,11,0.22,7437622900
3,-15,-128,-42,-9,-5,-3,1,0.22,7437637600
10,36,-24,24,8,4,4,4,0.22,7437649800
18,3,127,0,-3,-4,1,5,0.22,7437657700
-55,-128,-128,-65,-21,-8,-5,-9,0.21,7458937100
-5,3,54,-24,-8,1,-3,-3,0.21,7458988400
20,52,127,25,13,9,6,12,0.21,7459000700
6,35,-26,36,7,0,1,0,0.21,7459013200
-25,-118,-128,-61,-22,-8,-8,-13,0.2,7478050700
-16,-43,127,21,3,-6,-3,-6,0.2,7478087700
31,85,127,53,14,7,8,11,0.2,7478097900
-21,-5,-128,-42,-3,6,-1,-2,0.2,7478106000
-12,-58,-128,-19,-8,-3,-3,-7,0.19,7499164000
-15,-74,-128,-20,-3,-1,-2,-4,0.19,7499176500
-1,28,127,-1,-1,-1,-2,-1,0.19,7499186900
24,37,-128,49,12,7,7,12,0.19,7499196200
-4,2,127,30,7,6,-3,-3,0.18,7519980500
28,66,-127,34,11,3,6,11,0.18,7520004700
-29,-96,43,-49,-23,-11,-8,-15,0.18,7520014700
-7,23,-128,-24,-9,-2,-6,-3,0.18,7520023200
26,-1,127,35,17,5,6,14,0.17,7538604300
-15,37,-65,-42,-19,-4,-8,-13,0.17,7538617500
8,-15,127,72,17,1,5,6,0.17,7538640000
-33,-4,127,-68,-30,-14,-13,-18,0.17,7538648100
-19,-122,-128,-39,-11,-10,-8,-11,0.16,7559625200
19,56,127,31,19,13,6,6,0.16,7559639900
-28,21,4,-32,-27,-9,-11,-14,0.16,7559648400
-28,-90,98,-19,-7,0,-7,-13,0.16,7559656000
48,105,-128,62,34,11,16,21,0.15,7578079700
-121,-128,-128,-128,-65,-33,-31,-50,0.15,7578093500
3,127,29,-12,-1,-1,-1,1,0.15,7578103200
5,-109,-128,-6,5,4,5,3,0.15,7578111000
20,38,127,50,17,2,4,7,0.14,7599432300
25,127,127,-8,-4,0,0,4,0.14,7599472600
-31,43,-29,10,5,-5,6,7,0.14,7599492900
-54,-91,-67,-55,-26,-2,-14,-20,0.14,7599502500
34,116,-128,49,24,15,15,19,0.13,7618147900
-47,-128,13,-87,-46,-29,-17,-24,0.13,7618160000
58,110,126,63,31,17,16,23,0.13,7618169700
24,117,103,32,1,-12,-1,4,0.13,7618224200
-11,65,74,-61,-11,1,-4,-8,0.12,7639453600
13,83,-34,-9,3,7,7,8,0.12,7639472300
26,37,-128,59,19,10,11,13,0.12,7639484500
-55,-107,-128,-128,-64,-16,-23,-32,0.12,7639493600
24,25,56,66,17,-1,3,11,0.11,7658072300
25,47,127,53,12,16,6,11,0.11,7658123100
49,127,127,85,31,17,18,22,0.11,7658138400
-58,-128,62,-71,-27,-29,-14,-24,0.11,7658165600
20,127,127,-13,-25,-9,-6,-6,0.1,7679360800
-35,-128,-124,7,-2,-10,-3,-13,0.1,7679383300
16,34,127,3,8,10,5,6,0.1,7679415800
11,-10,47,74,18,9,5,3,0.1,7679425800
24,-99,127,39,15,-6,6,8,0.09,7697631900
-48,-128,113,-78,-23,-7,-11,-20,0.09,7697660700
9,20,66,63,35,18,11,10,0.08,7718954300
-5,-9,127,11,-7,5,-1,-3,0.08,7718978400
-4,-44,-128,-32,-3,-8,-5,-5,0.08,7718989700
7,5,-95,-46,-8,2,1,1,0.08,7718998000
-40,-52,-128,-96,-33,-15,-17,-20,0.08,7719006100
3,17,3,13,4,6,2,0,0.08,7719013400
13,29,-52,51,16,6,6,8,0.07,7739377400
30,103,127,67,26,6,9,9,0.07,7739389900
-10,-9,-128,-64,-20,-15,-3,-6,0.07,7739440200
-17,-45,102,-10,-10,-3,-5,-11,0.07,7739453400
-29,-128,-20,-63,-28,-14,-9,-12,0.06,7757929700
7,79,90,20,8,14,5,4,0.06,7757942400
1,17,55,-10,7,1,-1,-1,0.06,7757953400
58,60,35,102,46,17,18,27,0.06,7757963100
-7,127,-128,-68,-40,-14,-12,-9,0.05,7778529000
-64,-128,127,-128,-45,-17,-19,-30,0.05,7778557500
18,127,37,38,19,11,7,9,0.05,7778593600
72,6,-128,92,53,21,22,30,0.05,7778621000
-68,-45,-47,-128,-59,-27,-23,-30,0.04,7799786700
-25,-128,-128,-23,-19,-11,-10,-14,0.04,7799798700
-6,6,-128,-54,-18,-16,-6,-9,0.04,7799810200
-4,25,-128,-44,-7,4,-7,-8,0.04,7799818900
30,122,-46,47,17,11,10,12,0.03,7818250700
8,-50,127,75,21,3,3,5,0.03,7818261800
6,103,127,12,-8,-10,-1,2,0.03,7818269700
-20,-65,-128,-52,-21,-6,-8,-12,0.03,7818277500
-2,-31,16,0,-3,-4,-1,0,0.02,7839157700
15,19,6,32,16,6,7,10,0.02,7839176900
2,21,-1,-70,-20,-12,-5,-4,0.02,7839186600
-16,12,-128,-43,-17,-3,-5,-5,0.02,7839194400
-21,-113,-122,18,6,11,-2,-6,0.01,7859920700
20,90,127,11,0,-5,0,6,0.01,7859949600
0,-77,52,19,3,0,-4,8,0,7878501100
-4,7,101,3,1,1,0,-15,0,7878514000
-4,54,-45,10,3,0,-1,-11,0,7878522500
3,-35,-42,9,-2,-4,-2,2,0,7878530600
10,50,104,16,2,1,-2,1,0,7878541700
-21,32,39,-33,-19,-11,-9,-13,0,7878550600
-6,-47,-128,-3,4,7,8,48,0.01,7899389900
1,-38,-128,-20,-2,-3,-6,-81,0.01,7899425000
-5,1,127,0,0,22,-9,-11,0.01,7899435500
13,-3,-128,5,6,-5,11,10,0.01,7899443700
-18,-95,-42,-21,-7,47,5,107,0.02,7917577300
15,10,-16,9,-6,-90,15,32,0.02,7917588800
-4,1,13,-15,-2,4,-11,-42,0.02,7917600100
3,64,127,20,11,56,6,-48,0.02,7917611400
-22,-95,-128,-37,-15,-75,-32,0,0.03,7938421600
-10,22,127,-19,-13,-5,11,-14,0.03,7938435300
-23,-43,98,-34,-18,-7,-11,-50,0.03,7938455600
42,-30,49,5,-1,37,27,-73,0.03,7938495700
5,-25,-115,-1,7,4,-19,12,0.04,7959589500
15,45,31,21,8,-32,0,116,0.04,7959641600
5,-24,43,5,-3,-5,-16,-128,0.04,7959656500
-17,-1,-33,-12,-10,-42,29,44,0.04,7959665300
8,13,22,-2,5,77,-6,39,0.05,7977752000
-12,-6,-42,0,-9,-35,3,-33,0.05,7977765800
15,32,12,17,11,-1,-20,-78,0.05,7977778000
-12,-50,74,-16,-2,51,39,74,0.05,7977788500
0,-25,-13,-14,-10,-83,-20,-44,0.06,7998693100
0,-3,-12,5,-3,-61,70,44,0.06,7998705800
5,41,-62,7,3,127,-14,127,0.06,7998732300
-36,-8,48,-11,-9,-128,127,-128,0.06,7998755100
-13,13,12,-8,-6,16,-128,-34,0.07,8019587800
-15,115,127,28,16,50,127,57,0.07,8019620200
-42,-76,-128,-49,-12,51,74,-46,0.07,8019629800
0,3,62,12,4,27,49,127,0.07,8019638200
16,58,-13,52,23,30,23,-45,0.08,8037968200
-25,32,126,-57,-25,17,63,23,0.08,8037979200
-22,33,106,1,13,61,-3,89,0.08,8038022400
-24,-19,50,0,-7,32,47,36,0.08,8038039100
-11,6,-30,7,-6,-62,-50,-128,0.09,8058670900
-7,52,22,15,2,2,73,63,0.09,8058687000
-10,8,106,8,8,-10,-2,37,0.09,8058700200
-13,-1,96,-25,-2,127,96,-128,0.09,8058708700
-36,-33,-128,-27,-21,-128,5,127,0.1,8079285900
32,4,24,15,10,127,23,111,0.1,8079302100
2,68,35,11,-1,-44,18,11,0.1,8079311100
-11,-33,-5,0,4,52,-100,29,0.1,8079318900
35,8,8,3,2,-15,34,-43,0.11,8100748400
-11,6,-6,-1,3,24,19,-128,0.11,8100760500
8,32,18,6,1,36,49,-96,0.11,8100769000
-11,-1,-102,10,-10,-109,-80,17,0.11,8100789300
4,-5,107,-2,1,31,2,-4,0.12,8119548900
-9,-12,78,-20,-5,56,-75,-74,0.12,8119561100
-1,51,79,3,-1,-15,-1,-15,0.12,8119569400
-23,-83,-122,-14,3,9,11,-12,0.12,8119578700
-10,-57,50,12,7,7,-4,13,0.13,8139554600
8,18,87,3,-3,-20,-107,-100,0.13,8139582300
2,4,42,7,3,-19,18,58,0.13,8139622300
-18,14,-20,6,6,25,37,-128,0.13,8139636100
-4,38,-33,-10,-13,-33,8,114,0.14,8158228800
-7,6,11,-4,-4,-9,-41,-128,0.14,8158248300
3,20,0,2,2,15,-31,41,0.15,8179361000
13,6,-3,-3,0,42,4,75,0.15,8179372300
10,15,2,-1,-1,-30,125,17,0.15,8179381400
8,1,-6,-4,5,101,-76,127,0.15,8179391300
2,45,-13,6,-11,-128,-70,58,0.15,8179399000
34,-62,87,24,18,47,119,127,0.15,8179406900
-32,15,48,-19,-16,-43,-19,-72,0.16,8197799100
-46,-30,-122,-61,-25,0,-28,-13,0.16,8197850000
27,23,127,28,18,52,51,123,0.16,8197866100
-40,-9,-128,-18,-15,30,-50,-47,0.16,8197874500
-5,52,24,11,5,-42,-112,-28,0.17,8218809900
12,-31,68,12,8,2,8,21,0.17,8218856100
51,3,-32,10,1,4,-45,-128,0.18,8239877600
-19,-11,2,-7,-3,-9,61,37,0.18,8239892500
-7,8,7,-6,-5,5,35,-14,0.18,8239905800
7,1,8,2,1,10,13,24,0.18,8239916000
-15,-9,-30,-6,-1,-3,-128,-128,0.18,8239925800
6,14,5,4,-1,-68,51,-10,0.18,8239933300
2,4,-7,-5,2,5,44,127,0.19,8258422300
4,-10,-4,-3,-2,7,-37,-128,0.19,8258434100
-7,20,9,-4,-5,-12,-15,-5,0.19,8258443900
-8,11,-17,-2,1,19,-128,-5,0.19,8258451400
4,28,27,4,-1,-12,69,127,0.2,8278913000
10,-4,-14,3,0,3,9,95,0.2,8278928100
38,-52,-1,-8,1,-36,-22,127,0.2,8278936700
-23,-52,-4,-4,0,14,8,-26,0.2,8278944200
19,16,-56,3,1,1,-56,21,0.21,8299788900
-11,-122,28,14,3,-16,-33,-7,0.21,8299801600
0,-29,4,-37,-15,-31,45,12,0.21,8299810400
8,62,-26,1,0,0,3,11,0.21,8299850400
-54,104,-55,6,3,-21,42,14,0.22,8318820300
-2,5,38,10,2,-49,-75,-42,0.22,8318832500
8,0,12,3,-3,-18,42,15,0.22,8318840900
-16,0,16,4,8,93,-41,-128,0.22,8318849600
16,6,-10,4,-10,-96,6,15,0.23,8339844700
8,3,19,-5,1,52,-128,-76,0.23,8339856200
-9,1,-4,-1,-8,-56,104,-64,0.23,8339865600
25,-5,-8,-3,-2,52,27,46,0.23,8339873800
4,4,-5,3,4,57,-24,8,0.24,8358223000
-2,-6,24,-1,-8,-6,23,111,0.24,8358234400
-12,10,-62,0,3,37,-46,2,0.24,8358243000
-10,43,14,-1,4,14,-21,-32,0.24,8358251400
-1,45,12,4,2,34,85,124,0.25,8379493400
-6,-75,29,5,-3,-36,50,-128,0.25,8379506800
17,36,63,14,3,-10,-104,-128,0.25,8379563500
-42,-8,-59,-18,-8,9,57,6,0.25,8379578800
3,23,-88,-11,-4,11,-46,6,0.26,8398294200
1,11,127,-12,-7,-76,3,11,0.26,8398310500
4,-18,-47,6,5,14,-13,34,0.26,8398322000
17,32,75,14,0,23,-128,-6,0.26,8398334700
32,-4,-29,9,4,27,44,94,0.27,8419504100
-7,-31,-24,-2,-1,-89,44,52,0.27,8419515500
0,5,10,1,1,5,88,50,0.27,8419524200
1,-1,8,1,-3,13,-111,84,0.27,8419532600
23,7,6,4,7,46,60,70,0.28,8439830400
-22,-11,-3,-5,-2,-52,-1,-113,0.28,8439846800
28,-10,2,0,-3,12,26,4,0.28,8439857800
2,-68,-4,0,1,12,-12,-13,0.28,8439866700
-12,-49,-3,0,-2,-13,27,-128,0.29,8457816900
5,33,2,6,2,-2,3,-9,0.29,8457832900
12,-11,7,2,2,35,83,81,0.3,8479366600
11,-11,-14,-8,-6,-34,-36,90,0.3,8479380600
9,106,6,-2,-1,13,52,37,0.3,8479389600
-47,-128,68,7,2,-57,41,62,0.3,8479397400
-27,-12,-105,-9,-5,-32,-51,-4,0.3,8479405000
-14,-21,-29,-16,-11,-6,-31,-62,0.3,8479412500
33,52,36,8,7,25,120,127,0.31,8499661100
11,-69,127,-6,-1,17,-12,127,0.31,8499677800
1,28,13,0,-4,-4,101,127,0.31,8499692000
21,-12,25,10,5,16,111,55,0.31,8499730500
20,7,14,7,8,-10,8,-45,0.32,8518587100
6,50,6,4,-3,35,21,-16,0.32,8518600500
-9,1,-1,-4,-7,25,-43,53,0.32,8518622900
16,9,5,0,3,-36,-29,-2,0.32,8518659200
-46,7,-15,-9,-10,-66,2,0,0.33,8539760300
1,-4,-9,-6,-4,45,-104,30,0.33,8539773500
-16,-7,-6,4,2,-24,28,14,0.33,8539782800
11,-14,4,2,2,29,68,82,0.33,8539790700
-3,121,-2,-2,2,25,107,-64,0.34,8558428800
-29,-128,-8,-6,2,63,-54,-46,0.34,8558440300
20,23,17,-4,-2,-56,114,70,0.34,8558448800
-54,33,-34,-7,-8,-3,57,-43,0.34,8558467400
16,-18,25,8,6,27,-39,127,0.35,8579414000
-20,-18,48,3,-3,-33,-50,17,0.35,8579428700
14,-37,-4,6,1,3,-23,-73,0.35,8579445200
-20,-7,-51,-18,-10,9,12,5,0.35,8579460300
3,36,73,3,-2,4,23,82,0.36,8598630100
-2,-69,-58,-1,-2,-4,-51,27,0.36,8598641400
-5,7,-51,-3,-2,-28,10,72,0.36,8598650200
8,10,66,0,6,52,51,107,0.36,8598658400
1,27,9,6,3,-20,127,44,0.37,8619611900
-12,-1,3,-5,-15,-128,-86,8,0.37,8619623900
0,-58,-2,-2,-1,26,-16,6,0.37,8619633100
11,13,3,1,-2,22,127,127,0.37,8619641000
-5,-5,-5,-3,-4,-26,21,22,0.38,8638442900
-35,-7,-12,-13,-13,-12,-96,-128,0.38,8638454100
-6,5,0,-4,3,24,64,-128,0.38,8638465500
-20,5,7,-5,-5,18,80,-128,0.38,8638475300
2,17,-34,-6,-7,-34,-95,-34,0.39,8659392700
4,-17,-10,-4,2,21,-128,-72,0.39,8659404300
7,-56,14,8,13,30,127,94,0.39,8659434500
13,47,16,4,8,22,127,26,0.39,8659487600
-17,-33,26,-13,-15,-24,127,4,0.4,8680015500
-44,-7,24,3,10,16,-19,34,0.4,8680067600
2,40,-19,12,11,31,127,31,0.41,8698318400
-19,4,4,-10,-10,13,80,19,0.41,8698332100
-7,-37,-70,-11,-5,-67,127,9,0.41,8698341600
-20,5,-64,-7,-5,25,-128,115,0.41,8698350700
-71,-47,-17,-24,-10,-45,58,-19,0.41,8698359100
-4,-41,43,4,-5,-104,-47,127,0.41,8698367000
4,21,20,9,10,28,18,13,0.42,8719905800
4,-42,27,8,9,33,18,-10,0.42,8719918300
-13,-17,-4,0,5,35,98,-33,0.42,8719929100
5,3,2,-8,-18,-77,-43,127,0.42,8719940200
32,1,-2,-4,-2,27,127,22,0.43,8738443100
-6,-2,-6,-5,-9,10,120,-128,0.43,8738464600
-7,4,-1,3,2,-14,127,-29,0.44,8759514400
-9,34,-4,-4,-1,-4,-128,127,0.44,8759525800
4,-16,-1,0,1,44,2,-128,0.44,8759536800
2,-16,-2,-4,-5,-38,-128,-106,0.44,8759546400
-12,-7,-6,-3,-1,9,-102,-61,0.44,8759554100
10,17,1,-1,2,30,127,127,0.44,8759561900
-2,-29,-9,1,2,-5,0,-128,0.45,8778026300
-16,4,17,-1,-2,-12,127,59,0.45,8778038500
11,25,33,10,14,56,-41,127,0.45,8778048000
-3,3,36,-1,-6,-30,-104,127,0.45,8778055700
-13,17,-92,-8,6,66,53,127,0.46,8799324500
-4,-49,-29,-4,-3,-56,-60,53,0.46,8799336100
26,-13,38,3,4,53,127,25,0.47,8818407800
5,19,37,3,5,44,-40,-11,0.47,8818425200
20,-61,-9,6,2,24,127,-128,0.47,8818434300
18,2,-8,4,4,-32,-101,-40,0.47,8818442000
-13,-39,35,-4,0,-10,-47,-96,0.48,8839529700
-7,34,-4,2,-2,78,64,-2,0.48,8839541900
-50,5,2,3,2,-34,-66,-38,0.48,8839554200
-27,-5,-10,-5,-11,-92,17,99,0.48,8839563400
12,-12,-7,-4,5,15,-56,-128,0.48,8839572600
41,21,7,4,-3,12,127,-94,0.48,8839581900
2,-7,-7,-8,-5,37,69,-128,0.49,8857870000
2,5,-3,2,4,36,126,-128,0.49,8857881000
13,-15,0,-2,-6,-96,5,-52,0.5,8878844100
-17,-51,-13,2,4,28,-7,-128,0.5,8878854300
16,51,-3,-1,-1,12,52,66,0.5,8878862900
3,-26,-1,-1,0,-13,-14,36,0.5,8878899200
-20,-1,30,2,-4,10,-128,69,0.5,8878920500
59,-41,-38,4,6,-54,-8,127,0.5,8878929200
10,18,21,-1,-5,-1,-128,-89,0.51,8897737400
-12,-7,18,3,4,41,72,27,0.51,8897751900
15,58,-20,1,4,-47,-73,43,0.51,8897891100
-38,-51,-62,-15,0,85,25,-128,0.51,8897906900
14,17,37,7,-4,-52,34,88,0.52,8920106200
-10,6,25,6,0,-25,16,-13,0.52,8920117200
1,-11,17,5,3,26,24,-128,0.53,8938064400
-59,-48,-8,-5,3,111,114,59,0.53,8938075000
28,13,11,6,3,-128,-128,-128,0.53,8938108200
6,32,4,7,4,77,127,69,0.53,8938128400
1,-38,-21,-7,-10,55,-90,127,0.53,8938137600
0,70,-3,-4,-3,42,20,-37,0.53,8938159100
-1,-18,-2,0,2,-37,-128,-128,0.54,8958792400
3,39,-10,-6,-7,22,45,35,0.54,8958803200
4,27,-3,-1,4,32,74,-128,0.54,8958811700
9,-51,-7,1,1,22,-23,-128,0.54,8958819400
10,-34,23,0,-3,-1,127,-46,0.55,8977874400
5,-4,-31,-4,-14,-47,-128,127,0.55,8977894900
1,18,-6,-7,3,89,-128,127,0.56,8999096700
9,1,9,4,6,-26,127,-54,0.56,8999106900
-100,-22,-21,-25,-34,-5,-128,-88,0.56,8999115800
6,-35,19,11,18,47,127,-105,0.56,8999123600
20,-42,-2,1,1,-128,-120,1,0.56,8999155100
-8,7,32,-3,-3,-2,127,-39,0.56,8999176700
-55,-10,-107,-32,-41,-128,-128,72,0.57,9019373600
-93,-24,-1,-5,7,109,-73,-128,0.57,9019403800
17,14,22,5,-10,-128,127,20,0.57,9019433500
10,13,11,4,9,127,-128,-70,0.57,9019443400
-30,45,31,14,16,22,-67,-101,0.58,9040008900
-12,-8,5,1,-5,-57,-128,-128,0.58,9040026200
-74,-12,-29,-5,5,74,75,-128,0.59,9058779200
-12,14,11,1,-5,-58,-128,-109,0.59,9058799900
-39,-123,-24,-25,-36,-128,-128,-128,0.59,9058850600
-10,-1,0,7,18,127,-128,-128,0.59,9058863800
21,28,9,12,11,-87,-109,48,0.59,9058874400
-27,-3,3,-4,-15,-80,127,-128,0.59,9058883700
-70,-72,34,-16,-11,127,127,-128,0.6,9079765400
-41,-4,-108,-19,-8,-97,-128,-128,0.6,9079788300
50,3,25,14,17,74,127,19,0.6,9079804400
-35,-128,-4,-22,-31,-122,-59,-128,0.6,9079812400
60,-13,19,6,10,127,127,127,0.61,9099866200
-8,-38,-1,2,1,-15,-69,-128,0.61,9099900700
27,40,14,11,21,127,102,-41,0.62,9117809700
-2,4,-10,-3,-4,-111,-33,-105,0.62,9117821300
3,-27,-2,0,-4,-128,127,117,0.62,9117831800
57,35,27,24,32,78,127,127,0.62,9117865900
31,-29,1,-2,-6,127,-128,127,0.62,9117886000
58,78,20,13,16,-51,127,127,0.62,9117894200
-20,-54,22,7,5,-128,-128,-128,0.63,9138365600
16,-27,-52,-16,-27,-109,127,-96,0.63,9138378000
53,64,19,9,14,65,26,65,0.63,9138387400
-55,-4,13,-3,-4,-128,-128,-128,0.63,9138395900
39,52,-52,-2,-1,-8,-89,127,0.64,9159663700
13,8,51,-1,7,97,-128,-3,0.64,9159675200
50,9,9,15,19,-47,127,127,0.65,9180116000
13,28,15,-5,-18,-127,127,5,0.65,9180167000
-91,-74,-27,-16,-11,87,-128,127,0.65,9180193800
-35,-16,-8,-6,-18,-128,83,127,0.65,9180204700
-2,2,8,7,10,127,-40,-32,0.65,9180214100
-47,-32,-26,-24,-29,38,127,-128,0.65,9180222600
6,-17,-4,0,6,127,-128,102,0.66,9201326200
2,13,14,7,6,-79,127,127,0.66,9201339900
-33,48,5,0,1,16,43,-106,0.66,9201349300
-69,-20,-12,-9,-12,-95,-128,127,0.66,9201358000
-37,63,14,1,0,22,43,-128,0.67,9219874300
32,-9,-56,-2,-5,89,-128,-128,0.67,9219922300
-23,-96,-13,-2,2,-95,-128,81,0.68,9238970000
-71,20,-10,3,12,127,127,-128,0.68,9238983000
-38,4,7,1,-7,-94,127,127,0.68,9238991400
16,32,-28,-1,-2,-128,-128,127,0.68,9238999400
4,-21,28,-8,-8,-128,-128,-128,0.68,9239008000
39,55,18,12,12,-78,127,127,0.68,9239016400
68,54,18,11,8,13,127,127,0.69,9260052700
11,17,13,4,14,-34,127,127,0.69,9260065800
-8,57,26,10,7,-128,-58,-128,0.69,9260077000
-22,-128,-18,-9,-1,63,76,-128,0.69,9260088200
18,49,-3,-2,-5,127,-128,127,0.7,9278295500
41,-96,6,14,28,127,127,127,0.7,9278309800
-110,7,-9,-17,-30,-128,127,-128,0.71,9299785900
5,51,25,14,21,127,127,8,0.71,9299799400
87,43,25,22,29,127,-128,127,0.71,9299836700
21,66,-18,-4,7,21,127,63,0.71,9299857900
-64,-60,2,-6,-12,-128,89,31,0.71,9299867300
80,7,37,25,29,78,127,79,0.71,9299875700
-32,47,3,-3,2,92,127,-128,0.72,9321537100
-49,-49,-22,-22,-44,-128,91,127,0.72,9321548100
-63,-41,19,-1,18,127,-128,127,0.72,9321556300
-48,-6,-36,-11,-16,127,-104,127,0.72,9321564300
27,22,2,-7,-3,-48,-128,127,0.73,9337827900
31,-17,-6,-7,-16,-128,127,127,0.73,9337887700
-24,45,12,4,8,127,94,-106,0.74,9358552400
76,74,12,10,27,127,127,13,0.74,9358567000
17,-88,-21,0,10,-41,127,127,0.74,9358579100
-31,27,-15,-16,-27,-128,127,-65,0.74,9358591100
43,36,30,14,24,127,125,29,0.74,9358600400
-88,-16,-31,-25,-36,-128,39,127,0.74,9358607900
8,26,19,1,-7,-128,127,127,0.75,9380028300
-51,68,-12,2,10,127,127,-128,0.75,9380047100
7,-39,-103,-4,6,62,-46,104,0.75,9380060800
3,-15,-24,-15,-28,-128,-128,127,0.75,9380071300
59,41,32,13,-1,-128,127,-128,0.76,9399785500
-39,-2,12,3,12,-2,110,-107,0.76,9399797800
64,23,42,13,6,-128,40,127,0.77,9418415800
-6,3,41,0,6,-128,127,76,0.77,9418426700
28,9,-22,5,20,127,63,127,0.77,9418440400
31,73,23,2,-9,-128,0,-128,0.77,9418451000
-49,-15,22,9,5,12,-128,-128,0.77,9418460000
10,38,3,-8,-15,-128,9,-128,0.77,9418467300
-128,-70,-33,-34,-54,-128,-128,-128,0.78,9439236300
-1,66,26,7,-1,-31,31,-17,0.78,9439247900
28,49,22,24,51,127,127,-38,0.78,9439256300
1,32,-22,-5,-28,-128,127,127,0.78,9439266700
12,-15,-6,-1,0,127,69,127,0.79,9457718900
-34,-24,6,-6,1,127,-62,-76,0.79,9457756400
5,-12,-9,-1,-13,-105,127,127,0.8,9479604100
13,5,21,18,33,56,127,127,0.8,9479615700
-5,-3,5,7,11,-77,-128,-49,0.8,9479626600
35,-13,-6,-6,0,127,-21,127,0.8,9479636200
-54,21,-20,-19,-32,103,127,21,0.8,9479644500
-33,74,17,9,26,32,127,-128,0.8,9479652500
-2,-90,-9,-2,-13,-22,-128,55,0.81,9500040400
11,58,15,16,30,127,91,-128,0.81,9500077300
11,-5,8,0,-3,-128,57,104,0.81,9500087300
-1,-6,4,-3,9,63,-68,-128,0.81,9500095800
-22,-28,-7,-11,-19,-10,127,-82,0.82,9518221400
-32,-59,4,-1,2,127,127,-53,0.82,9518240900
44,21,-8,12,16,-128,127,127,0.83,9539876400
-16,-9,1,-22,-36,-128,-128,-110,0.83,9539924200
23,41,24,-1,-1,109,127,127,0.83,9539935300
31,19,-27,10,16,121,127,127,0.83,9539943900
-21,41,4,2,-5,-128,-128,-128,0.83,9539952000
-70,-45,9,-7,-11,-128,-74,-128,0.83,9539960300
-17,30,-15,-17,-32,-128,-128,-128,0.84,9558918100
-77,-39,19,-9,-9,127,-128,127,0.84,9558930700
-4,-14,-27,-2,-11,-128,-128,-128,0.84,9558965300
31,-16,-14,-10,-24,-108,-64,-83,0.84,9558994700
11,33,12,6,12,88,74,96,0.85,9579767900
78,-110,10,18,21,-128,127,-128,0.85,9579779500
8,43,9,5,5,26,46,-18,0.86,9597956200
-57,0,15,1,6,127,-128,25,0.86,9598002100
21,-14,-28,-11,-14,-128,127,109,0.86,9598028400
58,127,21,13,20,127,127,127,0.86,9598041600
-17,45,-13,-15,-29,-128,93,-128,0.87,9619295100
3,1,-3,-1,9,127,127,127,0.87,9619313900
-17,-35,-2,-7,-8,-128,-128,-84,0.87,9619323000
-62,1,-6,-4,5,127,127,127,0.87,9619350000
20,15,18,15,22,71,-73,-23,0.87,9619376700
4,-12,-5,-4,-4,-128,127,80,0.87,9619386500
48,41,27,1,-7,-128,-29,127,0.88,9638611200
62,36,-20,17,35,127,127,127,0.88,9638623200
-106,-128,-29,-10,-22,-128,-128,64,0.89,9659726600
-53,-17,16,-13,-22,-56,9,-128,0.89,9659737800
27,-12,29,11,9,-128,127,-52,0.89,9659747200
0,67,3,2,3,91,-128,-128,0.89,9659755000
53,9,23,15,28,127,74,127,0.9,9678066600
36,39,-24,7,18,127,-128,-128,0.9,9678133300
29,3,16,3,-4,-128,127,-46,0.91,9698835600
-103,-14,-2,-9,-11,127,-79,-128,0.91,9698860500
-21,-59,-19,-18,-24,-35,-128,-31,0.91,9698870500
14,31,13,2,-1,127,8,-4,0.91,9698878600
4,-56,7,2,16,127,16,-117,0.91,9698894400
-8,-20,-6,-12,-23,-128,12,-128,0.91,9698908700
28,87,38,11,22,127,127,127,0.92,9717757500
44,-3,0,6,-3,-128,-128,106,0.92,9717782800
10,0,23,3,11,94,46,22,0.92,9717815800
-4,14,-12,7,7,-128,127,-20,0.92,9717825400
12,24,-10,11,23,127,28,-128,0.93,9739240300
33,-6,34,6,6,-22,-68,-92,0.93,9739253200
37,-113,56,2,-7,-128,-16,-56,0.93,9739261800
-39,-8,-22,-6,-7,41,-5,-64,0.93,9739270800
17,19,28,11,18,127,-95,49,0.93,9739310900
-22,18,8,-3,-4,-128,-128,-128,0.93,9739326600
53,127,33,6,8,127,-76,118,0.94,9757557200
-35,-128,-60,-13,-11,-31,-33,6,0.94,9757568700
0,-15,-11,4,2,26,-5,-128,0.95,9778955900
-34,10,-1,-8,-3,127,42,-128,0.95,9778969100
0,45,30,15,17,-42,110,-128,0.95,9778978700
6,-8,-5,-5,-12,-128,-128,-77,0.95,9778987300
-24,58,-7,-5,-12,-128,127,114,0.96,9797536200
-10,72,11,3,1,127,127,35,0.96,9797584000
-37,-26,-16,-6,-2,-94,-128,-128,0.96,9797596400
-21,4,-8,-3,-2,6,-108,127,0.96,9797605700
19,1,33,3,3,127,109,127,0.97,9819231600
9,11,-34,-5,-5,-20,-5,127,0.97,9819244400
-30,-75,-6,-3,8,127,-45,41,0.97,9819253800
3,-6,12,5,-2,-128,93,9,0.97,9819261700
26,-36,-2,-6,-7,-94,-33,-12,0.98,9839665400
37,34,13,6,6,-43,-19,127,0.98,9839705600
-5,41,3,-6,-9,18,-53,-25,0.98,9839740500
4,-53,21,6,4,-37,-9,-5,0.98,9839751600
-8,-6,-46,-3,-4,49,9,-12,0.99,9858262200
-12,-12,-19,-9,-3,70,9,31,0.99,9858274000
24,28,28,0,-6,-128,-1,-18,0.98,9879782100
9,-30,5,8,7,112,90,-47,0.98,9879794600
-28,-45,-33,-4,-7,-128,13,-52,0.98,9879805400
-4,6,31,-4,-2,46,-16,-24,0.98,9879814700
11,-8,20,2,0,85,-8,-30,0.98,9879822600
1,-60,-33,0,1,31,60,-118,0.98,9879831200
-29,-74,-13,-6,-10,-128,127,-58,0.97,9898545900
9,55,11,6,7,16,80,10,0.97,9898557900
-24,-31,-4,-8,-5,8,119,-14,0.97,9898566200
-2,23,-5,-5,-4,-45,22,-128,0.97,9898573500
-20,-11,31,2,0,47,15,5,0.96,9919297300
-7,27,-91,-6,-6,67,-24,2,0.96,9919310200
0,-20,-23,-4,0,127,3,-23,0.96,9919320700
37,40,20,0,-5,-114,-39,127,0.96,9919330300
-17,6,13,-4,-5,-128,50,-62,0.96,9919338600
-6,-26,0,3,0,21,-7,1,0.96,9919346300
-2,3,11,-2,2,28,-20,-1,0.95,9937800400
2,-50,-18,-1,3,127,2,1,0.95,9937811300
14,125,15,0,-14,-128,116,22,0.94,9958864600
79,20,22,4,1,81,32,127,0.94,9958880800
-20,7,-14,-1,-5,-27,-4,127,0.94,9958891000
3,23,-4,4,0,28,-49,-5,0.94,9958898900
3,6,71,-1,1,9,-5,3,0.93,9977883800
-8,-61,-123,-18,-7,-10,-2,-8,0.93,9977896400
1,2,68,-3,-1,-14,6,-11,0.93,9977907800
6,-1,-3,6,4,-24,6,-1,0.93,9977915900
8,17,50,7,3,-20,2,-5,0.93,9977958800
5,13,81,13,3,-14,1,-5,0.93,9977971000
2,-7,-82,2,-1,-6,-5,-9,0.92,9998751400
-14,-45,-61,-21,-8,-13,-5,-9,0.92,9998763300
-4,18,41,-10,-6,47,-3,-5,0.91,10019602800
8,23,-10,6,1,40,1,-39,0.91,10019616400
-14,66,19,8,2,6,-1,-10,0.91,10019625200
5,11,22,8,1,-20,0,1,0.91,10019633000
-2,-14,-9,-7,-4,-24,-21,-1,0.9,10038056200
-20,-43,-128,-13,-5,-47,-16,-7,0.9,10038067800
11,53,-48,5,6,-101,2,7,0.9,10038079600
-6,-36,30,-4,-7,-95,67,-3,0.9,10038088900
-11,2,1,-9,-7,-95,-11,-23,0.9,10038097400
-8,-27,28,6,2,18,-9,-5,0.9,10038105200
-26,21,-87,7,6,97,-103,13,0.89,10059220400
-2,-7,-52,-15,-7,13,18,2,0.89,10059232500
-2,-10,50,-2,-6,40,-4,-4,0.88,10077676100
5,10,7,2,-1,48,-4,2,0.88,10077779700
0,11,10,5,3,36,-2,1,0.88,10077803400
11,21,70,6,-1,20,-1,6,0.88,10077812100
4,5,-71,-4,-2,6,1,3,0.87,10099046000
-11,-4,46,5,-2,5,-2,-1,0.87,10099062700
-5,-20,-69,-5,2,-10,0,0,0.87,10099110200
-4,-25,-37,-23,-9,-31,-4,-4,0.87,10099121600
1,16,-3,0,-2,-34,0,-3,0.87,10099130400
5,19,44,18,2,-36,-5,1,0.87,10099138200
-5,-20,-26,-7,-6,-27,5,1,0.86,10117624500
-4,-8,21,-5,-1,-23,-2,-3,0.86,10117666600
4,13,25,8,2,-19,-12,-2,0.85,10138987000
12,-5,8,4,0,-26,-17,2,0.85,10139030700
-1,10,67,6,8,43,47,-1,0.85,10139041900
-3,-1,-73,-3,2,53,-33,-9,0.85,10139050600
-2,-3,-44,-14,-13,-109,-2,-2,0.84,10157643900
-6,1,13,8,3,37,3,-1,0.84,10157657200
-16,-37,49,8,2,55,4,0,0.83,10178912600
-7,-28,-57,-12,-6,50,-22,1,0.83,10178924100
8,-48,105,-6,-3,44,4,-8,0.83,10178932900
-13,1,41,6,4,33,2,3,0.83,10178975400
-1,28,-23,4,-1,20,-5,-8,0.83,10178987700
2,1,-36,5,6,16,-3,-1,0.83,10178995800
0,20,-9,-24,-16,1,-1,-2,0.82,10199944800
10,72,76,10,1,7,3,0,0.82,10199958400
-25,-97,-128,-22,-12,-2,-8,-10,0.82,10199968600
5,59,127,21,8,3,-1,0,0.82,10199978400
5,19,-128,17,2,-1,4,3,0.81,10218950100
-3,-3,126,-33,-12,-7,-4,-2,0.81,10218966800
-6,8,-83,8,2,-2,0,-4,0.81,10218978600
-3,4,55,-4,-2,-8,1,-1,0.81,10219017500
-6,-15,-77,0,-2,-5,0,0,0.81,10219035900
-16,46,120,17,4,-10,-19,-1,0.81,10219044600
-6,-27,-128,-21,-6,-12,-1,-5,0.8,10237781700
-6,13,68,-1,-1,-12,-3,1,0.8,10237793200
11,21,106,15,6,-21,-5,4,0.79,10258249500
1,-15,-101,5,1,19,9,1,0.79,10258260300
-5,-7,-25,-6,-6,-29,-4,-5,0.79,10258270800
-6,-9,48,-7,-3,-20,0,-2,0.79,10258281500
-5,-7,-16,-4,-2,-14,-3,-5,0.78,10280900400
-1,-1,8,3,1,15,-1,1,0.78,10280913400
-3,1,-6,-5,-4,13,-3,0,0.78,10280922900
8,20,33,7,4,16,4,2,0.78,10280931500
16,-25,-10,-2,-2,7,1,-5,0.78,10280951700
5,26,127,9,3,5,2,3,0.78,10280964100
3,-29,-128,-5,-2,3,-6,-1,0.77,10298905000
-6,-11,28,-6,-4,0,-3,0,0.77,10298917000
-5,9,-43,-3,2,6,5,-1,0.76,10317763600
2,9,55,-3,-8,-4,-5,1,0.76,10317775100
47,-97,-53,-12,-3,-2,-4,-4,0.76,10317784300
8,0,84,5,0,3,-1,0,0.76,10317792800
6,34,-47,-9,-3,1,0,-1,0.75,10338044800
-6,-9,-39,-7,0,-7,-1,-2,0.75,10338056700
-6,1,-92,5,3,2,0,-5,0.75,10338065100
3,9,78,0,0,-4,-3,-2,0.75,10338075000
1,4,104,5,-2,4,-4,-1,0.75,10338083300
3,9,-26,3,0,-8,0,0,0.75,10338091000
0,6,6,1,-3,-2,0,-1,0.74,10358255500
0,-9,-58,-10,-1,-3,-1,-2,0.74,10358267800
-1,-3,21,14,2,0,-1,-1,0.73,10379401800
-5,-35,-67,-3,-3,-4,1,0,0.73,10379415900
-6,4,16,-4,-3,-5,-6,-3,0.73,10379425000
2,14,35,2,-1,-1,-2,-2,0.73,10379433200
-5,-10,-72,-6,-4,-1,-1,-4,0.72,10397727700
6,-69,2,5,1,-5,-3,-1,0.72,10397738900
6,12,-122,-4,-1,-3,-3,-4,0.72,10397785800
-31,-102,-16,-27,-15,-11,-9,-13,0.72,10397796600
8,3,57,6,2,4,3,3,0.71,10419186300
13,48,20,15,7,6,6,8,0.71,10419198400
14,-63,-50,-5,-7,-9,-6,-6,0.71,10419209200
0,54,-3,2,-1,-2,-3,-2,0.71,10419219700
3,7,103,12,2,1,0,-1,0.7,10439926000
-2,-2,-69,-7,0,-3,-1,-3,0.7,10439968300
0,-1,-15,-3,-4,-1,-1,-2,0.7,10439978900
6,24,16,-8,-7,-2,0,0,0.7,10439989500
3,5,58,16,7,-2,-1,-1,0.69,10458939500
-8,12,16,-10,-6,-7,-3,-6,0.69,10458951800
-4,-3,-11,-12,-8,-10,-3,-3,0.69,10458960700
7,15,9,0,3,-3,-2,0,0.69,10458969000
1,-21,127,4,1,0,4,1,0.69,10458976900
-5,-16,-128,-16,-5,-7,-20,-3,0.69,10458987300
2,10,1,-6,-1,-5,4,0,0.68,10477794300
2,12,33,6,1,-1,1,-2,0.68,10477805400
1,0,26,11,0,0,4,0,0.67,10498726000
0,-17,-99,-7,-3,1,-2,-1,0.67,10498739200
2,16,33,4,2,8,5,4,0.67,10498750700
-1,-36,-24,4,0,8,13,4,0.67,10498763800
-13,-19,-120,-34,-9,-11,-21,-8,0.66,10519632600
-2,4,19,7,-1,1,2,-4,0.66,10519643400
-13,38,68,2,1,3,2,4,0.66,10519653700
-37,25,-21,11,0,-1,1,0,0.66,10519664600
-5,-73,-3,5,-1,2,1,-4,0.66,10519672300
2,14,-35,-5,0,-2,1,-6,0.66,10519679400
-10,-43,-128,-19,-10,-7,-6,-4,0.65,10538183400
-3,2,68,-17,-8,-5,-3,-4,0.65,10538193900
9,13,39,22,8,3,2,5,0.64,10559819800
-3,-10,-11,4,3,-1,3,0,0.64,10559834400
-1,27,97,-11,-5,-1,0,-1,0.64,10559845600
-5,-28,-65,-4,-1,-3,0,-1,0.64,10559855300
3,6,-6,-1,5,27,5,9,0.63,10578145900
7,28,30,19,2,5,-8,2,0.63,10578157100
0,-5,70,-4,-5,-51,4,-3,0.63,10578167400
2,2,38,0,-1,-2,-2,-1,0.63,10578176200
-54,-12,-69,-12,-5,4,-2,-6,0.62,10599174900
-1,5,39,-4,-6,6,0,2,0.62,10599185500
8,15,-95,8,4,6,2,4,0.62,10599196900
10,26,33,20,9,7,0,3,0.62,10599207400
-6,17,48,-3,-4,-2,-2,0,0.61,10617546500
-10,-21,-118,-27,-11,-6,-7,-5,0.61,10617558200
-6,-4,92,6,-1,-1,-1,-1,0.61,10617566400
-13,-33,-39,-17,-10,-8,-7,-8,0.61,10617574400
-44,28,-105,-1,2,2,2,-1,0.6,10638965200
8,19,30,19,3,8,12,5,0.6,10638994600
-9,-12,95,-17,-9,-14,-40,-4,0.6,10639019900
-3,-35,13,7,0,20,7,2,0.6,10639028400
0,-11,-24,-8,-2,-25,-6,-1,0.59,10659825100
11,24,5,9,7,18,8,5,0.59,10659841500
-12,-30,-15,-7,-7,37,12,-8,0.58,10678429700
-8,-41,45,-13,-7,-34,0,16,0.58,10678448400
-9,13,48,-14,-4,-14,-6,-1,0.58,10678473700
0,46,3,10,7,15,4,4,0.58,10678483200
-5,-56,36,5,1,21,-2,-3,0.58,10678491400
2,-3,45,2,-4,-24,2,1,0.58,10678498900
15,16,1,2,0,3,0,7,0.57,10699301900
-2,-3,35,-2,-2,0,-3,0,0.57,10699338300
-1,-3,-94,0,-1,4,-2,-3,0.57,10699348400
-2,5,61,1,-2,0,-4,-3,0.57,10699356500
-1,7,7,5,0,2,0,0,0.56,10720225200
0,-9,-3,5,2,2,1,1,0.56,10720235400
-12,-16,-24,-17,-5,-3,-1,-6,0.56,10720250000
12,52,114,11,1,-1,2,6,0.56,10720266800
-8,-24,-18,-17,-7,-5,-6,-7,0.55,10738546900
-7,-25,-21,-2,-4,-5,10,-2,0.55,10738557300
17,38,97,19,9,-2,-17,6,0.55,10738566400
-1,-5,-53,-17,-3,-3,-3,-4,0.55,10738576800
-12,5,-11,-9,-2,-3,-4,-3,0.54,10759431000
9,9,59,10,5,3,9,1,0.54,10759465600
-4,18,-7,2,2,2,-2,3,0.54,10759476000
24,-8,14,14,3,10,-20,1,0.54,10759484000
-6,-15,-27,-2,-3,-27,2,-7,0.53,10777917200
-1,6,73,1,1,70,-7,-6,0.53,10777928800
-1,-22,-58,-7,-4,-59,1,22,0.53,10777939100
-7,0,-14,-14,-9,-18,-14,-45,0.53,10777948500
-2,-1,100,-13,-5,8,-1,-1,0.52,10799212000
3,-5,-6,18,7,13,2,1,0.52,10799223800
0,1,-26,8,2,9,4,30,0.52,10799232700
-3,8,-29,-4,0,3,-11,-63,0.52,10799282400
-5,-31,-42,-3,-5,-5,-8,-20,0.51,10819699000
-3,-26,-18,-20,-4,6,6,2,0.51,10819758300
-2,50,-53,-13,-5,-10,-2,-3,0.51,10819769600
6,-12,0,12,6,5,4,5,0.51,10819777600
5,7,49,13,3,2,1,3,0.5,10837633100
-5,-20,36,-19,-1,-3,-3,-4,0.5,10837676700
1,1,3,9,2,1,1,-1,0.5,10837701200
12,41,127,26,4,1,3,6,0.5,10837725700
-11,-29,-128,-34,-9,-4,-6,-7,0.49,10858906400
-4,-3,33,-3,-3,0,-1,-3,0.49,10858921300
7,5,127,12,4,1,4,2,0.49,10858931000
6,16,104,12,1,2,3,2,0.49,10858939100
8,26,4,18,4,2,2,3,0.48,10879979800
-4,-26,-119,-17,-7,-6,-5,-5,0.48,10879993600
1,28,127,1,-3,10,1,-1,0.48,10880004900
-9,-86,-128,-34,-10,-28,9,-9,0.48,10880013400
-37,63,127,25,9,5,5,28,0.47,10898106600
20,49,-98,15,10,16,12,8,0.47,10898119900
-13,-28,100,-19,-12,-1,-21,-3,0.47,10898168500
7,26,-128,6,1,-13,0,0,0.47,10898186900
-14,-45,-45,-23,-12,-7,1,-16,0.46,10920052300
-5,1,10,-5,0,3,-1,-1,0.46,10920069000
-2,-32,30,7,-1,1,-3,-1,0.46,10920109700
-1,63,127,1,2,3,-1,0,0.46,10920127500
-23,-63,-128,-26,-6,-3,-2,-7,0.45,10938980300
26,58,97,36,12,10,7,10,0.45,10939008000
-29,-84,-128,-41,-15,-12,-8,-10,0.45,10939021400
-3,-16,-83,-3,-3,-3,-3,2,0.45,10939033500
7,27,11,10,4,-2,1,2,0.44,10957608200
-7,-9,71,-8,-6,-4,-1,-5,0.44,10957620000
13,48,127,31,9,6,4,4,0.44,10957629700
4,7,-128,-21,-6,-1,-3,0,0.44,10957639300
-8,4,-69,-30,-6,-4,-4,-5,0.43,10978924400
9,55,117,12,4,5,1,3,0.43,10978938000
-31,-35,48,-31,-7,-8,-4,-4,0.43,10978947500
2,-1,-58,27,-2,4,1,1,0.43,10978957600
-10,-19,127,-15,-7,10,11,-1,0.42,10999786400
20,45,91,40,18,-12,3,7,0.42,10999797700
-15,-56,-128,-29,-12,6,-4,-7,0.42,10999846300
14,64,64,10,6,-10,4,2,0.42,10999859500
-7,3,-26,-1,-6,-6,-3,-7,0.41,11018367700
3,6,-30,-8,0,8,2,-2,0.41,11018407300
-9,-31,-87,2,1,3,1,4,0.41,11018423900
2,25,63,6,3,-1,-1,-1,0.41,11018433000
3,43,127,2,-5,-3,-1,2,0.4,11039573300
-1,-38,-128,-18,0,-5,-3,-1,0.4,11039586100
3,6,-128,-26,-1,0,1,3,0.4,11039598400
-24,-64,-89,-22,-17,-7,-7,-10,0.4,11039610000
5,-4,22,18,9,4,-2,2,0.39,11059650100
8,48,127,15,-1,0,2,0,0.39,11059662400
2,-59,-128,6,0,-4,-3,-8,0.39,11059670900
29,21,127,8,1,30,10,14,0.39,11059679300
-30,-76,-128,-27,-12,-38,-4,-20,0.38,11079905300
15,33,-53,-4,-1,-21,-6,9,0.38,11079931500
8,6,-30,4,2,7,3,7,0.38,11079941200
2,-12,127,38,5,5,3,0,0.38,11079949000
-11,-26,-128,-52,-12,-3,-5,-6,0.37,11098662000
4,39,89,18,6,1,3,1,0.37,11098680600
4,45,127,-17,-2,3,-7,0,0.37,11098691100
-12,-62,-96,8,-4,-1,-4,-5,0.37,11098699100
22,53,127,35,11,4,5,11,0.36,11120103500
-16,-15,-13,-66,-20,-6,-8,-10,0.36,11120114800
9,-23,-128,30,7,-1,2,5,0.36,11120157000
-6,5,-26,1,0,-2,-1,-3,0.36,11120182800
-1,-6,1,16,7,4,1,2,0.35,11138781000
25,73,127,38,14,3,5,11,0.35,11138792800
-13,-49,-128,-31,-17,-10,-7,-22,0.35,11138819400
-22,-23,-88,-40,-15,-8,-11,-10,0.35,11138851200
2,-6,127,11,-3,-1,4,0,0.34,11159100500
16,17,-28,26,11,9,3,5,0.34,11159116500
8,42,-26,10,-1,-1,1,5,0.34,11159130700
6,14,127,25,1,1,-2,0,0.34,11159139100
-14,-12,-128,-40,-13,-10,-8,-9,0.33,11177566700
-8,-16,98,1,0,3,1,-3,0.33,11177607900
4,1,41,-4,-4,-2,-4,-2,0.33,11177623600
-1,24,127,24,5,2,1,0,0.33,11177631900
9,17,-29,-5,-1,1,5,2,0.32,11198244500
36,50,-115,47,15,12,12,19,0.32,11198255400
-30,-22,127,-52,-25,-14,-13,-16,0.32,11198265000
-6,-47,-128,11,5,0,-2,-3,0.32,11198272400
42,27,-128,95,43,22,13,23,0.31,11220076300
-30,-95,69,-95,-41,-21,-10,-14,0.31,11220091300
-5,46,16,26,1,-3,-6,-3,0.31,11220100300
13,56,127,48,15,13,6,7,0.31,11220108800
-13,-7,-128,-31,-10,-9,0,-8,0.3,11238079700
9,-15,127,63,8,-2,-3,1,0.3,11238093900
-28,23,-128,-77,-15,-4,-7,-10,0.3,11238102000
-19,-12,60,-26,-9,-7,-6,-7,0.3,11238109800
38,79,127,79,28,13,11,14,0.29,11259263800
19,62,-70,27,13,7,6,4,0.29,11259277800
-72,-128,127,-93,-40,-28,-23,-29,0.29,11259287200
19,127,127,104,22,11,10,16,0.29,11259295100
-23,-63,-105,-92,-31,-15,-12,-13,0.28,11277486300
-23,-106,-105,-34,-13,-6,-8,-8,0.28,11277497200
23,43,-128,20,4,2,8,11,0.28,11277517100
-8,-61,98,-28,-4,3,-3,-3,0.28,11277526400
8,-21,127,54,5,-7,-1,1,0.27,11298777700
-16,-61,-128,-54,-8,-4,-4,-6,0.27,11298790000
9,75,67,-5,2,0,-1,3,0.27,11298802500
3,-2,127,-9,-10,-2,3,1,0.27,11298813300
-1,18,127,35,4,1,-2,0,0.26,11319535700
28,-24,-71,28,14,5,6,11,0.26,11319547800
-3,-36,-35,-70,-11,-4,-1,-3,0.26,11319599800
-22,15,59,13,-5,2,-1,-5,0.26,11319620400
-6,-39,-128,26,13,1,1,1,0.25,11339933300
2,39,127,-6,4,0,-2,1,0.25,11339944900
-34,-128,74,-25,-17,-13,-11,-18,0.25,11339957000
33,127,127,45,24,16,11,15,0.25,11339966500
-33,-24,68,-36,-15,-9,-7,-12,0.24,11359841400
15,14,127,56,5,4,1,4,0.24,11359857000
-20,-29,127,-66,-3,-7,-8,-17,0.24,11359868600
-33,-128,127,-13,-30,-17,-16,-14,0.24,11359879400
41,65,127,66,29,12,10,17,0.23,11379112400
47,68,127,104,19,12,12,18,0.23,11379169300
-13,127,127,-106,-17,-13,-6,-4,0.23,11379682400
-13,-11,17,16,-1,0,-2,1,0.23,11379694300
-14,-43,-128,-74,-8,2,-4,-7,0.22,11401464900
49,127,127,78,29,18,12,20,0.22,11401476800
3,-31,-47,-32,-13,-1,4,3,0.22,11401487000
20,11,70,55,23,13,9,23,0.22,11401532400
16,51,127,-10,-10,-14,-8,0,0.21,11418347600
-6,-2,20,-42,-4,5,-3,-6,0.21,11418361600
6,-26,-34,1,-6,-1,-1,0,0.21,11418370700
33,84,-75,92,36,11,13,18,0.21,11418378400
-31,-128,-128,-78,-23,-12,-7,-14,0.2,11439609800
31,71,127,65,17,10,6,9,0.2,11439636900
-71,-128,-52,-59,-39,-18,-19,-28,0.2,11439649500
26,32,-128,39,23,10,4,11,0.2,11439658500
7,53,-128,5,10,5,-1,0,0.19,11458470000
-44,-128,-128,-81,-53,-33,-20,-22,0.19,11458501400
-15,-63,95,-41,-13,-6,-5,-4,0.19,11458533700
55,118,127,127,35,23,18,30,0.19,11458545400
-48,-99,-128,-128,-42,-21,-17,-29,0.18,11479043200
-36,-91,-88,-11,-20,-14,-8,-15,0.18,11479054100
47,127,-23,102,36,18,13,19,0.18,11479072400
-36,-24,127,-16,-6,0,-8,-15,0.18,11479087700
-41,5,127,-122,-49,-26,-17,-18,0.17,11499802300
13,42,127,35,10,6,2,9,0.17,11499816500
64,127,127,91,37,23,18,20,0.17,11499825500
-35,-35,-128,-96,-39,-23,-9,-10,0.17,11499835300
7,90,127,-5,3,2,-3,-2,0.16,11518567700
28,117,127,38,17,12,11,11,0.16,11518586300
-14,-44,-128,-20,-8,-11,-8,-8,0.16,11518599400
14,62,-128,-17,8,8,6,6,0.16,11518610900
13,55,98,-26,-4,-4,-1,2,0.15,11537790100
16,12,127,50,3,5,4,3,0.15,11537802200
46,95,64,68,37,12,14,20,0.14,11558864200
-54,19,127,-88,-44,-21,-18,-26,0.14,11558882700
10,6,34,52,7,6,5,6,0.14,11558893800
-18,-122,127,-95,-16,-9,-3,-5,0.14,11558904200
-51,-47,-128,-93,-43,-21,-16,-24,0.14,11558913100
23,-11,-128,82,17,7,6,13,0.14,11558924000
-2,50,-128,-23,-7,-8,-6,-9,0.13,11579811200
-15,-128,-18,18,16,8,7,-1,0.13,11579825300
23,101,-128,-33,-7,-5,0,3,0.13,11579837100
15,-2,108,36,6,3,0,9,0.13,11579848000
-4,-47,-61,10,6,1,2,-4,0.12,11598457800
20,51,127,94,24,8,6,11,0.12,11598470000
-5,9,22,-23,-7,-3,-2,-1,0.12,11598480700
28,49,-80,7,18,12,9,10,0.12,11598490600
-37,-31,-128,-69,-20,-12,-12,-20,0.11,11619250500
24,20,63,87,20,6,5,10,0.11,11619297100
-7,-85,-128,-23,-4,-1,0,1,0.1,11638222800
-48,-128,-110,-84,-28,-21,-12,-20,0.1,11638233700
8,107,85,27,13,15,1,2,0.1,11638242600
-17,-46,-69,-40,-21,-24,-16,-13,0.1,11638252200
10,-4,127,17,6,-1,0,4,0.1,11638263800
12,56,38,11,9,3,7,8,0.1,11638271200
5,-3,-128,-9,-3,-1,0,-2,0.09,11658877100
-4,-28,85,2,0,2,0,-1,0.09,11658892000
6,0,113,27,2,2,-1,-1,0.09,11658903500
3,0,40,7,-2,-3,-2,1,0.09,11658913600
-8,-22,127,-10,-4,-1,-3,-5,0.08,11679747100
1,94,127,36,9,3,1,0,0.08,11679762200
-31,11,-128,-35,-15,-9,-10,-14,0.08,11679771700
8,-59,1,3,6,7,5,5,0.08,11679780100
30,84,-128,32,11,8,7,13,0.07,11698591100
-45,-128,-128,-30,-16,-11,-11,-19,0.07,11698627500
5,-3,103,15,3,3,2,5,0.07,11698637800
8,-3,61,21,7,0,5,2,0.07,11698646000
2,12,3,23,6,5,0,-1,0.06,11719996200
-3,-43,-128,-41,-11,-8,0,-3,0.06,11720008000
-3,12,-34,3,2,-1,2,-1,0.06,11720017400
4,7,20,-11,-5,-5,2,0,0.06,11720026000
-9,9,-67,-13,-3,-7,4,-5,0.05,11738713500
-7,14,31,0,-1,9,-2,-5,0.05,11738724700
4,-17,76,16,4,7,11,-2,0.05,11738733200
0,20,8,-8,-2,4,0,-1,0.05,11738758500
-14,-67,91,4,-13,-54,-36,-9,0.04,11759497600
17,18,66,8,2,17,24,25,0.04,11759513200
-33,-63,-128,-37,-15,-6,12,-56,0.04,11759522500
-17,-83,-41,-25,-8,0,6,30,0.04,11759531500
0,-3,55,-5,-2,16,-23,-11,0.03,11777919000
33,88,-57,43,19,32,10,51,0.03,11777943800
-4,-2,-128,-24,-2,-19,-23,-67,0.02,11799477900
-36,-69,-128,-73,-22,68,5,15,0.02,11799489600
-26,37,53,-22,-8,-32,-15,-69,0.02,11799498600
8,3,20,11,1,4,-1,8,0.02,11799506500
6,11,9,-6,-9,-105,-24,6,0.02,11799513900
19,35,84,13,10,30,24,12,0.02,11799522100
-4,-16,-35,-18,-4,35,9,81,0.01,11817689600
15,-5,65,14,-1,57,-68,58,0.01,11817732400
-11,-9,-4,-14,-11,-25,10,-27,0,11838365600
10,-21,-59,1,0,-73,43,63,0,11838378700
0,66,61,13,7,44,9,-49,0,11838428300
-18,-123,-28,-26,-19,-22,-2,25,0,11838441800
18,-16,-46,2,2,-26,29,37,0,11838454300
7,21,6,-17,-3,38,-19,-6,0,11838464800
-10,-14,-36,-15,-17,-47,6,11,0.01,11859826600
7,74,90,11,5,53,22,17,0.01,11859869300
21,2,-32,18,11,11,-9,42,0.01,11859885200
-2,13,127,-2,0,-3,9,-58,0.01,11859893400
7,87,43,-7,4,127,9,53,0.02,11878913600
-17,-43,-28,-31,-26,-128,-32,36,0.02,11878925200
4,48,17,8,10,127,-8,-48,0.02,11878934200
-3,-7,-9,0,-21,-128,37,-12,0.02,11878944000
16,13,3,9,7,12,-5,119,0.03,11900074800
-8,26,-53,-1,3,-24,14,-32,0.03,11900093900
19,-36,-19,4,7,127,8,71,0.03,11900112200
-42,-33,-43,-31,-19,-117,-128,-127,0.03,11900121500
3,5,31,11,3,5,2,-30,0.04,11918602300
3,33,-8,6,0,2,54,103,0.04,11918751500
3,-10,5,-6,3,57,20,10,0.04,11918781500
4,17,-19,14,5,13,33,48,0.04,11918791500
-1,0,10,-7,-3,-21,-36,49,0.05,11939961400
3,10,-14,-7,-3,13,9,10,0.05,11939975000
-10,-11,78,-22,-6,32,-4,-13,0.05,11939985500
22,42,-1,23,11,0,32,5,0.05,11939993200
15,29,75,2,-4,-54,-4,-51,0.06,11958783500
-47,-95,42,9,-3,-7,-1,98,0.06,11958796000
17,18,-58,6,6,41,7,19,0.06,11958805000
-15,-39,-16,-23,-4,-40,6,-44,0.06,11958813300
4,35,37,-6,-4,127,45,82,0.07,11979676200
8,-14,-10,6,-5,-105,-128,65,0.07,11979688200
3,21,-20,6,5,27,52,-54,0.07,11979697100
-1,-2,127,6,-1,9,12,53,0.07,11979704700
-9,-2,98,-15,-8,18,-66,-2,0.08,11998500100
12,45,-40,19,2,12,40,-6,0.08,11998520900
18,-26,83,13,1,-58,20,-128,0.08,11998535500
-30,-53,-65,-57,-15,37,-65,-9,0.08,11998543900
12,25,39,12,3,14,38,19,0.09,12019790600
4,4,-9,12,3,-34,-4,-72,0.09,12019802500
4,16,67,10,5,-1,3,18,0.09,12019851300
3,-38,-104,-2,-5,8,28,14,0.09,12019863400
-8,34,23,2,1,-9,-21,3,0.1,12038587400
-5,-2,-9,2,-4,4,37,19,0.1,12038604200
12,42,-11,1,0,-32,-52,5,0.1,12038614600
-9,-16,-14,-3,2,72,48,-40,0.1,12038623700
-11,71,-2,-6,-13,-51,108,-28,0.11,12059721600
14,-72,3,-1,2,-31,-79,-61,0.11,12059734300
-24,-2,-12,-4,-3,-5,-39,-128,0.11,12059745300
-6,-37,-6,0,2,30,39,49,0.11,12059753300
19,-38,10,6,6,11,-4,48,0.12,12078291700
-5,75,-11,-10,-5,110,9,-60,0.12,12078302400
-10,-13,4,4,-6,-62,42,102,0.12,12078311100
26,-43,-128,1,-2,-4,-96,-15,0.12,12078319400
-11,59,116,-3,3,31,-28,6,0.13,12099365100
-27,-125,9,-29,-15,0,-7,-86,0.13,12099402500
22,19,-11,5,-1,-16,8,33,0.13,12099413200
2,-23,-128,-1,-4,18,20,31,0.13,12099421300
-4,6,-3,0,2,31,-8,-11,0.14,12118695100
-2,-11,9,4,-1,23,-14,45,0.14,12118705600
5,6,45,10,6,-6,-20,-25,0.14,12118752600
-12,-3,-40,-7,-4,26,-5,-52,0.14,12118774900
19,34,35,20,5,47,15,-11,0.15,12140267500
-14,-14,-31,-19,-10,-36,8,-27,0.15,12140281400
3,-83,-20,4,2,7,31,-16,0.15,12140292300
-29,6,-5,-2,-2,-11,-17,-23,0.15,12140303300
-9,10,-9,1,-2,60,40,-128,0.16,12159102400
4,-32,-14,-4,-5,-91,48,73,0.16,12159116500
1,11,10,4,1,23,-128,39,0.16,12159126000
-8,20,-3,-6,4,-11,-36,-94,0.16,12159135400
15,21,12,4,6,61,127,37,0.17,12178166900
-11,-77,15,-4,-10,-77,-128,-13,0.17,12178207400
2,26,-20,13,1,-88,27,-31,0.17,12178218000
-10,-26,14,-8,-1,22,21,58,0.17,12178226200
-6,4,30,-32,-14,22,-6,-5,0.18,12199822900
2,-8,-92,2,1,17,4,-11,0.18,12199835200
5,14,3,7,-1,10,3,-1,0.18,12199854100
5,-9,21,10,5,7,-4,-34,0.18,12199867400
-5,-20,22,11,0,-9,11,10,0.19,12218244500
-3,-9,-21,-3,-1,-10,5,8,0.19,12218267300
-10,-10,-73,-19,-9,-16,11,59,0.19,12218307300
-7,-15,31,-1,-5,4,20,-92,0.19,12218317200
-1,20,-24,4,-5,-27,-89,0,0.2,12239430000
2,23,26,2,0,2,-40,13,0.2,12239459000
-1,-19,-30,3,3,53,55,98,0.21,12258104600
-17,-26,-20,-4,-1,12,-34,-128,0.21,12258117300
13,19,12,7,5,-26,-15,127,0.21,12258128400
-7,-15,11,1,-5,-60,91,-35,0.21,12258138200
-34,21,-2,-2,1,55,38,55,0.22,12279475300
-2,-39,4,-2,0,-48,27,56,0.22,12279520000
10,35,21,-1,5,12,73,73,0.22,12279544900
-12,6,-66,-5,-8,-23,-114,-49,0.22,12279555900
-13,19,12,3,2,15,27,-73,0.22,12279564700
5,-10,4,-8,-5,11,-59,99,0.22,12279572400
2,5,68,-6,-2,-4,-19,-49,0.23,12298537000
-2,-39,-72,-2,0,18,28,-10,0.23,12298648100
-4,2,-14,-5,-4,-10,-48,4,0.23,12298668600
5,16,27,5,1,2,-17,-5,0.23,12298677100
4,4,17,5,4,14,30,20,0.24,12319743900
0,6,0,2,2,-10,-29,-8,0.24,12319754500
10,35,5,0,-4,0,-31,70,0.24,12319763000
-2,7,6,3,-1,-46,-21,-128,0.24,12319805200
11,56,17,6,15,92,127,59,0.25,12338536500
-46,-32,-19,-8,-15,-34,-128,-128,0.25,12338548900
-3,-78,-123,-23,-12,-112,0,127,0.25,12338558900
8,-5,106,-25,-9,11,7,6,0.25,12338585500
10,31,81,16,7,-6,32,-128,0.26,12357554000
-1,3,5,3,-1,4,-84,22,0.26,12357564700
-1,9,13,11,3,12,42,40,0.26,12357573100
16,10,-6,5,2,17,67,31,0.26,12357615900
-4,-12,-87,-6,-1,48,-26,47,0.27,12378564900
7,-5,3,0,-1,-39,24,-5,0.27,12378622900
-1,23,2,-5,0,-15,-63,-14,0.27,12378634900
-7,-1,-11,1,-2,-8,19,-16,0.27,12378644500
10,-5,-17,-4,-2,5,-4,48,0.28,12399890900
5,23,1,0,2,12,52,48,0.28,12399904000
20,3,2,4,4,43,47,127,0.28,12399952300
-23,-65,-6,-4,-4,-40,-46,46,0.28,12399965900
15,8,-1,-2,-5,-22,-92,127,0.29,12418843000
-1,-10,-5,-3,0,-7,34,-42,0.29,12418862900
18,48,13,0,4,31,75,-43,0.3,12437966100
-6,1,-4,-3,-4,10,-128,-27,0.3,12437993300
1,-25,15,2,0,11,-11,2,0.3,12438003900
-22,-29,-72,-11,-7,-3,-6,-96,0.3,12438011900
7,17,75,3,2,2,-21,-17,0.31,12459422000
8,2,-34,6,6,34,12,-30,0.31,12459434000
-13,-26,-119,-20,-7,-42,-6,-80,0.31,12459443500
2,2,13,0,-2,-13,-46,16,0.31,12459451300
12,34,41,2,3,-3,-11,60,0.32,12479236900
4,33,44,7,0,6,-100,-67,0.32,12479248000
34,28,2,11,9,-4,21,7,0.32,12479257400
-14,-10,-35,-10,-10,8,30,-63,0.32,12479266600
5,-24,127,5,-3,10,73,-67,0.32,12479275400
-18,14,-64,1,6,-23,2,-96,0.32,12479282900
-24,-38,17,-10,-16,-13,-128,-27,0.33,12498254700
6,-13,14,-3,0,6,10,-128,0.33,12498266600
12,22,21,5,7,57,22,-67,0.34,12517737500
56,-5,-8,3,4,-21,28,118,0.34,12517750000
6,1,-1,0,0,-3,-18,-42,0.34,12517760400
9,55,-5,-1,-2,22,-25,-58,0.34,12517768900
4,3,-2,1,3,16,33,9,0.35,12539128900
5,11,13,6,10,82,-26,127,0.35,12539140900
-10,-12,-19,-5,-3,-47,45,14,0.35,12539150700
-13,22,2,-6,-8,-27,66,2,0.35,12539159400
-1,16,26,8,5,-11,-18,-7,0.35,12539167200
-15,-11,-29,-11,-6,-3,-128,-5,0.35,12539174800
-2,-51,-82,-14,-7,-2,47,36,0.37,12579782800
1,50,65,4,-1,24,-2,125,0.37,12579795900
-5,11,41,-3,-4,-27,-105,-62,0.37,12579805000
-6,56,-8,0,2,10,-11,-11,0.37,12579813000
2,-36,-45,-6,-6,17,-103,-128,0.37,12579820900
2,45,18,1,0,-1,65,59,0.37,12579828400
21,17,15,5,3,-20,44,-46,0.38,12598293100
-3,-10,8,1,-3,19,-7,-30,0.38,12598303400
-1,-6,14,-4,0,12,-88,15,0.38,12598312100
4,-13,-47,-14,-3,69,30,127,0.38,12598322200
-36,-2,7,-6,-6,-46,127,-87,0.39,12619800600
13,17,23,1,-1,-20,-38,38,0.39,12619822900
-13,5,6,-1,-4,-27,-128,-4,0.39,12619834300
-12,1,0,0,5,65,13,-73,0.39,12619843400
-15,-4,-6,-5,2,-46,-35,127,0.4,12638055400
-4,-14,-2,4,-1,-33,20,62,0.4,12638095200
-2,25,-3,-7,2,40,46,-2,0.4,12638105700
30,58,9,9,5,38,-103,127,0.4,12638113800
-20,-88,-9,-4,-5,-57,29,-64,0.42,12678015700
-13,-48,-10,-2,-4,-49,-45,33,0.42,12678035200
-2,20,-4,-5,-1,45,15,89,0.42,12678067300
2,7,3,0,0,-4,83,89,0.42,12678085900
-11,-2,38,3,1,3,-48,-66,0.42,12678094600
2,11,-69,-1,10,32,-54,31,0.42,12678102200
19,47,25,0,-4,-22,-15,76,0.42,12678110100
2,1,42,9,0,-15,-15,-105,0.42,12678131500
10,-2,-5,5,8,2,-69,127,0.43,12698917100
-8,3,-128,-25,-6,20,-6,-30,0.43,12698946800
21,-67,51,3,5,25,23,-36,0.43,12698958400
11,0,21,8,6,40,-126,-45,0.43,12698966500
-24,7,-4,-6,-8,-53,-82,-67,0.44,12718579700
-19,-80,-17,-5,-7,-87,-21,33,0.44,12718591500
-2,-32,-44,-1,2,65,17,-9,0.44,12718638400
8,48,7,1,3,-5,103,-20,0.44,12718650100
-5,12,5,-1,-2,8,10,111,0.44,12718658800
-3,8,2,-6,-6,-6,-81,53,0.44,12718666300
3,9,9,3,4,2,-7,11,0.45,12739918700
3,-19,-44,-1,4,45,34,10,0.45,12739929000
-29,4,-67,-10,-10,-10,-49,-128,0.45,12739949900
9,-21,11,3,-2,15,29,-71,0.45,12739979800
-14,7,13,-2,0,-10,-4,-43,0.46,12758584300
-14,8,8,-2,-4,36,-8,-101,0.46,12758597000
-13,-66,-11,-4,-1,5,-17,40,0.47,12778747800
-44,-10,0,-3,-2,11,-32,42,0.47,12778761800
18,40,-1,3,-4,-12,87,-66,0.47,12778771900
5,-19,3,-2,-1,-42,-4,-64,0.47,12778817600
-26,-8,-58,-10,-5,-26,-55,-128,0.47,12778838100
1,7,-1,3,2,5,48,4,0.47,12778848000
5,37,-17,-3,0,44,-128,-38,0.48,12799906900
-10,-42,-23,-7,-1,-57,95,41,0.48,12799926400
19,32,25,2,2,26,72,-112,0.48,12799935700
17,5,1,-1,-3,7,-53,86,0.48,12799943700
-1,-1,-4,0,0,4,91,64,0.49,12819913700
1,32,4,0,0,-68,-56,-46,0.49,12819931600
2,-46,-5,-1,0,4,-128,20,0.5,12838597500
-9,-9,-10,-3,3,51,52,-18,0.5,12838608500
14,13,3,0,1,-17,10,-118,0.5,12838618900
10,-31,-2,2,-6,0,127,38,0.5,12838628200
12,-23,0,2,3,37,7,127,0.5,12838636300
-5,26,0,-2,-6,-7,20,62,0.5,12838645300
-18,24,1,-3,-5,-50,-128,50,0.51,12860063400
-3,81,-5,-2,0,25,53,19,0.51,12860074200
6,-49,-1,8,12,41,-71,-30,0.51,12860083200
-37,19,4,-9,-8,21,-128,-39,0.51,12860108200
13,13,17,-8,-10,-83,-7,9,0.53,12899921000
5,-22,-24,2,-2,-16,81,-113,0.53,12900135500
-2,32,4,4,9,76,-23,-107,0.53,12900152200
20,0,-9,-5,-13,-128,-50,-29,0.53,12900161300
1,31,-7,-2,1,33,88,127,0.53,12900169100
8,-13,20,1,3,-12,51,13,0.53,12900176400
5,36,4,-4,-1,-10,-41,64,0.54,12918268900
7,5,3,2,1,-38,37,-120,0.54,12918283400
-16,50,-4,-4,-2,80,29,126,0.54,12918296700
-15,-55,-12,-3,-5,-61,-39,-25,0.54,12918307800
12,5,1,0,3,34,79,22,0.55,12937842800
-1,-10,1,0,0,51,-20,127,0.55,12937856000
-12,17,8,0,-2,-22,127,-22,0.55,12937889500
45,-13,11,3,3,104,-40,127,0.55,12937913900
-20,61,-4,-6,-4,-40,-1,2,0.56,12959220100
20,-6,-5,-1,2,32,19,121,0.56,12959236500
-41,-25,1,-8,-9,17,-78,-69,0.56,12959249100
11,74,-2,-3,-5,-23,-29,108,0.56,12959260700
4,-11,-2,-1,2,40,38,114,0.57,12977854500
29,5,2,1,1,27,-76,-26,0.57,12977868600
-6,72,13,5,0,-41,-56,-91,0.58,12999180500
3,32,80,12,0,-21,3,1,0.58,12999194100
-12,-4,-55,-10,-4,19,-7,-10,0.58,12999204500
-3,-20,-77,-17,-5,7,29,-6,0.58,12999212700
-13,-13,-30,-1,2,4,-1,13,0.58,12999220700
8,27,61,6,-4,-29,127,-13,0.58,12999228200
-12,2,29,-1,-1,47,33,-45,0.59,13017874600
-4,24,26,4,3,31,-2,-39,0.59,13017887100
-7,32,38,9,10,84,-18,-128,0.59,13017896100
-11,-25,-16,-6,-15,-128,127,98,0.59,13017905500
15,8,10,3,4,127,-25,-39,0.59,13017913700
-14,23,-7,-5,2,29,50,127,0.59,13017923800
22,-24,-3,0,-6,-37,15,81,0.6,13039523300
-7,1,-4,1,0,50,18,-128,0.6,13039534500
-11,-47,22,-2,-5,-87,69,6,0.6,13039543700
-4,-28,-63,-7,-8,-7,5,127,0.6,13039552600
3,39,9,0,4,11,-14,-55,0.61,13058955800
-20,-114,-6,-2,2,32,-2,62,0.61,13058995400
11,80,12,1,-2,-47,8,-11,0.62,13077952700
-15,-109,-16,-6,5,87,26,127,0.62,13077963300
20,38,-2,-1,-2,-55,-54,66,0.62,13077996800
-17,39,3,-1,-2,-16,107,-128,0.62,13078016600
-3,-8,3,0,1,-21,-40,-64,0.62,13078025300
10,20,-2,0,1,-18,-31,-128,0.62,13078033100
-3,-7,-5,-6,-6,25,-128,-128,0.63,13099461500
-38,-4,3,1,7,-94,72,-48,0.63,13099473600
-1,9,-4,-5,-13,-15,29,-128,0.63,13099482800
-17,-17,-3,-7,-13,5,-51,127,0.63,13099491400
6,46,5,-3,2,-38,-128,15,0.64,13119844000
6,-46,4,2,10,127,-128,-37,0.64,13119859200
-37,41,3,2,-13,-128,55,-128,0.65,13139415400
22,8,34,2,4,0,7,-52,0.65,13139427900
-53,-3,-128,-28,-23,-3,-113,-128,0.65,13139439700
-33,-27,20,0,6,73,59,-5,0.65,13139448100
2,90,19,0,-2,-13,94,-128,0.65,13139458000
5,-43,21,4,1,17,-38,-7,0.65,13139466700
-5,85,9,-4,-1,7,55,-21,0.66,13157914100
-12,-38,-8,1,3,108,19,127,0.66,13157926600
6,11,14,1,-7,-88,56,53,0.67,13179834900
13,-12,1,-2,4,32,17,118,0.67,13179847200
17,20,-2,-2,-7,-128,-15,48,0.67,13179875100
16,-6,-2,0,9,127,-61,-4,0.67,13179922700
24,-3,5,2,0,-32,83,20,0.68,13199661400
-4,41,-7,-2,-4,65,58,127,0.68,13199674600
-22,-10,-23,-5,-3,-31,-128,-128,0.68,13199687400
-16,-14,-16,-4,1,-4,-65,-128,0.68,13199696200
-8,14,12,0,0,111,-11,99,0.68,13199703900
-42,-13,12,-8,-11,-128,106,-98,0.68,13199711500
1,-80,-42,0,6,127,67,-128,0.7,13239130300
-22,-40,15,-1,-4,-40,-22,-73,0.7,13239143200
-15,7,13,-3,-8,-106,127,-46,0.7,13239152400
8,46,-6,-4,2,114,-7,127,0.7,13239161200
0,-88,-5,-4,-4,-73,117,-128,0.7,13239169400
-19,12,9,-3,-1,81,-20,-128,0.7,13239177100
13,17,8,3,-3,-96,-67,127,0.71,13260057800
28,-6,-15,-4,-8,-32,85,-26,0.71,13260069700
-3,11,7,5,6,8,-65,53,0.71,13260078100
-1,43,0,-3,-6,-128,105,-92,0.71,13260085600
-19,-32,-6,0,11,28,127,88,0.72,13278806800
9,-9,5,4,2,1,-96,54,0.72,13278817300
5,38,-12,-7,-23,-128,70,76,0.72,13278829500
-16,-8,9,-2,-6,106,-14,103,0.72,13278866100
1,-6,34,0,-2,-32,127,-67,0.73,13297970000
-19,-42,-76,-11,-6,60,-85,-128,0.73,13297989000
27,-24,0,1,4,37,47,83,0.73,13298004500
-32,-61,-6,-12,-13,-125,47,-128,0.73,13298013600
-4,34,4,4,3,24,26,118,0.74,13319320600
18,-5,-39,5,23,84,127,127,0.74,13319343100
46,41,17,-4,4,35,-43,40,0.74,13319355600
-29,-24,3,-8,-19,-128,-8,127,0.74,13319364600
5,26,21,8,8,97,5,101,0.75,13339975700
-5,-18,3,2,19,127,127,127,0.75,13339987400
6,-46,-1,-2,1,-128,-128,-84,0.75,13339996500
19,4,-4,-4,-13,11,12,55,0.75,13340005300
-41,-9,-11,-6,-5,108,127,127,0.75,13340017300
17,-18,2,3,8,127,33,-128,0.75,13340024700
6,-45,18,-1,4,-116,29,127,0.76,13358836700
31,-49,-35,-3,3,-9,121,-53,0.76,13358854400
-5,10,5,0,3,93,0,-128,0.77,13377698300
-25,-8,-6,-7,0,-99,127,127,0.77,13377711100
26,1,19,3,-9,-65,127,127,0.77,13377719900
-4,7,35,-9,-18,-79,94,127,0.77,13377727600
-1,39,-9,-6,-10,-60,-128,-26,0.78,13399058700
1,-14,11,14,35,127,-128,-128,0.78,13399070600
4,14,7,2,-10,-128,17,81,0.78,13399079200
-49,52,-2,-5,-10,-128,127,-128,0.78,13399090200
28,-51,4,10,15,98,-128,-15,0.79,13419601000
-24,91,1,-8,-6,24,-46,-128,0.79,13419614000
-12,-72,-4,-9,-7,127,-128,-128,0.79,13419626400
7,-128,-23,-7,-10,-26,13,-128,0.79,13419635300
-13,0,34,-6,-11,4,-128,-21,0.8,13438392700
-36,-45,-23,-9,-19,-128,-11,127,0.8,13438407000
21,42,9,12,25,127,-89,127,0.8,13438421000
36,-29,16,2,-2,127,-18,127,0.8,13438431500
-25,47,-13,-9,-3,127,95,127,0.81,13457965200
-24,37,1,-5,-12,-128,-128,-128,0.81,13457989700
24,21,13,3,3,58,2,46,0.81,13457999700
-28,-9,-12,0,8,92,-128,-128,0.81,13458008400
20,-24,-1,0,4,-13,-128,16,0.82,13479513700
23,89,18,15,37,127,127,57,0.82,13479558800
-17,0,7,-4,-21,-128,-128,127,0.82,13479574200
-10,-27,-25,-6,1,-106,-2,-114,0.82,13479585700
11,22,6,-6,-9,112,-128,70,0.83,13497871500
-20,-40,1,-5,-4,127,127,6,0.83,13497921800
3,65,5,0,14,127,67,-6,0.83,13497932100
59,39,11,0,-13,-39,127,-128,0.83,13497940700
-13,64,-8,-10,-17,-128,-128,-128,0.84,13519285900
21,-66,-13,-6,1,127,127,125,0.84,13519337300
-15,7,-13,-7,-11,82,76,-13,0.84,13519357200
-10,-34,6,-7,-4,127,-128,-128,0.84,13519371300
11,0,4,6,6,-128,-128,127,0.86,13561079700
-19,-92,-3,-2,-4,-117,127,-43,0.86,13561109800
19,9,5,3,5,49,-128,127,0.86,13561141200
-29,15,6,9,15,-128,-128,-128,0.86,13561150100
-10,2,-11,-15,-16,-92,127,-128,0.86,13561158600
-2,2,6,6,4,-128,66,127,0.86,13561166800
-42,11,-6,-10,-14,-110,127,127,0.86,13561174600
37,2,12,5,25,127,-1,127,0.86,13561181800
18,-11,-12,12,5,-128,127,-51,0.87,13578587400
-13,9,-22,-14,-9,127,-128,-128,0.87,13578630500
125,87,54,29,31,40,127,-45,0.87,13578644600
-51,-33,-23,-20,-45,-128,-128,-128,0.87,13578676200
4,-61,-19,-3,-1,127,11,-32,0.88,13600581900
-8,33,10,-3,-22,-128,-128,-104,0.88,13600595100
45,33,-3,6,20,-2,127,121,0.88,13600648500
-8,1,-26,-18,-10,127,31,-128,0.88,13600666300
-24,-4,5,2,-8,24,-128,-128,0.89,13618387800
-22,-10,-10,-6,-12,-128,127,-128,0.89,13618402000
-71,-89,-22,-27,-37,78,-128,82,0.89,13618412600
21,53,0,1,6,-128,19,65,0.89,13618420800
-19,76,9,-4,6,127,-128,-128,0.9,13639513600
12,-128,-24,-11,-34,-128,127,127,0.9,13639524300
44,5,-3,-4,6,127,-128,127,0.9,13639532400
82,29,-23,8,6,-29,-21,127,0.9,13639540600
83,104,16,8,12,127,127,127,0.9,13639552200
-65,-24,-13,-26,-38,52,-128,127,0.9,13639560400
4,-41,33,12,22,127,-128,117,0.91,13659925400
53,-15,-74,-12,-38,-128,127,127,0.91,13659936800
42,66,38,9,11,55,-53,48,0.92,13678197100
38,-40,25,12,15,127,127,10,0.92,13678208200
-5,-13,0,-1,-6,-128,-128,-128,0.92,13678217500
108,91,39,18,27,127,127,127,0.92,13678228700
24,24,-5,-5,-12,127,-128,-128,0.93,13699336900
58,-70,-33,-21,-24,114,127,127,0.93,13699360400
18,21,6,8,8,127,-128,-79,0.93,13699374000
37,-33,33,10,5,-128,-128,-128,0.93,13699383800
-29,-5,-10,-3,-21,-128,-79,127,0.94,13717539100
14,21,-7,-7,-24,-128,-128,21,0.94,13717550100
-48,-112,-44,-41,-85,-128,-128,127,0.94,13717558700
-53,-87,11,0,1,127,-128,-128,0.94,13717566400
-56,-48,-45,-15,-1,-128,127,-128,0.95,13738637300
36,-35,-27,7,18,127,-1,-128,0.95,13738651100
9,48,5,-6,0,127,127,-128,0.95,13738661400
-52,-53,11,-9,-23,-128,72,-128,0.95,13738672300
-73,127,9,1,0,-82,109,-128,0.96,13759715800
-29,6,34,0,3,-14,-128,-128,0.96,13759757300
24,-10,-5,-10,-16,-128,-94,127,0.96,13759769300
66,28,28,0,22,127,-124,127,0.96,13759777900
-46,-59,-29,-8,-2,102,-128,127,0.97,13778880000
45,35,60,3,-5,-36,127,-71,0.97,13778894700
8,64,-31,8,8,127,127,-92,0.97,13778904400
-17,15,25,12,18,127,-128,-128,0.97,13778913000
52,-63,-30,-15,-20,-128,23,118,0.98,13797545600
17,127,19,-3,-19,-128,127,-83,0.98,13797584300
-5,114,5,0,2,78,-43,127,0.98,13797606600
-45,-65,-23,-13,-5,-62,45,-28,0.98,13797616800
-40,-6,0,-11,-28,-38,36,-63,0.98,13838855900
63,30,34,-1,-3,84,82,127,0.98,13838872000
0,-20,-18,-4,-3,32,-4,125,0.98,13838880800
-2,-17,-37,-3,0,25,4,8,0.98,13838889200
5,-12,-35,-3,2,27,-4,3,0.98,13838897100
-1,-22,46,-3,0,-23,-9,-7,0.98,13838905500
36,-11,-98,-1,5,72,80,127,0.97,13857654600
-11,66,7,0,-3,-50,-73,46,0.97,13857704200
9,-53,19,-2,-3,-44,38,-128,0.97,13857716200
7,49,0,-1,-2,20,-8,127,0.97,13857726500
4,-7,8,8,11,-14,6,-46,0.97,13857734500
-1,-128,-13,-2,2,43,61,-2,0.97,13857741900
-24,-24,7,-3,3,43,87,-44,0.96,13878376700
13,24,22,6,-1,-53,49,-2,0.96,13878390900
2,3,2,5,9,114,21,-10,0.95,13898995600
4,-6,-1,-2,-5,-118,26,52,0.95,13899006900
4,0,-3,-3,-5,36,-48,47,0.95,13899015600
-2,1,-16,3,3,-21,-6,-7,0.95,13899023100
-2,-6,-13,-2,1,100,-6,-32,0.95,13899031500
-1,9,24,3,0,1,71,-128,0.95,13899039000
10,12,25,4,-4,-128,18,-25,0.94,13919872500
5,40,48,0,0,-42,-14,25,0.94,13919883600
-12,-69,-128,-16,-5,47,-49,-2,0.94,13919896000
-5,5,-20,-13,-11,-19,50,127,0.94,13919905000
33,37,36,1,5,42,31,-14,0.93,13938945400
7,0,29,4,0,-34,7,-31,0.93,13938977200
8,10,84,12,8,127,-58,12,0.93,13939001800
-25,-128,-38,-8,-8,-25,20,-8,0.93,13939011500
6,4,3,-3,2,127,21,7,0.92,13957789200
2,14,-76,5,-2,-109,-15,14,0.92,13957803800
0,-1,-48,-11,-5,12,-6,4,0.92,13957813100
1,2,15,3,0,63,-8,0,0.92,13957820800
19,-63,60,16,6,22,-3,0,0.91,13978681600
2,40,127,14,6,4,0,-5,0.91,13978694000
-15,-48,-128,-29,-8,46,-16,-15,0.9,13999442900
-12,-48,23,-16,-8,20,5,-1,0.9,13999457300
4,22,71,12,6,22,-1,-4,0.9,13999466600
6,23,22,5,2,-20,1,-1,0.9,13999493900
7,-7,10,4,4,-2,-9,1,0.9,13999521500
-2,73,-18,0,1,18,12,-5,0.9,13999531500
-4,-7,32,0,0,31,-3,-1,0.9,13999539500
3,2,-36,4,-3,11,-1,0,0.9,13999547100
0,23,-7,-1,3,1,2,-1,0.89,14018355400
-12,8,-46,-4,-3,83,-29,46,0.89,14018368400
-10,48,21,2,-3,-51,-6,-25,0.88,14040067100
-7,-10,14,3,5,-19,-69,-6,0.88,14040080100
-7,-49,-54,-25,-15,-81,33,-1,0.88,14040093400
-16,-8,74,10,-3,-104,44,-5,0.88,14040101600
-7,7,-14,6,3,-18,3,5,0.87,14059423800
-5,-11,39,-5,-3,50,14,-1,0.87,14059434500
-3,19,33,1,-1,54,-6,-1,0.87,14059443400
-3,-58,10,2,-1,85,-10,-2,0.87,14059451600
-4,-74,-55,-1,-1,8,6,-1,0.87,14059493600
0,23,6,-2,0,20,-1,-3,0.87,14059504800
5,-4,39,6,2,3,1,0,0.86,14077562900
-17,30,12,-1,-3,-5,-2,-5,0.86,14077574600
-15,5,-99,-11,-3,-1,-2,-4,0.85,14098707700
-9,-18,50,-29,-13,-13,1,-1,0.85,14098721500
5,-23,20,7,3,-10,-3,2,0.85,14098732600
6,51,18,9,1,-29,-1,0,0.85,14098741400
3,40,62,8,1,-31,-3,-3,0.84,14117760600
-2,-9,-16,4,-3,-31,3,3,0.84,14117776000
-3,-28,-91,-10,0,-29,1,-4,0.83,14139296300
-29,-2,-67,-5,-1,-18,-52,-8,0.83,14139307400
5,26,89,9,2,65,-11,3,0.83,14139318700
-5,4,9,0,-7,-61,15,-10,0.83,14139327500
3,18,17,-2,-5,-17,1,2,0.83,14139335000
0,8,-6,-6,2,48,-5,0,0.83,14139342600
2,-1,17,-13,-4,54,-1,2,0.82,14157641200
3,14,28,28,7,48,-3,-1,0.82,14157652600
0,-11,-7,-2,0,34,-1,-2,0.82,14157742400
-7,-33,-30,-26,-13,21,0,-5,0.82,14157772000
-3,8,-67,0,-1,11,-3,-2,0.81,14179235100
-25,7,-2,-1,-4,3,0,0,0.81,14179258800
10,7,24,5,-1,-3,-1,3,0.81,14179269200
-6,-22,-29,-7,1,-4,-5,-3,0.81,14179281300
4,8,51,2,1,-1,0,-1,0.8,14197976200
4,-14,61,-6,-1,-19,2,0,0.8,14198021700
-9,-39,-128,-17,-7,-32,-6,-3,0.8,14198050700
-2,13,35,2,-7,-38,-3,-2,0.8,14198063400
-8,47,-5,7,1,-28,1,-1,0.79,14218562000
1,17,47,13,5,-46,-10,2,0.79,14218575000
-4,-3,-52,-7,-1,-26,-1,2,0.79,14218584300
-2,11,-97,-8,-3,41,-12,-13,0.79,14218592400
2,5,38,4,3,17,32,2,0.78,14239212600
-12,-25,-32,-8,-10,-122,-5,-7,0.78,14239238600
-1,5,51,-1,-4,29,-2,2,0.78,14239263800
8,25,89,22,9,62,4,7,0.78,14239276900
3,1,-128,6,5,39,1,0,0.77,14257610600
0,-50,-5,-19,-10,24,-7,-5,0.77,14257629100
-9,-10,-71,-2,1,22,-2,-4,0.76,14279607000
-10,-19,-39,-19,-4,13,-3,-5,0.76,14279628000
2,13,56,6,-1,10,-2,1,0.76,14279666000
5,22,29,32,4,2,3,5,0.76,14279675600
-15,5,-28,-5,2,-3,-1,-3,0.76,14279684300
-3,0,29,3,0,-2,-1,-1,0.76,14279692000
1,-14,18,3,1,-1,-2,-4,0.75,14298531900
29,1,-128,-19,-10,-12,-6,-4,0.75,14298545800
1,13,27,-13,-1,-8,0,-1,0.75,14298557700
1,14,22,3,-2,-3,0,-2,0.75,14298566100
4,1,27,8,3,-6,-5,-2,0.74,14319022100
3,35,12,5,-2,-10,-5,0,0.74,14319032800
-1,7,26,3,-2,-4,11,-5,0.74,14319041500
2,8,5,5,3,11,15,2,0.74,14319069100
3,-18,-61,0,0,-41,-8,-4,0.73,14337498300
-10,-37,27,-19,-7,-25,9,-3,0.73,14337511000
3,5,41,4,1,5,2,3,0.73,14337523500
-3,18,22,-6,-2,-16,-3,-5,0.73,14337533400
0,-53,23,8,4,12,-2,1,0.72,14358904300
3,3,20,8,0,8,-1,2,0.72,14358945000
8,-6,88,2,0,8,3,6,0.71,14377520600
-7,6,-128,-20,-8,7,-2,-4,0.71,14377532800
-13,57,65,-8,-3,5,-3,-2,0.71,14377542000
4,9,41,11,5,7,1,3,0.71,14377552000
-9,-20,-59,-17,-9,-2,-4,-7,0.71,14377561400
-1,3,72,-5,-4,1,-2,-5,0.71,14377569100
-9,-3,69,16,5,0,2,0,0.7,14398456300
3,-5,-14,-2,2,-2,4,0,0.7,14398467700
-7,-35,-84,-10,-3,-1,-3,-2,0.7,14398512500
4,12,-9,11,2,-7,-2,0,0.7,14398523400
-5,-12,-54,-12,-1,-4,-4,-3,0.69,14419253200
4,1,-9,3,-4,0,-1,0,0.69,14419288600
2,6,95,3,-1,-8,6,4,0.69,14419298700
-6,-7,-16,-11,-5,-8,2,-3,0.69,14419307500
5,10,40,2,0,-7,-1,1,0.68,14437883200
1,5,-6,12,2,-4,0,-1,0.68,14437896500
2,10,0,3,5,-6,3,3,0.68,14437907300
-4,-24,-5,-14,-6,-2,8,-13,0.68,14437917500
-6,-10,22,1,-5,-3,-1,-1,0.67,14459382200
3,9,-108,-1,3,3,-2,-1,0.67,14459423800
-8,-42,-21,-7,-2,2,-3,0,0.66,14477618100
-15,-9,-63,-15,-11,-9,-7,-10,0.66,14477628900
11,53,9,12,5,8,6,3,0.66,14477638500
-42,24,-19,-10,-4,7,4,-1,0.66,14477723100
-14,-30,44,-11,0,1,-1,-3,0.66,14477734600
4,45,-33,19,4,3,-2,1,0.66,14477743700
9,11,-15,8,-6,-4,-2,2,0.65,14498411400
