2,19,68,4,-3,-4,1,-1,0.19,341611900
7,4,-105,8,8,2,2,3,0.19,341623600
-16,-55,-105,-40,-17,-12,-7,-8,0.19,341632500
19,65,113,18,6,2,4,10,0.19,341640100
-8,-8,117,-11,-3,-1,-4,-5,0.2,362810100
1,10,7,5,1,0,0,1,0.2,362820800
3,17,39,11,4,2,1,1,0.2,362833000
5,15,24,12,2,2,3,1,0.2,362840800
-4,-24,51,1,0,-1,1,-4,0.2,362849300
-2,-2,-81,-8,-4,-4,-2,0,0.2,362856800
-3,0,13,-3,-1,1,11,-17,0.21,379020400
6,1,83,7,3,-3,-6,0,0.21,379030800
-26,-53,-128,-44,-19,-8,-4,-9,0.22,402598600
0,-14,-60,-4,0,2,2,0,0.22,402611300
5,10,-81,10,4,0,3,5,0.22,402623900
-2,-16,-39,-5,-1,0,-3,-4,0.22,402640700
-3,3,67,2,2,1,4,2,0.23,423209000
8,8,-39,16,1,4,-1,2,0.23,423220500
18,70,127,33,12,-8,10,9,0.23,423228700
-26,-86,-128,-55,-16,-12,-9,-12,0.23,423236600
-18,-105,-44,-16,-8,-6,-7,-8,0.23,423245000
6,28,127,7,3,-3,-3,-2,0.23,423289800
2,16,-43,13,5,26,-4,-2,0.24,439012200
-13,-24,-128,-3,-6,-20,0,-8,0.24,439023200
2,10,25,-13,-5,-4,-2,-6,0.25,459464100
1,17,58,20,6,10,16,8,0.25,459475400
2,12,-87,-4,0,-4,-19,-5,0.25,459483500
-2,-1,58,0,-1,12,5,-8,0.25,459491100
4,16,-11,-2,7,44,2,22,0.26,481357100
-9,-45,-128,-6,-5,4,-16,-41,0.26,481369800
5,29,36,3,-8,-109,1,22,0.26,481378000
-3,-21,-58,-3,-1,-8,-5,16,0.26,481416100
-2,20,41,-3,-3,7,-2,-1,0.27,502606200
4,14,-12,5,5,15,3,6,0.27,502617300
-2,-7,37,-3,-1,18,-1,6,0.27,502625200
-6,30,-65,4,-3,5,37,0,0.27,502632700
-6,-26,-2,-6,2,10,-10,5,0.28,517722100
6,27,34,4,5,62,29,-16,0.28,517732100
-1,30,15,1,-8,-86,-8,43,0.28,517740600
-5,-63,16,-9,-7,-11,-8,-1,0.28,517748700
-2,9,26,-6,2,6,10,31,0.29,539574700
13,-6,-53,-7,-2,41,6,-29,0.29,539585300
4,29,17,7,-1,-18,-6,1,0.29,539595300
21,7,8,8,10,54,114,55,0.29,539609300
0,-4,4,3,-4,-53,-9,29,0.3,558568100
-6,-2,1,2,5,80,41,-119,0.3,558583600
10,1,5,0,-3,25,127,106,0.3,558599100
-4,7,-6,-3,-2,-69,11,-41,0.3,558609600
-4,-25,-2,4,9,-7,118,33,0.31,579020500
5,-61,4,0,15,127,-128,-77,0.31,579032100
8,-2,-6,-3,-22,-128,127,-128,0.31,579045600
9,-6,1,-7,-4,-83,-128,54,0.31,579055600
6,55,19,2,6,127,-41,57,0.32,598464400
8,1,-25,-4,-4,-14,78,48,0.32,598475100
2,11,-20,2,-5,5,-128,-45,0.33,619738000
11,25,-33,7,2,16,99,-7,0.33,619749800
11,-14,70,13,2,-35,-87,-5,0.33,619758400
-40,8,20,-26,-2,85,46,58,0.33,619809700
-7,20,-4,-9,0,29,50,-128,0.33,619826300
19,19,119,2,-18,-128,58,0,0.33,619837800
6,18,29,21,13,80,127,-128,0.35,658223900
-10,-40,-47,-26,-14,-7,-128,-15,0.35,658238300
-25,9,61,-6,1,34,127,-42,0.35,658247100
14,-29,58,7,2,14,-128,-102,0.35,658254700
-39,28,-45,-9,-2,33,-81,-128,0.36,677642400
14,32,18,9,1,-115,127,67,0.36,677655300
-12,14,-11,-4,-4,-47,-128,-128,0.36,677664900
12,-13,1,8,10,111,127,127,0.36,677676200
-15,-8,-22,-8,-15,-35,-123,-128,0.36,677684500
20,-73,-19,-2,-2,-68,50,71,0.36,677692400
4,3,-5,1,7,83,-39,2,0.37,698851400
-9,-14,-19,-4,-4,-61,-128,8,0.37,698864300
6,-13,-6,-2,4,33,-12,94,0.37,698875500
-5,20,40,1,4,51,127,-58,0.37,698884200
27,36,53,15,6,9,127,127,0.38,719681500
-11,10,-96,-1,-10,-125,-128,106,0.38,719722700
4,-25,-9,-5,-1,-29,127,-33,0.38,719732700
-23,-53,-109,-33,-17,54,-128,-6,0.38,719741300
36,7,9,1,6,10,6,127,0.38,719749400
-13,2,15,0,-1,-10,-5,100,0.38,719757700
-14,-9,48,3,-3,-95,9,87,0.39,738277900
-6,18,11,8,5,41,-128,-112,0.39,738289700
10,-8,34,10,-5,-63,-32,-104,0.39,738297800
-3,25,33,10,8,0,-101,-13,0.39,738305900
52,20,-12,7,17,127,127,127,0.4,759497800
-1,10,16,0,-1,-20,-69,-16,0.4,759512500
7,3,0,5,-2,-4,83,38,0.4,759523700
-18,-3,-4,-1,-2,16,-56,118,0.4,759591300
26,9,-5,-2,-2,-3,-56,39,0.41,777821800
20,3,2,4,-1,13,-128,115,0.41,777832800
-7,-54,-4,2,-1,9,-12,-39,0.41,777851700
-36,-7,-19,-5,-4,36,-128,-128,0.41,777887600
18,42,103,2,-2,5,127,-121,0.42,797596400
-2,-77,-57,-2,2,73,-90,6,0.42,797610900
-14,0,17,-7,-12,-128,-128,-128,0.42,797621600
-18,10,89,-1,-4,35,127,106,0.42,797629500
33,33,-128,-13,0,8,-63,14,0.43,819849400
-8,2,11,-6,11,117,19,43,0.43,819862400
8,64,95,13,6,-15,-83,44,0.44,838845800
13,51,8,6,-5,-66,127,46,0.44,838857100
0,-23,-10,3,6,34,-57,12,0.44,838866100
-3,2,28,-2,-7,-84,127,75,0.44,838876300
-2,-8,-59,-1,-4,39,115,33,0.44,838884300
-25,-16,-6,-11,-15,-102,-82,32,0.44,838893200
45,-12,-39,6,10,59,127,112,0.45,859815600
-32,1,6,-7,-24,-52,-128,49,0.45,859856400
-17,23,20,3,-4,-50,100,127,0.45,859866800
-22,36,17,4,9,119,-128,0,0.45,859874800
5,-89,-9,6,3,-128,127,24,0.47,899837900
-39,-28,-100,-14,-13,-46,112,-54,0.47,899851900
13,13,12,1,9,51,127,127,0.47,899861700
29,46,17,0,-3,-4,-3,127,0.47,899905600
-24,-9,1,-9,-9,-5,127,-96,0.47,899921500
-38,-16,1,2,8,38,127,127,0.47,899930100
-15,14,-2,-9,-13,81,-110,127,0.47,899937700
5,-18,-46,-6,0,-17,8,19,0.47,899945200
24,3,-17,2,9,70,127,-128,0.48,918489800
-15,-11,11,-6,-8,27,-128,-128,0.48,918501100
39,78,47,15,12,15,127,106,0.49,939458000
-59,-39,-59,-19,-10,-56,-128,-128,0.49,939470800
25,-89,-124,-13,-5,-35,127,60,0.49,939481400
-31,42,26,-9,-14,21,127,-56,0.49,939490600
4,21,40,4,0,-24,-128,-40,0.5,958222400
-7,4,35,3,7,16,38,82,0.5,958233700
14,72,16,6,8,45,97,-128,0.5,958272800
13,-3,-9,2,7,-21,-128,110,0.5,958296800
1,28,35,2,-3,-83,127,61,0.5,958305700
-5,-7,-26,-4,6,35,55,127,0.5,958314000
27,29,29,2,-6,-115,-128,-76,0.51,979507500
-43,-69,1,-11,-14,40,127,-119,0.51,979550200
-41,9,-18,-8,-18,-82,123,-128,0.52,1000401700
7,24,-6,-5,-11,-11,-128,-128,0.52,1000413900
11,-60,5,0,-5,127,127,85,0.54,1040188300
26,-45,15,12,19,115,127,127,0.54,1040199400
-63,-57,31,-12,-21,-119,-128,-114,0.54,1040208700
-41,77,-16,-3,2,127,127,127,0.54,1040216700
63,-72,-61,-5,0,18,114,-128,0.54,1040246500
-9,58,42,-6,-12,-79,110,63,0.54,1040278000
4,30,0,7,17,127,-12,-128,0.54,1040287400
39,45,89,11,5,-128,26,127,0.54,1040296000
47,-15,-14,10,1,-69,-124,109,0.54,1040303800
-22,-43,39,-7,1,51,127,127,0.54,1040310900
-24,22,-60,-10,-4,41,103,127,0.55,1058078400
-2,13,8,-1,-6,-128,-128,-128,0.55,1058127900
-83,-17,-5,-21,-33,-128,-128,-128,0.55,1058142000
7,0,24,6,9,127,67,30,0.55,1058151100
20,17,-1,-12,-12,-26,-11,-49,0.56,1078760300
-35,-51,-1,-7,-9,-66,127,-128,0.56,1078771200
-15,-22,22,-7,-6,119,34,38,0.56,1078782500
-9,20,-54,-1,0,127,-26,-128,0.56,1078793300
-3,26,-7,2,11,-128,127,-80,0.56,1078803500
56,25,16,4,16,16,-42,-128,0.56,1078812000
69,2,35,8,-10,-128,111,127,0.57,1099591100
0,5,32,8,-2,18,102,-64,0.57,1099602600
-54,-128,-20,-16,-5,39,-19,-101,0.57,1099611600
87,38,-46,-10,2,38,-113,127,0.57,1099620800
-33,-81,42,-12,-2,127,-128,-128,0.58,1117504900
15,-10,31,8,3,127,-128,127,0.58,1117516300
-39,1,39,-8,-22,-128,127,127,0.6,1157636200
-17,-23,-52,1,23,127,-112,127,0.6,1157647600
-39,-1,18,-14,-16,6,-128,-128,0.6,1157656900
48,60,34,13,9,127,-104,127,0.6,1157665000
51,-10,2,14,10,-43,-128,20,0.6,1157689600
16,16,-11,4,-8,-128,88,70,0.6,1157723800
-45,4,-28,-19,-23,-115,127,127,0.6,1157733200
-3,43,0,5,18,127,-75,-128,0.6,1157740800
-1,-42,3,-4,-12,-128,127,-128,0.6,1157748600
76,50,20,14,27,127,127,127,0.6,1157756000
1,-7,-6,-1,9,127,-36,59,0.61,1178738800
25,28,14,16,26,-72,3,101,0.61,1178753800
-4,24,-14,-3,-3,-128,-128,-128,0.62,1199125000
-12,-24,-9,0,-6,-56,-23,-128,0.62,1199136800
-67,-61,-24,-8,-5,127,127,37,0.62,1199146900
-1,-3,26,11,30,127,127,-128,0.62,1199183800
-71,-1,-11,-2,-10,-128,-128,-93,0.62,1199208200
5,46,5,1,-2,96,-128,-128,0.62,1199217900
-10,-5,10,1,11,121,127,-70,0.64,1238560200
10,-72,42,0,-2,20,-21,127,0.64,1238571600
8,-9,-113,-15,11,127,127,127,0.64,1238581300
23,-4,37,19,29,11,-34,127,0.64,1238589200
-47,3,-42,3,-7,-128,-128,-128,0.64,1238597500
28,-15,37,6,10,127,127,52,0.64,1238642300
-76,-50,3,-11,-29,-128,-128,127,0.65,1258282000
15,46,-2,3,-1,127,-128,127,0.65,1258301200
13,39,16,7,12,-51,-86,127,0.65,1258312100
-45,-128,-65,-18,-18,53,-128,-128,0.65,1258320200
-39,53,-11,-28,-47,-128,127,-15,0.65,1258327700
11,30,7,3,4,127,17,-128,0.65,1258335400
-14,-81,-11,-7,1,54,-128,46,0.66,1279573600
42,-2,63,5,3,127,127,127,0.66,1279595600
44,-21,-32,3,2,52,50,127,0.66,1279633000
34,31,43,-4,4,-19,127,127,0.66,1279642600
-16,116,-24,21,26,-8,44,-128,0.67,1298344300
-30,-41,1,-19,-38,-128,-128,-128,0.67,1298356300
-11,127,15,6,9,127,127,127,0.68,1319608400
-15,14,32,8,15,89,-128,10,0.68,1319638500
31,1,14,3,5,127,127,-128,0.68,1319665700
-3,4,2,-10,-29,-128,-128,127,0.68,1319674500
-5,62,-30,5,12,119,127,92,0.68,1319682600
37,43,3,7,11,127,127,127,0.68,1319690300
29,38,8,3,14,38,8,-73,0.69,1338255800
33,61,28,4,12,127,-128,-57,0.69,1338267700
-41,-53,-23,-10,-7,-128,-128,-128,0.69,1338276900
45,24,7,2,18,127,-74,-73,0.69,1338316400
-23,-128,-44,-11,-16,-116,-128,127,0.7,1359682100
-22,48,15,13,18,-102,127,88,0.7,1359694500
21,19,62,8,0,-128,-64,-105,0.7,1359702900
4,11,-19,-2,-21,-128,127,-128,0.7,1359710500
-6,-54,-128,-21,-16,-128,-128,-39,0.71,1378583800
-10,84,-32,-3,14,-128,127,127,0.71,1378596400
-21,-35,65,1,0,13,127,127,0.71,1378625900
-50,24,-4,-7,-11,-128,13,-25,0.71,1378652300
73,-43,24,7,3,127,-128,54,0.72,1397561800
50,7,18,3,-7,-58,127,-128,0.72,1397574000
-13,-13,-22,-11,-35,-128,127,127,0.72,1397775400
-37,-49,-13,-7,1,119,81,-71,0.72,1397789300
-42,5,-7,-4,3,127,33,-22,0.73,1418926800
-26,-101,-10,-20,-33,127,127,127,0.73,1418939200
8,-60,-36,5,17,127,127,-128,0.74,1437547300
46,31,12,-3,-24,-128,-128,-55,0.74,1437558200
-38,82,-8,-10,-12,-128,15,-128,0.74,1437574100
39,23,77,19,21,-56,-128,127,0.74,1437611000
28,-128,-12,22,33,-19,-17,127,0.75,1459292200
-18,-4,-67,-21,-6,-118,119,54,0.75,1459303900
-4,-71,18,-6,0,127,-128,-128,0.75,1459313400
-65,40,-24,-19,-37,-128,127,-56,0.75,1459323600
-86,-2,53,6,10,-70,127,-128,0.75,1459332800
-16,76,-30,-3,-7,127,85,-33,0.75,1459340200
0,29,-32,-1,10,127,-128,47,0.76,1477761800
-37,-22,34,0,-12,-128,127,-128,0.76,1477795900
-24,-34,-38,-1,-3,127,84,127,0.77,1499347300
60,34,-7,-11,-14,37,127,127,0.77,1499370000
-5,-17,1,-1,-1,127,127,-10,0.77,1499382100
17,-55,-21,1,-2,-128,6,-44,0.77,1499392600
-106,30,-12,-6,-5,-128,-56,-128,0.78,1520645000
43,32,14,8,15,57,14,78,0.78,1520663800
40,75,4,-4,0,127,-128,-128,0.79,1540109200
-19,-27,-11,8,3,-128,127,-23,0.79,1540122200
-44,5,2,2,9,59,-128,-128,0.79,1540131500
3,30,10,6,5,-24,127,2,0.79,1540142100
-11,-14,-9,-5,-29,-128,127,111,0.79,1540153300
-64,-35,51,1,7,127,-56,75,0.79,1540161700
73,105,-68,-5,-23,-128,127,-128,0.79,1540169700
-8,65,-3,-7,4,127,127,-128,0.79,1540177500
83,-128,34,21,34,127,127,127,0.8,1558268200
49,19,62,10,-5,-128,-9,127,0.8,1558282600
-16,61,-11,-11,-33,-128,-82,127,0.81,1579547400
35,-15,31,-3,4,-128,-128,127,0.81,1579558700
-8,34,-41,1,0,44,-52,-128,0.81,1579566800
-64,-4,-9,-7,-15,-128,-128,74,0.81,1579575800
28,77,17,2,11,127,59,126,0.81,1579583700
33,45,18,12,10,108,-128,127,0.81,1579591100
-56,0,6,2,-13,127,23,127,0.82,1598008800
5,-81,-5,-5,1,127,127,-54,0.82,1598020600
0,-10,27,3,-9,-6,127,30,0.83,1617971800
21,92,-54,-4,-7,-128,113,127,0.83,1617983600
26,6,-22,-7,-1,127,-84,127,0.83,1618010600
34,-7,17,10,23,127,-128,-128,0.83,1618056800
-8,1,27,-4,-23,-128,127,-25,0.84,1637887500
31,-14,-3,8,14,89,127,127,0.84,1637898400
22,18,10,9,12,127,101,40,0.84,1637907000
-3,-36,12,-8,-23,-128,127,-85,0.84,1637915500
5,77,15,4,9,95,56,-32,0.84,1637923400
-3,-18,-24,-13,-23,-128,-80,127,0.84,1637931100
-7,-3,-22,-11,-12,127,127,-112,0.85,1657588900
-13,-40,4,3,-3,-128,127,-128,0.85,1657603400
-9,48,-2,-7,-9,-128,127,-66,0.86,1680513900
42,40,15,11,1,-128,80,127,0.86,1680558400
-11,127,13,-2,-7,127,-128,-53,0.86,1680573100
4,3,16,-2,-4,127,-128,-62,0.86,1680585900
74,-13,40,21,20,-108,75,124,0.87,1700041900
39,-48,-71,-11,2,127,120,127,0.87,1700052800
15,-85,-11,-1,-6,-124,127,127,0.87,1700061400
-82,-16,-19,-13,-8,63,127,127,0.87,1700069400
-65,-5,49,1,-19,-128,127,-128,0.87,1700078900
20,16,-15,7,16,127,43,109,0.87,1700086900
-76,-38,9,-9,-9,52,-128,127,0.88,1719468900
-11,65,8,-6,-23,-128,127,-92,0.88,1719479800
29,-5,14,-1,4,-128,-128,-128,0.88,1719488900
10,54,19,-3,-5,127,-128,-128,0.88,1719496400
22,-3,-7,5,1,34,127,127,0.89,1739530100
21,-84,-13,1,12,127,-128,17,0.89,1739541000
2,62,10,12,25,127,127,44,0.9,1759820900
24,27,17,11,19,127,127,-128,0.9,1759833600
-83,-128,-28,-19,-30,-128,-128,-128,0.9,1759843000
23,42,3,0,-1,127,123,127,0.9,1759852100
-3,67,17,6,25,127,-49,-128,0.9,1759860400
-80,-28,-11,-7,-5,-128,-76,-128,0.9,1759899500
24,24,-71,8,4,-128,73,8,0.92,1798140400
-1,-79,17,-1,2,15,51,-105,0.92,1798181100
-30,-74,0,-9,-9,98,71,-128,0.92,1798191200
-26,-4,16,-5,-10,127,-104,-17,0.92,1798200900
-7,-30,-20,-5,5,-128,21,-78,0.92,1798209000
8,28,13,-7,-11,-128,-13,4,0.92,1798217400
-40,-24,-45,0,2,127,108,-14,0.93,1820535500
-3,64,20,7,9,102,19,-128,0.93,1820549700
37,34,66,7,-2,-128,127,127,0.93,1820559700
62,48,-77,-13,-32,-128,127,127,0.93,1820567900
-31,38,-34,-16,-16,127,-128,127,0.93,1820577600
-21,-128,7,5,21,127,26,-128,0.93,1820585600
3,127,12,4,8,127,127,-2,0.94,1839990100
24,47,-9,-24,-46,-128,99,127,0.94,1840003800
13,25,17,4,-1,-4,-63,83,0.94,1840014900
-7,-41,4,5,10,127,-23,3,0.94,1840023700
34,32,23,11,10,-111,127,127,0.95,1858908000
55,-50,1,6,4,-128,-30,-69,0.95,1858920100
-1,-50,-8,-4,-2,-32,-37,127,0.96,1878053500
-4,41,13,6,4,127,55,-14,0.96,1878065200
-11,-99,24,9,17,127,35,-119,0.96,1878078000
4,-27,3,-3,-10,-128,-64,90,0.96,1878085900
85,107,3,10,11,127,127,127,0.97,1900518300
5,-65,18,-15,-43,-128,111,127,0.97,1900531900
12,-4,8,0,4,101,-23,-80,0.97,1900540900
6,-128,-32,5,8,-128,12,-128,0.97,1900548800
48,-1,-1,3,14,127,78,127,0.98,1918557200
28,52,82,24,16,-128,127,-128,0.98,1918568600
7,8,-32,-2,-5,-128,127,-13,0.98,1918578700
28,25,27,1,-3,9,91,111,0.98,1918588700
26,0,29,7,6,-28,58,127,0.99,1939782300
28,18,25,8,5,-128,127,-45,0.99,1939795900
-108,50,15,0,2,15,-68,-128,0.99,1939806800
36,-12,18,-3,-10,-128,127,-128,0.99,1939814800
-65,9,-58,-10,-14,50,-5,-128,0.99,1939823300
7,-90,1,5,7,127,-56,77,0.99,1939831000
36,51,4,2,-1,-113,-4,-128,0.98,1958759700
14,-4,15,5,2,63,127,-59,0.98,1958771100
24,-3,8,1,3,-53,-128,127,0.97,1979627600
-41,15,10,3,-1,15,-15,31,0.97,1979638500
-31,9,-19,-19,-34,-128,-82,-128,0.97,1979647200
1,-68,-2,3,1,-128,-2,-55,0.97,1979660700
4,-27,29,-1,-3,18,46,-20,0.96,1998978500
9,25,22,1,2,104,-40,-8,0.96,1998990700
-4,-34,-27,-4,3,25,-7,-15,0.95,2019466400
-1,84,-31,-5,0,127,-9,-6,0.95,2019478500
-2,0,76,6,0,-128,50,-12,0.95,2019487000
5,-2,-3,3,2,-52,-6,-8,0.95,2019494500
-2,-21,-128,-10,-2,-6,0,-4,0.95,2019502200
-2,-2,31,-10,-3,-13,0,-6,0.95,2019511700
11,3,79,3,0,64,6,6,0.94,2038284100
-7,-1,-30,7,-5,-15,21,-15,0.94,2038296300
5,4,5,-1,-3,-28,-48,0,0.93,2059055200
-1,-3,36,-1,-3,-12,-15,-3,0.93,2059067900
1,20,-68,-9,0,120,-11,-1,0.93,2059078400
11,30,16,8,-2,-128,5,11,0.93,2059087600
-20,-34,-35,-5,-9,-128,-65,-45,0.93,2059097100
-16,-16,16,-3,-11,-128,127,-128,0.93,2059104700
-27,-21,1,-8,-3,118,-128,-128,0.92,2077718300
46,-15,31,0,1,48,33,121,0.92,2077762100
30,-9,28,0,-2,-9,-3,19,0.91,2098965100
5,-17,-32,-9,0,18,10,5,0.91,2098977500
-2,-48,-17,-4,0,7,8,-5,0.91,2098986900
-15,3,-34,3,2,-21,-3,-13,0.91,2098994900
2,14,-26,-35,-3,-45,6,-7,0.91,2099002400
1,-10,23,42,4,3,2,-8,0.91,2099013700
0,0,74,-6,-3,31,1,-4,0.9,2118310000
1,1,-1,-9,-3,-4,0,-3,0.9,2118321400
3,10,-39,1,-1,-42,-2,-1,0.9,2118330000
4,-9,18,-14,-10,-52,6,0,0.9,2118338100
13,55,127,-1,8,-69,5,2,0.89,2139705100
-16,-43,20,13,4,-99,-2,-6,0.89,2139718600
-24,-13,-119,-21,1,116,1,2,0.89,2139727500
12,22,-45,3,-11,-128,21,-1,0.89,2139735700
9,16,68,13,11,43,-22,-3,0.88,2157796600
3,-9,-30,-2,-5,57,36,-5,0.88,2157809100
3,11,65,4,-3,-35,-11,-41,0.88,2157821000
-1,-18,0,1,1,96,-67,14,0.88,2157843700
5,-37,4,-3,-1,41,-16,-5,0.87,2178530700
0,31,2,-5,-1,53,14,9,0.87,2178552700
18,18,40,1,3,49,3,10,0.87,2178566200
-10,-12,-45,-4,1,24,6,-5,0.87,2178576200
-2,-32,19,-6,-7,11,-1,-1,0.86,2199222700
1,24,41,-6,0,0,1,-1,0.86,2199236600
3,2,-26,0,1,-6,1,0,0.86,2199254400
1,15,0,-4,0,-14,-1,-1,0.86,2199262600
7,-105,-107,-6,-4,-17,-7,-5,0.85,2217802900
-43,-6,-17,-11,-6,-4,-1,-6,0.85,2217818200
-7,9,62,-2,-1,4,-6,-7,0.85,2217826900
19,39,114,31,6,-9,-10,4,0.85,2217834800
5,25,3,-10,4,10,-3,-2,0.84,2238996900
-14,-7,-35,-5,1,43,-69,-19,0.84,2239013300
0,-5,-84,-29,-12,-87,-12,4,0.84,2239040900
1,6,70,21,8,-44,36,-5,0.84,2239064000
-1,36,-13,6,4,12,-2,3,0.83,2259862500
0,-33,-79,-27,-11,20,-28,-3,0.83,2259874900
-8,-4,39,-3,-9,-17,-6,-2,0.83,2259883300
1,-13,29,12,2,36,8,-1,0.83,2259895200
-11,-47,83,4,2,42,-3,3,0.82,2278537900
-12,37,-68,-15,-8,83,-17,-7,0.82,2278551900
3,-105,3,-16,-9,-108,-27,6,0.82,2278564200
-6,-81,-60,-6,2,17,38,-4,0.82,2278573900
-13,39,5,10,-5,11,-4,-3,0.81,2299414100
-10,-22,-33,-9,1,4,-12,-3,0.81,2299426200
56,57,-58,-14,-5,0,20,0,0.81,2299435000
-5,20,37,10,12,15,-16,-2,0.81,2299451500
9,8,76,14,-7,-44,15,5,0.8,2317664500
-16,-26,-11,14,7,-12,20,-1,0.8,2317675400
-2,-4,-32,-19,1,-23,-24,-4,0.8,2317684400
31,-5,-128,-2,4,55,2,-2,0.8,2317695200
3,0,72,7,-1,-26,-29,0,0.79,2339133200
-4,-4,-59,-20,-11,8,-4,-1,0.79,2339178100
20,43,115,12,9,9,22,10,0.79,2339195300
-20,-64,-128,5,-3,-11,-38,-12,0.79,2339203800
-8,-22,127,-15,-8,3,-5,0,0.78,2357889900
-51,26,-128,-6,-3,12,3,-6,0.78,2357901700
20,-22,56,-5,4,7,1,6,0.78,2357910200
7,-11,17,-1,0,16,12,4,0.78,2357917800
-10,-27,-41,7,1,0,6,2,0.76,2397453600
13,18,15,4,2,5,-11,-1,0.76,2397465100
-5,-13,25,17,3,-22,-3,-4,0.76,2397475400
16,-63,-90,-6,-7,-12,-3,19,0.76,2397512300
-51,50,81,-4,3,22,5,3,0.76,2397528100
-8,35,-128,-22,-12,-19,1,-2,0.76,2397536100
35,-33,64,21,7,4,-20,-7,0.76,2397543400
4,6,106,20,12,11,15,5,0.76,2397551400
9,-10,-86,-8,5,96,54,10,0.75,2419184400
-12,-40,-128,-22,-18,-128,-11,-89,0.75,2419198000
4,15,38,-5,-4,44,30,42,0.74,2437903500
3,8,30,6,5,42,9,-20,0.74,2437914100
16,23,-20,-8,-11,4,-70,-41,0.74,2437922100
2,-2,21,-3,3,9,10,8,0.74,2437929700
1,-12,-63,-7,3,16,1,5,0.74,2437937600
-5,11,89,46,20,15,-2,-6,0.74,2437945100
-7,-14,-97,-9,-3,6,-7,-4,0.73,2459189000
7,30,127,9,-4,-4,2,-1,0.73,2459202200
-1,-13,-128,-20,-6,-7,-5,0,0.73,2459211400
-42,72,115,-6,-5,2,0,4,0.73,2459219700
-1,-64,-55,-2,1,-12,-5,-10,0.72,2477704600
-55,40,-67,-27,-7,-15,-2,-7,0.72,2477740600
-8,-32,-82,-1,0,18,9,-5,0.72,2477760800
17,6,46,10,5,15,-33,5,0.72,2477770700
-2,-3,13,10,-2,-20,25,13,0.7,2518471400
7,32,56,7,0,6,-30,-7,0.7,2518482100
-32,-4,-23,-7,-3,-47,-42,0,0.7,2518497900
-9,-19,-37,-5,2,29,7,-4,0.7,2518514800
3,19,28,15,4,-20,-12,6,0.7,2518523600
-3,-25,-27,-10,-3,-9,-17,-28,0.7,2518531200
0,-11,-46,-25,-8,12,-3,0,0.7,2518538600
21,-27,-128,-4,-1,10,-12,4,0.7,2518545800
-5,8,68,6,-3,2,21,-4,0.69,2537523900
32,-44,19,3,3,3,0,2,0.69,2537535600
-1,32,3,1,0,-7,-7,0,0.69,2537574400
-3,-11,63,15,1,13,-3,-2,0.69,2537590400
-9,-3,-78,-13,-7,-32,4,-4,0.68,2558605200
10,-12,127,24,5,-6,3,3,0.68,2558617500
-19,-67,-105,-15,-5,-22,-34,-10,0.68,2558629500
-26,7,13,-29,-13,20,-2,-4,0.68,2558637400
14,4,-8,-1,0,-13,-4,3,0.67,2577684000
11,5,-7,8,0,-34,-23,21,0.67,2577695200
-4,17,-28,6,1,47,15,-4,0.67,2577712300
0,-14,25,4,2,-12,1,2,0.67,2577748700
3,56,62,2,0,-10,1,1,0.66,2598616400
5,-2,-25,-8,0,35,-5,5,0.66,2598627900
-8,-2,-22,-1,-2,13,0,-6,0.66,2598638500
1,12,52,1,-4,0,27,3,0.66,2598647300
-39,63,118,11,6,-76,3,5,0.65,2619954900
-4,-41,-100,-10,-3,60,-6,28,0.65,2619969400
2,4,-19,-6,-5,-54,-43,-51,0.65,2619978100
-6,19,1,5,2,5,5,-13,0.65,2619999000
6,-7,-30,-2,4,20,5,-6,0.64,2638298400
-4,16,71,-5,-6,-30,-38,1,0.64,2638309700
7,14,16,18,10,13,2,2,0.64,2638318500
122,8,-14,9,0,4,5,5,0.64,2638351500
1,-8,-97,-15,-5,1,-2,-3,0.63,2659878700
11,-12,67,-8,1,-6,1,6,0.63,2659898400
-20,0,100,7,1,16,-3,-6,0.63,2659910600
0,1,1,4,0,-11,0,0,0.63,2659920900
11,4,-127,-12,-2,1,2,1,0.62,2678401000
13,17,105,76,14,-6,3,7,0.62,2678413500
-1,7,-128,-42,-8,-7,-1,0,0.62,2678424500
-6,-23,96,0,-1,10,-5,-3,0.62,2678432400
6,24,20,17,7,-3,2,5,0.61,2699440000
-4,-7,18,-9,-5,6,-1,-4,0.61,2699452400
2,15,58,10,5,26,4,4,0.61,2699463500
-5,50,12,11,4,-21,19,24,0.61,2699475600
-3,-9,-93,-15,-5,48,31,-8,0.6,2717613400
-12,-28,-128,-24,-15,-25,-30,-14,0.6,2717623100
2,21,33,9,4,-8,15,-3,0.6,2717631500
1,-63,35,-3,3,52,-9,2,0.6,2717639100
-7,-6,65,0,-5,-35,8,-2,0.59,2739378700
4,13,-23,-7,-7,-35,-10,-1,0.59,2739395900
-17,-24,62,-7,-2,12,-3,0,0.59,2739409300
2,24,89,17,7,16,0,2,0.59,2739421900
-26,-16,-25,-11,-3,10,-3,2,0.58,2758310800
0,3,-70,-8,-3,3,-1,-1,0.58,2758323000
1,-13,-24,20,4,-5,3,1,0.58,2758335000
0,-3,35,-1,0,0,-3,-2,0.58,2758346400
4,1,127,3,1,-3,1,2,0.57,2779760700
-9,-15,-75,-18,-13,4,-5,-7,0.57,2779774200
15,50,21,17,8,0,5,8,0.57,2779830100
7,50,78,7,2,-6,2,1,0.57,2779854100
-7,-46,-7,-10,-7,-6,-9,-6,0.56,2798293700
-3,-8,16,2,-2,8,5,0,0.56,2798346800
8,13,-12,10,3,1,-4,4,0.56,2798385800
5,9,9,17,4,-17,8,3,0.56,2798397700
6,4,-6,-1,0,21,-1,4,0.55,2819251000
-9,-30,-128,-22,-6,52,-13,-9,0.55,2819264000
-3,0,-23,-11,-10,-86,12,-10,0.55,2819293300
0,-6,20,11,3,-51,24,1,0.55,2819310700
-4,13,-93,1,1,12,-37,0,0.54,2838298300
59,-38,15,-4,-2,6,-6,9,0.54,2838309300
5,16,105,14,5,-11,-1,4,0.54,2838317900
-10,-30,-128,-46,-17,5,-6,-6,0.54,2838326400
3,17,127,2,1,11,3,5,0.53,2859475300
11,-2,-128,-2,-5,8,0,-4,0.53,2859506500
-3,-30,68,10,1,1,-2,4,0.53,2859516300
-4,41,36,16,5,-4,1,0,0.53,2859524400
-31,-45,-128,-56,-19,-5,-11,-15,0.52,2877809000
0,56,-16,20,7,3,-1,1,0.52,2877821800
2,39,127,-3,1,-9,-1,3,0.52,2877830500
-12,20,-73,-17,-6,-10,-4,-7,0.52,2877867800
-29,87,30,18,3,2,2,2,0.51,2899251100
6,40,48,4,-3,0,-4,0,0.51,2899262500
3,-7,-74,0,-2,-12,-18,0,0.51,2899270400
0,6,12,6,1,23,9,-2,0.51,2899278100
12,-21,-14,-2,-1,-6,8,-4,0.5,2917823900
-1,15,-27,12,5,12,-39,-10,0.5,2917850900
-3,-15,5,-15,-14,-69,27,49,0.5,2917862500
-10,-9,116,-3,-10,-9,-33,-126,0.5,2917874000
5,6,-128,-12,-1,5,15,7,0.49,2939325000
1,-19,10,5,-3,-19,-16,7,0.49,2939335900
-7,1,60,-21,-6,28,2,1,0.47,2978896500
16,47,127,44,11,16,7,12,0.47,2978908800
-4,-35,-125,-14,1,4,0,1,0.47,2978949100
15,-7,127,-13,-5,6,-1,0,0.47,2979033700
-11,17,-22,0,-6,-3,-2,-4,0.47,2979044700
-6,18,-17,31,13,-4,2,-6,0.47,2979053000
-10,1,-123,-32,-12,-5,-5,-4,0.47,2979060600
11,-7,127,26,6,-5,1,3,0.47,2979068300
-5,0,30,2,-1,-3,1,-3,0.47,2979076900
3,0,-48,4,0,-4,-4,-1,0.47,2979106900
-45,29,42,-13,-3,-5,-1,-6,0.46,2999587600
-6,1,-80,-12,-7,-5,-2,-3,0.46,2999615800
7,10,84,15,9,7,4,-1,0.46,2999625600
-4,-14,-23,-13,-6,4,-62,-2,0.46,2999633400
5,14,33,2,-3,-1,15,1,0.45,3018401700
0,12,107,4,2,-36,-7,5,0.45,3018413000
-1,-5,-63,7,0,30,-30,-9,0.45,3018421600
-1,-5,37,0,-6,-56,43,23,0.45,3018431000
2,14,57,3,3,22,-16,-7,0.44,3039617100
3,7,-26,-5,2,-10,-19,1,0.44,3039628200
-3,-3,-4,-9,-4,6,9,1,0.44,3039657200
-17,-8,84,8,3,7,-3,-6,0.44,3039679900
3,18,-102,-12,1,13,4,1,0.43,3057741600
38,-25,-16,5,-1,4,-5,-1,0.43,3057752200
67,20,79,-3,-3,4,-3,-2,0.43,3057760300
-3,-76,-26,-17,-8,1,-1,-4,0.43,3057771200
-15,62,88,1,-2,-8,-3,-3,0.42,3079326100
-1,-4,-40,1,-2,-1,0,1,0.42,3079337200
-4,-84,32,-13,-1,-3,-3,-7,0.42,3079345900
11,43,40,19,5,-10,0,4,0.42,3079369600
-18,-61,-128,-31,-11,-4,-7,-7,0.41,3098370600
2,6,-2,7,5,-4,3,1,0.41,3098382900
9,15,-91,-1,3,20,22,2,0.4,3119542600
7,17,6,7,-2,-35,-33,1,0.4,3119554900
-6,-12,57,7,2,-7,-3,-6,0.4,3119564600
-1,-5,50,-4,5,41,2,-1,0.4,3119573200
11,29,0,25,5,-85,-9,-1,0.39,3138200600
5,2,114,8,5,-5,-1,7,0.39,3138212100
-19,-62,-98,-32,-16,27,23,-8,0.39,3138221200
-19,-21,-1,-29,-13,-7,23,-9,0.39,3138250000
17,49,38,33,10,-36,-32,0,0.39,3138284800
-3,22,127,16,1,2,-3,-1,0.39,3138297300
-18,-37,7,-5,-2,12,-3,-7,0.38,3160044100
22,17,-128,-4,-4,3,-1,3,0.38,3160097100
17,8,75,12,7,11,5,3,0.38,3160118500
2,-4,-62,-8,-6,7,11,-3,0.38,3160128200
27,-22,52,15,4,-13,0,7,0.37,3178886600
1,15,32,18,4,-7,1,-2,0.37,3178897400
-6,-19,-128,-26,-10,0,-5,-5,0.37,3178909000
5,-3,107,8,4,0,1,-2,0.37,3178919500
-13,-23,-128,-40,-10,3,1,-6,0.36,3199643300
15,39,127,14,6,11,12,3,0.36,3199655800
5,-14,-60,13,4,2,1,0,0.36,3199693000
-17,-29,34,-42,-16,-9,-12,-9,0.36,3199719100
5,42,15,22,8,-2,10,7,0.35,3218396900
0,-18,-112,-9,0,14,-5,2,0.35,3218409600
2,-4,8,10,-5,-64,31,-8,0.35,3218418600
7,40,-19,17,9,4,-3,4,0.35,3218454600
20,54,17,50,17,5,5,7,0.34,3241181600
-41,-86,-94,-82,-29,25,-21,-19,0.34,3241193200
-9,22,-59,-14,-7,19,-2,-1,0.34,3241202200
3,24,30,20,5,8,-3,0,0.34,3241211200
-2,-8,-28,-6,-4,0,-3,-1,0.33,3258321000
20,53,127,60,17,-7,-23,10,0.33,3258332500
-8,-6,-128,-39,-5,-12,0,-3,0.33,3258340900
9,-4,83,18,6,-1,3,6,0.33,3258348800
-12,4,-9,-22,-9,-3,-3,-8,0.32,3278141900
-7,-8,-37,-19,-7,0,-5,-7,0.32,3278153200
7,14,-31,8,2,-5,-1,2,0.32,3278164800
-9,-13,30,-10,-5,-7,-4,-6,0.32,3278172700
4,3,-128,3,7,9,2,3,0.31,3299319200
30,36,87,11,5,-8,3,3,0.31,3299329600
-8,79,42,4,0,33,6,-4,0.31,3299337800
-1,-22,-66,-19,-8,-27,6,-4,0.31,3299346800
1,9,92,11,2,-7,-1,-2,0.3,3317970900
-8,-59,-128,31,6,1,-3,-3,0.3,3317982300
-13,-19,-96,-17,-7,8,-3,-6,0.3,3317991300
11,23,123,8,1,-14,4,4,0.3,3318000800
4,50,-7,-22,-3,17,-10,-4,0.29,3339623900
7,2,-12,9,2,-2,-9,3,0.29,3339635000
-7,-47,88,-3,-5,-4,3,-3,0.29,3339671200
0,20,120,1,5,5,5,-1,0.29,3339692300
6,5,127,14,11,28,6,5,0.28,3358230500
2,5,99,7,-6,-17,-1,0,0.28,3358246400
-1,13,-34,-23,-3,-5,-1,-3,0.28,3358258800
-13,-3,96,-27,-9,-12,-6,-7,0.28,3358268000
8,-16,-30,16,8,7,-1,6,0.27,3379326100
3,0,-128,-32,-2,6,6,1,0.27,3379337700
1,22,127,-1,-2,-1,1,-2,0.27,3379346300
12,35,127,33,7,11,4,5,0.27,3379356000
13,45,-12,32,8,-35,0,3,0.26,3398088900
7,15,-128,-1,4,-12,0,3,0.26,3398101200
-19,-37,127,-46,-21,10,-2,-6,0.26,3398113700
-7,-22,-77,0,-5,-7,-4,-4,0.26,3398121600
0,27,-124,-18,-12,18,-9,-1,0.25,3419141300
46,101,127,105,32,-14,13,19,0.25,3419157200
-25,-24,43,-46,-14,6,-6,-16,0.25,3419168800
14,37,104,55,13,-9,5,7,0.25,3419179200
-10,40,127,23,-3,-7,-5,-5,0.23,3458972700
7,25,-128,-33,-7,-2,0,2,0.23,3458984300
-17,-62,-128,-34,-5,6,-3,-5,0.23,3459036200
32,24,127,67,34,21,9,15,0.23,3459048300
3,27,35,38,-15,-44,-7,-7,0.22,3477750000
-55,-128,-128,-71,-29,-4,-18,-21,0.22,3477762200
13,51,127,47,9,5,6,3,0.21,3500089800
35,42,127,78,36,16,15,17,0.21,3500101700
-35,-70,127,-28,-17,-10,-13,-19,0.21,3500111400
-7,-116,127,-6,-4,25,5,2,0.21,3500120100
31,85,82,58,17,-29,7,12,0.21,3500128400
-17,-54,13,-105,-4,10,-5,-4,0.21,3500172100
-46,-128,105,0,-22,-14,-7,-17,0.2,3518813800
-9,-55,127,19,3,-6,-3,-4,0.2,3518825500
24,44,127,33,10,4,8,11,0.2,3518834500
-3,35,-25,43,2,6,2,-2,0.2,3518845100
-28,-12,127,-49,-14,-11,-9,-14,0.2,3518889500
36,24,-72,47,18,15,9,13,0.2,3518911500
19,106,127,51,22,8,5,9,0.2,3518920100
17,-66,-128,-66,-14,-3,-1,5,0.2,3518927800
-27,98,-2,41,-9,-19,-2,-6,0.19,3539779300
-29,-128,127,-128,-30,21,-10,-14,0.19,3539811300
8,127,127,85,21,-75,3,4,0.18,3558364000
-12,-128,-128,-52,-16,1,-7,-3,0.18,3558376100
16,26,127,79,22,25,9,9,0.18,3558385000
16,116,-42,42,27,21,11,3,0.18,3558394200
-45,-128,-128,-69,-25,-16,-27,-17,0.18,3558408400
-15,-98,-128,52,0,-11,-5,-7,0.18,3558426000
16,101,-1,26,-1,-24,-4,1,0.17,3579709600
-35,-128,-128,-81,-13,-21,-4,-10,0.17,3579749300
12,17,127,43,2,5,6,4,0.17,3579759900
-2,-63,127,-7,-8,-7,2,-2,0.17,3579768000
16,6,127,73,24,5,5,6,0.16,3598335300
-10,-33,-102,-39,-29,4,-7,-6,0.16,3598352200
-16,-53,127,21,-3,-45,-5,-6,0.15,3619315100
-17,-128,-59,13,-16,-10,-20,-12,0.15,3619325600
23,125,-91,17,26,23,11,10,0.15,3619363300
-14,51,43,-55,-14,0,-6,-13,0.15,3619411100
1,-15,-128,7,-3,16,-3,-8,0.15,3619420900
59,61,-24,103,52,39,25,28,0.15,3619449900
5,15,54,67,14,4,-5,-1,0.14,3637850200
-17,33,83,-36,-16,5,1,-5,0.14,3637862200
38,73,61,91,38,32,25,16,0.14,3637870400
-4,-104,-128,-13,3,-8,5,12,0.14,3637878100
18,98,127,9,-1,0,-7,37,0.13,3659181700
0,0,4,90,4,2,-3,-43,0.13,3659215200
-37,-52,76,-69,-18,2,-1,-5,0.13,3659240100
5,77,-128,-69,-7,24,2,3,0.13,3659257200
-9,-121,104,-6,5,10,0,2,0.12,3678057300
4,-93,127,67,11,12,6,6,0.12,3678068100
-18,88,-128,-29,-9,-21,-6,-8,0.1,3719845300
21,28,92,-15,8,24,4,10,0.1,3719871900
-24,-35,-128,-39,-12,-7,-8,-6,0.1,3719906000
24,90,127,44,0,1,5,4,0.1,3719915700
45,110,-102,19,29,8,13,19,0.08,3759815100
-41,-83,66,-66,-41,-17,-22,-27,0.08,3759852200
31,-11,95,31,19,40,16,16,0.06,3800056800
0,-43,127,-14,-7,-11,-4,-1,0.06,3800069800
-6,93,25,-8,-7,-3,0,-4,0.06,3800091500
-40,-128,113,-20,-10,-5,-2,-15,0.06,3800132300
-13,-29,127,34,10,1,7,0,0.06,3800162100
-17,-128,-128,-59,-17,-1,-14,-9,0.06,3800170600
-7,43,-70,14,3,-3,1,1,0.06,3800178700
63,115,4,99,35,9,18,26,0.06,3800186700
5,-63,45,11,6,8,6,3,0.06,3800194400
-39,-57,-128,-73,-25,-24,-12,-17,0.06,3800201500
-4,-15,127,12,7,5,2,0,0.04,3837913400
-52,-108,-115,-44,-19,-19,-5,-11,0.04,3837925900
-26,-44,127,-66,-26,-6,-10,-11,0.03,3858836700
9,-89,117,24,9,6,6,8,0.03,3858850200
-30,-103,-128,-29,-18,-6,-2,-16,0.03,3858859800
12,31,-85,-37,-5,0,-6,-3,0.03,3858868200
19,97,40,21,5,25,8,6,0.03,3858875900
-35,-128,-128,-14,-7,-26,-3,-6,0.03,3858883600
8,51,127,22,-2,-5,-4,-2,0.02,3877608500
-4,18,50,-10,-2,6,5,0,0.02,3877622800
-1,3,127,24,5,2,2,0,0.02,3877631400
20,-46,-35,-3,3,1,0,5,0.02,3877645200
-7,59,-34,-1,-5,2,-6,-7,0.02,3877654100
-2,-104,124,8,-5,1,-5,-7,0.02,3877662700
11,32,-10,-8,0,-7,3,1,0.01,3899318900
-27,-42,64,-16,-7,2,-6,-6,0.01,3899360200
2,-16,127,34,10,-3,-1,0,0.01,3899377000
26,81,40,32,13,12,6,6,0.01,3899385700
0,-121,-128,-18,1,-7,9,-4,0,3918261700
-9,48,-18,-9,1,8,-10,-5,0,3918287600
-7,-9,-88,1,-4,-3,11,26,0,3918322900
12,22,-9,14,8,8,-5,-7,0,3918336400
7,-5,-54,16,7,13,9,-2,0.01,3938986500
15,7,127,22,0,-30,0,10,0.01,3938998200
33,65,-128,14,10,5,9,17,0.01,3939007000
-30,-128,-128,-16,-12,-6,-17,-4,0.01,3939015700
-10,27,20,-37,-9,25,25,-1,0.01,3939023400
-4,48,-22,7,9,31,-8,4,0.01,3939030400
11,-14,-24,14,6,-30,6,7,0.02,3960235100
31,50,-128,24,18,42,15,15,0.02,3960246100
-2,-55,88,1,1,-8,4,-3,0.02,3960290300
-14,-58,-64,-30,-14,-18,1,8,0.02,3960304000
34,21,76,35,15,37,-4,-71,0.03,3978898400
-8,-20,-128,-27,-8,8,-3,27,0.03,3978910600
7,-78,-12,-6,2,-27,44,80,0.04,3997623900
-5,13,66,11,4,41,-82,-128,0.04,3997637500
16,-29,-76,-9,-5,-54,-29,51,0.04,3997652500
8,16,-35,6,-7,-79,3,15,0.04,3997660800
14,3,-39,2,9,17,-14,111,0.05,4018807200
-9,24,-12,1,-2,4,70,-49,0.05,4018852300
-20,-13,-20,-3,4,127,68,-84,0.05,4018867200
23,47,15,3,-10,-128,-22,-24,0.05,4018875800
1,-13,44,11,-2,-75,-128,30,0.06,4037584200
20,51,-128,-17,-1,-41,26,16,0.06,4037601600
-49,-128,-35,-30,-17,8,3,-128,0.06,4037615600
2,67,127,-14,-2,-23,74,39,0.06,4037651800
22,-4,127,15,11,60,127,82,0.06,4037662000
-6,-34,-128,-2,17,114,59,-128,0.06,4037670400
-18,-36,-4,2,-26,-128,-128,110,0.07,4058795700
27,93,107,18,11,28,127,110,0.07,4058864400
-6,-127,-127,-31,2,-30,-128,86,0.08,4077731300
-2,-25,22,-39,-23,4,-128,-67,0.08,4077742500
-13,12,87,3,11,-79,127,-37,0.08,4077751700
-16,26,74,4,-17,-69,-128,127,0.08,4077759800
27,24,81,7,0,68,127,65,0.08,4077794400
-35,5,-38,-6,-8,-16,127,89,0.08,4077812400
19,2,-8,-1,1,-7,-128,46,0.09,4099071600
-19,-32,32,13,11,127,127,-27,0.09,4099084000
4,11,23,-18,-1,-38,-9,19,0.09,4099092800
-3,18,-37,9,9,16,-117,94,0.09,4099103400
-1,-74,-128,3,-4,-45,50,78,0.1,4120073200
23,63,127,0,11,127,127,-87,0.1,4120084300
-49,-61,-37,-15,-19,-128,117,-128,0.1,4120095300
-2,-14,13,7,-10,-118,-128,73,0.1,4120105400
-3,9,127,-5,-17,-29,62,13,0.11,4138624900
10,-8,-128,-7,11,35,127,42,0.11,4138635100
31,56,97,13,15,58,119,99,0.11,4138644600
-31,-100,-7,-1,-8,-52,67,-48,0.11,4138656300
21,83,80,25,12,40,-128,2,0.12,4159977200
-41,19,-13,-15,-5,93,127,24,0.12,4159990800
14,0,14,9,7,-66,-51,6,0.12,4160007500
12,-42,-49,-1,1,79,69,-64,0.12,4160017200
-40,-4,4,-10,-16,-60,-128,-33,0.13,4178086900
-6,-13,-63,1,-3,-30,127,-128,0.13,4178098000
-31,-27,127,-6,1,39,127,100,0.13,4178114900
24,60,-89,35,17,51,127,104,0.13,4178123600
4,-8,127,-6,-10,-68,-15,108,0.14,4198288800
-28,-52,-94,-55,-27,-69,-128,-128,0.14,4198301600
-13,16,-110,2,14,115,-23,38,0.14,4198313600
21,-4,83,5,-4,-68,127,57,0.14,4198321500
-11,-64,2,12,1,17,49,-23,0.15,4219136000
35,29,28,2,2,34,45,32,0.15,4219147900
43,92,30,6,3,1,-11,-37,0.15,4219156900
13,-105,-18,5,0,-9,-26,62,0.15,4219164800
-20,28,13,-5,-1,19,-22,-128,0.16,4237818100
17,-75,-5,3,10,23,121,41,0.16,4237830300
-28,-35,-16,-14,-17,-34,-89,26,0.18,4279107400
7,-13,-49,-3,2,53,127,53,0.18,4279140100
-18,8,18,-3,-8,-128,-128,61,0.18,4279185100
-2,7,16,-4,-5,34,102,1,0.18,4279200500
2,3,-55,-2,1,37,-10,-53,0.18,4279213300
-6,16,46,12,6,19,12,28,0.18,4279225200
26,38,19,22,3,5,59,-128,0.19,4297994300
-34,-68,-94,-59,-26,-29,66,-3,0.19,4298007300
-50,40,127,12,4,20,-5,17,0.19,4298016400
-6,-17,-128,-30,-7,12,-10,29,0.19,4298024400
6,-60,127,9,5,31,-12,48,0.19,4298032900
-39,3,42,12,2,-24,-4,-128,0.19,4298043800
23,50,-2,29,10,-5,12,-64,0.19,4298053600
13,-32,65,3,5,74,127,28,0.19,4298061200
-17,13,33,-28,-31,-113,-128,127,0.2,4318456800
3,96,-59,13,13,74,127,43,0.2,4318467800
-8,-84,-128,-13,-1,3,2,65,0.2,4318475800
-13,17,24,6,-2,-46,-128,-128,0.2,4318485500
-1,-7,3,5,3,-4,-128,82,0.21,4339675300
5,27,14,13,13,81,127,-38,0.21,4339698100
-15,-35,-14,-6,-7,23,26,-125,0.21,4339709700
-8,-17,-4,-3,-6,-128,-100,43,0.21,4339717400
0,8,-8,-4,-3,-44,-128,51,0.22,4359812400
3,7,-5,-7,-4,49,-10,-57,0.22,4359822800
0,-27,6,2,3,-2,120,-13,0.22,4359831200
30,-29,23,4,-3,-1,-10,20,0.22,4359885600
20,66,19,30,17,20,0,9,0.23,4377947900
-22,-113,45,-1,-7,-5,-16,125,0.23,4377961900
-26,-54,-128,-48,-19,-1,-29,54,0.23,4377970600
-10,54,97,-4,-5,-1,-11,-98,0.23,4377978200
8,70,2,23,10,-26,-64,-11,0.24,4399934800
4,-42,66,-1,0,-10,-128,86,0.24,4399945900
13,8,35,-3,-1,-5,16,-77,0.24,4399955200
10,47,18,10,9,39,127,63,0.24,4399997100
-21,1,-8,-7,-17,-118,-128,113,0.25,4418094300
4,14,5,4,1,44,-101,-42,0.25,4418109200
26,11,-6,11,11,27,-34,71,0.26,4439050600
22,3,-6,-1,-5,-59,127,53,0.26,4439067000
-16,-12,-14,-9,-16,-75,-128,-34,0.26,4439079000
5,-43,-6,1,4,73,112,72,0.26,4439087300
-1,-14,-11,-3,3,20,127,47,0.26,4439095400
24,-12,-15,-5,1,-9,-128,127,0.26,4439102800
-10,-44,-12,-4,-2,-3,-78,3,0.27,4459888500
-5,25,37,3,2,-15,-128,2,0.27,4459908700
0,8,-12,6,-6,-38,127,-4,0.27,4459925900
-3,-74,-1,-14,-3,4,101,-76,0.27,4459935900
-22,52,4,-5,-15,-16,-128,127,0.28,4478874600
-9,63,-40,-22,-11,-59,-102,-11,0.28,4478886100
-17,-55,-128,-15,-4,-4,-28,-113,0.29,4499928700
14,0,108,-12,-5,32,20,-48,0.29,4499940800
-6,12,20,12,3,-66,95,-67,0.29,4499950200
5,44,-37,0,-1,14,-52,36,0.29,4499960600
-7,1,-30,4,2,-53,-26,-69,0.29,4499970000
0,8,21,8,6,47,127,-110,0.29,4499977700
-4,-32,25,3,-4,-18,74,66,0.3,4517903500
33,-32,-33,-1,-4,1,97,30,0.3,4517914400
-21,30,19,-1,6,48,37,127,0.3,4517922900
3,-9,4,2,-1,12,108,-20,0.3,4517931400
-16,-7,5,-4,-11,-50,-128,-128,0.31,4538977100
3,25,8,1,5,12,63,127,0.31,4538995200
2,-50,-13,-4,2,51,-62,127,0.32,4557829900
-3,58,12,3,1,-55,-67,-128,0.32,4557842300
1,-65,-8,-8,2,25,127,43,0.32,4557855100
-30,-10,-39,-8,-10,-18,-128,-128,0.32,4557866500
13,-1,20,7,5,32,127,-99,0.33,4578518600
6,23,61,9,5,17,-98,-10,0.33,4578529200
11,0,-73,2,0,-2,127,46,0.33,4578537500
-26,-43,-80,-37,-18,-69,-33,1,0.33,4578546100
0,25,48,-10,-6,0,9,-18,0.33,4578554900
5,-7,84,12,6,-14,52,6,0.33,4578563400
18,-22,22,8,-1,22,-39,-41,0.34,4599521500
-6,-44,30,5,7,3,-43,25,0.34,4599532100
-28,45,16,4,-6,-5,-128,34,0.34,4599542900
14,-10,-31,0,1,26,-39,-35,0.34,4599551400
5,-2,-8,2,7,15,-11,32,0.35,4618346800
-11,5,-16,-10,-13,-44,-122,-108,0.35,4618389000
5,2,-6,-1,2,-11,38,43,0.35,4618410000
4,-11,-4,3,4,37,62,-3,0.35,4618418700
-9,6,-6,-3,-2,31,127,121,0.36,4639976400
32,18,4,0,4,-21,38,-112,0.36,4639987600
3,-84,17,3,-1,8,127,-12,0.36,4639995900
-3,24,19,4,1,-26,-128,-18,0.36,4640014100
-10,-36,-76,-9,2,24,-18,120,0.37,4658066200
-1,-95,22,-11,-10,-26,-3,-34,0.37,4658079500
7,83,37,12,3,-7,-25,97,0.38,4679580300
5,43,29,-11,-7,27,8,66,0.38,4679677400
24,-94,-110,-10,5,71,25,-43,0.38,4679714500
-32,-42,27,-11,-9,-49,-125,-128,0.38,4679725200
40,-6,10,-3,-5,-57,-40,70,0.38,4679733300
4,20,29,9,9,70,-6,-55,0.38,4679741000
-6,2,12,1,-1,-47,55,16,0.39,4698157600
16,14,-10,3,10,115,127,6,0.39,4698167700
9,25,0,4,-7,-76,-109,8,0.39,4698176000
-17,-24,-10,-3,4,68,-8,4,0.39,4698183800
8,5,0,4,5,15,-15,127,0.4,4719106900
-39,27,-9,-4,-2,36,-77,-45,0.4,4719146700
6,8,-3,-2,2,-37,-128,-35,0.41,4737582700
-42,7,6,-10,-28,-113,-128,84,0.41,4737629000
2,-74,-25,-7,-6,-11,66,-60,0.41,4737640100
-7,-4,-7,5,5,66,66,127,0.41,4737648600
13,30,20,5,0,-84,-128,89,0.42,4758741700
2,-22,2,-5,0,37,-24,24,0.42,4758752500
-6,-8,31,-3,4,32,19,26,0.42,4758761000
1,0,-5,-2,-8,-49,-57,-128,0.42,4758769900
30,11,-22,10,8,75,22,17,0.42,4758800200
-36,83,104,9,7,-39,-38,-23,0.42,4758822200
-26,-62,12,-24,-7,0,-27,-74,0.43,4779804200
-22,-8,-128,-27,-6,-53,127,-128,0.43,4779815900
-25,6,64,4,-9,-45,-128,-58,0.44,4799047900
21,57,52,13,0,-96,-84,127,0.44,4799096600
-15,14,32,5,1,48,9,127,0.44,4799110700
-10,7,10,0,-7,12,-128,-30,0.44,4799119300
13,-19,-14,3,-3,-29,-29,-20,0.44,4799128900
-11,39,-14,-2,2,4,-19,-128,0.44,4799139300
-6,-9,-23,-1,5,117,14,10,0.45,4817629400
-5,-1,-13,-6,-9,-128,41,-33,0.45,4817641900
22,11,-5,-1,1,31,-58,31,0.46,4838699500
-15,-21,-1,-1,0,57,18,70,0.46,4838720700
12,14,-1,-1,0,5,5,116,0.46,4838731900
-52,0,10,-7,-6,123,127,85,0.46,4838739800
-16,6,-56,-1,-3,-13,-13,69,0.47,4859880300
17,40,0,-2,-3,-58,-17,-30,0.47,4859916800
4,6,9,0,2,18,27,92,0.47,4859927300
-40,64,6,4,9,127,63,96,0.47,4859936500
7,-50,-25,-7,-10,-107,-9,31,0.47,4859944600
-2,79,6,-3,-4,14,120,-21,0.47,4859952800
-26,-21,-8,-4,4,84,-128,-128,0.48,4878927100
36,21,20,2,2,78,90,127,0.48,4878940700
5,20,30,9,9,54,75,-41,0.48,4878950800
-8,52,-71,-7,-2,-36,-118,121,0.48,4878958400
14,-10,-16,-3,0,-128,69,94,0.49,4897622700
32,-74,40,4,4,81,60,-128,0.49,4897653600
4,6,18,6,3,-84,127,-108,0.5,4918929000
41,15,25,14,23,43,102,127,0.5,4918940600
-54,-10,12,-1,-19,60,127,-128,0.5,4918962000
-28,1,-45,-9,-8,-128,-28,-37,0.5,4918973500
19,65,15,-1,-1,-3,-41,14,0.5,4918981700
5,-4,12,5,-4,-13,127,-128,0.5,4918989200
-24,-67,-13,-10,-3,35,127,69,0.51,4939888400
-21,20,-11,-8,-14,-91,97,83,0.51,4939900200
22,-23,5,-1,-12,-128,-128,-73,0.51,4939909400
-28,88,-1,-11,-15,-52,-128,-128,0.51,4939916900
0,-48,-3,-2,1,13,21,-128,0.52,4958724300
-18,0,-19,-3,1,57,24,121,0.52,4958735600
27,-31,-6,-1,5,46,127,45,0.53,4977648500
-14,0,38,2,-2,-100,-71,-128,0.53,4977659200
47,29,21,8,15,127,-81,52,0.53,4977668400
-8,-1,24,3,-1,-63,80,109,0.53,4977678000
26,-35,1,-1,-6,-78,116,-66,0.53,4977686400
-2,-88,3,2,7,30,127,46,0.53,4977695100
-65,12,0,-19,-14,102,-128,-128,0.54,4998654200
3,-52,-9,0,-6,21,-81,63,0.54,4998665400
-7,30,31,8,5,-4,-128,-128,0.54,4998676300
-52,-30,-16,-9,-12,-18,-105,-128,0.54,4998686000
15,83,5,4,9,42,27,111,0.55,5019427000
-5,7,24,2,0,52,75,-32,0.55,5019439200
5,-7,-40,-10,-19,-121,-128,-4,0.56,5037998000
-29,-29,-8,-6,-5,6,-66,127,0.56,5038008400
13,19,20,7,11,127,89,127,0.56,5038017300
-24,-11,9,-1,-7,-128,-57,119,0.56,5038026000
26,27,5,10,21,127,127,127,0.56,5038037700
24,75,16,7,-4,-128,-128,94,0.56,5038046000
24,-44,-14,-2,1,32,127,127,0.57,5059394800
34,127,-16,-7,-3,55,13,57,0.57,5059405700
-70,3,-6,-3,-11,-128,-128,48,0.57,5059415700
-13,21,1,-2,-4,127,-128,54,0.57,5059423900
45,22,39,9,20,-9,-103,18,0.58,5078205000
-18,-24,-119,-24,-29,-128,74,33,0.58,5078219300
18,27,24,9,26,127,127,124,0.59,5098911300
28,15,12,1,-17,-128,18,3,0.59,5098946500
33,-13,18,5,19,127,127,53,0.6,5117483400
-16,1,6,-1,-16,-128,125,-128,0.6,5117493700
-22,32,10,4,11,127,-52,-93,0.6,5117502100
31,-12,9,-3,-6,-128,-128,-128,0.6,5117510400
-4,14,-3,3,5,72,127,127,0.6,5117553900
29,-6,25,14,16,127,127,49,0.6,5117572800
-6,6,-35,-8,-18,-128,123,-128,0.61,5139034000
-31,-4,-23,-14,1,127,127,-79,0.61,5139085500
-41,10,-2,-16,-30,-128,127,-96,0.61,5139096700
36,50,22,9,7,-128,-20,30,0.61,5139106000
35,-3,17,5,7,-35,-21,-110,0.62,5158130500
-21,-39,-7,-4,-2,85,124,-39,0.62,5158142700
26,49,20,12,25,127,127,127,0.62,5158151800
5,-128,66,20,7,-128,-52,-44,0.62,5158251400
-2,47,-52,0,-10,-104,127,-128,0.62,5158266800
20,-43,-106,-13,4,127,32,126,0.62,5158278100
-28,18,41,0,11,127,-60,-91,0.63,5179406400
20,41,40,0,-19,-128,-80,-128,0.63,5179423100
-49,-69,16,4,11,127,30,-128,0.63,5179432700
-51,-26,-26,-16,-22,-127,-128,-89,0.63,5179440500
-29,10,1,-11,-23,-128,-96,127,0.64,5197780200
8,-25,18,7,14,40,-128,-128,0.64,5197826200
38,37,-6,6,-7,-128,-24,-71,0.65,5219763500
-38,-59,-18,-25,-38,-75,-128,-128,0.65,5219776100
51,-8,-28,5,10,32,-54,127,0.65,5219784600
19,105,11,15,26,127,127,127,0.65,5219792700
-35,57,5,-6,-9,-128,-45,-106,0.65,5219800300
-3,-1,18,1,2,48,-46,-128,0.65,5219808500
15,48,-15,4,5,104,-128,-128,0.66,5238260400
18,-43,-33,0,12,127,-128,92,0.66,5238271100
-14,43,36,-5,-17,-128,127,-128,0.66,5238279400
-24,-24,3,2,-12,-105,-111,-128,0.66,5238287400
21,37,28,17,24,91,127,68,0.67,5259307900
-109,-49,-3,-15,-9,79,112,105,0.67,5259351200
-9,26,-31,3,-1,-128,7,-128,0.68,5277774300
-19,-80,-36,-8,7,127,-35,111,0.68,5277803800
6,86,31,17,24,47,15,-128,0.68,5277848100
-31,56,8,4,-18,-128,-108,52,0.68,5277868200
28,28,11,4,21,127,101,127,0.68,5277880100
91,57,32,20,32,127,-84,127,0.68,5277891100
-39,-41,-21,-21,-51,-128,127,-128,0.69,5299038000
38,0,2,-1,-5,127,127,127,0.69,5299049500
-88,-8,-22,-18,-22,-57,-128,-97,0.69,5299057800
0,-37,4,-2,8,-1,17,-128,0.69,5299065700
-6,31,-10,4,7,127,-32,-126,0.7,5317569400
30,92,57,14,30,127,127,55,0.7,5317582100
-10,3,-80,-23,-31,127,7,-9,0.71,5338538200
-11,79,-47,-10,-16,-128,127,-128,0.71,5338579000
70,40,18,5,3,127,127,122,0.71,5338605800
-66,52,24,-3,11,14,-128,-128,0.71,5338616000
2,19,38,12,-13,-128,127,3,0.71,5338624100
13,69,21,-3,13,127,-128,41,0.71,5338631500
17,9,-35,-2,-18,-128,-128,94,0.72,5362114900
8,1,18,-14,-19,-18,127,58,0.72,5362125900
-2,-58,-28,-2,27,127,127,127,0.72,5362134400
-5,25,15,-3,-10,66,-128,65,0.72,5362142200
-6,18,22,-7,-10,-52,127,-128,0.73,5378634700
86,116,-40,9,15,127,-128,-123,0.73,5378646200
32,28,10,-4,-3,127,127,-128,0.74,5398195700
29,11,38,2,-8,-114,127,127,0.74,5398212800
19,-25,-40,7,26,127,-104,-128,0.74,5398226100
-45,-8,-49,-37,-51,-63,127,-128,0.74,5398239000
-20,-62,19,2,-6,-128,9,127,0.75,5418683500
11,13,38,6,9,127,15,127,0.75,5418696800
12,-105,3,-5,2,-128,127,-128,0.75,5418707600
40,-9,-15,7,-5,-128,-128,29,0.75,5418715600
3,79,-5,-1,-3,127,127,110,0.75,5418753900
2,-19,31,9,10,-58,-128,-99,0.75,5418773800
-11,-8,-20,-3,15,127,-128,-115,0.76,5440130000
-34,125,24,3,-6,-92,-128,-128,0.76,5440140600
62,-12,2,-1,-42,-128,127,-115,0.77,5459381700
-4,-85,0,-7,-6,127,-128,37,0.77,5459412400
-25,16,-12,-10,-10,127,-128,16,0.77,5459448300
-17,32,6,2,5,127,-94,-128,0.77,5459460500
64,-67,-3,-3,-15,79,-128,0,0.78,5477938100
53,51,-4,5,6,-50,127,42,0.78,5477949000
-64,-39,-16,-13,-25,-94,29,-128,0.78,5477958300
-85,-40,40,-11,-16,-128,-128,-128,0.78,5477966000
9,21,-28,1,5,-33,-61,117,0.78,5477973700
5,-7,45,-6,-28,-128,-128,-128,0.78,5477981400
50,28,-1,5,-9,-128,82,88,0.79,5499011900
60,23,-40,6,20,127,-116,65,0.79,5499023000
-107,93,-10,-28,-32,-128,-16,-128,0.8,5517441400
41,-17,5,4,5,127,-103,127,0.8,5517453300
76,127,55,31,37,98,127,127,0.8,5517481300
68,-1,21,29,37,-128,127,127,0.8,5517506900
5,-101,-7,-13,-9,23,-128,-25,0.81,5538870000
-6,-73,15,7,5,-29,-128,127,0.81,5538882600
-53,20,-13,-3,5,127,127,-83,0.81,5538891400
27,118,32,11,6,-43,-128,89,0.81,5538901400
-26,77,-4,0,-1,-128,-14,-128,0.81,5538911300
6,1,-25,-9,0,-128,-6,-128,0.81,5538921900
10,-12,-1,-2,1,-128,-50,-128,0.82,5559755900
51,11,25,6,10,-31,89,-128,0.82,5559767300
3,94,47,6,-16,-73,127,127,0.83,5578237600
-23,-58,-105,-1,10,127,34,-128,0.83,5578270500
-17,-9,-26,-27,-9,127,127,127,0.83,5578280000
-96,-48,3,-20,-31,54,-128,58,0.83,5578289600
-71,-42,-12,8,10,127,68,-128,0.84,5599234000
-42,-55,-1,1,0,-128,-5,127,0.84,5599245100
-2,-21,27,0,-14,-82,127,5,0.84,5599257300
-5,9,-3,-10,-13,-128,-128,42,0.84,5599266800
-27,33,86,21,36,127,84,-128,0.84,5599274600
69,-16,8,10,9,-128,74,-27,0.84,5599281800
-97,87,15,-3,6,127,-40,-12,0.86,5639068000
-52,35,-71,-15,-25,-128,92,-128,0.86,5639114400
-13,47,20,2,7,127,-50,-128,0.86,5639125200
23,-10,-27,0,0,112,10,-50,0.86,5639133600
2,42,20,1,-11,-128,-62,-128,0.86,5639141000
40,23,-20,0,0,127,-31,60,0.86,5639148300
-114,-128,-2,-6,8,111,-128,-128,0.87,5657595400
-58,52,-11,-22,-36,-128,-26,-128,0.87,5657607400
-64,42,9,-6,-7,-52,-106,-8,0.87,5657640500
24,18,18,6,6,127,-128,-128,0.87,5657665500
-32,4,-74,-12,-13,-128,127,127,0.88,5678708100
-6,116,32,14,37,127,127,-71,0.88,5678721600
-40,8,-3,-9,-21,-128,-128,-128,0.89,5697874900
24,34,24,10,19,127,-124,0,0.89,5697891700
-50,-80,17,-5,-10,-128,-22,-18,0.89,5697901200
0,-121,-32,-17,-16,83,72,-128,0.89,5697910600
53,2,42,14,17,120,127,-41,0.89,5697921800
-40,-31,-21,1,5,127,-128,-27,0.89,5697933100
-99,-7,-30,-29,-24,-128,-97,-128,0.9,5719342600
-15,-11,0,5,1,-128,127,-112,0.9,5719354500
21,16,11,2,5,-121,127,-38,0.9,5719389100
-3,-14,-67,-4,-7,88,-128,57,0.9,5719409700
-11,16,12,2,1,-16,-75,70,0.9,5719418500
-6,19,34,9,18,127,-60,127,0.9,5719426800
-45,-42,9,1,-17,-128,127,-128,0.91,5737791800
-5,44,11,1,-10,-128,-128,-12,0.91,5737837400
-8,-1,-3,0,14,80,15,39,0.92,5759048700
16,-33,2,18,24,127,-13,127,0.92,5759059800
36,17,23,-2,-4,-128,64,27,0.92,5759104000
44,26,14,7,9,127,-48,0,0.92,5759114300
29,87,18,7,7,-97,6,-33,0.93,5777753200
-11,-4,9,4,11,127,127,72,0.93,5777765400
-27,15,-1,2,6,33,-37,-128,0.93,5777775000
43,69,16,1,-7,-128,127,127,0.93,5777783600
0,-16,-24,-13,-19,-128,35,127,0.93,5777791900
13,33,7,-5,-8,111,-79,63,0.93,5777800200
-5,97,3,3,7,106,-7,-3,0.94,5799689100
3,20,11,2,8,127,8,-80,0.94,5799704300
1,11,3,1,-1,-26,-69,-66,0.95,5818437300
29,49,-11,5,8,66,-45,81,0.95,5818448800
25,43,52,2,1,-57,-71,127,0.95,5818458000
-48,-92,-31,1,5,-80,19,-128,0.95,5818465700
-15,-8,-31,-6,-7,57,-87,-128,0.96,5839486300
-8,57,-9,-4,-4,-25,-55,4,0.96,5839500400
-7,-6,-22,-9,-5,19,-72,-20,0.96,5839509800
27,6,36,9,8,118,-41,46,0.96,5839518700
21,-1,30,0,-3,-48,-18,31,0.96,5839526600
5,-1,-21,-5,-1,-43,-11,-15,0.96,5839534000
-8,-9,12,-3,2,51,4,-29,0.97,5858007900
-5,14,22,6,7,-54,-128,1,0.97,5858058500
21,31,-3,5,16,-128,-56,-41,0.98,5879633400
-30,4,-10,-4,-5,127,-128,-128,0.98,5879645200
4,-15,10,4,1,-15,18,17,0.98,5879683400
-56,-18,-11,-5,-7,-128,-128,-119,0.98,5879701600
-24,-29,1,-4,-7,127,39,127,0.99,5898606900
12,-63,-79,-10,-1,73,-50,-11,0.99,5898619700
43,-89,12,-2,2,113,-54,-15,0.99,5898629000
-5,-18,11,-2,-4,-128,42,-16,0.99,5898637100
16,18,32,7,1,21,1,2,0.99,5898645400
-2,-20,-4,0,3,17,13,-4,0.99,5898652900
5,-1,-10,0,-3,-11,0,-11,0.98,5920050400
-3,-13,-2,0,-4,-4,1,-6,0.98,5920062600
-3,-7,2,0,0,-8,-2,-4,0.97,5939439500
0,13,20,2,5,0,-12,-2,0.97,5939450300
-10,-26,17,1,-2,46,20,-17,0.97,5939462000
-7,-1,-31,0,-7,-128,74,-91,0.97,5939472300
-3,-4,21,-8,-6,45,-5,-1,0.96,5958750500
0,9,-15,-7,-3,44,-9,-10,0.96,5958762900
-5,17,56,4,4,114,-1,-5,0.96,5958773900
-9,-2,67,7,7,25,-14,49,0.96,5958783500
8,-26,-128,-2,-3,-91,52,24,0.95,5979792600
6,35,49,-1,4,10,4,94,0.95,5979804800
22,98,59,2,-3,-12,-2,18,0.95,5979821700
2,-72,15,5,4,21,2,12,0.95,5979856200
1,3,1,-5,4,30,-1,5,0.94,5998161600
5,-13,-13,-3,-3,15,2,-3,0.94,5998177300
-16,-128,-20,-8,-7,1,-3,-13,0.94,5998188700
12,32,30,5,2,4,2,0,0.94,5998196700
-3,1,86,13,1,-24,-3,-7,0.93,6019266600
0,-5,-48,1,-6,-35,2,-4,0.93,6019277100
-19,-52,-128,-42,-14,-52,-6,-11,0.93,6019287000
0,-6,8,-6,-4,-83,1,2,0.93,6019306500
-15,4,39,10,12,16,-13,-19,0.92,6037921900
9,4,58,8,-1,-128,-44,-3,0.92,6037933000
1,24,39,10,2,-10,5,-31,0.92,6037941700
3,-21,-23,0,2,125,-18,-7,0.92,6037950500
-4,-2,-27,-7,-7,28,-7,-4,0.91,6059690700
-10,17,24,0,-1,102,7,-4,0.91,6059710700
0,5,0,0,-1,43,-3,-1,0.91,6059720800
6,19,34,6,4,29,-2,1,0.91,6059730200
1,-1,-64,6,2,17,-2,-2,0.9,6077919800
-18,-55,-128,-28,-4,1,-8,-9,0.9,6077933300
-3,-10,73,-10,-6,-4,-2,-1,0.9,6077943200
3,7,29,5,-1,-6,3,3,0.9,6077953600
7,-18,22,-3,-2,-18,-3,-1,0.9,6077963500
-1,-12,5,0,0,-30,-2,-3,0.9,6077970700
30,19,110,15,3,-36,2,5,0.89,6099069200
6,30,-28,8,0,-30,1,2,0.89,6099080300
-5,-99,-34,-19,-8,-35,-8,-4,0.88,6117562200
-4,-11,-91,4,3,-32,-4,-4,0.88,6117574400
-8,28,68,-9,1,11,9,-1,0.88,6117583600
-3,16,-90,-12,-5,34,2,-3,0.88,6117626300
-30,53,56,4,-6,-93,8,-5,0.87,6139066200
43,40,18,5,1,40,-3,3,0.87,6139080100
3,5,-37,2,2,67,-3,1,0.87,6139089200
2,13,10,1,3,63,-5,-1,0.87,6139097200
1,8,25,0,-1,57,1,3,0.87,6139179300
-5,-10,-15,-6,-2,20,1,4,0.87,6139202800
6,7,38,3,1,13,-2,2,0.86,6160010300
-1,5,43,3,2,16,10,3,0.86,6160024900
-2,-7,-35,4,-2,5,-2,0,0.85,6178495900
-25,-56,-52,-24,-9,-5,-7,-12,0.85,6178533100
-22,-70,52,-11,-7,-3,-6,-12,0.85,6178553300
-1,23,-8,3,4,-5,1,1,0.85,6178562200
-3,-24,18,-5,-4,-7,-3,-1,0.84,6197489100
5,7,51,20,2,-1,-2,1,0.84,6197525400
0,18,94,17,7,-11,2,3,0.84,6197535200
6,0,-101,-12,-6,-22,28,3,0.84,6197574700
-13,-19,-58,-16,-6,-18,-7,-6,0.83,6218731900
-12,-30,-79,-13,-10,-69,-12,-9,0.83,6218747000
8,35,71,4,-1,20,13,3,0.83,6218756100
7,29,73,10,6,-2,4,5,0.83,6218798100
-16,-42,-90,-16,-3,10,-20,-3,0.82,6239845000
-2,22,47,4,-3,8,39,-3,0.82,6239858700
6,10,16,10,1,-6,-4,3,0.82,6239867000
10,27,7,5,-1,27,1,5,0.82,6239874700
12,-6,39,7,2,27,2,2,0.81,6259252100
-13,-22,-59,-8,-4,13,0,-6,0.81,6259264800
21,26,28,-8,-7,7,-3,-2,0.81,6259282300
16,2,-32,0,3,6,2,9,0.81,6259297300
28,47,69,10,5,4,3,5,0.81,6259306100
5,25,-74,-16,-9,-4,-6,-1,0.81,6259313900
-5,-29,43,1,0,-1,-2,-2,0.8,6278288900
-8,-31,-128,-11,-6,-6,-2,-4,0.8,6278302700
5,2,107,1,-1,-3,-1,-3,0.79,6299661100
8,16,10,7,2,-1,3,4,0.79,6299697400
5,22,127,20,7,-2,-1,1,0.79,6299723300
6,2,-128,-5,-2,-11,-3,2,0.79,6299733700
-15,-62,-77,-26,-10,-7,-6,-10,0.78,6317968900
-6,5,86,8,-1,4,3,0,0.78,6317981700
8,14,17,5,4,-8,-2,-1,0.78,6317990200
-4,-9,-26,-10,-3,3,13,-3,0.78,6317998400
-1,3,38,2,-3,-11,-5,-3,0.77,6339349000
2,6,-26,-4,-2,-5,3,1,0.77,6339360500
0,22,27,9,2,-14,3,1,0.77,6339368700
3,-16,-39,0,-2,-2,15,-7,0.77,6339376200
-6,-12,-60,-11,3,-12,-2,-3,0.76,6358187600
3,8,-72,-2,-2,14,-6,-3,0.76,6358245900
5,13,48,2,0,-1,4,1,0.76,6358266500
2,8,32,6,-1,7,0,3,0.76,6358274600
33,-2,4,3,0,6,-3,2,0.75,6379624400
-3,-16,-13,3,-1,5,-2,0,0.75,6379674500
28,-18,87,-2,-8,2,-9,-5,0.75,6379685700
-11,-44,-128,-25,-5,0,-4,-9,0.75,6379694500
-17,2,-19,0,1,5,-3,-2,0.74,6397820500
23,46,9,10,6,1,3,4,0.74,6397835100
0,-26,25,12,2,-1,-2,-3,0.74,6397843800
-7,-15,7,-8,-2,-9,-5,-5,0.74,6397853000
5,16,-50,2,-1,0,4,1,0.73,6419234100
-10,-23,-35,-14,-6,-3,-1,-3,0.73,6419304900
-7,1,63,3,0,-1,-1,-2,0.73,6419329100
3,1,15,6,0,-5,-2,1,0.73,6419341800
6,29,-51,-7,1,-5,7,2,0.72,6437700500
-3,-10,38,6,2,16,-3,-2,0.72,6437711500
2,-1,90,-1,0,-14,-3,0,0.71,6459200400
6,16,-10,7,2,-2,2,3,0.71,6459210500
-5,13,65,-3,-2,-3,-1,-3,0.71,6459219400
-3,-4,-84,-11,-2,-5,-3,-4,0.71,6459229200
-6,-8,61,-8,-2,-4,-1,-6,0.7,6478448900
5,16,73,19,4,0,2,6,0.7,6478466900
1,-1,-50,0,2,1,4,-1,0.7,6478490300
6,-7,-38,-6,-4,13,8,1,0.7,6478501900
-14,-36,-77,-15,-9,-18,-12,-9,0.7,6478510500
-5,21,26,-12,-4,-2,-3,-1,0.7,6478520000
6,20,50,13,1,4,3,2,0.69,6499414000
13,17,-24,18,8,14,-14,2,0.69,6499425800
-18,-28,-35,-13,-7,-29,-3,-2,0.67,6539451000
-7,-14,-64,-23,-5,19,-8,11,0.67,6539463600
6,19,62,16,-1,-22,14,4,0.67,6539476500
9,11,-40,-1,0,-24,-4,2,0.67,6539487300
6,19,60,22,7,10,5,1,0.67,6539496400
-17,-28,-70,-46,-13,-1,-4,-5,0.67,6539504300
5,-5,29,9,2,8,-3,-4,0.66,6558741800
2,40,63,8,-2,0,1,-1,0.66,6558752300
2,-1,74,1,0,0,1,0,0.66,6558760400
-4,12,-5,4,2,2,-2,0,0.66,6558768900
24,11,-13,-8,-4,-3,0,2,0.66,6558776400
-4,5,-67,-1,2,-6,2,-3,0.66,6558783800
-16,-55,24,-8,-6,7,-14,-8,0.66,6558791800
-3,0,-8,5,1,-2,-7,-1,0.66,6558799000
-2,2,-3,-11,-6,2,1,-1,0.65,6579721900
7,1,42,6,-1,-3,-1,2,0.65,6579744100
-13,-43,-1,-6,-4,11,2,-5,0.64,6598243400
3,12,-107,-5,-2,1,-16,-5,0.64,6598291200
4,-32,2,1,1,-41,-7,-2,0.64,6598302400
0,7,6,7,-1,0,1,-1,0.64,6598310400
-2,7,86,9,-1,7,1,-2,0.63,6617601600
4,-4,-39,3,2,8,2,4,0.63,6617617400
-7,7,46,-19,-8,2,-4,-7,0.63,6617630400
-4,-12,15,-6,-3,0,-4,-3,0.63,6617641000
2,-6,4,8,4,3,4,1,0.63,6617649900
3,-2,12,9,1,-1,-3,-3,0.63,6617658300
-3,1,-49,-6,-7,-10,-6,-1,0.62,6639186900
4,-6,-22,-4,-2,-4,4,-1,0.62,6639198900
-9,-17,46,-14,-5,0,-3,-7,0.62,6639208100
-3,-12,56,-8,-2,22,4,-1,0.62,6639218000
11,27,47,23,5,-21,-9,3,0.62,6639226600
7,8,-1,13,8,-7,4,-1,0.62,6639234900
-2,-4,-53,-25,-6,5,-3,0,0.61,6657637700
-11,-22,-21,-7,-1,5,-2,-4,0.61,6657648900
-3,-12,-128,-16,-5,-8,1,-1,0.6,6678703300
1,-3,127,18,1,2,0,-2,0.6,6678716200
6,46,100,31,9,4,8,5,0.6,6678763200
-36,-14,8,-38,-17,-13,7,-7,0.6,6678774200
-1,-9,8,6,-1,-3,-26,-4,0.59,6697661000
11,30,40,13,7,18,5,3,0.59,6697681700
2,-14,-50,2,-2,-20,1,0,0.58,6718677900
1,8,12,-1,0,-15,5,4,0.58,6718689200
-3,-22,-99,-10,-5,12,0,-8,0.58,6718698100
-6,11,-35,-2,-1,4,-2,12,0.58,6718706400
6,12,55,11,3,1,-1,3,0.57,6740246200
-6,-17,-71,-2,-2,7,-2,-5,0.57,6740259100
5,11,26,5,0,7,10,35,0.57,6740269900
-20,31,60,-12,-2,-3,-3,-12,0.57,6740285700
-8,-55,-128,-20,-8,-6,-3,-1,0.57,6740320100
7,20,123,4,4,8,6,7,0.57,6740329600
-14,19,-43,-20,-8,-4,-5,-1,0.56,6758825100
4,-12,-128,0,1,-3,2,10,0.56,6758838300
-7,-6,68,-4,-3,-1,-7,-24,0.55,6777752600
24,37,39,25,10,4,5,9,0.55,6777777200
-12,-29,20,-10,-4,-10,-3,-5,0.55,6777812700
-8,-12,-59,-10,-3,-5,-7,-5,0.55,6777821700
7,16,22,1,4,7,2,0,0.54,6798762300
1,-8,-29,11,-1,4,10,1,0.54,6798799500
-1,13,-6,-8,-1,-11,-29,-6,0.54,6798810100
-3,13,95,8,2,5,-4,4,0.54,6798819400
-7,-24,-99,-6,-3,-2,10,5,0.53,6817530400
3,5,-19,4,-1,4,3,3,0.53,6817561800
12,26,49,8,0,2,1,1,0.53,6817599100
4,-9,44,0,-2,13,0,37,0.53,6817616300
-29,-24,-128,-16,-3,-3,0,-80,0.53,6817628000
-4,6,-53,-3,-1,9,-5,-5,0.53,6817641900
3,-4,100,0,-5,-24,-1,0,0.52,6839109000
-1,7,-128,6,-1,5,2,1,0.52,6839119100
0,-18,127,3,2,23,15,5,0.52,6839127000
-2,17,29,-4,-5,-17,-13,-4,0.52,6839135000
-2,-1,-52,0,1,-1,0,3,0.51,6858267500
-6,-20,-128,-1,-2,2,-3,-11,0.51,6858279500
4,11,-49,3,2,4,2,0,0.51,6858288000
-8,-13,22,-4,-3,-4,-2,-5,0.51,6858295700
11,24,39,22,7,7,8,6,0.5,6879442100
-2,-1,127,-21,-7,-4,-4,-2,0.5,6879455300
-5,-30,-49,-3,-2,2,-4,-3,0.49,6897811200
2,20,-128,1,2,-1,0,-1,0.49,6897823700
0,-16,10,-5,-3,-2,-3,-2,0.49,6897870200
46,11,-62,15,5,4,0,4,0.49,6897883000
15,30,39,-9,-6,-3,-1,0,0.49,6897891600
-15,-40,45,-13,-5,3,-2,-8,0.49,6897899400
15,33,-5,13,4,8,-10,2,0.48,6919409400
-6,-29,-98,-9,-5,-9,-2,25,0.48,6919444800
-5,5,-42,-8,-4,-11,2,-5,0.48,6919454300
5,-4,20,9,3,-21,1,2,0.48,6919463000
2,5,127,8,4,13,2,5,0.47,6938689000
0,18,-128,-4,-5,-9,-3,-5,0.47,6938723400
-1,-29,92,12,5,10,-1,4,0.47,6938734100
-7,-15,24,-21,-8,2,-4,-5,0.47,6938743000
8,11,-37,19,6,5,0,9,0.46,6957835200
-15,-20,-31,-18,-9,-2,-5,-9,0.46,6957846400
2,-3,19,-5,0,3,0,-2,0.46,6957854400
6,10,78,12,-1,-2,0,1,0.46,6957862200
0,-5,-62,6,3,0,-1,1,0.45,6979190300
-1,5,-94,-10,-1,1,4,-2,0.45,6979200200
19,40,127,36,7,8,-2,4,0.45,6979208600
-45,-109,-128,-66,-28,-20,-11,-21,0.45,6979217600
6,18,39,-17,-5,18,12,1,0.44,6997771900
-15,9,91,9,4,-11,-19,0,0.44,6997783600
-2,23,-12,-3,1,1,11,-1,0.44,6997825800
10,27,121,32,8,6,5,7,0.44,6997847900
-2,-15,-90,-6,-4,-15,1,-4,0.43,7018719500
-3,7,-102,-2,1,4,-4,-1,0.43,7018757900
0,-12,-59,-9,-4,14,-3,-6,0.42,7039796800
-8,15,11,-3,-1,4,3,-10,0.42,7039812300
7,3,1,6,3,-3,0,2,0.42,7039820900
6,25,32,12,3,1,-3,-2,0.42,7039828300
1,8,-40,-4,-1,0,6,0,0.42,7039835700
-2,-5,-3,-1,-2,1,-3,0,0.42,7039843100
-8,1,7,-20,-5,-3,-1,-3,0.4,7079909400
-3,-22,-119,-14,-2,12,15,-1,0.4,7079920900
-11,-25,32,-16,-7,-4,-2,-6,0.4,7079930000
6,46,111,16,4,-5,-7,-2,0.4,7079940500
3,-16,22,2,5,6,16,1,0.4,7079949800
0,2,-34,-3,-2,-4,0,1,0.4,7079957400
-2,10,88,-2,0,34,1,-1,0.39,7098671900
3,-29,-95,15,4,-38,-30,2,0.39,7098697400
-7,-6,-73,-26,-11,-18,-7,-14,0.39,7098733700
-10,9,-128,-15,-7,7,2,-3,0.39,7098743800
-3,-3,25,-4,0,6,0,-1,0.39,7098751900
3,-28,-21,4,-4,3,-1,1,0.39,7098761000
21,46,11,10,8,12,3,10,0.38,7117591500
-12,-34,35,0,-3,-4,-6,-2,0.38,7117603700
-2,-4,-128,-14,-7,1,4,-4,0.38,7117613300
9,44,127,8,5,5,0,1,0.38,7117623700
-8,-36,-70,-5,-8,-5,-8,-7,0.37,7138670600
22,52,114,36,12,5,13,6,0.37,7138686800
-8,-38,-128,-38,-14,-8,-9,-8,0.37,7138698200
-4,0,-37,46,7,0,3,-2,0.37,7138706700
-9,-54,122,-38,-10,5,-15,-8,0.36,7157851000
-2,-5,101,-18,-1,42,18,-3,0.36,7157863200
2,-30,-38,2,0,-40,-3,-7,0.36,7157871600
0,-12,26,-8,-8,-28,-10,-3,0.36,7157915400
5,11,-14,15,3,-5,3,3,0.34,7198157300
7,52,127,16,1,-10,1,2,0.34,7198169000
0,-7,22,8,0,10,-3,-1,0.34,7198179400
-27,-89,-7,-57,-19,-4,-12,-13,0.34,7198189500
-7,19,2,1,3,10,3,1,0.34,7198197300
14,27,-22,18,8,5,4,4,0.34,7198204900
1,-28,-70,-10,1,2,0,-2,0.34,7198212900
-3,73,7,22,8,3,18,6,0.34,7198220700
-23,-35,-128,-36,-14,-14,-19,-20,0.33,7219134400
-1,-20,-83,7,3,-2,5,2,0.33,7219146300
-8,-39,38,-7,-1,-4,-3,0,0.33,7219155100
7,20,127,24,5,12,1,3,0.33,7219162900
1,16,96,9,1,1,4,2,0.32,7238049200
-7,16,-128,8,-1,6,-5,0,0.32,7238060900
-3,10,127,0,-1,5,0,-2,0.32,7238072700
-3,-58,-128,14,2,-11,-3,0,0.32,7238081300
12,19,42,16,1,-2,0,1,0.31,7259327300
-3,6,72,5,0,4,3,-1,0.31,7259341500
22,99,127,55,21,-16,-18,9,0.31,7259351500
-41,-128,-128,-94,-31,26,-14,-19,0.31,7259360800
-2,0,127,-32,-13,-97,-12,-10,0.3,7278283900
0,-3,-128,15,5,2,7,1,0.3,7278307200
-12,-7,-4,-18,-7,3,-3,-5,0.3,7278316100
-10,-85,84,-7,3,11,4,-4,0.3,7278323900
-29,-93,-128,-26,-15,9,-7,-12,0.29,7299575600
0,17,27,22,11,-6,4,2,0.29,7299587600
-26,-72,-73,-48,-27,-12,-11,-15,0.29,7299598900
5,23,-16,16,8,-7,4,4,0.29,7299608700
13,41,18,29,9,-1,1,2,0.28,7318052700
-1,-27,-58,2,5,-2,-1,0,0.28,7318063800
-5,3,-71,-5,-10,-7,-6,-5,0.28,7318073500
1,37,127,-26,-9,-6,-2,-2,0.28,7318081400
7,39,-128,12,7,1,2,5,0.27,7339523900
-5,-100,-64,-30,-8,4,2,1,0.27,7339535200
-1,-13,127,21,4,-10,1,0,0.27,7339543500
33,76,-70,66,25,15,11,14,0.27,7339551200
-29,-16,68,-86,-42,-26,-11,-22,0.25,7379143500
23,28,127,100,29,3,-15,11,0.25,7379157500
-21,7,-84,-68,-19,-10,-5,-15,0.25,7379166100
10,13,127,6,7,2,8,7,0.25,7379174900
-1,37,-128,-35,-1,-2,-23,5,0.24,7397683100
6,30,94,38,8,-7,-13,1,0.24,7397798200
-30,-62,-128,-68,-20,-10,-9,-17,0.24,7397810500
26,42,127,59,17,7,10,12,0.24,7397824100
-41,-38,-128,-77,-36,-15,-12,-21,0.24,7397835200
1,-14,-60,-35,-5,5,3,-1,0.24,7397843300
27,7,127,85,33,6,9,12,0.23,7419316800
-23,-4,127,-58,-32,-10,-11,-15,0.23,7419328300
21,44,-128,17,10,15,10,12,0.23,7419339400
13,44,127,54,10,-1,-1,0,0.23,7419350500
-21,-46,-128,-62,-19,-5,0,-9,0.23,7419360500
-6,-76,75,-45,-11,1,0,-2,0.23,7419368100
-18,-39,127,10,1,3,-1,-5,0.22,7437789700
16,112,3,-33,-4,8,4,10,0.22,7437800700
23,53,127,29,12,2,11,8,0.22,7437809400
-37,-93,-25,-61,-20,-6,-12,-16,0.22,7437827200
41,125,127,89,25,13,7,19,0.21,7458689300
-3,-128,-128,-14,-7,-7,-4,-1,0.21,7458701000
-23,36,127,-44,-13,-11,-8,-11,0.21,7458710000
13,15,110,20,13,20,5,2,0.21,7458718000
-9,-67,127,26,6,-9,-1,-3,0.2,7480019800
-20,96,-128,-109,-23,-10,-9,-10,0.2,7480032000
10,88,127,5,6,1,3,1,0.2,7480075000
2,-121,40,-55,-20,-6,-2,1,0.2,7480091600
-9,-54,-103,22,1,-1,-2,0,0.19,7498675500
53,110,127,117,45,5,22,25,0.19,7498688100
6,8,80,44,3,-4,-1,1,0.19,7498697000
-52,-65,127,-80,-41,-27,-19,-24,0.19,7498706900
27,47,-128,34,20,16,6,9,0.18,7517558100
-30,-128,-128,9,2,2,-7,-13,0.18,7517568100
52,43,-128,1,-4,10,2,0,0.17,7538260900
17,90,-128,-7,10,2,-1,30,0.17,7538295400
13,49,13,26,19,31,2,4,0.17,7538305700
-13,-91,-128,-32,-30,-81,-9,-24,0.17,7538314200
-47,1,127,17,-7,-14,-5,-14,0.16,7560046800
-26,-117,-128,-80,-24,1,-10,-8,0.16,7560058000
46,127,-115,79,31,18,12,17,0.16,7560066500
15,1,-128,96,29,3,6,8,0.16,7560076100
-7,-63,-128,-30,-26,-9,-10,-11,0.15,7578771300
-16,-71,31,-37,-13,4,0,-3,0.15,7578783400
-13,9,-128,-6,3,5,-2,-3,0.15,7578805500
15,127,46,13,15,6,9,11,0.15,7578854400
-33,-128,127,-46,-31,-22,-13,-19,0.14,7599779600
-30,-54,-128,16,13,12,0,-10,0.14,7599792400
28,127,127,59,20,-1,9,7,0.14,7599801000
-48,-128,-128,-86,-44,-15,-22,-25,0.14,7599817100
-16,-85,-128,10,1,7,-3,-5,0.13,7619418200
33,120,127,36,12,3,10,14,0.13,7619429200
11,-15,-44,13,12,3,9,0,0.13,7619438000
18,102,0,-31,-8,0,-4,24,0.13,7619447000
-33,-39,127,56,8,0,0,0,0.13,7619456700
-57,-128,-128,-128,-47,-24,-17,-22,0.13,7619466100
1,-3,-128,-71,-27,10,-6,-6,0.12,7637659000
4,-76,79,48,24,-14,2,5,0.12,7637671300
-20,-75,-128,11,14,6,3,-1,0.11,7659675500
24,-111,127,115,27,6,9,11,0.11,7659688600
-30,-42,19,-60,-36,-17,-15,-20,0.11,7659698400
29,62,-68,60,24,13,8,13,0.11,7659706300
43,83,127,82,23,2,10,17,0.1,7678927300
-25,-93,-128,-64,-18,8,-14,-15,0.1,7678939900
-37,-87,-128,-58,-19,-13,-9,-16,0.1,7678957200
1,6,98,2,4,3,2,0,0.1,7678995500
28,119,-19,16,15,5,9,12,0.1,7679011600
-1,-54,-128,13,-2,-6,-12,-4,0.1,7679019900
-24,-128,110,-26,-13,1,-4,-11,0.09,7697541300
-17,-74,-128,-29,-7,4,-5,-7,0.09,7697555800
24,50,78,56,16,-37,4,11,0.08,7718616500
-27,-20,127,-25,-18,1,-13,-15,0.08,7718639300
11,107,-128,-43,-6,0,3,5,0.08,7718649100
-18,-32,-91,-19,-9,0,-5,-7,0.08,7718658100
-33,-45,-128,-26,-11,-13,-2,-7,0.08,7718666000
-42,-50,127,-75,-30,-22,-14,-18,0.08,7718673200
10,19,-128,13,13,18,2,3,0.07,7739801100
47,41,127,75,33,11,16,19,0.07,7739815000
-33,-128,-128,-62,-26,-12,-9,-15,0.07,7739823900
54,73,127,8,-4,-5,-2,1,0.07,7739831700
-12,-68,-128,-5,-9,-13,-1,-12,0.06,7758231200
-10,-57,83,4,1,13,-7,-10,0.06,7758246800
-3,-4,36,-31,-12,-10,-4,-3,0.06,7758255200
13,-6,7,6,7,3,7,8,0.06,7758264800
-22,-89,-36,-33,-14,-16,-7,-13,0.05,7779475400
-24,-44,-128,-64,-9,7,-2,-10,0.05,7779495600
17,53,57,44,18,5,7,9,0.04,7798150800
30,86,56,97,27,7,7,12,0.04,7798191800
-26,-20,21,-37,-20,-32,-14,-17,0.04,7798202200
-4,34,-5,-3,-1,1,0,0,0.04,7798210700
-2,-53,127,15,7,2,-1,-1,0.04,7798218100
17,30,-99,24,7,10,7,3,0.04,7798225600
25,97,63,33,11,2,6,13,0.03,7818797900
-23,-76,52,-19,-14,-7,-4,-7,0.03,7818814800
-8,-4,-128,-16,-6,0,3,2,0.02,7837721300
-1,52,30,-1,-2,13,-23,-2,0.02,7837733100
5,18,127,8,4,3,-3,-5,0.02,7837741800
32,45,118,36,25,13,12,13,0.02,7837815300
3,110,-128,-9,-1,1,0,-3,0.02,7837855900
-25,64,-61,-77,-33,-14,-13,-15,0.02,7837866400
-3,-9,-34,25,5,4,2,6,0.01,7858911300
18,-113,-31,46,21,9,6,7,0.01,7858923200
-20,-26,4,-23,-10,-1,-3,-6,0.01,7858934600
26,104,14,16,7,8,6,8,0.01,7858942900
-20,-94,127,-22,-13,-3,-3,-17,0,7879982600
4,-13,42,7,5,-3,-3,-2,0,7879997200
-3,2,39,12,0,2,17,19,0.01,7898561000
11,8,12,10,10,9,0,12,0.01,7898582700
-4,-1,107,-16,-6,-6,14,-22,0.01,7898594100
6,28,-42,-3,-3,2,3,14,0.01,7898652000
-2,11,9,-9,-7,0,-31,-12,0.02,7919708500
2,-1,-79,7,-2,-40,-8,46,0.02,7919721400
-11,-19,33,6,2,12,60,-62,0.02,7919745900
23,44,33,33,15,32,12,14,0.02,7919755900
-4,-37,-29,-14,0,-12,-4,-7,0.02,7919766000
-29,45,-71,-42,-16,-9,-7,-42,0.02,7919775200
2,-60,122,23,5,13,-1,7,0.03,7937741900
5,2,-64,-8,-3,6,4,-34,0.03,7937752700
37,52,-40,35,19,11,19,49,0.04,7958997600
-21,-26,-46,-28,-11,-11,-5,-84,0.04,7959013500
-27,-80,-128,-59,-24,-11,-13,-21,0.04,7959022300
0,-15,25,5,-4,-18,-23,13,0.04,7959030500
5,-39,44,18,6,21,7,5,0.05,7977470500
17,48,-93,-5,13,93,32,48,0.05,7977481300
-7,-30,116,-4,-17,-120,-19,-52,0.05,7977490400
15,52,-42,9,2,-5,41,-39,0.05,7977497900
8,29,54,6,13,93,94,112,0.05,7977506900
0,-47,-4,-9,-1,-27,63,-67,0.05,7977516400
-17,-27,26,-3,-20,-112,-14,-26,0.06,7997696000
1,4,69,-10,7,115,97,127,0.06,7997734200
5,13,3,0,-14,-82,-66,11,0.07,8017979200
-5,-1,-12,6,6,31,10,84,0.07,8017991000
0,-5,-9,1,3,64,-25,-2,0.07,8018002000
2,5,0,4,4,-5,59,70,0.07,8018010400
-11,-36,-117,1,6,16,-4,-64,0.07,8018018400
-27,5,127,10,-8,-52,-102,-22,0.07,8018026500
-15,-73,-128,-53,-23,-6,13,1,0.08,8039317300
-10,111,22,6,7,9,-3,8,0.08,8039330200
16,6,102,25,7,27,36,-26,0.08,8039339200
14,58,-34,-8,6,60,-53,-49,0.08,8039355600
10,20,127,30,-6,-112,-11,109,0.09,8057920600
-16,-58,-128,-51,-21,-99,-11,-41,0.09,8057931900
-2,-5,6,6,8,70,22,27,0.09,8057940700
11,40,102,26,6,-44,21,12,0.09,8057957800
1,-18,-115,-12,-4,72,32,23,0.1,8079098600
-9,-6,-67,-6,2,-51,-49,-128,0.1,8079139700
8,-11,20,1,-6,20,-2,103,0.1,8079176600
-2,-3,39,3,2,14,2,-71,0.1,8079189200
-15,20,-16,0,2,4,10,-59,0.11,8099836300
47,11,-19,14,7,55,91,-29,0.11,8099847200
0,-57,-86,-9,-3,-54,-33,-128,0.11,8099857400
-25,-24,-83,-20,-5,59,-27,127,0.11,8099865200
-29,9,50,11,4,60,31,19,0.12,8118280100
11,-43,-100,1,-13,-128,-128,10,0.12,8118294200
-32,11,34,-9,-1,-40,10,-49,0.13,8139345700
7,-22,-14,-16,-5,74,127,25,0.13,8139361400
-8,53,-29,11,6,-15,-128,9,0.13,8139371900
-2,56,-74,-8,-3,35,-52,-16,0.13,8139381800
7,-21,5,-5,-12,-19,26,35,0.13,8139392000
-6,-1,3,6,6,-11,30,-24,0.13,8139400700
1,17,10,9,-1,4,-75,-18,0.14,8157511900
-8,-11,10,-15,-5,-17,-5,-4,0.14,8157522400
-9,-13,-52,-10,2,-3,-7,74,0.15,8178087000
-12,-6,2,3,-1,-4,-77,-128,0.15,8178099200
5,-7,11,4,4,9,16,121,0.15,8178110500
-1,61,-1,4,-4,-44,18,-44,0.15,8178121200
25,62,42,13,0,-11,34,127,0.16,8199252700
-27,-41,-8,-28,-12,42,-128,-88,0.16,8199265100
13,27,-19,5,1,-42,49,97,0.16,8199276700
5,63,-11,14,6,40,18,-128,0.16,8199288700
5,11,-105,-7,-7,-127,-89,28,0.16,8199298000
-8,-10,26,-26,-6,31,38,-49,0.16,8199307200
43,-8,65,10,0,11,-16,74,0.17,8217739200
-7,27,42,12,10,19,59,-12,0.17,8217753500
9,-45,-25,7,-4,-47,-56,-38,0.17,8217776600
0,34,58,7,2,-29,-25,-7,0.17,8217818800
5,-13,-106,6,0,27,58,19,0.18,8239426700
-25,-23,-37,-31,-8,26,-128,-8,0.18,8239440900
-11,11,0,0,-5,34,14,-33,0.18,8239451700
14,10,8,7,4,1,40,66,0.18,8239461100
-24,-8,0,3,0,12,-14,-12,0.19,8257734800
-5,33,0,-1,0,1,13,-14,0.19,8257765500
-15,76,2,-2,1,7,-35,30,0.2,8278203700
4,-13,0,0,6,19,-35,11,0.2,8278256300
2,-16,-7,2,0,-24,-11,8,0.2,8278269400
3,2,8,3,1,41,48,-24,0.2,8278280900
-2,42,10,-1,-1,-43,-59,4,0.2,8278292500
10,-111,-21,5,0,-24,63,39,0.2,8278304400
-6,-61,-28,7,5,93,-27,-23,0.21,8297514900
-7,50,76,-3,-5,-117,105,82,0.21,8297526100
7,7,-128,-35,-15,17,-112,-98,0.22,8318698900
-12,18,47,5,3,18,-15,4,0.22,8318710200
57,55,71,13,0,15,74,27,0.22,8318719100
-5,3,-70,12,1,-44,-9,-128,0.22,8318741400
-22,-16,-128,-38,-8,-4,-7,15,0.23,8339423400
7,35,56,-1,0,-22,3,-42,0.23,8339434200
-2,35,-66,1,2,-23,-5,23,0.23,8339458900
1,26,30,7,0,-6,-19,-81,0.23,8339487800
11,10,11,8,3,6,4,4,0.23,8339498700
13,13,17,2,4,52,57,86,0.23,8339508000
-13,-11,-49,-15,-8,2,-9,-12,0.24,8360079900
5,3,-2,-1,-6,17,-30,-24,0.24,8360106600
-12,-1,-11,-7,-10,-21,-128,60,0.24,8360139100
-4,11,9,2,4,-38,27,-128,0.24,8360148600
-6,-51,-4,2,-1,64,-31,-66,0.25,8379012300
20,21,6,3,4,38,62,-20,0.25,8379023900
-18,30,9,1,2,33,82,56,0.25,8379032000
-48,-51,9,0,-6,-46,-57,-42,0.25,8379072400
-1,10,32,-1,-4,-6,-128,8,0.26,8397871800
9,-11,-106,-8,-1,29,38,86,0.26,8397882700
21,-25,-67,5,1,-15,-22,54,0.26,8397891500
-17,43,-28,-15,-7,-3,25,-7,0.26,8397899800
-18,62,20,-5,0,9,17,0,0.27,8417869600
4,-104,-24,-4,1,0,-44,55,0.27,8417880200
15,38,93,19,7,-11,-5,-39,0.27,8417888400
-1,3,-90,-8,-3,-27,16,8,0.27,8417897100
-13,6,34,-6,-5,27,81,32,0.28,8438176700
3,26,76,11,4,-41,33,-24,0.28,8438188700
5,10,-90,-7,-1,-36,-108,-127,0.29,8460009200
4,4,43,-6,-4,58,98,-21,0.29,8460024100
-1,-10,14,4,0,-45,-59,10,0.29,8460034500
-7,30,-1,0,-5,-7,-46,-86,0.29,8460044600
4,-32,20,-1,0,-7,-121,-58,0.3,8479666000
-37,2,-28,-4,-1,48,21,61,0.3,8479676900
11,-60,-3,-4,-3,-16,13,30,0.3,8479688600
-17,2,2,2,1,7,-125,23,0.3,8479707800
20,-25,0,3,4,19,106,127,0.31,8499048500
-9,-16,3,-4,-5,9,13,89,0.31,8499059400
-14,-9,-2,-1,1,-5,15,32,0.31,8499067800
7,34,4,4,2,9,-1,30,0.31,8499094500
13,11,33,3,1,-30,11,127,0.31,8499122600
-9,-16,21,-12,-6,-17,26,34,0.31,8499131900
-4,3,-30,5,3,-11,44,103,0.32,8517652400
27,45,-16,2,0,26,127,-14,0.32,8517663600
-7,-78,30,0,2,20,35,41,0.32,8517672600
-19,17,-54,-9,-7,-35,-44,-61,0.32,8517681300
-31,-32,-128,-20,-5,14,-14,11,0.33,8538935300
10,16,51,3,-1,21,56,-4,0.33,8538952300
1,19,49,13,4,-15,8,105,0.33,8538961900
34,57,32,8,3,2,-67,-128,0.33,8538969300
-10,2,10,2,3,19,-44,-51,0.34,8559867100
-2,-7,-4,-1,-7,-34,-53,127,0.34,8559879600
-7,-25,-13,-3,-4,14,-46,-128,0.34,8559888600
21,25,1,1,0,-9,-58,80,0.34,8559930900
5,-10,-7,2,3,37,-1,-44,0.35,8577957700
8,5,-8,-2,-2,-29,-128,10,0.35,8577970500
-5,3,-1,-2,3,-12,126,-35,0.35,8577979300
22,18,8,3,1,22,-10,102,0.35,8577987700
10,-14,-11,-1,3,11,-11,67,0.36,8598661300
11,-33,-13,-6,-7,47,84,127,0.36,8598674700
-5,20,38,6,2,-16,-87,-89,0.36,8598692300
-6,-1,10,-2,-2,-24,-32,97,0.36,8598724000
-28,1,-128,-31,-17,-24,-83,17,0.37,8620052100
10,-51,32,11,3,11,-5,-5,0.37,8620063100
17,2,9,2,0,17,19,127,0.37,8620072200
-4,53,12,-8,-5,2,-1,108,0.37,8620082600
8,9,-51,2,5,81,95,-54,0.38,8638732900
-9,-2,-14,-5,-6,-62,-48,-20,0.38,8638759400
8,12,21,4,9,-27,31,-14,0.38,8638790300
42,21,12,4,-7,-14,12,26,0.38,8638799200
19,-4,10,0,3,37,-9,-8,0.39,8659391400
-18,-10,2,-4,-9,-8,-18,-17,0.39,8659402600
19,43,-1,-1,4,-33,17,75,0.39,8659413100
58,-1,-5,3,8,101,-36,82,0.39,8659422500
22,13,0,-4,-7,-94,96,127,0.4,8678774800
9,-72,-12,-3,8,22,-46,99,0.4,8678785200
5,11,-9,-5,-8,39,-4,-14,0.41,8700851900
-6,4,-6,-4,0,127,53,33,0.41,8700862500
-31,-18,2,-6,-2,21,-80,-128,0.41,8700901200
2,85,23,-4,-12,5,31,-91,0.41,8700919200
2,-30,13,2,4,-77,-14,89,0.41,8700928300
5,7,-101,-6,-1,-70,-6,4,0.41,8700935800
1,47,21,-4,-5,-6,-42,13,0.42,8719627500
5,-37,37,9,11,59,-11,-7,0.42,8719644400
1,0,-21,0,-6,47,-16,-6,0.42,8719656000
-14,-8,22,-2,-8,-61,-12,12,0.42,8719667600
3,-35,-69,-9,-3,-2,-19,33,0.43,8737516700
1,5,4,-7,7,122,-26,-26,0.43,8737528400
-7,-6,-44,9,-3,-42,32,-54,0.44,8759364500
-4,-19,54,-16,-7,-45,-44,-2,0.44,8759374800
-23,32,-31,0,-1,-6,-22,68,0.44,8759399600
9,-4,23,5,0,32,-7,-13,0.44,8759428200
5,25,19,8,2,-13,1,-82,0.44,8759437800
4,-2,7,-1,-3,35,-55,-39,0.44,8759445700
-10,10,6,6,4,28,-16,-30,0.45,8777775300
7,21,3,2,0,69,127,34,0.45,8777787200
-11,3,-7,-5,-7,-117,10,11,0.45,8777796200
-11,35,1,-3,0,-20,29,2,0.45,8777803800
-3,-30,-1,0,9,127,-55,-128,0.46,8799018700
-48,-10,-17,-9,-17,-128,-128,-128,0.46,8799032000
-21,-1,7,0,1,105,-26,-16,0.46,8799089600
10,-27,-6,-3,-2,-24,24,-10,0.46,8799104000
-14,17,-3,-2,-2,-35,-4,-105,0.47,8817822100
16,127,15,2,3,24,-16,50,0.47,8817835600
-9,-64,-13,-1,-1,33,95,10,0.47,8817847100
-2,17,12,1,-2,13,-31,26,0.47,8817855100
7,-19,-21,1,-2,-74,-30,-1,0.48,8838228800
0,51,76,2,3,-23,4,-31,0.48,8838240200
22,-1,-80,0,9,97,-28,-23,0.48,8838248900
9,6,17,-9,-2,-95,98,-16,0.48,8838281400
19,11,31,3,-8,-128,127,-75,0.49,8859261000
25,34,23,4,-3,-1,21,123,0.49,8859271700
8,-36,31,8,5,-26,-2,54,0.49,8859279700
7,-7,-56,1,10,127,17,90,0.49,8859289300
8,5,-13,0,0,-100,103,66,0.5,8877812100
-17,-8,21,-2,-6,-22,39,-58,0.5,8877824700
11,2,13,2,3,24,48,24,0.5,8877833400
3,25,17,0,-4,-53,3,-46,0.5,8877841600
9,-43,12,1,-1,98,-9,-49,0.51,8898517000
-28,39,-6,-1,-1,-30,-56,72,0.51,8898528500
18,8,-1,-1,0,31,-128,-86,0.52,8917464600
9,29,-21,-3,5,25,13,-3,0.52,8917475800
-9,-61,1,-2,-2,-3,-92,127,0.52,8917488500
-38,19,-8,-8,-10,-128,21,8,0.52,8917496500
12,43,0,-4,0,56,24,102,0.53,8938260400
20,-33,-6,-3,3,124,50,49,0.53,8938272400
11,-11,-4,0,-5,-114,-68,13,0.53,8938374800
-27,-55,0,2,5,93,112,4,0.53,8938411300
-3,3,0,-1,-4,9,-1,127,0.53,8938421500
4,39,17,-1,-5,-1,-11,-51,0.53,8938429700
2,-19,25,10,8,63,23,-128,0.54,8959868200
0,-35,-128,-11,-1,-102,-128,2,0.54,8959880200
-3,-23,-29,-10,-9,-91,51,62,0.54,8959891900
-12,-34,27,6,8,47,32,-41,0.54,8959901100
15,90,29,6,3,-11,-62,35,0.55,8978453600
-3,-8,10,1,-2,-59,90,69,0.55,8978473500
13,-4,13,4,-1,97,96,57,0.56,8999643500
-11,16,6,0,-2,-84,-1,-35,0.56,8999675400
5,19,4,0,-1,112,77,29,0.56,8999685500
-7,-59,-12,-7,-6,24,-76,-128,0.56,8999704000
24,57,-5,-1,7,-96,-23,-38,0.56,8999712000
2,-22,-1,3,1,-4,6,3,0.56,8999719600
2,-47,4,1,-9,-121,-5,15,0.57,9017783800
-30,-8,-7,-9,-3,57,-13,37,0.57,9017795900
6,-55,-15,-4,0,17,120,50,0.58,9039452000
3,-22,0,4,3,37,23,63,0.58,9039462800
-13,7,8,3,6,80,-11,127,0.58,9039471900
18,-96,-25,-4,-5,-109,127,-26,0.58,9039482000
6,-2,17,2,0,51,-57,-24,0.58,9039491100
0,-82,-10,3,4,-44,52,127,0.58,9039498800
12,-7,-16,-1,13,112,1,-84,0.59,9057610900
-3,32,20,4,-1,-29,26,-65,0.59,9057625100
-18,-31,-19,0,7,-34,-102,-69,0.59,9057636900
5,39,11,-3,2,-26,95,57,0.59,9057645200
7,46,-19,-5,3,102,-128,-35,0.6,9078458800
1,-36,15,3,4,24,-78,38,0.6,9078469400
2,77,4,-6,-11,-96,77,127,0.6,9078478000
-47,-1,-7,-2,-5,39,0,-65,0.6,9078488600
14,16,-4,2,0,-128,-49,-15,0.61,9099479300
3,9,0,4,-3,-69,8,76,0.61,9099489700
-1,-4,37,-4,-7,-23,70,28,0.62,9119910500
-15,-2,-46,1,6,91,-128,-55,0.62,9119923000
25,20,0,0,0,-54,39,127,0.62,9119932400
-3,56,5,-2,-3,45,2,-50,0.62,9119940300
6,15,9,4,12,127,119,15,0.63,9139678800
-53,-84,1,-11,-19,-128,-128,-128,0.63,9139690200
-8,5,14,2,-4,0,46,127,0.63,9139701200
12,88,-12,1,7,93,-128,50,0.63,9139709300
7,-2,-3,-5,-13,-128,55,-28,0.63,9139716900
14,4,8,1,0,57,127,127,0.63,9139725000
-3,14,4,-3,-11,-128,-34,69,0.64,9158445400
1,-26,-11,2,14,127,58,101,0.64,9158456200
18,33,22,9,-1,-128,118,97,0.65,9179617800
-13,-19,-6,-1,-2,91,-5,-125,0.65,9179630100
-42,-27,-3,-8,-14,-128,-128,-128,0.65,9179638400
-65,-117,-76,-19,-11,108,-128,-128,0.65,9179645800
-1,-12,-12,-5,-2,-54,-121,2,0.66,9198265000
26,10,3,3,-1,51,85,96,0.66,9198276600
20,-38,6,7,6,-62,5,118,0.66,9198369000
-6,-24,17,5,-2,89,127,-128,0.66,9198392900
-14,25,-8,-7,-20,-128,118,127,0.66,9198401700
33,1,4,-3,3,121,-91,127,0.66,9198409200
20,35,10,8,15,127,127,127,0.67,9219686600
-2,-44,7,5,6,127,127,-128,0.67,9219701300
13,99,0,3,1,-9,77,42,0.67,9219710500
13,3,2,4,14,104,-23,-49,0.67,9219719300
-2,37,-11,-2,12,107,10,-53,0.68,9237875000
0,-24,-8,-5,-18,-128,-85,57,0.68,9237890100
33,8,9,2,8,127,127,127,0.69,9259232700
0,-4,6,4,7,92,98,28,0.69,9259246000
8,-26,-13,-9,-20,-128,63,29,0.69,9259296300
-5,27,9,5,10,127,127,-60,0.69,9259306500
-11,-3,25,19,12,-128,-128,127,0.69,9259315000
74,8,25,-4,-13,-128,47,-75,0.69,9259322700
-35,104,-104,-15,-1,71,-9,-128,0.7,9277799400
-6,-22,31,-7,-13,30,-128,-95,0.7,9277811400
18,56,3,-9,-12,74,-80,8,0.71,9299343900
6,-55,8,1,7,76,-128,127,0.71,9299358000
11,-88,3,7,7,-56,26,-102,0.71,9299366400
42,19,11,9,12,-101,-128,-128,0.71,9299374300
9,-29,14,3,2,-74,45,-70,0.72,9318049900
-13,-76,4,-7,-1,127,-128,127,0.72,9318061600
-24,-13,-56,-6,-19,-128,-128,-122,0.72,9318075000
-10,-58,15,-6,-7,-128,69,-128,0.72,9318085200
34,2,6,0,2,92,-46,-12,0.72,9318093200
-21,-128,-7,-7,14,127,-70,-82,0.72,9318100500
-15,-23,-40,-12,-28,-128,-2,-3,0.73,9338841000
40,57,11,2,-3,46,-128,-128,0.73,9338875600
-26,-52,-10,-13,-12,127,95,-128,0.73,9338895700
-5,7,17,9,7,96,-90,-56,0.73,9338907200
-23,127,13,-2,-10,-128,113,8,0.74,9357468900
-20,-8,-8,-9,-3,-128,-47,-128,0.74,9357480200
-15,-10,-20,-7,-13,72,127,58,0.75,9378760600
-18,0,-3,-5,5,127,44,127,0.75,9378771400
6,-29,-13,-4,-12,-77,-74,127,0.75,9378780400
-35,67,-8,-5,2,-9,-128,-128,0.75,9378814600
48,-75,15,15,21,-41,127,127,0.75,9378835600
18,13,7,-4,-21,-128,127,-6,0.75,9378844000
-15,6,0,-4,-11,-107,-128,119,0.76,9399473200
12,-99,-14,-1,4,82,-79,127,0.76,9399488300
-82,-12,-16,-7,-2,-128,127,127,0.76,9399498700
-57,25,15,-2,-8,-78,127,91,0.76,9399507200
46,16,-9,2,3,127,127,127,0.77,9417689500
-4,-30,25,6,9,127,-128,-128,0.77,9417701200
0,30,-31,-1,2,-128,127,79,0.78,9439048900
8,50,1,-8,-5,127,-24,37,0.78,9439059700
10,-13,20,2,-12,-50,-53,-57,0.78,9439068900
43,-10,-13,-2,0,127,-128,127,0.78,9439076400
-12,33,4,4,-15,-128,70,-115,0.78,9439084700
8,-13,12,11,17,127,127,-128,0.78,9439093800
3,-43,-11,-5,-2,-128,127,-19,0.79,9458328600
10,19,13,10,7,48,82,102,0.79,9458342600
67,-68,-6,4,5,53,127,-128,0.8,9479576500
13,-77,-2,5,2,127,-128,-128,0.8,9479587000
0,4,-9,-4,-8,-128,31,22,0.8,9479625200
54,-3,-11,1,11,-41,64,127,0.8,9479641600
87,58,31,15,7,-128,127,127,0.81,9497704300
7,18,9,-9,-20,-128,127,91,0.81,9497720500
26,-3,41,0,-1,127,-128,125,0.81,9497730600
-32,-26,-58,-7,-5,-69,127,-128,0.81,9497741600
-28,31,3,2,-7,99,-128,-123,0.81,9497753100
-46,-27,22,-7,-1,-30,127,127,0.81,9497761400
1,19,-62,0,18,127,-125,127,0.82,9518651000
23,14,12,6,35,127,-128,38,0.82,9518740500
-34,-128,14,2,10,127,-128,-44,0.82,9518766700
31,-36,-10,-7,-17,-128,-2,127,0.82,9518776900
38,117,29,16,27,127,-128,43,0.83,9539962500
33,-4,23,18,29,127,-5,-128,0.83,9539983400
50,-21,7,6,20,127,86,-30,0.84,9558662400
10,56,7,-3,8,127,-128,-11,0.84,9558696400
4,-45,-4,8,11,127,-106,-48,0.84,9558710100
-128,-128,-29,-33,-57,-128,-128,-128,0.84,9558722600
-1,-73,-20,-16,-10,127,-88,-128,0.84,9558734100
55,66,6,-6,-10,-128,127,-105,0.84,9558743800
-26,-128,2,3,7,127,114,47,0.85,9579389900
17,84,38,14,4,-128,-128,107,0.85,9579403500
10,54,-27,2,-2,7,10,47,0.85,9579413800
-50,1,0,-5,-21,-128,-128,-128,0.85,9579425300
-105,9,9,-7,3,127,127,-128,0.86,9598240400
-34,-11,12,3,-19,-128,-128,-128,0.86,9598268300
0,-9,0,5,10,127,-118,46,0.87,9619925200
28,-24,7,3,-2,-34,112,-8,0.87,9619936800
-47,-19,3,-5,-11,-128,-105,-67,0.87,9619946100
-9,56,0,2,6,127,127,-10,0.87,9619960600
4,6,10,0,-19,-128,71,127,0.87,9619996800
16,-2,-38,-14,-12,28,-38,96,0.87,9620021800
11,0,-41,-8,-8,-128,-72,127,0.88,9637846400
-14,69,-5,-5,-5,127,105,-128,0.88,9637857300
-83,78,-15,-1,24,127,127,-128,0.89,9658745300
-22,32,10,10,3,-128,127,111,0.89,9658756400
82,46,47,7,0,-128,-1,34,0.89,9658775000
-45,-42,-11,-1,9,127,-128,-93,0.89,9658787900
36,-21,-45,-2,10,-128,127,-128,0.9,9677528200
-48,7,11,2,9,-28,127,87,0.9,9677569800
-38,-47,-4,-7,-11,-25,98,-128,0.9,9677597100
-13,3,4,0,11,53,-128,-56,0.9,9677609500
39,66,14,14,6,-128,120,-128,0.91,9699144700
-44,-92,-27,-7,-4,127,-38,-128,0.91,9699157300
-11,-26,4,-7,-12,-55,-42,-85,0.91,9699166300
65,127,29,17,18,90,43,78,0.91,9699174400
-26,-59,-17,2,-2,37,127,127,0.91,9699183700
-11,32,3,-1,-10,69,53,-128,0.91,9699193000
15,-50,-14,-4,-3,52,127,99,0.92,9717481300
-26,-43,-52,-13,-7,-128,-128,127,0.92,9717492400
43,26,25,3,-5,66,-31,33,0.93,9738039500
-28,-21,36,13,15,127,-51,-23,0.93,9738054100
45,-3,-50,-6,2,1,-87,22,0.93,9738063300
37,-8,11,1,10,127,-67,-128,0.93,9738072300
-12,35,-5,1,-6,-128,72,-128,0.93,9738079800
-29,-82,-45,-17,-14,-128,-15,127,0.93,9738087700
2,-44,-8,-16,-30,-123,-128,127,0.94,9759858900
-24,-3,16,5,7,89,-128,127,0.94,9759869900
-25,-44,-5,-4,-9,72,127,-128,0.94,9759878300
29,-61,38,12,26,127,-128,26,0.94,9759887000
17,16,-17,-8,-20,-128,-12,127,0.95,9778958600
6,-29,-128,-10,-4,115,-128,-128,0.95,9778972500
25,27,-29,-9,3,7,-128,6,0.96,9797838300
17,127,33,9,9,127,53,-42,0.96,9797851300
-10,-99,14,1,-1,29,100,-59,0.96,9797864700
-30,8,11,1,7,27,127,-128,0.96,9797883900
9,32,-17,4,8,95,54,127,0.96,9797892300
18,-5,28,8,12,73,127,-62,0.96,9797899700
-71,-50,-24,-19,-21,-14,52,-128,0.97,9818029300
4,-6,21,5,-3,-54,127,-74,0.97,9818040900
-34,47,13,1,3,-75,-95,-33,0.98,9840284800
8,-24,15,5,11,127,127,-16,0.98,9840296400
-2,62,-43,-5,-13,12,63,59,0.98,9840344200
-29,18,5,-8,-5,80,-128,-28,0.98,9840362900
-10,-113,9,10,23,127,40,127,0.99,9859127300
19,-128,-11,4,-6,-128,127,115,0.99,9859143100
3,-54,-9,-7,-5,127,-128,-128,0.99,9859152800
32,40,-33,1,2,-128,-24,19,0.99,9859160800
-68,-1,-4,-17,-26,-109,-87,127,0.99,9859168600
32,1,-4,-2,-5,-16,-39,49,0.99,9859176100
-20,-10,7,-1,-4,-128,44,-51,0.98,9877482100
-29,-14,-7,-8,-12,28,-128,-128,0.98,9877495500
-63,30,-5,-7,-12,-128,127,62,0.97,9898933700
5,2,-2,-1,-2,21,-35,-46,0.97,9898944700
-3,-38,-8,-2,0,-32,88,98,0.97,9898956600
18,116,4,-1,7,127,26,127,0.97,9898965600
-24,38,-4,-7,-22,-128,127,25,0.96,9917565300
22,24,12,1,-2,79,-54,8,0.96,9917578600
2,109,44,1,-1,100,-128,-24,0.96,9917587600
5,37,-100,-7,-1,-6,-12,-5,0.96,9917598500
5,-35,-2,-7,-3,-38,-41,-15,0.96,9917606300
-1,-5,32,4,5,-47,-86,-19,0.96,9917628800
-54,-9,6,-9,-26,-128,127,-38,0.95,9938477000
-5,-28,12,1,-1,47,-44,-128,0.95,9938519000
-6,0,4,0,0,66,-22,-6,0.94,9959618900
-26,70,53,0,-4,53,-21,-101,0.94,9959630200
-10,-75,-14,-2,-2,-1,-5,-8,0.94,9959641400
-9,-40,-128,-18,-6,-28,-3,-5,0.94,9959651500
23,-6,-60,-12,-5,-28,0,4,0.93,9978174200
9,25,85,0,-3,-8,3,0,0.93,9978184800
-6,-72,25,17,7,-26,4,-4,0.93,9978194700
-2,1,-17,-12,-1,6,-8,-5,0.93,9978205800
-7,17,24,-2,-1,-16,-6,-5,0.93,9978219000
0,20,20,5,0,-43,5,0,0.93,9978231300
-1,-84,6,2,2,12,-11,1,0.92,9999341500
-1,2,-38,11,-1,13,-1,2,0.92,9999352200
-3,-16,-19,-15,-4,-38,0,1,0.92,9999362000
-2,2,24,-8,-2,117,-1,1,0.92,9999370200
2,12,33,5,1,127,-23,8,0.91,10017949600
2,24,18,3,-9,-57,88,8,0.91,10017960700
21,-17,0,13,7,12,7,2,0.9,10039539000
-11,-11,-65,-6,-9,-128,36,1,0.9,10039550600
-12,-41,4,-23,-12,90,-21,11,0.9,10039563500
-12,6,46,3,-3,-6,-14,33,0.9,10039576000
27,16,56,11,4,1,-7,6,0.9,10039584200
15,35,-22,0,-1,17,-28,7,0.9,10039591300
3,29,-3,2,4,12,-3,-3,0.89,10058123300
9,-38,83,9,2,7,-3,0,0.89,10058136500
-13,-18,-23,-7,-3,-6,-6,-1,0.88,10080070800
-5,-20,11,-5,3,1,0,0,0.88,10080082900
2,-74,22,1,1,-6,-1,-1,0.88,10080091700
2,-17,-4,-7,0,-16,-1,-1,0.88,10080099600
11,-14,0,-13,-7,-12,-1,1,0.87,10098699800
-4,-19,-126,-5,1,-20,1,-4,0.87,10098716400
-1,14,120,21,4,-23,1,3,0.87,10098729200
-7,-48,58,15,5,-32,5,0,0.87,10098740700
-7,-24,-66,-19,-6,-19,27,-5,0.86,10117541100
-15,-3,-19,2,-7,-128,-11,-8,0.86,10117552000
7,39,-29,11,-1,1,16,6,0.86,10117576700
-11,-6,40,-7,-9,21,-23,-10,0.86,10117609500
-5,2,84,-8,-1,118,-4,1,0.85,10139047800
-9,-25,-52,-21,-7,-82,1,11,0.85,10139061400
11,-3,112,15,9,76,-22,-13,0.85,10139071600
0,19,-52,6,0,-21,68,74,0.85,10139079400
-5,-1,-25,-7,-4,-3,-5,-2,0.84,10157866700
-1,-52,18,-5,-4,25,-1,5,0.84,10157879000
13,10,-12,2,0,18,0,7,0.84,10157917000
1,27,-14,-10,-3,10,-1,0,0.84,10157938600
9,-35,45,10,5,3,-1,1,0.83,10179461300
-40,16,-45,2,-1,0,0,-4,0.83,10179475400
-39,64,-44,-15,-11,-7,-7,-10,0.83,10179487700
2,-83,64,10,6,-3,2,-2,0.83,10179495600
-24,5,-68,-16,-8,-12,-4,-7,0.83,10179503300
-7,-4,-38,-1,-1,-13,-2,-2,0.83,10179510500
8,68,22,8,1,-18,1,2,0.82,10197863600
5,30,123,5,4,-31,-15,-1,0.82,10197876400
-10,-17,-128,-21,-9,-27,13,-2,0.81,10218460600
-2,-8,59,-17,-6,-17,1,0,0.81,10218494800
-9,-2,-37,0,0,-10,1,-5,0.81,10218520300
42,-7,71,11,7,-58,-42,10,0.81,10218529600
-1,8,-28,1,-6,-65,74,-16,0.8,10239780700
1,38,-33,-4,-4,-11,2,1,0.8,10239791300
-8,-24,7,-13,-9,41,-16,-6,0.8,10239801000
5,16,10,15,5,70,-7,3,0.8,10239809400
-11,-23,6,-10,-8,44,-8,-5,0.8,10239817200
4,12,-66,-9,0,35,-5,-5,0.8,10239825800
22,-26,19,2,-1,21,-1,1,0.79,10257999200
26,44,43,9,1,10,3,2,0.79,10258010800
8,-4,21,9,3,3,6,4,0.78,10278965300
-4,-15,17,-4,1,-4,-2,-1,0.78,10278983600
2,-2,-87,-29,-11,-8,-2,2,0.78,10278994700
-12,19,-11,-19,-5,-5,0,-5,0.78,10279004900
0,36,19,27,2,-6,0,0,0.77,10297510100
3,-17,-44,-1,-1,-5,1,0,0.77,10297522400
-1,2,31,-9,-5,-3,16,1,0.77,10297532400
-2,21,7,6,3,-13,-6,1,0.77,10297541300
-1,-20,-65,-8,-3,-27,2,-1,0.76,10318901200
-12,-31,-90,-13,-6,-48,-7,-6,0.76,10318913600
7,21,76,12,7,-10,8,4,0.76,10318923700
10,36,38,11,9,2,18,4,0.76,10318932400
-4,0,68,-15,-7,7,6,4,0.75,10340275700
6,8,3,5,1,7,1,4,0.75,10340288700
-1,-18,-33,-12,-5,28,-6,1,0.75,10340301900
2,-9,-26,1,3,43,2,-5,0.75,10340311900
2,6,36,0,2,18,-2,3,0.74,10358684600
4,3,25,4,-1,19,-4,8,0.74,10358695200
3,66,9,-10,-5,15,1,-42,0.74,10358703500
-43,24,17,16,5,8,-1,-1,0.74,10358711000
-42,47,14,4,3,6,5,3,0.74,10358941200
-4,6,-43,-14,-3,-2,-2,1,0.74,10358975800
-1,-23,-33,-8,-2,-4,-1,-1,0.72,10398512200
-1,25,-3,8,2,0,0,3,0.72,10398524500
-6,-4,-110,2,2,-13,-1,-2,0.72,10398543100
-5,20,82,-20,-9,0,-1,-1,0.72,10398591500
6,35,49,3,6,-3,2,1,0.72,10398604600
0,28,95,20,2,2,0,-2,0.72,10398613200
-7,-36,-36,-3,-4,-4,17,-3,0.71,10419553900
-1,18,35,-4,1,-17,-19,-5,0.71,10419567100
-2,-56,-91,-7,-3,2,-20,1,0.71,10419577500
4,11,77,9,0,-40,20,-1,0.71,10419586300
-1,-17,-117,4,-1,-6,-19,-1,0.71,10419593500
-7,-4,-1,-7,-2,0,-5,-5,0.71,10419600600
4,1,42,-9,-2,18,-2,3,0.7,10437974600
3,4,-4,10,2,14,0,1,0.7,10437986000
2,8,72,8,-3,7,-4,-1,0.69,10459482700
-10,-7,-65,-12,0,11,0,-4,0.69,10459503100
-3,15,39,-1,0,4,1,-1,0.69,10459512100
-53,-8,-118,-8,-6,0,-2,-9,0.69,10459520300
-6,-32,65,-3,-5,-4,-5,-1,0.68,10478156200
11,12,-128,-2,12,-1,-1,2,0.68,10478193000
-5,-17,-35,-23,-12,-4,-5,-4,0.68,10478225800
5,-9,4,6,2,-7,0,1,0.68,10478241300
5,28,32,4,2,5,4,-1,0.67,10499164900
2,17,72,-3,-3,-3,-3,0,0.67,10499176400
8,18,-34,-2,0,0,4,-1,0.67,10499186600
12,21,48,18,4,-9,-12,6,0.67,10499197500
6,19,31,13,10,-4,-20,2,0.66,10519965200
-21,-52,-128,-33,-13,18,0,-15,0.66,10519977100
2,20,69,12,3,-8,3,3,0.66,10520026000
0,-6,70,-9,0,-9,-2,-6,0.66,10520040900
-3,0,3,-1,4,16,-3,0,0.65,10539009900
-29,10,24,2,-3,1,10,-7,0.65,10539020900
6,1,-7,3,2,1,0,0,0.65,10539029100
1,4,47,-3,-1,13,1,5,0.65,10539036700
-10,1,11,2,3,0,-8,-2,0.65,10539044200
-4,11,2,-6,-3,6,4,-3,0.65,10539054500
-2,-13,-13,6,-4,-21,-1,0,0.63,10578688800
6,11,29,11,2,3,-3,-1,0.63,10578700900
-1,11,5,-12,-4,-1,-3,-1,0.63,10578711100
2,-28,-21,-11,-4,-5,-1,-5,0.63,10578720000
8,-2,-53,11,5,-2,1,0,0.63,10578727600
-4,24,127,10,-1,0,1,1,0.63,10578734800
-10,-32,-19,-18,-4,-8,-6,-5,0.62,10597556300
-17,0,-128,-22,-4,-3,-4,0,0.62,10597569400
-9,-70,13,-5,-6,1,-1,-4,0.61,10618734500
11,29,-23,6,-1,4,8,5,0.61,10618749800
9,26,51,13,6,-4,5,4,0.61,10618759500
-2,-2,108,-5,-3,53,-23,-7,0.61,10618767900
5,3,-11,-1,-4,-109,2,4,0.6,10637823500
23,8,53,7,-2,8,-18,-7,0.6,10637833800
0,18,20,2,-1,-17,-4,0,0.6,10637844400
0,-22,-67,-2,3,20,1,0,0.6,10637853300
0,-18,-37,-4,-4,-14,-3,-3,0.59,10659418600
4,-6,9,-5,3,9,-1,2,0.59,10659459200
7,14,34,6,1,3,-4,-1,0.59,10659499000
-11,-32,-79,-15,-5,0,-22,15,0.59,10659514000
-1,15,46,1,0,-3,0,-4,0.59,10659528200
0,-25,36,-3,-4,-1,-4,-2,0.59,10659559300
-1,-11,-87,-1,-1,5,2,-3,0.59,10659572300
5,21,48,10,0,-8,-13,-1,0.59,10659581000
-6,-7,-39,-6,-1,6,0,-2,0.57,10699481400
-16,-43,127,-19,-7,-14,-6,-4,0.57,10699492300
-40,14,-128,-11,-5,-2,-24,-3,0.57,10699501700
8,11,-72,4,6,2,4,0,0.57,10699534900
4,15,-8,12,8,15,12,4,0.57,10699556900
0,-20,82,0,-4,10,4,0,0.57,10699565300
-4,43,-59,-11,-5,-16,-4,-3,0.56,10719006300
-14,-39,8,-11,-7,4,-4,-7,0.56,10719017700
15,1,4,1,2,8,2,-1,0.56,10719026800
0,4,58,15,4,23,0,-1,0.56,10719035000
-10,-7,-75,-1,-2,-20,-2,-1,0.56,10719044500
11,19,57,11,3,5,-2,0,0.56,10719054600
-15,-28,-27,0,0,9,4,-4,0.55,10739843600
2,-1,-39,-15,-7,-2,-2,-1,0.55,10739878500
-2,12,34,0,1,6,-6,-1,0.54,10758302900
5,31,-2,5,-1,-33,5,1,0.54,10758313100
1,11,12,6,3,19,4,2,0.54,10758321500
-4,-30,-32,-12,-4,-7,-17,-1,0.54,10758329200
-8,-4,33,-4,-2,8,5,-5,0.53,10779411900
6,15,-90,2,-1,1,2,1,0.53,10779424900
-1,-5,27,-4,1,2,-1,0,0.53,10779452200
0,57,8,-11,-5,10,-3,3,0.53,10779488200
-1,-65,21,3,-4,-26,-2,-1,0.53,10779499400
-6,-30,-2,-7,-4,-1,-4,-4,0.53,10779507400
-44,-21,19,7,4,10,14,1,0.52,10798307300
-7,-48,59,0,-4,-5,-13,-6,0.52,10798318500
7,33,0,10,2,3,7,4,0.51,10819680000
-36,-28,-60,-49,-11,-7,-8,-19,0.51,10819692700
8,-3,-45,19,6,2,2,4,0.51,10819701800
1,45,96,-5,1,1,-6,0,0.51,10819710200
9,12,69,18,4,12,11,-3,0.5,10840151200
-8,0,117,6,-2,-13,-6,-2,0.5,10840162100
-5,-25,-128,-17,-6,-14,0,-2,0.5,10840190900
0,8,-28,0,4,0,2,1,0.5,10840219600
7,23,127,16,3,20,-8,6,0.5,10840229100
-4,-21,-32,-22,-6,-16,19,1,0.5,10840237500
-8,-9,48,-6,1,-15,-8,-5,0.49,10858722300
-1,-4,-4,1,2,25,-2,4,0.49,10858790500
3,13,-59,7,-1,-29,3,-3,0.48,10879849700
2,-7,35,0,-1,-5,-4,4,0.48,10879860200
-7,-17,95,9,1,15,1,-6,0.47,10899888800
8,-2,-119,-15,2,-2,5,1,0.47,10899899900
4,3,-34,10,-1,-5,-26,-2,0.47,10899908700
-4,-6,4,-10,-6,2,0,-4,0.47,10899926000
-5,15,-15,-4,0,3,-1,-1,0.47,10899965300
30,13,127,14,6,1,4,-1,0.47,10899978900
3,-13,14,-6,-3,-3,2,0,0.46,10918536500
6,11,44,0,-4,-5,0,-3,0.46,10918551600
-39,23,47,-4,-5,0,-3,-4,0.46,10918564800
-19,2,44,4,4,2,-1,-9,0.46,10918576000
-4,-10,-128,-5,-2,-4,-4,-7,0.45,10938826700
6,17,6,-3,-2,-1,-1,1,0.45,10938839700
-5,-17,-25,6,0,-2,-1,0,0.44,10959983200
13,45,68,11,4,0,0,7,0.44,10959994700
-2,-20,112,-11,-5,-5,-7,12,0.44,10960003800
-13,-32,-96,-16,-2,3,4,-29,0.44,10960012300
4,38,80,16,1,-16,-11,5,0.44,10960022400
0,-20,-126,-10,-1,7,-2,1,0.44,10960029900
7,-4,-73,10,8,15,4,7,0.44,10960038800
-5,-20,-21,-13,-7,-16,5,3,0.44,10960046600
60,47,70,6,2,16,-14,-19,0.43,10978286100
-39,23,-37,2,2,-21,-1,1,0.43,10978296900
-13,-13,-10,-17,-3,7,4,-4,0.42,10999001500
17,5,-31,-7,-2,-14,4,4,0.42,10999035400
7,25,-18,11,1,6,2,8,0.42,10999059700
-8,11,50,-10,-1,4,-2,-3,0.42,10999069200
6,-9,-128,-3,0,2,-1,-1,0.41,11017490900
2,12,-42,3,6,0,-1,2,0.41,11017502400
0,-28,-88,-2,-3,2,5,-2,0.4,11038878700
-20,-28,107,-22,-13,-16,-15,-6,0.4,11038914300
3,22,36,8,4,4,-1,1,0.4,11038941100
2,11,-4,6,3,0,3,2,0.4,11038950700
2,12,4,14,5,-2,2,-1,0.4,11038958700
1,-22,-20,-13,-4,-5,1,0,0.4,11038971300
4,11,-29,5,6,7,0,5,0.39,11058025300
-7,-15,-25,-3,-1,6,-17,-6,0.39,11058036700
-21,3,127,11,3,-6,4,0,0.39,11058045900
2,14,-79,-2,-1,9,7,-1,0.39,11058055000
-10,-9,-68,-34,-11,-18,-4,-4,0.38,11078797700
14,-12,62,4,2,7,11,3,0.38,11078815900
5,9,17,19,3,20,-58,20,0.38,11078860700
-2,23,-20,-4,-6,-86,9,-3,0.38,11078871000
6,9,-55,23,6,10,0,-2,0.37,11100116700
-7,-34,12,-11,-6,8,0,-3,0.37,11100130100
-2,-6,-49,-4,0,10,-7,-6,0.37,11100142600
-6,-12,-128,-18,-8,26,7,-4,0.37,11100150700
-1,-5,-112,-10,-8,-31,-2,-4,0.36,11118469900
20,92,127,20,8,4,4,5,0.36,11118501100
-12,-55,-128,13,3,-1,-2,-4,0.36,11118526900
2,-1,107,2,0,-2,-4,-5,0.36,11118536500
-21,-15,40,-18,-8,1,-5,-7,0.35,11139600800
8,11,-71,5,1,4,1,0,0.35,11139621500
51,-29,8,10,0,-6,5,-2,0.35,11139633400
-9,-27,-11,-3,0,-1,-4,-5,0.35,11139641600
-1,1,-64,-21,-8,2,1,-3,0.34,11157815600
23,57,127,41,12,3,0,8,0.34,11157826700
-34,-128,-128,-53,-19,-11,2,-16,0.34,11157836000
22,2,5,3,0,21,-13,2,0.34,11157845400
10,31,49,13,2,-21,17,4,0.33,11178803500
8,20,-13,26,10,0,-7,-1,0.33,11178822200
1,-22,-51,1,0,16,14,1,0.33,11178831100
-7,1,63,-10,-2,16,-32,-4,0.33,11178839200
-6,-10,-66,-16,-9,-24,-2,-6,0.31,11219019100
3,-8,67,22,7,-6,2,-6,0.31,11219031000
11,40,53,-7,-3,7,0,2,0.3,11237947700
-12,-43,-5,-18,-8,2,-4,-6,0.3,11237961100
10,19,-21,30,12,3,7,5,0.3,11237973700
-1,6,-28,-27,-8,4,-1,3,0.3,11237981600
-40,13,6,6,2,-5,-3,-5,0.3,11237989300
-2,-8,-91,-9,-5,-2,1,0,0.3,11237997100
13,38,-15,18,6,4,2,6,0.3,11238004500
13,3,127,19,4,1,1,7,0.3,11238012700
-16,-29,-44,-29,-12,-6,-8,-9,0.29,11259043100
-3,-12,-128,-19,3,10,3,-1,0.29,11259056700
-9,-21,37,-10,-5,-10,-5,-7,0.29,11259065200
8,26,87,21,3,2,1,-2,0.29,11259074000
32,46,-128,-12,-3,-3,1,6,0.29,11259090100
5,1,127,20,3,2,6,0,0.29,11259098800
8,27,-67,-6,2,-5,-15,4,0.28,11277991600
-7,-91,-61,-11,-5,-7,-4,-7,0.28,11278003700
5,28,66,1,-2,-4,6,3,0.28,11278011700
15,24,96,24,2,23,3,6,0.28,11278020300
3,47,127,1,-1,-14,-18,2,0.27,11299467400
-28,-73,-128,-72,-22,-10,0,-13,0.27,11299479300
15,71,68,37,10,5,5,5,0.27,11299492000
-14,-54,127,-21,-9,-15,-3,-7,0.27,11299499900
14,5,-128,26,7,1,5,6,0.26,11317785800
-24,-32,39,-29,-17,-2,-9,-12,0.26,11317825100
19,69,103,30,16,13,12,9,0.26,11317836700
3,-60,-128,-1,-2,4,-2,-4,0.26,11317844700
-19,-27,-102,2,-6,-12,-13,-10,0.25,11339306500
3,12,52,-7,2,6,4,0,0.25,11339318400
8,21,105,44,7,-2,-3,2,0.25,11339326900
7,-26,31,0,-6,-2,-4,-1,0.25,11339351900
-16,-60,-66,-33,-10,-2,-3,-6,0.24,11357634100
-10,2,-122,-6,-3,-12,0,-4,0.24,11357645100
-25,49,-20,1,-2,-4,-1,-6,0.24,11357664700
17,57,127,32,13,-1,7,9,0.24,11357678700
-36,-71,-128,-53,-21,0,-12,-11,0.23,11378773000
15,51,40,-5,0,-3,3,5,0.23,11378800800
1,5,-64,14,5,-1,4,2,0.23,11378829200
-6,-13,-35,-17,-11,-3,-2,-4,0.23,11378838300
9,27,127,20,10,3,4,4,0.22,11397546900
10,-31,127,32,10,-5,1,3,0.22,11397558100
8,26,-128,22,-4,-6,0,0,0.22,11397571200
-37,-107,-128,-85,-23,-5,-10,-15,0.22,11397582900
-3,9,127,-9,-8,1,-1,-2,0.21,11418837400
21,52,89,13,8,3,7,11,0.21,11418849300
6,0,-83,4,-5,1,-3,0,0.21,11418860900
-6,-7,-128,-82,-19,-8,-4,-6,0.21,11418874900
0,-3,44,20,3,-1,4,1,0.2,11437763100
12,93,42,-7,-6,-7,3,2,0.2,11437774400
3,-23,-52,10,13,8,7,3,0.2,11437808300
23,27,-128,52,16,27,-3,12,0.2,11437831900
17,62,-128,-32,1,3,5,6,0.19,11458947900
-52,-114,-128,-72,-36,-39,-24,-27,0.19,11458983200
-16,-10,84,42,1,2,3,0,0.19,11459008100
24,48,-88,51,27,14,8,11,0.19,11459016800
11,3,127,18,-3,2,2,4,0.18,11479985500
-3,-38,20,-39,-21,-22,1,-9,0.18,11479998300
-12,120,-128,-67,-9,-3,-5,-5,0.18,11480007200
31,-24,-18,109,37,14,12,16,0.18,11480022600
-32,-39,127,-67,-29,-17,-13,-16,0.17,11498314400
24,45,127,54,12,9,6,8,0.17,11498325100
5,26,127,35,14,9,2,3,0.16,11519582000
-5,14,-128,-7,-5,-16,-5,-5,0.16,11519594300
15,46,89,41,6,8,0,4,0.16,11519603600
-26,-59,-128,-30,-21,-12,-13,-15,0.16,11519610800
-16,36,127,-38,-17,6,2,-5,0.15,11538323100
11,33,-128,13,-4,7,-7,-1,0.15,11538334600
-25,-128,127,-45,-10,-17,-3,-12,0.15,11538416000
12,94,127,13,1,24,3,5,0.15,11538430200
50,57,42,127,34,0,8,15,0.14,11559700100
5,-64,-98,-39,-18,1,-4,0,0.14,11559729900
20,127,127,42,6,0,0,2,0.14,11559758200
6,-128,-120,62,30,17,7,14,0.14,11559769000
-71,-50,-128,-128,-57,-40,-28,-34,0.14,11559778300
14,61,127,36,20,49,2,-2,0.14,11559786100
56,-6,-29,57,30,18,12,25,0.13,11578102200
-76,-124,-83,-103,-41,-45,-14,-25,0.13,11578113200
29,39,127,66,19,13,9,12,0.13,11578158500
13,-14,-56,51,15,-1,4,8,0.13,11578169700
1,127,127,-29,-16,5,-1,-4,0.12,11599370900
32,73,-128,38,21,-43,0,9,0.12,11599386200
-53,-53,61,-57,-23,10,-11,-15,0.12,11599396300
21,-12,-128,6,10,-12,1,4,0.12,11599404300
13,82,-33,-19,10,15,2,9,0.11,11617880100
16,-4,-80,87,25,45,2,1,0.11,11617892000
-30,-30,127,-33,-24,-74,-11,-15,0.1,11639703200
44,53,127,76,21,15,16,27,0.1,11639718000
35,76,-128,60,33,-49,12,13,0.1,11639727300
-21,96,-79,-128,-42,-2,-21,-16,0.1,11639735100
-60,-128,-128,-117,-33,-14,-13,-18,0.1,11639749000
64,-86,-128,44,26,-3,16,25,0.1,11639756500
-10,16,127,-9,-10,-15,-11,-15,0.09,11658113700
-8,-43,-128,-11,2,62,-5,10,0.09,11658131400
-18,20,81,19,-4,-6,-5,-15,0.09,11658143000
47,127,127,112,32,4,15,23,0.09,11658152300
-8,19,-128,-47,-12,15,0,-3,0.08,11679855900
46,23,127,25,20,-4,4,8,0.08,11679870000
57,101,11,61,33,31,21,27,0.08,11679879300
-43,109,127,-128,-43,23,-15,-33,0.08,11679887100
34,82,27,73,32,13,12,17,0.07,11697972900
-27,-70,-71,-49,-17,-18,-11,-16,0.07,11697984300
-13,-77,127,73,4,5,-1,-2,0.07,11697994300
-9,5,-128,-103,-8,40,-2,0,0.07,11698035200
21,-10,59,16,11,-97,5,6,0.06,11719732600
35,98,127,29,23,46,9,14,0.06,11719774600
-4,-68,65,43,17,5,2,-3,0.06,11719790300
-76,-128,-128,-128,-50,-19,-23,-29,0.06,11719799000
16,61,127,46,5,-10,6,10,0.05,11738111100
19,-3,127,15,7,12,6,4,0.05,11738131800
-15,56,127,0,-17,21,-3,-9,0.05,11738173600
-46,-128,-128,-128,-30,-3,-4,-16,0.05,11738190700
25,-34,127,83,28,-17,5,15,0.04,11759195800
-36,-96,-128,-29,-10,2,-13,-16,0.04,11759207100
6,101,36,-1,0,-13,-1,3,0.04,11759215700
9,-128,-128,64,18,0,4,6,0.04,11759223700
24,-67,-128,-21,-4,16,-7,-7,0.02,11798976000
18,-28,106,43,25,-55,13,13,0.02,11798989500
-27,-49,-128,-80,-34,-6,-22,-19,0.02,11799005200
-16,-2,-128,-52,-10,10,-6,-7,0.02,11799013400
36,49,127,38,18,22,12,14,0.01,11820042200
-13,26,-128,18,30,8,0,1,0.01,11820069600
-49,-68,127,-82,-59,-25,-16,-22,0.01,11820081800
-15,-78,-128,-27,-6,10,4,-8,0.01,11820090500
62,127,71,120,40,19,5,23,0.01,11820100800
-53,-84,-128,-42,-27,-12,-12,-26,0.01,11820108400
39,100,-28,-18,8,2,5,13,0,11839368100
-53,-116,127,-54,-21,-10,-5,-17,0,11839382800
20,67,127,62,12,32,2,5,0,11839391900
-20,38,110,35,6,17,5,-1,0,11839400300
-1,52,-128,-51,-16,-3,-4,-4,0,11839407900
-4,-128,127,10,5,-9,2,-1,0,11839415000
10,76,127,-19,-5,4,-3,4,0.01,11858226800
3,22,-128,12,1,1,0,-8,0.01,11858238100
28,79,-128,48,22,-24,1,27,0.01,11858247800
-60,-128,127,-92,-43,-22,-15,-18,0.01,11858256600
-6,-38,104,1,-7,-5,-8,-9,0.02,11879441000
6,119,-16,16,11,15,8,7,0.02,11879475900
-13,-90,-113,47,5,-1,-4,4,0.02,11879499100
14,15,127,18,5,4,-2,1,0.02,11879507800
17,18,47,2,10,19,6,12,0.03,11898131700
-32,-32,-103,-41,-21,-19,-4,-26,0.03,11898143600
10,4,-28,10,4,9,-5,2,0.03,11898152800
11,14,-70,-10,4,0,4,13,0.03,11898160900
-1,18,72,-3,-4,-1,1,-25,0.04,11918928300
9,29,-4,10,4,1,5,40,0.04,11918939000
-4,-31,-128,-2,-2,12,11,-13,0.04,11918950100
-3,2,75,-11,-8,21,-22,-2,0.04,11918958600
-4,17,39,20,4,-56,1,-8,0.05,11939688900
5,-6,51,16,9,17,26,48,0.05,11939735200
13,36,-102,-11,2,9,15,68,0.05,11939775000
-18,-115,-104,-18,-7,54,-47,5,0.05,11939784300
-21,-19,40,3,-13,-9,-98,-76,0.06,11958023400
6,31,-24,13,7,-48,-7,-71,0.06,11958035000
-10,-74,70,-17,-8,18,11,94,0.06,11958043700
18,15,-63,8,12,63,51,-37,0.06,11958052300
-34,-128,3,-7,-3,-26,-42,-8,0.07,11983833000
-15,2,7,4,-5,-47,-27,39,0.07,11983844300
27,9,1,0,0,19,19,30,0.07,11983853100
22,-16,-23,9,10,100,127,78,0.07,11983861500
-20,54,20,-13,-10,-41,-37,-78,0.08,11998342200
-6,15,25,-2,1,42,56,20,0.08,11998354200
-2,47,-10,-3,-9,-47,90,-71,0.08,11998362600
-32,60,-10,9,1,-25,-108,105,0.08,11998372000
1,3,21,26,0,-24,-8,-11,0.09,12018224200
6,-37,127,-47,-10,124,106,122,0.09,12018237700
-8,-10,-29,-27,-13,-66,-98,7,0.09,12018247000
-12,-25,-22,10,9,38,79,-46,0.09,12018255200
3,49,15,13,9,56,115,127,0.1,12040966900
14,17,-74,6,-8,-72,-41,4,0.1,12040978500
5,37,-17,14,-4,-19,-17,-4,0.11,12059145600
13,27,31,-9,4,44,95,88,0.11,12059161900
23,-43,44,-5,4,-15,-28,-83,0.12,12077588600
-23,-9,-5,2,6,72,41,-6,0.12,12077599300
13,24,2,1,-10,-88,-35,80,0.13,12099442600
-11,4,-6,-1,-4,-3,74,61,0.13,12099453300
9,9,31,3,5,42,40,-2,0.13,12099461700
-8,13,38,-1,-4,-3,68,-90,0.13,12099469200
4,0,1,0,1,7,25,-20,0.13,12099477700
71,82,-19,4,9,-7,7,-128,0.13,12099485200
-4,-12,127,4,-8,46,-34,-68,0.13,12099495400
6,46,2,14,-3,-48,13,48,0.13,12099504400
-19,-13,-20,-57,-19,-37,-27,16,0.13,12099512200
6,10,51,-2,1,36,65,-29,0.13,12099520200
33,1,45,23,11,56,127,93,0.14,12118105900
6,11,12,12,4,-78,-128,-128,0.14,12118122200
44,0,-2,3,-2,-8,-13,92,0.14,12118132900
-3,-19,-9,8,3,-44,-21,-12,0.14,12118143400
-11,26,-43,2,0,5,60,10,0.15,12139413400
-4,-35,-67,-13,-2,26,-24,-70,0.15,12139427200
5,1,63,-10,-3,28,73,-128,0.15,12139438400
-9,1,9,-3,1,-11,-87,-1,0.15,12139447400
4,1,3,5,3,-13,80,115,0.16,12158243100
17,-10,-30,2,-8,-30,-31,-17,0.16,12158254100
-1,-19,0,-6,4,21,-79,-93,0.17,12179930100
15,50,4,3,-6,-7,-8,42,0.17,12179942000
3,-58,10,-2,0,32,122,12,0.17,12179950900
4,23,-4,13,7,-21,-52,-27,0.17,12179959400
3,-9,-7,-5,3,2,58,49,0.17,12179967200
-14,-58,-120,-24,-13,-52,-17,-80,0.17,12179975600
-45,-11,45,3,-1,-5,13,-65,0.18,12198683000
-19,65,-49,2,3,25,28,-67,0.18,12198693400
-6,8,39,2,-4,8,-12,89,0.18,12198702100
5,20,-33,-13,0,9,9,-23,0.18,12198712600
1,2,30,-6,-1,-15,7,12,0.19,12219927600
0,-19,-65,-14,-7,6,-52,-7,0.19,12219938600
-5,-5,-8,5,3,31,16,30,0.19,12219947000
-15,29,32,8,4,13,36,-128,0.19,12219971600
21,-10,3,5,2,20,1,30,0.2,12238479800
9,-1,2,6,-5,-88,38,127,0.2,12238490500
-22,11,-20,6,5,25,62,-128,0.2,12238499300
-7,25,22,-14,-18,-24,-128,127,0.2,12238547500
-9,-78,-11,-1,1,20,16,-12,0.21,12259411700
-10,-5,-16,-4,-5,-33,55,3,0.21,12259432800
-4,19,0,1,4,24,15,-31,0.21,12259448900
21,84,15,15,5,14,19,81,0.21,12259458200
-27,-128,-85,-16,-10,30,-20,13,0.22,12277476700
-1,21,2,4,3,0,-47,3,0.22,12277508700
26,97,127,3,4,-27,3,8,0.23,12298938400
-88,-57,-95,-37,-14,-4,24,-10,0.23,12298950500
-4,66,38,3,-4,-15,-2,-14,0.23,12298959600
-11,37,107,9,4,17,4,-1,0.23,12298968000
2,21,-26,0,2,-22,40,127,0.23,12298976300
8,0,8,4,0,-78,-9,97,0.23,12298984200
-10,1,-3,2,2,-1,-17,-12,0.24,12317507600
10,9,2,2,5,24,-10,73,0.24,12317518600
-15,2,-7,-7,-10,-55,89,-128,0.25,12338435100
-9,-1,-1,-1,-5,26,-85,-110,0.25,12338449300
5,-8,0,2,-2,8,-19,57,0.25,12338460400
5,5,-6,-3,-2,53,15,-16,0.25,12338469100
3,-1,-9,-9,-8,15,33,85,0.26,12359587900
10,3,2,4,0,2,10,-13,0.26,12359600300
3,2,3,-2,-3,22,116,127,0.26,12359609500
17,-23,-30,-9,-8,13,-128,-37,0.26,12359619900
11,24,16,4,2,-22,2,-6,0.26,12359628900
-10,3,12,5,3,37,23,-62,0.26,12359637200
0,18,10,2,1,-52,-15,-25,0.27,12378229000
-14,-50,-9,-11,-3,-14,-38,-7,0.27,12378241100
1,23,46,-4,-2,17,-12,-1,0.27,12378249800
1,-128,1,8,0,-46,2,-5,0.27,12378288500
3,60,28,3,2,11,-34,-128,0.28,12399460300
-1,27,23,-7,-4,-25,-13,-36,0.28,12399470700
-10,14,-75,-12,-4,2,-22,-75,0.28,12399479100
-14,-24,-27,-6,-8,-76,-19,-128,0.28,12399489500
11,10,17,1,0,31,15,6,0.29,12418300900
0,6,34,5,1,-1,-23,31,0.29,12418318100
-14,7,15,6,6,56,9,-128,0.29,12418326900
-5,-4,16,-6,-6,16,-57,-26,0.29,12418357700
25,2,1,0,3,8,-69,-1,0.3,12439413800
-1,-5,-5,-7,-5,10,16,6,0.3,12439425400
11,-20,-3,5,2,7,21,-25,0.3,12439434700
-7,-13,-2,0,-1,0,-6,47,0.3,12439473000
16,7,2,-3,0,27,51,-48,0.31,12457980900
12,16,-1,0,-5,-35,13,97,0.31,12457993700
3,75,4,-1,1,53,-7,-12,0.32,12479073500
-5,16,-1,-5,3,-9,-39,127,0.32,12479088000
3,-28,27,2,-2,-22,-24,-18,0.32,12479129200
-9,-66,-53,-2,-3,-31,-4,-66,0.32,12479159300
37,-44,21,-5,0,35,47,24,0.32,12479170500
-11,-31,-24,2,-1,-24,-36,-8,0.32,12479179800
17,21,-89,-6,-3,32,52,127,0.33,12497631600
-14,10,48,-14,-10,-78,28,32,0.33,12497642500
-1,-27,21,3,-2,24,-11,-8,0.33,12497651800
-7,-61,-23,8,11,-7,24,82,0.33,12497659500
-13,-52,25,-7,-11,-16,-58,-27,0.34,12518683500
18,3,-7,2,4,29,34,4,0.34,12518696900
-27,16,12,3,-3,-38,68,-11,0.35,12537494300
5,14,9,-3,-1,14,78,88,0.35,12537504800
7,-4,2,-3,-3,-39,58,62,0.35,12537512900
12,-2,1,2,5,38,35,-61,0.35,12537537500
5,-21,-3,-2,-7,0,51,127,0.35,12537576700
-4,-3,-1,-1,0,33,127,-100,0.35,12537589900
-29,23,-5,-6,-9,6,-128,-128,0.36,12558091500
8,20,-2,-3,-1,8,40,127,0.36,12558102700
-10,-91,-4,2,0,-15,28,-34,0.36,12558111100
-27,8,-8,-8,-9,-22,-10,-64,0.36,12558121400
8,53,-4,-2,6,21,78,62,0.37,12579483700
-5,36,-6,-10,-9,20,54,-86,0.37,12579495200
4,-26,40,2,-1,-16,12,-15,0.38,12597910000
-14,-128,-42,-2,4,38,58,-104,0.38,12597952900
-28,25,6,-5,-12,-13,-34,-128,0.38,12597964500
3,24,18,-7,3,41,-50,56,0.38,12597972700
-27,13,-5,-4,-2,-108,104,48,0.39,12619178700
10,12,25,-5,4,54,-6,-20,0.39,12619200300
-19,66,29,3,-7,-62,-120,47,0.39,12619213000
7,-10,16,5,2,-10,-2,26,0.39,12619221000
-1,9,9,6,2,49,30,-128,0.4,12637658200
-13,1,-3,-2,-5,1,26,60,0.4,12637669600
-15,6,-9,-1,-7,-85,-42,-112,0.4,12637705800
-3,0,-4,-1,2,8,-11,38,0.4,12637741400
-8,0,-5,-3,-3,-18,-128,-100,0.41,12659393800
6,2,-7,-4,-1,8,-124,74,0.41,12659522700
-2,13,-2,-1,0,16,-59,-65,0.41,12659548400
10,25,-5,-5,-5,5,27,86,0.41,12659561900
-5,-16,-6,-1,-1,47,16,-128,0.41,12659574400
2,36,2,0,-1,30,45,87,0.41,12659584300
-19,29,13,3,-1,-82,36,-91,0.42,12677751600
0,-34,-12,-6,1,26,-93,108,0.42,12677768900
2,-11,3,1,3,33,-60,-95,0.42,12677778000
-7,-98,-7,-8,-7,-1,75,54,0.42,12677810000
-2,-43,8,0,0,-77,-56,68,0.43,12699119900
10,54,22,9,6,27,13,-53,0.43,12699131300
0,-23,10,1,3,65,-48,4,0.43,12699140100
25,77,-14,-9,2,67,46,69,0.43,12699157700
8,-9,-45,-5,4,81,79,-1,0.44,12717492300
11,-35,10,0,-21,-128,97,18,0.44,12717506500
-40,42,6,1,2,10,-9,-33,0.44,12717519200
10,-2,6,-3,-2,24,31,127,0.44,12717563700
9,-9,-6,5,9,116,27,-20,0.45,12739341900
11,-2,10,5,6,-99,35,12,0.45,12739354900
0,1,-6,-4,-4,-13,-39,109,0.45,12739364200
18,8,3,3,5,-30,-8,-23,0.45,12739372000
-2,1,-5,-4,5,49,-57,127,0.47,12778932300
9,5,5,1,-5,-44,100,-104,0.47,12778946800
-47,13,-5,-3,-3,61,26,-128,0.47,12778957200
-10,-32,-5,-1,-5,-54,-39,127,0.47,12778965900
9,7,3,7,11,127,73,-128,0.47,12778974000
6,32,5,4,-4,-128,-128,127,0.47,12778981800
65,15,-17,-7,-10,22,-58,120,0.47,12778989700
31,-26,4,1,3,25,14,3,0.47,12778996900
-22,23,7,4,5,95,3,26,0.48,12797564700
9,-29,-8,-3,-4,12,-16,-36,0.48,12797584800
-2,18,-11,-1,0,8,-9,-27,0.49,12818793200
25,-32,27,-2,-2,86,-71,-3,0.49,12818807600
30,54,-42,-5,-1,-31,21,127,0.49,12818840900
-16,-72,-4,-4,-11,-84,-16,-128,0.49,12818865400
18,-3,32,8,3,38,-28,18,0.49,12818874300
-1,27,30,9,15,69,89,17,0.49,12818919900
16,-5,-59,-2,7,10,127,127,0.5,12837509500
47,16,23,0,-16,-120,-30,127,0.5,12837522300
0,-12,12,-4,-6,-62,46,1,0.5,12837530800
2,43,6,-2,-14,-76,-7,36,0.5,12837538500
-28,-19,-3,-4,-1,38,-41,-53,0.51,12859209400
38,8,9,11,7,104,33,127,0.51,12859221800
-24,-14,-10,-4,-1,82,-57,-102,0.51,12859341300
19,5,7,6,6,16,123,-128,0.51,12859363900
17,48,-14,-7,0,-35,-10,120,0.53,12899385600
-47,64,-2,-2,-3,-52,1,-9,0.53,12899416100
4,-33,-3,0,0,-2,-59,-16,0.53,12899442900
19,2,4,-2,-3,16,-2,-22,0.53,12899451800
2,34,1,0,2,-13,-37,-6,0.53,12899459600
-3,2,-5,1,0,60,-21,-16,0.53,12899468700
7,21,3,-1,-5,-75,-7,-6,0.53,12899476000
6,-6,-13,-2,-6,-3,-12,0,0.53,12899483600
0,-5,1,0,1,23,-53,-9,0.54,12918267500
2,24,7,-2,0,-35,-44,20,0.54,12918278100
17,3,9,6,9,40,-34,126,0.54,12918288400
1,-35,-1,-2,-8,-42,9,-30,0.54,12918308700
10,-16,-16,-8,-7,65,105,70,0.55,12939394900
3,31,0,5,4,-3,105,1,0.55,12939430500
-4,-9,0,-1,-2,32,-114,-89,0.56,12957565500
6,91,9,-2,4,127,-19,-128,0.56,12957579300
-2,-42,-18,-4,5,65,-128,20,0.56,12957600700
-8,22,13,0,-5,-128,-4,-114,0.56,12957612500
-15,-41,-24,-7,-6,-32,-61,-128,0.57,12979311700
1,44,3,1,-1,-113,3,13,0.57,12979339600
1,5,11,5,7,36,-56,-76,0.57,12979371200
25,-76,-13,-1,-11,7,106,-60,0.57,12979381000
9,-15,-2,-1,2,-72,62,-25,0.57,12979389700
-7,3,10,2,-2,78,-18,127,0.57,12979397600
-54,30,-2,0,5,85,-61,94,0.58,12998089700
7,-7,6,-2,-7,-76,-128,-128,0.58,12998113700
7,30,12,4,3,-69,5,95,0.59,13019505700
-3,-128,-11,-1,3,74,-118,23,0.59,13019517100
15,34,8,2,3,16,-99,-12,0.59,13019569800
6,-57,-11,-1,5,14,41,-72,0.59,13019593800
-14,-5,-6,-3,-2,24,73,38,0.6,13038296500
13,9,-1,1,-1,-43,5,-38,0.6,13038308100
9,17,7,0,-2,-39,51,20,0.6,13038316400
8,8,7,1,5,27,2,-22,0.6,13038324300
9,71,0,2,-3,-128,-25,-9,0.6,13038334000
10,-37,-6,-8,-4,37,53,-35,0.6,13038342000
-26,-12,-15,-1,4,86,17,-128,0.61,13059723200
-5,-6,3,2,7,117,127,15,0.61,13059736800
6,17,8,4,-1,-128,-128,52,0.62,13078013800
-19,54,3,-1,6,127,-104,47,0.62,13078025000
-22,-76,-16,-9,-7,-1,95,68,0.62,13078037300
-14,29,5,6,14,127,-59,13,0.62,13078045700
5,6,-3,4,19,127,104,127,0.63,13099861800
9,14,-2,0,-13,-128,114,127,0.63,13099874300
-55,39,-2,-5,-15,-128,-128,68,0.63,13099905200
-24,15,7,3,10,127,-128,23,0.63,13099938400
-19,34,5,-4,-9,-114,-128,17,0.63,13099950800
-3,-93,-8,-4,8,124,-128,-49,0.63,13099962700
19,-52,-14,2,12,-128,67,52,0.64,13117513600
-11,82,-10,-4,-6,-64,85,-128,0.64,13117528900
15,-51,10,4,15,127,127,35,0.65,13137949500
-8,29,8,-11,-27,-128,46,-128,0.65,13137961000
-9,-70,0,5,9,109,104,37,0.65,13137969800
-2,-86,-11,-1,3,-2,-59,-96,0.65,13137998300
-3,18,14,9,12,93,73,-128,0.66,13159398900
27,-4,-6,8,5,-83,15,127,0.66,13159409500
0,19,-8,0,3,127,-25,35,0.66,13159417400
-2,13,1,-4,-11,-128,-128,115,0.66,13159425000
-13,12,5,3,4,47,-71,-128,0.66,13159434100
6,-40,15,5,4,2,13,7,0.66,13159441500
-37,-49,-24,-8,-3,-4,-31,-51,0.68,13198996800
-13,-34,-2,-1,-2,-105,-128,-84,0.68,13199008300
-36,-13,-7,-3,-4,58,-40,-128,0.68,13199029200
21,45,-3,-2,-8,-2,127,-128,0.68,13199066300
17,1,11,4,2,-111,127,77,0.68,13199083400
-30,52,-12,-10,-9,97,-128,127,0.68,13199096000
-5,-30,-5,-1,-11,70,107,39,0.69,13217532800
3,-30,-11,-4,-1,22,-33,17,0.69,13217545000
-7,23,12,2,11,33,-127,-33,0.69,13217553700
-40,32,-1,-4,-13,-128,20,-102,0.69,13217562200
38,0,-1,0,3,96,56,127,0.69,13217570500
2,-24,6,5,4,127,-128,73,0.69,13217577600
-25,2,-14,-7,-15,-128,69,-128,0.7,13239191600
7,14,4,2,14,127,127,127,0.7,13239203000
-42,-38,-15,-11,-10,127,-97,-128,0.7,13239211900
16,40,12,-2,-9,-114,41,127,0.7,13239221600
41,4,-1,4,-2,117,-52,127,0.71,13257534400
-3,-10,0,0,3,-30,-36,-46,0.71,13257548700
-18,2,1,0,11,72,-92,-67,0.72,13278463100
23,10,9,3,15,127,127,54,0.72,13278475400
-3,-43,-14,-5,4,127,61,127,0.72,13278484300
2,-7,-12,-6,-4,127,-128,-109,0.72,13278495100
0,24,2,3,3,-36,83,87,0.72,13278505000
27,-29,-1,0,2,49,43,127,0.72,13278513900
-20,-105,-18,-12,-19,48,127,30,0.73,13299686500
17,30,9,6,-2,-128,127,127,0.73,13299702900
6,-43,-1,-1,-1,126,127,127,0.73,13299712700
53,63,12,5,7,127,127,127,0.73,13299721100
19,34,-6,4,-7,-128,127,127,0.74,13318260200
5,-106,-21,-6,2,127,-71,125,0.74,13318303400
24,38,23,10,16,127,-128,-128,0.75,13339107500
-42,34,-14,-12,-19,-128,127,44,0.75,13339125000
-1,-28,-5,-2,2,86,-128,58,0.75,13339134300
-19,-36,-3,-2,5,127,-53,124,0.75,13339142100
28,58,25,21,25,-128,127,127,0.75,13339149600
-63,-17,-15,-19,-29,-128,-116,-128,0.75,13339158000
7,30,14,3,18,127,-128,-128,0.76,13357442200
20,-77,-7,6,14,127,-3,127,0.76,13357452600
-9,45,-13,-15,-35,-128,12,-128,0.77,13378409700
5,-42,12,8,6,78,-116,-128,0.77,13378423000
-10,-24,-22,-8,-11,-55,-128,-27,0.77,13378432400
20,108,-6,-3,2,78,0,8,0.77,13378440500
-29,-22,16,0,-4,127,26,-89,0.78,13399348200
-14,44,8,-2,-13,-128,-116,-92,0.78,13399361300
-12,-112,-8,-2,6,127,38,-128,0.78,13399372800
0,72,3,-4,-3,-128,19,70,0.78,13399380700
-47,-120,-27,-18,-24,-89,29,-128,0.78,13399388700
-8,114,-1,-4,20,127,-97,-128,0.78,13399398200
33,-128,-14,-12,-33,96,-44,127,0.79,13418223500
-1,31,4,1,5,23,-30,-41,0.79,13418235400
-31,-58,-17,-14,-12,-128,-50,127,0.8,13439220300
32,48,3,-1,-3,127,-128,116,0.8,13439255800
24,57,-11,-1,8,-128,-8,127,0.8,13439286800
-56,-31,-2,-3,-7,127,74,-128,0.8,13439296100
11,74,-5,-9,-30,-128,41,-100,0.81,13459913400
19,-20,6,6,0,-71,-66,-71,0.81,13459925000
-40,8,-7,-4,8,127,-97,-128,0.81,13459934100
-30,9,-18,-17,-8,127,-128,104,0.81,13459944500
16,19,10,1,-15,-128,-128,-128,0.81,13459953700
-6,-16,-9,-16,-29,-79,-128,48,0.81,13459962000
7,-40,14,4,5,-126,127,-66,0.82,13478440000
7,101,-18,-7,-11,-14,62,23,0.82,13478453800
-7,-24,-7,-3,4,109,-10,49,0.83,13499505500
-1,-14,-15,-5,-7,-128,-12,-18,0.83,13499553700
-11,-16,8,2,6,127,3,-32,0.83,13499564600
-7,29,17,10,12,-128,-128,-128,0.83,13499574400
28,14,0,-3,-12,-128,127,127,0.84,13518242300
6,16,20,9,4,124,46,4,0.84,13518253300
-59,-23,-1,-4,-16,-128,127,127,0.84,13518261900
-10,-19,-23,-14,-27,-128,127,-128,0.84,13518269700
20,9,-2,1,2,127,127,4,0.84,13518307400
-7,127,7,-10,-22,-128,-81,-128,0.84,13518324200
22,-15,11,6,16,127,-27,127,0.85,13539323000
-60,-97,-10,-14,-18,127,127,-128,0.85,13539334300
-3,78,0,2,-5,-128,53,127,0.85,13539342300
13,-20,-11,-9,-11,-13,23,-92,0.85,13539349700
10,48,14,2,16,127,-128,-27,0.86,13557976400
-7,52,8,-1,-5,125,-128,-31,0.86,13557987500
-4,-17,1,0,2,-40,-107,-45,0.87,13578842800
41,4,9,9,31,127,102,127,0.87,13578861600
11,34,1,1,-1,35,-128,36,0.88,13597962100
-42,-21,-23,-14,-10,-128,91,-128,0.88,13597999500
-39,-42,-17,-13,-19,22,-128,-95,0.88,13598076000
37,-46,18,10,19,127,-128,74,0.88,13598092800
-14,-62,10,12,17,127,-128,46,0.88,13598102200
-4,35,-5,-8,-6,127,127,-100,0.88,13598109600
8,-26,2,10,14,-128,-49,-128,0.89,13619100200
2,19,-10,-13,-33,-128,78,55,0.89,13619115900
17,-41,8,2,4,127,-128,-128,0.89,13619130300
-48,-10,-9,-9,-11,-128,127,127,0.89,13619141800
-8,19,24,16,19,19,-125,-128,0.9,13639725600
-8,121,8,7,4,-80,-128,-128,0.9,13639737200
26,-50,-19,-4,-8,-128,17,-14,0.9,13639750100
-44,-31,-5,-2,7,127,127,27,0.9,13639759800
-5,61,-14,-4,-7,-128,127,-128,0.9,13639767500
44,-1,13,8,7,-128,59,127,0.9,13639775200
-26,15,-9,-7,-19,-128,-128,-128,0.91,13658425300
-14,-65,0,0,-6,127,1,-128,0.91,13658451500
56,-2,1,-1,-5,-128,127,127,0.92,13679886500
25,43,9,-1,-13,-128,127,29,0.92,13679898200
24,11,4,5,15,9,127,-128,0.92,13679906500
-18,-90,-10,-7,-1,69,-24,-128,0.92,13679915000
-62,-49,-28,-13,-5,127,-60,0,0.93,13698607100
71,-47,-3,5,11,69,-128,116,0.93,13698618400
-21,-109,-10,-7,-7,19,-15,-8,0.93,13698626700
-36,-1,3,-4,-3,-128,-79,-128,0.93,13698634200
-37,-3,0,-2,-7,-11,11,95,0.94,13719577600
-10,2,-2,6,18,127,-9,0,0.94,13719589500
22,53,1,-1,-2,97,127,127,0.94,13719611800
5,18,-5,-4,-17,-128,85,25,0.94,13719623100
16,-32,4,-3,-6,-43,116,68,0.94,13719631100
-12,18,-13,-9,-4,127,-103,89,0.94,13719638400
-5,21,-7,-4,-5,3,20,31,0.95,13738136100
-3,-49,-7,0,0,24,-128,-128,0.95,13738154200
0,20,7,-2,-3,25,-7,-26,0.96,13759628600
6,-14,-2,-2,-3,-30,-18,-2,0.96,13759639200
-29,94,-17,-6,-4,42,-14,-11,0.96,13759656500
-1,17,4,1,1,-3,-2,-12,0.96,13759693000
4,13,41,6,-1,19,0,-6,0.96,13759702400
15,-38,7,12,3,2,3,-10,0.96,13759711700
-14,-16,-27,0,1,85,-39,-6,0.97,13777950500
-14,-21,-128,-24,-15,-105,14,-11,0.97,13777961600
0,2,31,-1,-2,1,-1,-3,0.98,13799216600
6,13,26,2,3,3,1,-1,0.98,13799233800
-14,4,66,6,3,9,-2,-5,0.98,13799246800
-1,-3,-67,0,1,-1,-2,-2,0.98,13799256600
-9,-6,0,-5,2,-1,-4,-5,0.99,13817792400
3,3,-13,-1,-2,39,-5,3,0.99,13817805000
-7,-21,2,-4,-2,127,-1,-6,0.99,13817826700
-7,51,51,2,-1,14,33,-2,0.99,13817841800
1,-70,-121,-4,-3,-128,2,-1,0.99,13817852300
-6,-21,-35,-4,-3,-127,-8,-1,0.99,13817864200
-1,20,53,9,2,-120,-3,-1,0.98,13839114200
0,4,19,1,1,114,-36,-4,0.98,13839125900
-1,-1,1,-7,-8,25,-5,0,0.98,13839134300
0,6,-37,-1,-7,-128,-55,-3,0.98,13839142800
-12,-36,-80,-20,-8,49,-13,-7,0.97,13859848600
-6,-16,18,-5,-3,89,-10,-4,0.97,13859862800
-2,6,38,5,5,74,-6,-2,0.96,13878486200
5,51,21,4,2,43,0,2,0.96,13878522400
6,7,65,6,5,24,1,1,0.96,13878545000
-6,2,-12,-5,-1,3,-3,-2,0.96,13878555100
-6,6,-91,-9,-4,-2,-1,-3,0.95,13897549600
-3,-8,-40,0,-2,-6,-1,-1,0.95,13897560000
5,6,44,4,2,-13,0,2,0.95,13897591000
8,26,110,16,8,-15,5,1,0.95,13897601500
-10,-14,-128,-16,-9,-36,-4,-5,0.94,13919182400
-4,-13,71,-14,-5,-37,-1,-7,0.94,13919225600
-9,15,-30,11,0,-53,-1,-4,0.94,13919246400
6,12,48,5,3,-46,4,5,0.94,13919255000
-8,6,-90,-16,-6,-10,-3,-8,0.93,13938333200
2,13,56,10,2,-9,0,0,0.93,13938345200
-3,-11,-115,-5,-3,-15,-6,-2,0.93,13938356400
34,4,-2,10,0,-55,0,2,0.93,13938364000
-6,13,67,1,6,39,-6,1,0.92,13959446500
3,-8,-128,-9,-8,-29,16,2,0.92,13959457600
-5,5,91,-9,-5,2,4,-4,0.92,13959466600
4,2,-67,0,-1,57,0,0,0.92,13959474200
5,6,-21,-2,-2,72,-6,1,0.92,13959482500
-4,-7,75,0,-1,68,-2,1,0.92,13959509100
-1,4,62,0,-3,44,-1,0,0.91,13977930400
-7,-7,-28,-3,1,29,-1,-4,0.91,13977969700
2,-57,4,2,-3,13,-2,1,0.9,13998647700
5,-9,-15,-3,1,12,-1,-2,0.9,13998661500
0,4,26,2,0,-2,-3,0,0.9,13998673100
1,6,21,2,-1,-4,1,-4,0.9,13998681200
3,6,-25,-6,-4,-8,3,0,0.89,14017490600
-4,-6,-18,-10,-3,-2,-5,-3,0.89,14017504900
2,-6,-12,-3,0,-11,-2,0,0.89,14017514100
1,10,22,4,-6,-22,4,0,0.89,14017553400
4,0,22,4,0,7,-10,0,0.88,14038889300
0,25,23,-3,0,-8,3,1,0.88,14038900100
-5,-13,-100,-23,-8,-13,-4,-5,0.88,14038909400
-13,-34,-13,-8,-4,-22,-4,-6,0.88,14038925400
6,17,62,22,7,-24,5,3,0.87,14057645800
5,14,-14,7,4,-7,-6,1,0.87,14057689200
-2,-11,27,-8,-8,-20,-15,-4,0.87,14057701900
1,12,-31,-1,3,7,-1,2,0.87,14057710000
-7,-32,8,-7,-2,6,-5,-3,0.86,14078599900
3,8,15,7,1,9,4,1,0.86,14078611100
5,26,28,10,5,7,-3,2,0.86,14078619900
-6,-18,-28,-13,-3,0,-3,-2,0.86,14078633500
-8,-24,-14,-11,-3,3,-1,-2,0.85,14099884900
38,14,66,2,2,8,0,-1,0.85,14099897700
7,-9,-8,-3,-1,2,-4,-4,0.85,14099906900
2,-8,-7,6,-2,0,0,2,0.85,14099914300
-5,16,77,9,5,2,-3,-4,0.84,14118758200
1,-9,-78,-12,-5,-2,-1,0,0.84,14118776900
4,2,12,1,-4,-1,3,1,0.84,14118786800
6,14,-12,0,0,2,4,3,0.84,14118794900
-9,-37,-32,-10,-4,-8,-4,-5,0.83,14139859600
-1,3,-23,-14,-8,-18,-3,-6,0.83,14139870700
7,16,5,7,6,15,0,2,0.83,14139880500
3,24,58,5,-1,-11,2,0,0.83,14139890800
-3,21,12,2,-5,-6,-7,-7,0.83,14139898800
-11,-40,16,-16,-2,-4,-4,-4,0.83,14139907300
-6,-12,38,-25,-8,-4,-1,-2,0.82,14158930600
13,-10,37,10,3,0,2,-1,0.82,14158942300
37,8,20,8,2,0,-2,-1,0.81,14179376500
6,22,17,12,2,-1,1,2,0.81,14179386900
-10,25,-8,4,-1,-3,-2,2,0.81,14179394800
28,44,-28,11,4,2,3,5,0.81,14179427200
-70,68,-10,1,1,-4,-2,-4,0.8,14199929900
-24,1,-111,-14,-6,-4,-1,-3,0.8,14199946200
-14,39,32,-5,0,3,-2,-3,0.8,14199957100
8,-9,-37,-3,-1,0,-3,1,0.8,14200005200
9,18,-33,-4,0,2,3,4,0.8,14200032800
-8,32,22,-1,-7,-4,-2,-1,0.8,14200042000
7,1,-27,5,-1,-3,-1,3,0.79,14218688800
-5,-23,58,5,-2,2,-1,-2,0.79,14218700400
3,-2,-71,-7,0,1,3,0,0.78,14242003300
0,-16,-27,-4,-1,0,-2,-6,0.78,14242017300
-2,17,102,12,1,3,3,0,0.78,14242026600
5,1,-100,6,3,-4,2,3,0.78,14242034000
-10,-43,-76,-20,-5,-6,-5,-8,0.77,14259112200
3,18,50,0,-4,-3,2,3,0.77,14259150100
-6,-11,-78,-9,-2,-2,-5,-3,0.77,14259159600
2,4,91,5,2,-4,-1,0,0.77,14259167600
7,18,66,19,5,-1,-1,1,0.76,14279969100
0,-14,-85,-14,-5,1,0,-3,0.76,14279980000
-14,-33,-22,-4,-2,1,-8,-8,0.75,14298317400
-5,8,1,-7,-7,-2,-2,-4,0.75,14298336000
25,17,-7,5,3,0,0,1,0.75,14298348000
21,19,71,15,1,-1,3,5,0.75,14298356100
-11,-37,-56,-1,-2,-5,-2,-1,0.75,14298364000
-2,6,22,-6,-4,1,-2,-3,0.75,14298371200
4,10,61,10,2,3,0,2,0.74,14317554900
-5,-8,-51,-20,-4,3,1,0,0.74,14317566100
-9,6,-92,-11,-6,-11,-4,-6,0.74,14317604100
-4,-2,-40,-4,0,-3,-4,-4,0.74,14317638700
-2,5,51,-2,-3,-5,0,3,0.73,14339118500
1,30,27,5,0,-9,2,0,0.73,14339133200
50,-30,-32,4,-3,5,-11,-8,0.73,14339143000
5,-27,-34,-7,-1,-3,-3,2,0.73,14339151400
1,38,-34,0,-5,-3,-4,-1,0.72,14360253500
-7,-13,108,-3,-6,-7,-4,-4,0.72,14360264700
-13,31,-51,-12,-5,-5,2,0,0.72,14360273200
-11,-13,3,0,-2,0,-1,-7,0.72,14360283200
18,6,0,5,6,1,2,5,0.71,14378529400
-2,6,54,0,-3,-1,-2,-3,0.71,14378576500
1,7,41,-1,-4,-5,-2,-5,0.71,14378591300
8,14,-1,8,4,-3,1,1,0.71,14378618600
-3,-29,-9,-9,-5,-2,-2,1,0.7,14399868000
-38,45,49,5,2,3,0,2,0.7,14399879000
-22,-89,-128,-24,-10,-13,-6,-6,0.7,14399891000
3,1,12,-2,0,-1,-3,-2,0.7,14399900200
4,16,-15,12,4,0,-2,2,0.69,14418311200
-6,4,127,-13,-3,-2,-4,-3,0.69,14418347400
-9,-16,-128,-27,-11,0,-3,-6,0.69,14418356900
-3,-8,-23,5,2,1,0,0,0.69,14418365000
6,21,60,8,2,2,3,2,0.68,14439740000
-3,-2,29,1,0,-1,3,-3,0.68,14439752100
4,4,-4,-2,-3,5,-3,-2,0.68,14439771000
-4,9,51,7,3,-9,3,-1,0.68,14439779700
5,-11,-58,6,-1,3,-5,-3,0.68,14439787400
5,-20,-34,1,-2,-1,3,4,0.68,14439794800
-12,-29,-81,-27,-9,-9,-5,-8,0.67,14458003600
1,17,82,13,2,-1,0,1,0.67,14458018700
-6,-45,-111,-7,-1,-8,-5,-4,0.66,14479173400
22,-15,75,-1,0,2,4,4,0.66,14479198500
-10,-22,-71,-11,-5,-5,-6,-4,0.66,14479208300
5,22,81,15,1,-3,-3,1,0.66,14479216900
-13,-33,-69,-19,-6,2,-3,-4,0.65,14497725500
5,19,-9,5,2,1,2,-1,0.65,14497737900
11,36,84,13,4,2,0,3,0.65,14497777200
-8,-41,-17,-6,-4,-2,0,-3,0.65,14497799400
2,17,67,5,1,1,-2,1,0.64,14518735900
7,25,-15,4,1,22,6,3,0.64,14518748300
20,-37,34,-4,-6,-38,-7,1,0.63,14537758900
-6,0,33,6,1,6,13,-1,0.63,14537770900
8,15,-19,8,6,2,-7,3,0.63,14537779900
-17,36,64,-6,-5,19,-5,-3,0.63,14537787900
-10,-17,-15,-16,-5,-26,-2,-6,0.63,14537796100
3,46,-30,-1,3,2,3,2,0.63,14537804000
0,-55,127,3,-5,0,1,3,0.62,14558871000
5,8,-98,1,-1,-18,1,-1,0.62,14558881800
6,27,127,14,8,15,4,3,0.62,14558890400
1,9,5,-9,0,1,-3,1,0.62,14558897800
-10,2,-102,-9,-4,-6,-2,-4,0.62,14558905400
0,26,13,-2,0,-4,0,-3,0.62,14558914400
-2,-8,7,5,-1,4,-3,-4,0.61,14579880700
-4,-14,13,-6,-3,4,6,1,0.61,14579892300
-16,-17,-128,-14,-5,0,-12,-5,0.6,14598060000
