36.00 ,33.00 ,26.00 ,29.00 ,29.00 ,35.00 ,27.00 ,31.00 ,0.45 ,470793800.00 
33.00 ,35.00 ,27.00 ,29.00 ,29.00 ,36.00 ,28.00 ,29.00 ,0.45 ,498292900.00 
32.00 ,31.00 ,26.00 ,28.00 ,32.00 ,38.00 ,26.00 ,30.00 ,0.45 ,1270810500.00 
29.00 ,31.00 ,26.00 ,27.00 ,29.00 ,38.00 ,29.00 ,26.00 ,0.45 ,1329518100.00 
28.00 ,32.00 ,24.00 ,25.00 ,28.00 ,37.00 ,27.00 ,25.00 ,0.45 ,1353327300.00 
27.00 ,30.00 ,24.00 ,27.00 ,27.00 ,33.00 ,23.00 ,24.00 ,0.45 ,1375033800.00 
27.00 ,26.00 ,25.00 ,26.00 ,26.00 ,34.00 ,22.00 ,24.00 ,0.45 ,1393026000.00 
25.00 ,29.00 ,25.00 ,25.00 ,24.00 ,32.00 ,22.00 ,24.00 ,0.45 ,1410680400.00 
28.00 ,30.00 ,25.00 ,28.00 ,28.00 ,34.00 ,21.00 ,26.00 ,0.45 ,1428574100.00 
31.00 ,31.00 ,26.00 ,30.00 ,27.00 ,31.00 ,23.00 ,25.00 ,0.45 ,1446199600.00 
32.00 ,30.00 ,25.00 ,28.00 ,30.00 ,31.00 ,26.00 ,25.00 ,0.45 ,1464931900.00 
32.00 ,30.00 ,26.00 ,29.00 ,31.00 ,30.00 ,27.00 ,25.00 ,0.45 ,1482918600.00 
34.00 ,32.00 ,26.00 ,30.00 ,33.00 ,30.00 ,29.00 ,24.00 ,0.45 ,1502585700.00 
34.00 ,32.00 ,25.00 ,28.00 ,29.00 ,29.00 ,29.00 ,21.00 ,0.45 ,1520945400.00 
31.00 ,28.00 ,28.00 ,25.00 ,30.00 ,35.00 ,27.00 ,24.00 ,0.45 ,1542324700.00 
31.00 ,32.00 ,28.00 ,25.00 ,28.00 ,36.00 ,25.00 ,23.00 ,0.45 ,1566461000.00 
31.00 ,32.00 ,26.00 ,24.00 ,28.00 ,36.00 ,25.00 ,23.00 ,0.45 ,1585460500.00 
29.00 ,29.00 ,29.00 ,23.00 ,26.00 ,38.00 ,25.00 ,23.00 ,0.45 ,1603178900.00 
27.00 ,30.00 ,30.00 ,23.00 ,29.00 ,37.00 ,25.00 ,26.00 ,0.45 ,1629676000.00 
26.00 ,30.00 ,27.00 ,27.00 ,27.00 ,32.00 ,25.00 ,24.00 ,0.45 ,1650033900.00 
27.00 ,28.00 ,27.00 ,28.00 ,26.00 ,30.00 ,27.00 ,26.00 ,0.45 ,1668353100.00 
27.00 ,27.00 ,28.00 ,26.00 ,25.00 ,34.00 ,28.00 ,28.00 ,0.45 ,1687250300.00 
27.00 ,28.00 ,25.00 ,27.00 ,25.00 ,33.00 ,25.00 ,27.00 ,0.45 ,1705429200.00 
30.00 ,27.00 ,25.00 ,27.00 ,23.00 ,35.00 ,25.00 ,24.00 ,0.45 ,1724470500.00 
28.00 ,27.00 ,25.00 ,25.00 ,24.00 ,39.00 ,27.00 ,27.00 ,0.45 ,1742728000.00 
30.00 ,29.00 ,26.00 ,23.00 ,26.00 ,40.00 ,24.00 ,25.00 ,0.45 ,1763139400.00 
31.00 ,34.00 ,24.00 ,25.00 ,27.00 ,35.00 ,25.00 ,25.00 ,0.45 ,1782261100.00 
32.00 ,32.00 ,26.00 ,23.00 ,29.00 ,34.00 ,28.00 ,25.00 ,0.45 ,1799973000.00 
32.00 ,33.00 ,24.00 ,26.00 ,31.00 ,36.00 ,28.00 ,27.00 ,0.45 ,1817543000.00 
31.00 ,34.00 ,26.00 ,26.00 ,31.00 ,31.00 ,29.00 ,26.00 ,0.45 ,1835021700.00 
37.00 ,32.00 ,26.00 ,25.00 ,29.00 ,30.00 ,30.00 ,26.00 ,0.45 ,1853061300.00 
36.00 ,27.00 ,27.00 ,28.00 ,31.00 ,30.00 ,29.00 ,25.00 ,0.45 ,1871799600.00 
35.00 ,30.00 ,28.00 ,29.00 ,31.00 ,30.00 ,25.00 ,25.00 ,0.45 ,1889983000.00 
34.00 ,30.00 ,27.00 ,27.00 ,27.00 ,29.00 ,26.00 ,24.00 ,0.45 ,1908046100.00 
34.00 ,26.00 ,26.00 ,27.00 ,27.00 ,28.00 ,26.00 ,24.00 ,0.45 ,1925927900.00 
31.00 ,29.00 ,25.00 ,27.00 ,29.00 ,29.00 ,25.00 ,28.00 ,0.45 ,1944570600.00 
29.00 ,31.00 ,25.00 ,28.00 ,29.00 ,30.00 ,26.00 ,31.00 ,0.45 ,1962969400.00 
29.00 ,29.00 ,25.00 ,27.00 ,27.00 ,28.00 ,27.00 ,31.00 ,0.45 ,1980644800.00 
27.00 ,30.00 ,25.00 ,27.00 ,32.00 ,27.00 ,26.00 ,32.00 ,0.45 ,1999924800.00 
27.00 ,33.00 ,24.00 ,28.00 ,33.00 ,30.00 ,27.00 ,32.00 ,0.45 ,2017893000.00 
23.00 ,31.00 ,26.00 ,28.00 ,31.00 ,30.00 ,27.00 ,28.00 ,0.45 ,2036368100.00 
27.00 ,29.00 ,24.00 ,24.00 ,31.00 ,31.00 ,27.00 ,28.00 ,0.45 ,2053873800.00 
30.00 ,32.00 ,21.00 ,25.00 ,31.00 ,34.00 ,27.00 ,27.00 ,0.45 ,2071661900.00 
31.00 ,28.00 ,23.00 ,27.00 ,28.00 ,36.00 ,29.00 ,26.00 ,0.45 ,2091098400.00 
33.00 ,30.00 ,22.00 ,26.00 ,29.00 ,39.00 ,28.00 ,27.00 ,0.45 ,2108714400.00 
33.00 ,32.00 ,21.00 ,30.00 ,31.00 ,40.00 ,28.00 ,30.00 ,0.45 ,2126393400.00 
31.00 ,32.00 ,22.00 ,31.00 ,30.00 ,38.00 ,26.00 ,25.00 ,0.45 ,2144413400.00 
30.00 ,33.00 ,23.00 ,29.00 ,29.00 ,36.00 ,27.00 ,24.00 ,0.45 ,2162155900.00 
31.00 ,34.00 ,22.00 ,28.00 ,29.00 ,34.00 ,24.00 ,25.00 ,0.45 ,2180021000.00 
30.00 ,31.00 ,22.00 ,27.00 ,28.00 ,33.00 ,26.00 ,26.00 ,0.45 ,2198532500.00 
29.00 ,32.00 ,24.00 ,24.00 ,27.00 ,35.00 ,26.00 ,24.00 ,0.45 ,2217104400.00 
31.00 ,32.00 ,24.00 ,23.00 ,28.00 ,36.00 ,30.00 ,26.00 ,0.45 ,2236188600.00 
31.00 ,28.00 ,26.00 ,25.00 ,29.00 ,37.00 ,29.00 ,26.00 ,0.45 ,2253998600.00 
30.00 ,29.00 ,27.00 ,25.00 ,30.00 ,38.00 ,31.00 ,24.00 ,0.45 ,2271944400.00 
31.00 ,27.00 ,27.00 ,27.00 ,28.00 ,35.00 ,28.00 ,23.00 ,0.45 ,2289946700.00 
32.00 ,25.00 ,26.00 ,26.00 ,27.00 ,34.00 ,28.00 ,23.00 ,0.45 ,2307696200.00 
32.00 ,26.00 ,25.00 ,25.00 ,27.00 ,34.00 ,24.00 ,23.00 ,0.45 ,2325448400.00 
32.00 ,25.00 ,23.00 ,25.00 ,26.00 ,35.00 ,25.00 ,26.00 ,0.45 ,2344750700.00 
32.00 ,22.00 ,22.00 ,23.00 ,25.00 ,36.00 ,23.00 ,26.00 ,0.45 ,2362916400.00 
34.00 ,23.00 ,22.00 ,23.00 ,28.00 ,34.00 ,23.00 ,25.00 ,0.45 ,2381999200.00 
35.00 ,24.00 ,22.00 ,24.00 ,29.00 ,33.00 ,26.00 ,25.00 ,0.45 ,2400153800.00 
32.00 ,22.00 ,25.00 ,24.00 ,28.00 ,34.00 ,26.00 ,26.00 ,0.45 ,2418512800.00 
29.00 ,28.00 ,25.00 ,25.00 ,29.00 ,32.00 ,27.00 ,26.00 ,0.45 ,2436258900.00 
30.00 ,30.00 ,27.00 ,27.00 ,29.00 ,31.00 ,28.00 ,28.00 ,0.45 ,2453878000.00 
26.00 ,29.00 ,27.00 ,26.00 ,28.00 ,33.00 ,28.00 ,28.00 ,0.45 ,2472104300.00 
24.00 ,28.00 ,27.00 ,26.00 ,28.00 ,31.00 ,25.00 ,28.00 ,0.45 ,2490187300.00 
25.00 ,29.00 ,25.00 ,28.00 ,29.00 ,32.00 ,25.00 ,28.00 ,0.45 ,2508175700.00 
30.00 ,24.00 ,25.00 ,27.00 ,28.00 ,33.00 ,24.00 ,26.00 ,0.45 ,2525833600.00 
30.00 ,24.00 ,23.00 ,25.00 ,27.00 ,30.00 ,25.00 ,24.00 ,0.45 ,2544522500.00 
28.00 ,24.00 ,25.00 ,25.00 ,27.00 ,32.00 ,27.00 ,22.00 ,0.45 ,2563157400.00 
31.00 ,25.00 ,24.00 ,23.00 ,25.00 ,33.00 ,28.00 ,24.00 ,0.45 ,2581368900.00 
32.00 ,26.00 ,25.00 ,24.00 ,24.00 ,32.00 ,28.00 ,23.00 ,0.45 ,2599823700.00 
29.00 ,28.00 ,25.00 ,22.00 ,26.00 ,36.00 ,28.00 ,26.00 ,0.45 ,2617661800.00 
30.00 ,29.00 ,27.00 ,25.00 ,28.00 ,36.00 ,30.00 ,27.00 ,0.45 ,2636745200.00 
33.00 ,30.00 ,24.00 ,24.00 ,28.00 ,33.00 ,27.00 ,31.00 ,0.45 ,2665874200.00 
33.00 ,30.00 ,26.00 ,26.00 ,29.00 ,38.00 ,27.00 ,32.00 ,0.45 ,2685350700.00 
31.00 ,30.00 ,25.00 ,25.00 ,29.00 ,37.00 ,27.00 ,33.00 ,0.45 ,2704688900.00 
34.00 ,27.00 ,25.00 ,26.00 ,26.00 ,34.00 ,31.00 ,32.00 ,0.45 ,2723401600.00 
33.00 ,26.00 ,24.00 ,25.00 ,26.00 ,35.00 ,27.00 ,31.00 ,0.45 ,2741503800.00 
31.00 ,26.00 ,24.00 ,26.00 ,25.00 ,38.00 ,29.00 ,30.00 ,0.45 ,2759382300.00 
30.00 ,26.00 ,23.00 ,28.00 ,28.00 ,32.00 ,30.00 ,28.00 ,0.45 ,2776136500.00 
30.00 ,30.00 ,27.00 ,28.00 ,27.00 ,35.00 ,29.00 ,28.00 ,0.45 ,2792682800.00 
26.00 ,30.00 ,26.00 ,28.00 ,27.00 ,33.00 ,25.00 ,26.00 ,0.45 ,2809314200.00 
26.00 ,32.00 ,28.00 ,29.00 ,29.00 ,32.00 ,27.00 ,24.00 ,0.45 ,2825849000.00 
27.00 ,33.00 ,28.00 ,29.00 ,31.00 ,31.00 ,27.00 ,25.00 ,0.45 ,2844364300.00 
26.00 ,32.00 ,29.00 ,27.00 ,29.00 ,35.00 ,26.00 ,24.00 ,0.45 ,2861477700.00 
27.00 ,33.00 ,28.00 ,27.00 ,30.00 ,34.00 ,27.00 ,26.00 ,0.45 ,2878200500.00 
28.00 ,37.00 ,27.00 ,29.00 ,31.00 ,36.00 ,27.00 ,27.00 ,0.45 ,2894875900.00 
27.00 ,37.00 ,27.00 ,31.00 ,30.00 ,40.00 ,25.00 ,29.00 ,0.45 ,2914003900.00 
29.00 ,38.00 ,27.00 ,30.00 ,30.00 ,39.00 ,26.00 ,29.00 ,0.45 ,2931072200.00 
29.00 ,36.00 ,29.00 ,30.00 ,29.00 ,37.00 ,27.00 ,30.00 ,0.45 ,2948563000.00 
29.00 ,32.00 ,27.00 ,30.00 ,30.00 ,36.00 ,27.00 ,29.00 ,0.45 ,2965441600.00 
31.00 ,31.00 ,28.00 ,27.00 ,31.00 ,35.00 ,27.00 ,29.00 ,0.45 ,2981930800.00 
36.00 ,30.00 ,26.00 ,25.00 ,30.00 ,32.00 ,27.00 ,28.00 ,0.45 ,2998613100.00 
32.00 ,26.00 ,26.00 ,25.00 ,29.00 ,30.00 ,25.00 ,28.00 ,0.45 ,3015018300.00 
30.00 ,26.00 ,24.00 ,24.00 ,30.00 ,32.00 ,26.00 ,27.00 ,0.45 ,3031367500.00 
30.00 ,26.00 ,25.00 ,26.00 ,28.00 ,30.00 ,28.00 ,26.00 ,0.45 ,3048235700.00 
30.00 ,27.00 ,23.00 ,25.00 ,27.00 ,32.00 ,30.00 ,26.00 ,0.45 ,3065156000.00 
25.00 ,25.00 ,26.00 ,25.00 ,28.00 ,32.00 ,29.00 ,24.00 ,0.45 ,3083242800.00 
27.00 ,27.00 ,25.00 ,26.00 ,28.00 ,34.00 ,30.00 ,23.00 ,0.45 ,3100776400.00 
27.00 ,28.00 ,26.00 ,24.00 ,26.00 ,33.00 ,27.00 ,22.00 ,0.45 ,3117503400.00 
28.00 ,28.00 ,26.00 ,24.00 ,27.00 ,35.00 ,25.00 ,24.00 ,0.45 ,3134274600.00 
30.00 ,24.00 ,26.00 ,25.00 ,28.00 ,34.00 ,23.00 ,24.00 ,0.45 ,3151453600.00 
30.00 ,28.00 ,25.00 ,26.00 ,27.00 ,35.00 ,26.00 ,26.00 ,0.45 ,3168353000.00 
30.00 ,28.00 ,26.00 ,24.00 ,26.00 ,34.00 ,24.00 ,25.00 ,0.45 ,3186098200.00 
33.00 ,30.00 ,26.00 ,25.00 ,27.00 ,34.00 ,26.00 ,26.00 ,0.45 ,3203470100.00 
32.00 ,32.00 ,24.00 ,25.00 ,28.00 ,33.00 ,27.00 ,25.00 ,0.45 ,3221083700.00 
29.00 ,32.00 ,25.00 ,26.00 ,27.00 ,30.00 ,29.00 ,24.00 ,0.45 ,3239207900.00 
31.00 ,30.00 ,24.00 ,26.00 ,27.00 ,30.00 ,26.00 ,23.00 ,0.45 ,3256660800.00 
30.00 ,30.00 ,25.00 ,26.00 ,27.00 ,29.00 ,28.00 ,24.00 ,0.45 ,3274720000.00 
30.00 ,29.00 ,25.00 ,27.00 ,26.00 ,27.00 ,29.00 ,25.00 ,0.45 ,3291885500.00 
31.00 ,28.00 ,25.00 ,28.00 ,24.00 ,29.00 ,28.00 ,24.00 ,0.45 ,3308455200.00 
31.00 ,28.00 ,24.00 ,28.00 ,25.00 ,33.00 ,28.00 ,25.00 ,0.45 ,3324852800.00 
32.00 ,27.00 ,24.00 ,28.00 ,25.00 ,34.00 ,31.00 ,25.00 ,0.45 ,3341449200.00 
31.00 ,26.00 ,23.00 ,29.00 ,25.00 ,35.00 ,30.00 ,25.00 ,0.45 ,3358027100.00 
30.00 ,24.00 ,22.00 ,29.00 ,25.00 ,37.00 ,28.00 ,24.00 ,0.45 ,3375200900.00 
29.00 ,25.00 ,24.00 ,28.00 ,26.00 ,35.00 ,28.00 ,23.00 ,0.45 ,3393341900.00 
31.00 ,26.00 ,26.00 ,28.00 ,26.00 ,33.00 ,25.00 ,23.00 ,0.45 ,3410503100.00 
31.00 ,28.00 ,25.00 ,25.00 ,26.00 ,34.00 ,25.00 ,19.00 ,0.45 ,3427438700.00 
31.00 ,26.00 ,25.00 ,25.00 ,27.00 ,34.00 ,24.00 ,19.00 ,0.45 ,3444188800.00 
32.00 ,29.00 ,28.00 ,24.00 ,26.00 ,34.00 ,24.00 ,21.00 ,0.45 ,3460761600.00 
32.00 ,28.00 ,27.00 ,23.00 ,26.00 ,35.00 ,28.00 ,23.00 ,0.45 ,3477192900.00 
30.00 ,26.00 ,27.00 ,24.00 ,26.00 ,35.00 ,29.00 ,22.00 ,0.45 ,3494647400.00 
30.00 ,24.00 ,28.00 ,24.00 ,26.00 ,36.00 ,26.00 ,24.00 ,0.45 ,3513407100.00 
31.00 ,28.00 ,28.00 ,23.00 ,27.00 ,35.00 ,28.00 ,24.00 ,0.45 ,3530303900.00 
31.00 ,28.00 ,26.00 ,23.00 ,28.00 ,36.00 ,29.00 ,23.00 ,0.45 ,3546910300.00 
31.00 ,31.00 ,25.00 ,22.00 ,29.00 ,35.00 ,26.00 ,22.00 ,0.45 ,3564434500.00 
31.00 ,31.00 ,24.00 ,20.00 ,27.00 ,35.00 ,25.00 ,23.00 ,0.45 ,3580919400.00 
31.00 ,30.00 ,23.00 ,22.00 ,27.00 ,34.00 ,26.00 ,25.00 ,0.45 ,3598875400.00 
32.00 ,34.00 ,23.00 ,23.00 ,29.00 ,34.00 ,25.00 ,26.00 ,0.45 ,3615853200.00 
34.00 ,35.00 ,23.00 ,23.00 ,29.00 ,32.00 ,26.00 ,28.00 ,0.45 ,3632450900.00 
36.00 ,35.00 ,23.00 ,25.00 ,28.00 ,32.00 ,25.00 ,28.00 ,0.45 ,3649595400.00 
36.00 ,36.00 ,22.00 ,27.00 ,31.00 ,34.00 ,27.00 ,27.00 ,0.45 ,3666375000.00 
36.00 ,37.00 ,22.00 ,26.00 ,31.00 ,29.00 ,27.00 ,26.00 ,0.45 ,3684959200.00 
36.00 ,34.00 ,23.00 ,24.00 ,29.00 ,30.00 ,30.00 ,26.00 ,0.45 ,3704265900.00 
34.00 ,33.00 ,26.00 ,24.00 ,28.00 ,30.00 ,30.00 ,23.00 ,0.45 ,3721971900.00 
32.00 ,29.00 ,25.00 ,21.00 ,29.00 ,34.00 ,30.00 ,25.00 ,0.45 ,3740300600.00 
33.00 ,31.00 ,27.00 ,21.00 ,30.00 ,32.00 ,29.00 ,26.00 ,0.45 ,3758230300.00 
35.00 ,29.00 ,29.00 ,22.00 ,29.00 ,33.00 ,31.00 ,25.00 ,0.45 ,3776572900.00 
35.00 ,27.00 ,28.00 ,23.00 ,29.00 ,31.00 ,27.00 ,24.00 ,0.45 ,3793287300.00 
36.00 ,27.00 ,24.00 ,24.00 ,30.00 ,34.00 ,25.00 ,25.00 ,0.45 ,3810512900.00 
37.00 ,27.00 ,26.00 ,27.00 ,31.00 ,30.00 ,28.00 ,25.00 ,0.45 ,3827687700.00 
37.00 ,26.00 ,25.00 ,28.00 ,27.00 ,28.00 ,28.00 ,25.00 ,0.45 ,3844628400.00 
31.00 ,28.00 ,23.00 ,28.00 ,29.00 ,28.00 ,27.00 ,24.00 ,0.45 ,3861321800.00 
30.00 ,30.00 ,22.00 ,29.00 ,29.00 ,30.00 ,27.00 ,24.00 ,0.45 ,3878756800.00 
28.00 ,29.00 ,24.00 ,27.00 ,29.00 ,25.00 ,28.00 ,25.00 ,0.45 ,3896150400.00 
25.00 ,31.00 ,25.00 ,25.00 ,27.00 ,27.00 ,28.00 ,24.00 ,0.45 ,3912926200.00 
26.00 ,30.00 ,24.00 ,22.00 ,27.00 ,33.00 ,28.00 ,24.00 ,0.45 ,3930537000.00 
27.00 ,30.00 ,24.00 ,19.00 ,27.00 ,33.00 ,26.00 ,27.00 ,0.45 ,3947264700.00 
27.00 ,28.00 ,25.00 ,18.00 ,26.00 ,33.00 ,27.00 ,27.00 ,0.45 ,3964497600.00 
26.00 ,28.00 ,25.00 ,20.00 ,25.00 ,35.00 ,25.00 ,27.00 ,0.45 ,3981509700.00 
26.00 ,29.00 ,24.00 ,22.00 ,27.00 ,35.00 ,24.00 ,25.00 ,0.45 ,3998584900.00 
25.00 ,31.00 ,26.00 ,22.00 ,26.00 ,34.00 ,24.00 ,26.00 ,0.45 ,4015570600.00 
30.00 ,29.00 ,25.00 ,25.00 ,27.00 ,33.00 ,24.00 ,24.00 ,0.45 ,4033113100.00 
31.00 ,28.00 ,26.00 ,24.00 ,26.00 ,35.00 ,24.00 ,26.00 ,0.45 ,4050769000.00 
33.00 ,29.00 ,25.00 ,23.00 ,28.00 ,35.00 ,25.00 ,26.00 ,0.45 ,4067786800.00 
34.00 ,27.00 ,24.00 ,22.00 ,26.00 ,33.00 ,24.00 ,27.00 ,0.45 ,4085458700.00 
35.00 ,27.00 ,21.00 ,25.00 ,28.00 ,37.00 ,26.00 ,26.00 ,0.45 ,4103925700.00 
32.00 ,27.00 ,22.00 ,23.00 ,27.00 ,38.00 ,26.00 ,28.00 ,0.45 ,4121174100.00 
33.00 ,31.00 ,22.00 ,24.00 ,29.00 ,35.00 ,28.00 ,27.00 ,0.45 ,4139609700.00 
32.00 ,30.00 ,22.00 ,24.00 ,28.00 ,36.00 ,28.00 ,26.00 ,0.45 ,4157922000.00 
32.00 ,32.00 ,23.00 ,24.00 ,28.00 ,37.00 ,28.00 ,27.00 ,0.45 ,4175622700.00 
30.00 ,30.00 ,26.00 ,19.00 ,25.00 ,32.00 ,27.00 ,27.00 ,0.45 ,4193763200.00 
30.00 ,33.00 ,27.00 ,25.00 ,25.00 ,34.00 ,27.00 ,25.00 ,0.45 ,4211699800.00 
29.00 ,30.00 ,26.00 ,25.00 ,24.00 ,35.00 ,26.00 ,25.00 ,0.45 ,4229891700.00 
28.00 ,30.00 ,28.00 ,27.00 ,23.00 ,32.00 ,27.00 ,25.00 ,0.45 ,4250443600.00 
29.00 ,27.00 ,28.00 ,27.00 ,25.00 ,32.00 ,26.00 ,24.00 ,0.45 ,4272695100.00 
30.00 ,29.00 ,25.00 ,29.00 ,25.00 ,34.00 ,24.00 ,25.00 ,0.45 ,4290594100.00 
30.00 ,29.00 ,25.00 ,27.00 ,26.00 ,31.00 ,24.00 ,24.00 ,0.45 ,4308655100.00 
26.00 ,29.00 ,26.00 ,26.00 ,26.00 ,30.00 ,22.00 ,24.00 ,0.45 ,4328145200.00 
29.00 ,32.00 ,25.00 ,25.00 ,26.00 ,30.00 ,23.00 ,24.00 ,0.45 ,4350370700.00 
33.00 ,34.00 ,25.00 ,29.00 ,26.00 ,29.00 ,23.00 ,25.00 ,0.45 ,4372567300.00 
32.00 ,34.00 ,25.00 ,28.00 ,26.00 ,26.00 ,25.00 ,24.00 ,0.45 ,4390802400.00 
33.00 ,32.00 ,23.00 ,27.00 ,26.00 ,29.00 ,25.00 ,25.00 ,0.45 ,4409822700.00 
34.00 ,33.00 ,24.00 ,29.00 ,27.00 ,30.00 ,25.00 ,26.00 ,0.45 ,4428144500.00 
33.00 ,32.00 ,26.00 ,32.00 ,26.00 ,30.00 ,25.00 ,25.00 ,0.45 ,4450415300.00 
27.00 ,31.00 ,26.00 ,27.00 ,24.00 ,31.00 ,25.00 ,26.00 ,0.45 ,4472620500.00 
28.00 ,31.00 ,26.00 ,29.00 ,25.00 ,32.00 ,26.00 ,26.00 ,0.45 ,4490104300.00 
28.00 ,30.00 ,26.00 ,32.00 ,24.00 ,32.00 ,25.00 ,26.00 ,0.45 ,4508376800.00 
28.00 ,30.00 ,25.00 ,31.00 ,23.00 ,32.00 ,28.00 ,23.00 ,0.46 ,4528090400.00 
30.00 ,28.00 ,24.00 ,31.00 ,23.00 ,35.00 ,27.00 ,25.00 ,0.46 ,4550121800.00 
31.00 ,28.00 ,24.00 ,31.00 ,25.00 ,37.00 ,26.00 ,23.00 ,0.46 ,4572504600.00 
30.00 ,27.00 ,24.00 ,30.00 ,28.00 ,36.00 ,25.00 ,24.00 ,0.46 ,4590630500.00 
30.00 ,27.00 ,24.00 ,28.00 ,27.00 ,32.00 ,27.00 ,24.00 ,0.46 ,4609644700.00 
29.00 ,26.00 ,26.00 ,28.00 ,28.00 ,33.00 ,27.00 ,25.00 ,0.46 ,4629580500.00 
26.00 ,27.00 ,29.00 ,29.00 ,29.00 ,31.00 ,28.00 ,24.00 ,0.46 ,4652570000.00 
28.00 ,27.00 ,29.00 ,28.00 ,29.00 ,27.00 ,30.00 ,26.00 ,0.46 ,4671680300.00 
28.00 ,25.00 ,31.00 ,28.00 ,26.00 ,28.00 ,29.00 ,26.00 ,0.46 ,4690100500.00 
28.00 ,27.00 ,30.00 ,26.00 ,27.00 ,36.00 ,31.00 ,26.00 ,0.46 ,4709474900.00 
27.00 ,27.00 ,29.00 ,26.00 ,28.00 ,35.00 ,29.00 ,26.00 ,0.46 ,4732202300.00 
26.00 ,26.00 ,26.00 ,25.00 ,28.00 ,34.00 ,29.00 ,25.00 ,0.46 ,4750592500.00 
26.00 ,25.00 ,25.00 ,28.00 ,28.00 ,35.00 ,28.00 ,28.00 ,0.46 ,4768806300.00 
27.00 ,27.00 ,22.00 ,29.00 ,27.00 ,35.00 ,29.00 ,27.00 ,0.46 ,4790065200.00 
28.00 ,27.00 ,24.00 ,28.00 ,26.00 ,31.00 ,25.00 ,28.00 ,0.45 ,4812077600.00 
31.00 ,25.00 ,25.00 ,27.00 ,26.00 ,30.00 ,26.00 ,31.00 ,0.45 ,4834649100.00 
31.00 ,28.00 ,26.00 ,27.00 ,27.00 ,30.00 ,24.00 ,30.00 ,0.45 ,4853869500.00 
30.00 ,29.00 ,26.00 ,27.00 ,26.00 ,30.00 ,25.00 ,26.00 ,0.45 ,4873001100.00 
31.00 ,30.00 ,25.00 ,28.00 ,28.00 ,30.00 ,23.00 ,25.00 ,0.45 ,4891977400.00 
29.00 ,31.00 ,26.00 ,29.00 ,27.00 ,31.00 ,26.00 ,25.00 ,0.45 ,4910764400.00 
28.00 ,31.00 ,25.00 ,29.00 ,28.00 ,31.00 ,27.00 ,23.00 ,0.45 ,4931046800.00 
28.00 ,29.00 ,26.00 ,29.00 ,26.00 ,31.00 ,27.00 ,27.00 ,0.45 ,4952853000.00 
30.00 ,29.00 ,27.00 ,27.00 ,30.00 ,34.00 ,27.00 ,28.00 ,0.45 ,4970762600.00 
31.00 ,30.00 ,28.00 ,25.00 ,28.00 ,33.00 ,28.00 ,30.00 ,0.45 ,4988727000.00 
31.00 ,27.00 ,27.00 ,25.00 ,30.00 ,31.00 ,27.00 ,28.00 ,0.45 ,5008581700.00 
32.00 ,27.00 ,26.00 ,24.00 ,28.00 ,29.00 ,26.00 ,27.00 ,0.45 ,5030606800.00 
33.00 ,28.00 ,26.00 ,24.00 ,30.00 ,30.00 ,25.00 ,26.00 ,0.45 ,5052918100.00 
33.00 ,30.00 ,27.00 ,25.00 ,28.00 ,30.00 ,26.00 ,25.00 ,0.45 ,5071290400.00 
31.00 ,28.00 ,25.00 ,24.00 ,29.00 ,32.00 ,24.00 ,23.00 ,0.45 ,5089736400.00 
34.00 ,28.00 ,24.00 ,24.00 ,27.00 ,34.00 ,24.00 ,23.00 ,0.45 ,5108495800.00 
32.00 ,31.00 ,27.00 ,27.00 ,27.00 ,37.00 ,24.00 ,26.00 ,0.45 ,5130815500.00 
30.00 ,30.00 ,26.00 ,28.00 ,27.00 ,36.00 ,25.00 ,23.00 ,0.45 ,5153339400.00 
30.00 ,30.00 ,26.00 ,27.00 ,28.00 ,40.00 ,23.00 ,23.00 ,0.45 ,5171308700.00 
31.00 ,30.00 ,29.00 ,25.00 ,28.00 ,39.00 ,27.00 ,22.00 ,0.45 ,5189958200.00 
29.00 ,31.00 ,32.00 ,26.00 ,30.00 ,40.00 ,27.00 ,25.00 ,0.45 ,5208693800.00 
32.00 ,28.00 ,29.00 ,24.00 ,29.00 ,38.00 ,28.00 ,23.00 ,0.45 ,5231139700.00 
35.00 ,30.00 ,28.00 ,23.00 ,28.00 ,38.00 ,28.00 ,25.00 ,0.45 ,5249433700.00 
33.00 ,29.00 ,29.00 ,22.00 ,26.00 ,33.00 ,29.00 ,24.00 ,0.45 ,5268070100.00 
32.00 ,30.00 ,27.00 ,23.00 ,25.00 ,35.00 ,27.00 ,26.00 ,0.45 ,5288462700.00 
31.00 ,29.00 ,26.00 ,21.00 ,22.00 ,36.00 ,28.00 ,24.00 ,0.45 ,5310894200.00 
28.00 ,29.00 ,30.00 ,22.00 ,23.00 ,35.00 ,26.00 ,27.00 ,0.45 ,5334240900.00 
26.00 ,28.00 ,30.00 ,25.00 ,23.00 ,36.00 ,25.00 ,27.00 ,0.45 ,5353267600.00 
25.00 ,28.00 ,29.00 ,25.00 ,23.00 ,36.00 ,24.00 ,26.00 ,0.45 ,5371718000.00 
24.00 ,27.00 ,28.00 ,25.00 ,26.00 ,34.00 ,22.00 ,26.00 ,0.45 ,5397329200.00 
27.00 ,28.00 ,28.00 ,27.00 ,27.00 ,34.00 ,24.00 ,25.00 ,0.45 ,5415364000.00 
28.00 ,30.00 ,24.00 ,25.00 ,27.00 ,34.00 ,28.00 ,24.00 ,0.45 ,5433611900.00 
28.00 ,28.00 ,25.00 ,21.00 ,28.00 ,32.00 ,29.00 ,22.00 ,0.45 ,5452469800.00 
28.00 ,29.00 ,25.00 ,25.00 ,28.00 ,32.00 ,30.00 ,23.00 ,0.45 ,5470314900.00 
28.00 ,29.00 ,26.00 ,26.00 ,27.00 ,34.00 ,32.00 ,23.00 ,0.45 ,5488417900.00 
25.00 ,31.00 ,25.00 ,25.00 ,26.00 ,32.00 ,32.00 ,22.00 ,0.45 ,5507313000.00 
26.00 ,30.00 ,28.00 ,28.00 ,27.00 ,34.00 ,30.00 ,22.00 ,0.45 ,5527980700.00 
29.00 ,31.00 ,27.00 ,30.00 ,26.00 ,37.00 ,31.00 ,24.00 ,0.45 ,5551011800.00 
29.00 ,31.00 ,26.00 ,25.00 ,26.00 ,38.00 ,30.00 ,25.00 ,0.45 ,5572540600.00 
28.00 ,31.00 ,26.00 ,26.00 ,27.00 ,38.00 ,29.00 ,24.00 ,0.45 ,5591094000.00 
29.00 ,30.00 ,26.00 ,27.00 ,26.00 ,36.00 ,29.00 ,27.00 ,0.45 ,5608865400.00 
30.00 ,30.00 ,23.00 ,27.00 ,24.00 ,36.00 ,27.00 ,26.00 ,0.45 ,5628977500.00 
27.00 ,30.00 ,23.00 ,25.00 ,23.00 ,35.00 ,26.00 ,26.00 ,0.45 ,5651030900.00 
28.00 ,28.00 ,23.00 ,29.00 ,24.00 ,35.00 ,25.00 ,27.00 ,0.45 ,5672661700.00 
31.00 ,28.00 ,23.00 ,28.00 ,23.00 ,33.00 ,27.00 ,27.00 ,0.46 ,5690815000.00 
29.00 ,31.00 ,22.00 ,25.00 ,25.00 ,33.00 ,27.00 ,26.00 ,0.46 ,5710107400.00 
31.00 ,30.00 ,21.00 ,25.00 ,25.00 ,32.00 ,28.00 ,27.00 ,0.46 ,5728380300.00 
30.00 ,30.00 ,22.00 ,25.00 ,29.00 ,32.00 ,27.00 ,26.00 ,0.46 ,5750742400.00 
30.00 ,31.00 ,26.00 ,23.00 ,27.00 ,31.00 ,27.00 ,25.00 ,0.46 ,5775812200.00 
29.00 ,31.00 ,25.00 ,23.00 ,27.00 ,29.00 ,26.00 ,24.00 ,0.45 ,5794873800.00 
30.00 ,26.00 ,26.00 ,27.00 ,28.00 ,28.00 ,25.00 ,23.00 ,0.45 ,5813464000.00 
25.00 ,28.00 ,25.00 ,28.00 ,29.00 ,29.00 ,26.00 ,23.00 ,0.45 ,5831904000.00 
27.00 ,30.00 ,25.00 ,28.00 ,29.00 ,30.00 ,27.00 ,24.00 ,0.45 ,5850195600.00 
31.00 ,29.00 ,22.00 ,28.00 ,30.00 ,30.00 ,30.00 ,22.00 ,0.45 ,5874842300.00 
30.00 ,29.00 ,21.00 ,28.00 ,31.00 ,31.00 ,31.00 ,21.00 ,0.45 ,5896961100.00 
30.00 ,32.00 ,25.00 ,27.00 ,30.00 ,34.00 ,30.00 ,21.00 ,0.45 ,5917163300.00 
31.00 ,30.00 ,25.00 ,26.00 ,31.00 ,34.00 ,29.00 ,22.00 ,0.45 ,5934605600.00 
31.00 ,29.00 ,26.00 ,27.00 ,29.00 ,34.00 ,29.00 ,23.00 ,0.45 ,5954655500.00 
28.00 ,28.00 ,25.00 ,26.00 ,28.00 ,32.00 ,28.00 ,26.00 ,0.45 ,5972877500.00 
30.00 ,28.00 ,27.00 ,24.00 ,29.00 ,35.00 ,27.00 ,26.00 ,0.45 ,5991036300.00 
29.00 ,26.00 ,24.00 ,26.00 ,29.00 ,34.00 ,28.00 ,29.00 ,0.45 ,6009846000.00 
32.00 ,25.00 ,26.00 ,25.00 ,29.00 ,35.00 ,26.00 ,29.00 ,0.45 ,6028354400.00 
31.00 ,25.00 ,24.00 ,24.00 ,28.00 ,34.00 ,29.00 ,27.00 ,0.45 ,6050163300.00 
33.00 ,26.00 ,24.00 ,24.00 ,29.00 ,35.00 ,28.00 ,27.00 ,0.45 ,6072315400.00 
35.00 ,26.00 ,24.00 ,25.00 ,28.00 ,33.00 ,27.00 ,27.00 ,0.45 ,6090842400.00 
35.00 ,25.00 ,24.00 ,24.00 ,28.00 ,31.00 ,28.00 ,23.00 ,0.45 ,6109593700.00 
32.00 ,27.00 ,23.00 ,25.00 ,29.00 ,29.00 ,30.00 ,24.00 ,0.45 ,6128271600.00 
30.00 ,26.00 ,25.00 ,26.00 ,30.00 ,28.00 ,28.00 ,26.00 ,0.45 ,6150875000.00 
28.00 ,26.00 ,25.00 ,27.00 ,30.00 ,29.00 ,28.00 ,24.00 ,0.45 ,6173318300.00 
25.00 ,25.00 ,27.00 ,27.00 ,30.00 ,30.00 ,29.00 ,28.00 ,0.45 ,6192323700.00 
25.00 ,29.00 ,26.00 ,26.00 ,29.00 ,31.00 ,28.00 ,30.00 ,0.45 ,6211587100.00 
25.00 ,26.00 ,26.00 ,26.00 ,26.00 ,33.00 ,29.00 ,29.00 ,0.45 ,6230881500.00 
28.00 ,26.00 ,25.00 ,24.00 ,25.00 ,32.00 ,29.00 ,28.00 ,0.45 ,6250252300.00 
28.00 ,27.00 ,23.00 ,22.00 ,23.00 ,31.00 ,28.00 ,31.00 ,0.45 ,6272242700.00 
28.00 ,25.00 ,23.00 ,22.00 ,22.00 ,32.00 ,29.00 ,28.00 ,0.45 ,6290885200.00 
28.00 ,25.00 ,22.00 ,19.00 ,22.00 ,30.00 ,28.00 ,28.00 ,0.45 ,6309173200.00 
28.00 ,27.00 ,22.00 ,20.00 ,26.00 ,29.00 ,28.00 ,28.00 ,0.45 ,6328212500.00 
26.00 ,27.00 ,23.00 ,21.00 ,25.00 ,33.00 ,26.00 ,29.00 ,0.45 ,6350966300.00 
25.00 ,29.00 ,24.00 ,22.00 ,24.00 ,35.00 ,28.00 ,26.00 ,0.45 ,6373352400.00 
23.00 ,30.00 ,24.00 ,23.00 ,26.00 ,37.00 ,26.00 ,28.00 ,0.45 ,6391513800.00 
26.00 ,28.00 ,25.00 ,24.00 ,26.00 ,40.00 ,27.00 ,26.00 ,0.45 ,6409925300.00 
26.00 ,29.00 ,27.00 ,22.00 ,24.00 ,40.00 ,25.00 ,26.00 ,0.45 ,6428996800.00 
29.00 ,29.00 ,27.00 ,23.00 ,25.00 ,37.00 ,28.00 ,25.00 ,0.45 ,6451121500.00 
28.00 ,29.00 ,28.00 ,23.00 ,26.00 ,35.00 ,28.00 ,25.00 ,0.45 ,6473080500.00 
29.00 ,30.00 ,26.00 ,23.00 ,28.00 ,34.00 ,29.00 ,25.00 ,0.45 ,6492498800.00 
27.00 ,29.00 ,25.00 ,25.00 ,28.00 ,32.00 ,28.00 ,25.00 ,0.45 ,6512057800.00 
25.00 ,27.00 ,25.00 ,27.00 ,28.00 ,33.00 ,29.00 ,25.00 ,0.45 ,6529947200.00 
25.00 ,25.00 ,24.00 ,27.00 ,30.00 ,36.00 ,27.00 ,27.00 ,0.45 ,6550580000.00 
25.00 ,22.00 ,25.00 ,27.00 ,30.00 ,36.00 ,25.00 ,25.00 ,0.45 ,6573253200.00 
26.00 ,21.00 ,25.00 ,29.00 ,28.00 ,36.00 ,24.00 ,28.00 ,0.45 ,6592643000.00 
26.00 ,24.00 ,25.00 ,28.00 ,29.00 ,33.00 ,25.00 ,27.00 ,0.45 ,6610832500.00 
29.00 ,27.00 ,26.00 ,29.00 ,29.00 ,34.00 ,26.00 ,26.00 ,0.45 ,6629981900.00 
29.00 ,28.00 ,26.00 ,28.00 ,28.00 ,30.00 ,24.00 ,25.00 ,0.45 ,6652969600.00 
32.00 ,31.00 ,25.00 ,28.00 ,26.00 ,28.00 ,26.00 ,27.00 ,0.45 ,6671138300.00 
32.00 ,32.00 ,27.00 ,25.00 ,26.00 ,28.00 ,26.00 ,22.00 ,0.45 ,6689853600.00 
33.00 ,29.00 ,26.00 ,24.00 ,25.00 ,29.00 ,26.00 ,23.00 ,0.45 ,6709132400.00 
33.00 ,28.00 ,23.00 ,24.00 ,28.00 ,27.00 ,24.00 ,27.00 ,0.45 ,6730962100.00 
33.00 ,28.00 ,24.00 ,25.00 ,27.00 ,28.00 ,25.00 ,27.00 ,0.45 ,6753923500.00 
30.00 ,27.00 ,25.00 ,23.00 ,31.00 ,29.00 ,24.00 ,27.00 ,0.45 ,6773301300.00 
30.00 ,26.00 ,25.00 ,23.00 ,30.00 ,28.00 ,22.00 ,27.00 ,0.45 ,6791384900.00 
29.00 ,27.00 ,25.00 ,26.00 ,31.00 ,26.00 ,25.00 ,29.00 ,0.45 ,6810458500.00 
27.00 ,27.00 ,26.00 ,23.00 ,28.00 ,27.00 ,27.00 ,26.00 ,0.45 ,6830998600.00 
25.00 ,32.00 ,28.00 ,25.00 ,27.00 ,27.00 ,27.00 ,24.00 ,0.45 ,6852936900.00 
28.00 ,30.00 ,27.00 ,26.00 ,22.00 ,27.00 ,29.00 ,26.00 ,0.45 ,6871723900.00 
28.00 ,33.00 ,26.00 ,26.00 ,24.00 ,27.00 ,30.00 ,27.00 ,0.45 ,6890240700.00 
27.00 ,32.00 ,26.00 ,26.00 ,23.00 ,33.00 ,26.00 ,26.00 ,0.45 ,6909089200.00 
26.00 ,31.00 ,29.00 ,26.00 ,23.00 ,32.00 ,26.00 ,26.00 ,0.45 ,6931123500.00 
27.00 ,28.00 ,27.00 ,24.00 ,26.00 ,35.00 ,25.00 ,28.00 ,0.45 ,6952986100.00 
28.00 ,29.00 ,28.00 ,25.00 ,26.00 ,37.00 ,22.00 ,27.00 ,0.45 ,6971704600.00 
28.00 ,29.00 ,28.00 ,26.00 ,29.00 ,37.00 ,22.00 ,25.00 ,0.45 ,6990118700.00 
28.00 ,28.00 ,28.00 ,25.00 ,32.00 ,31.00 ,25.00 ,24.00 ,0.45 ,7010168100.00 
31.00 ,29.00 ,25.00 ,25.00 ,31.00 ,31.00 ,25.00 ,24.00 ,0.45 ,7031481400.00 
31.00 ,29.00 ,24.00 ,27.00 ,31.00 ,30.00 ,27.00 ,23.00 ,0.45 ,7050735900.00 
31.00 ,28.00 ,26.00 ,25.00 ,32.00 ,31.00 ,27.00 ,22.00 ,0.45 ,7068706000.00 
32.00 ,27.00 ,25.00 ,25.00 ,30.00 ,32.00 ,27.00 ,24.00 ,0.45 ,7086817300.00 
32.00 ,27.00 ,25.00 ,26.00 ,27.00 ,33.00 ,26.00 ,25.00 ,0.45 ,7108654900.00 
28.00 ,30.00 ,25.00 ,26.00 ,27.00 ,35.00 ,27.00 ,28.00 ,0.45 ,7130853100.00 
29.00 ,27.00 ,27.00 ,25.00 ,28.00 ,35.00 ,26.00 ,26.00 ,0.45 ,7153498900.00 
27.00 ,29.00 ,28.00 ,25.00 ,27.00 ,33.00 ,26.00 ,27.00 ,0.45 ,7172457800.00 
27.00 ,28.00 ,29.00 ,23.00 ,27.00 ,32.00 ,25.00 ,25.00 ,0.45 ,7190934900.00 
26.00 ,30.00 ,29.00 ,25.00 ,26.00 ,33.00 ,24.00 ,26.00 ,0.45 ,7209775400.00 
28.00 ,27.00 ,29.00 ,25.00 ,26.00 ,31.00 ,22.00 ,25.00 ,0.45 ,7231006200.00 
27.00 ,27.00 ,27.00 ,27.00 ,23.00 ,33.00 ,23.00 ,25.00 ,0.45 ,7253448600.00 
27.00 ,26.00 ,25.00 ,27.00 ,24.00 ,32.00 ,25.00 ,25.00 ,0.45 ,7272671800.00 
27.00 ,29.00 ,25.00 ,28.00 ,21.00 ,31.00 ,27.00 ,26.00 ,0.45 ,7291053900.00 
28.00 ,29.00 ,24.00 ,24.00 ,23.00 ,31.00 ,27.00 ,26.00 ,0.45 ,7309529400.00 
31.00 ,28.00 ,22.00 ,27.00 ,24.00 ,32.00 ,29.00 ,24.00 ,0.45 ,7331880000.00 
33.00 ,27.00 ,22.00 ,22.00 ,27.00 ,32.00 ,27.00 ,24.00 ,0.45 ,7353129200.00 
33.00 ,29.00 ,20.00 ,24.00 ,29.00 ,32.00 ,25.00 ,25.00 ,0.45 ,7372046100.00 
33.00 ,26.00 ,18.00 ,25.00 ,27.00 ,34.00 ,25.00 ,27.00 ,0.45 ,7391094300.00 
32.00 ,27.00 ,23.00 ,25.00 ,25.00 ,33.00 ,24.00 ,25.00 ,0.45 ,7409773300.00 
29.00 ,28.00 ,26.00 ,25.00 ,26.00 ,33.00 ,22.00 ,26.00 ,0.45 ,7430553200.00 
28.00 ,29.00 ,28.00 ,26.00 ,23.00 ,30.00 ,25.00 ,25.00 ,0.45 ,7452795300.00 
31.00 ,28.00 ,26.00 ,25.00 ,24.00 ,30.00 ,24.00 ,23.00 ,0.45 ,7471685600.00 
28.00 ,32.00 ,28.00 ,27.00 ,25.00 ,27.00 ,25.00 ,20.00 ,0.45 ,7491617500.00 
28.00 ,29.00 ,27.00 ,28.00 ,27.00 ,29.00 ,24.00 ,20.00 ,0.45 ,7510359700.00 
29.00 ,30.00 ,27.00 ,25.00 ,26.00 ,30.00 ,26.00 ,21.00 ,0.45 ,7530485400.00 
32.00 ,30.00 ,25.00 ,28.00 ,27.00 ,31.00 ,25.00 ,24.00 ,0.45 ,7552818000.00 
30.00 ,28.00 ,28.00 ,29.00 ,28.00 ,30.00 ,28.00 ,24.00 ,0.45 ,7571142500.00 
35.00 ,26.00 ,27.00 ,27.00 ,30.00 ,33.00 ,26.00 ,25.00 ,0.45 ,7590103300.00 
34.00 ,27.00 ,25.00 ,27.00 ,28.00 ,32.00 ,29.00 ,24.00 ,0.45 ,7608455300.00 
33.00 ,25.00 ,27.00 ,27.00 ,29.00 ,30.00 ,27.00 ,24.00 ,0.45 ,7630494500.00 
30.00 ,28.00 ,26.00 ,24.00 ,28.00 ,31.00 ,25.00 ,24.00 ,0.45 ,7653056900.00 
31.00 ,29.00 ,25.00 ,26.00 ,26.00 ,29.00 ,23.00 ,23.00 ,0.45 ,7672074800.00 
27.00 ,30.00 ,25.00 ,24.00 ,25.00 ,29.00 ,27.00 ,26.00 ,0.45 ,7690632300.00 
31.00 ,31.00 ,26.00 ,24.00 ,26.00 ,28.00 ,27.00 ,26.00 ,0.45 ,7709292300.00 
30.00 ,32.00 ,24.00 ,27.00 ,25.00 ,27.00 ,29.00 ,26.00 ,0.45 ,7730890100.00 
31.00 ,28.00 ,26.00 ,27.00 ,27.00 ,28.00 ,30.00 ,26.00 ,0.45 ,7754152300.00 
28.00 ,29.00 ,26.00 ,24.00 ,29.00 ,31.00 ,30.00 ,27.00 ,0.45 ,7772411100.00 
29.00 ,29.00 ,28.00 ,25.00 ,28.00 ,30.00 ,30.00 ,22.00 ,0.45 ,7791356400.00 
25.00 ,29.00 ,28.00 ,24.00 ,27.00 ,31.00 ,29.00 ,25.00 ,0.45 ,7809809700.00 
26.00 ,30.00 ,30.00 ,25.00 ,29.00 ,33.00 ,27.00 ,25.00 ,0.45 ,7832207000.00 
28.00 ,32.00 ,29.00 ,25.00 ,30.00 ,32.00 ,25.00 ,25.00 ,0.45 ,7854385000.00 
29.00 ,30.00 ,28.00 ,29.00 ,27.00 ,31.00 ,27.00 ,25.00 ,0.45 ,7872625600.00 
29.00 ,31.00 ,29.00 ,27.00 ,28.00 ,30.00 ,26.00 ,26.00 ,0.45 ,7891026300.00 
31.00 ,30.00 ,27.00 ,30.00 ,32.00 ,32.00 ,24.00 ,25.00 ,0.45 ,7909471100.00 
33.00 ,28.00 ,26.00 ,28.00 ,32.00 ,32.00 ,25.00 ,24.00 ,0.45 ,7931746700.00 
30.00 ,29.00 ,27.00 ,28.00 ,31.00 ,30.00 ,27.00 ,23.00 ,0.45 ,7954261300.00 
28.00 ,29.00 ,27.00 ,27.00 ,31.00 ,33.00 ,29.00 ,22.00 ,0.45 ,7972619400.00 
27.00 ,30.00 ,26.00 ,27.00 ,31.00 ,35.00 ,28.00 ,22.00 ,0.45 ,7992016400.00 
26.00 ,32.00 ,27.00 ,26.00 ,27.00 ,34.00 ,27.00 ,21.00 ,0.45 ,8011610000.00 
24.00 ,33.00 ,28.00 ,25.00 ,28.00 ,35.00 ,27.00 ,20.00 ,0.45 ,8031753600.00 
25.00 ,31.00 ,27.00 ,24.00 ,27.00 ,36.00 ,25.00 ,20.00 ,0.45 ,8053661900.00 
25.00 ,33.00 ,26.00 ,25.00 ,30.00 ,34.00 ,23.00 ,20.00 ,0.45 ,8073385900.00 
30.00 ,29.00 ,25.00 ,26.00 ,31.00 ,35.00 ,23.00 ,21.00 ,0.45 ,8095997500.00 
29.00 ,26.00 ,23.00 ,26.00 ,31.00 ,35.00 ,26.00 ,24.00 ,0.45 ,8116956000.00 
29.00 ,24.00 ,23.00 ,28.00 ,28.00 ,35.00 ,29.00 ,24.00 ,0.45 ,8135793800.00 
32.00 ,26.00 ,24.00 ,31.00 ,28.00 ,34.00 ,29.00 ,26.00 ,0.45 ,8159937200.00 
35.00 ,23.00 ,25.00 ,31.00 ,27.00 ,34.00 ,30.00 ,26.00 ,0.45 ,8177667700.00 
31.00 ,25.00 ,26.00 ,30.00 ,26.00 ,32.00 ,30.00 ,25.00 ,0.45 ,8195804800.00 
32.00 ,27.00 ,26.00 ,29.00 ,25.00 ,32.00 ,30.00 ,24.00 ,0.45 ,8214262800.00 
29.00 ,28.00 ,25.00 ,29.00 ,28.00 ,30.00 ,27.00 ,25.00 ,0.45 ,8233022200.00 
27.00 ,28.00 ,23.00 ,26.00 ,30.00 ,32.00 ,29.00 ,26.00 ,0.45 ,8251877800.00 
25.00 ,30.00 ,23.00 ,25.00 ,27.00 ,33.00 ,29.00 ,28.00 ,0.45 ,8271304400.00 
29.00 ,31.00 ,21.00 ,24.00 ,27.00 ,33.00 ,29.00 ,30.00 ,0.45 ,8293560700.00 
29.00 ,29.00 ,23.00 ,23.00 ,26.00 ,34.00 ,29.00 ,28.00 ,0.45 ,8311421900.00 
31.00 ,29.00 ,23.00 ,25.00 ,25.00 ,34.00 ,30.00 ,27.00 ,0.45 ,8330117400.00 
30.00 ,29.00 ,24.00 ,27.00 ,24.00 ,32.00 ,27.00 ,28.00 ,0.45 ,8349261200.00 
29.00 ,29.00 ,22.00 ,28.00 ,25.00 ,30.00 ,26.00 ,28.00 ,0.45 ,8371273100.00 
26.00 ,28.00 ,24.00 ,27.00 ,24.00 ,29.00 ,29.00 ,28.00 ,0.45 ,8393513300.00 
24.00 ,30.00 ,25.00 ,28.00 ,23.00 ,31.00 ,27.00 ,28.00 ,0.45 ,8411582200.00 
23.00 ,32.00 ,25.00 ,26.00 ,26.00 ,31.00 ,27.00 ,28.00 ,0.45 ,8431237100.00 
23.00 ,31.00 ,24.00 ,26.00 ,26.00 ,33.00 ,28.00 ,27.00 ,0.45 ,8450455600.00 
23.00 ,30.00 ,25.00 ,24.00 ,26.00 ,33.00 ,29.00 ,24.00 ,0.45 ,8471024400.00 
23.00 ,29.00 ,24.00 ,26.00 ,28.00 ,34.00 ,25.00 ,22.00 ,0.45 ,8493314800.00 
26.00 ,28.00 ,21.00 ,26.00 ,29.00 ,32.00 ,28.00 ,24.00 ,0.45 ,8511371700.00 
26.00 ,28.00 ,22.00 ,26.00 ,29.00 ,32.00 ,28.00 ,27.00 ,0.45 ,8530112400.00 
26.00 ,27.00 ,21.00 ,24.00 ,27.00 ,30.00 ,30.00 ,25.00 ,0.45 ,8549000700.00 
25.00 ,28.00 ,22.00 ,26.00 ,29.00 ,30.00 ,29.00 ,24.00 ,0.45 ,8571002700.00 
27.00 ,26.00 ,24.00 ,24.00 ,27.00 ,32.00 ,30.00 ,24.00 ,0.45 ,8594006000.00 
27.00 ,29.00 ,25.00 ,24.00 ,28.00 ,31.00 ,27.00 ,23.00 ,0.45 ,8611870400.00 
28.00 ,31.00 ,24.00 ,25.00 ,28.00 ,30.00 ,26.00 ,19.00 ,0.45 ,8631507900.00 
29.00 ,30.00 ,25.00 ,24.00 ,29.00 ,29.00 ,26.00 ,24.00 ,0.45 ,8650659200.00 
30.00 ,29.00 ,25.00 ,23.00 ,27.00 ,30.00 ,28.00 ,23.00 ,0.45 ,8673461400.00 
29.00 ,30.00 ,23.00 ,23.00 ,28.00 ,29.00 ,28.00 ,25.00 ,0.45 ,8691999000.00 
28.00 ,28.00 ,28.00 ,26.00 ,29.00 ,28.00 ,28.00 ,24.00 ,0.45 ,8711432300.00 
29.00 ,23.00 ,28.00 ,26.00 ,27.00 ,27.00 ,29.00 ,25.00 ,0.45 ,8730807400.00 
29.00 ,25.00 ,27.00 ,26.00 ,26.00 ,27.00 ,31.00 ,22.00 ,0.45 ,8753927700.00 
28.00 ,25.00 ,28.00 ,25.00 ,27.00 ,25.00 ,29.00 ,23.00 ,0.45 ,8773153300.00 
28.00 ,23.00 ,29.00 ,26.00 ,25.00 ,23.00 ,31.00 ,21.00 ,0.45 ,8793620600.00 
28.00 ,25.00 ,25.00 ,25.00 ,24.00 ,29.00 ,33.00 ,22.00 ,0.45 ,8811913400.00 
26.00 ,26.00 ,25.00 ,26.00 ,24.00 ,32.00 ,32.00 ,22.00 ,0.45 ,8830188000.00 
26.00 ,30.00 ,25.00 ,27.00 ,26.00 ,33.00 ,30.00 ,23.00 ,0.45 ,8851855600.00 
28.00 ,30.00 ,24.00 ,29.00 ,26.00 ,33.00 ,32.00 ,26.00 ,0.45 ,8870002800.00 
28.00 ,32.00 ,23.00 ,27.00 ,29.00 ,35.00 ,28.00 ,27.00 ,0.45 ,8889171100.00 
28.00 ,31.00 ,24.00 ,26.00 ,28.00 ,31.00 ,28.00 ,28.00 ,0.45 ,8908000000.00 
28.00 ,30.00 ,23.00 ,27.00 ,30.00 ,33.00 ,26.00 ,28.00 ,0.45 ,8929780800.00 
31.00 ,28.00 ,25.00 ,28.00 ,28.00 ,33.00 ,27.00 ,29.00 ,0.45 ,8951819500.00 
29.00 ,29.00 ,25.00 ,25.00 ,28.00 ,33.00 ,25.00 ,26.00 ,0.45 ,8974348400.00 
30.00 ,28.00 ,25.00 ,28.00 ,25.00 ,34.00 ,26.00 ,26.00 ,0.45 ,8992898100.00 
30.00 ,27.00 ,24.00 ,28.00 ,24.00 ,33.00 ,27.00 ,25.00 ,0.45 ,9011839700.00 
29.00 ,27.00 ,25.00 ,26.00 ,24.00 ,30.00 ,28.00 ,27.00 ,0.45 ,9030521300.00 
24.00 ,23.00 ,23.00 ,26.00 ,23.00 ,29.00 ,28.00 ,29.00 ,0.45 ,9051862200.00 
24.00 ,22.00 ,22.00 ,29.00 ,24.00 ,28.00 ,29.00 ,29.00 ,0.45 ,9070862500.00 
23.00 ,22.00 ,22.00 ,28.00 ,25.00 ,28.00 ,27.00 ,27.00 ,0.45 ,9089511900.00 
23.00 ,24.00 ,25.00 ,29.00 ,26.00 ,27.00 ,26.00 ,28.00 ,0.45 ,9109579400.00 
24.00 ,24.00 ,24.00 ,28.00 ,25.00 ,28.00 ,27.00 ,28.00 ,0.45 ,9130082200.00 
24.00 ,26.00 ,27.00 ,29.00 ,28.00 ,30.00 ,25.00 ,24.00 ,0.45 ,9152854600.00 
25.00 ,25.00 ,29.00 ,25.00 ,28.00 ,34.00 ,24.00 ,25.00 ,0.45 ,9175079600.00 
28.00 ,28.00 ,29.00 ,25.00 ,30.00 ,34.00 ,27.00 ,28.00 ,0.45 ,9196603900.00 
29.00 ,29.00 ,28.00 ,23.00 ,29.00 ,34.00 ,27.00 ,26.00 ,0.45 ,9214643600.00 
29.00 ,30.00 ,31.00 ,25.00 ,31.00 ,35.00 ,25.00 ,24.00 ,0.45 ,9239946200.00 
29.00 ,31.00 ,29.00 ,23.00 ,28.00 ,34.00 ,25.00 ,26.00 ,0.45 ,9259307800.00 
29.00 ,31.00 ,28.00 ,25.00 ,26.00 ,30.00 ,26.00 ,25.00 ,0.45 ,9277413500.00 
27.00 ,30.00 ,28.00 ,26.00 ,27.00 ,27.00 ,24.00 ,24.00 ,0.45 ,9295262700.00 
25.00 ,29.00 ,28.00 ,28.00 ,28.00 ,28.00 ,24.00 ,25.00 ,0.45 ,9313970500.00 
28.00 ,29.00 ,25.00 ,29.00 ,29.00 ,26.00 ,26.00 ,27.00 ,0.45 ,9332401500.00 
31.00 ,28.00 ,26.00 ,28.00 ,30.00 ,23.00 ,27.00 ,25.00 ,0.45 ,9351773400.00 
30.00 ,28.00 ,27.00 ,28.00 ,32.00 ,26.00 ,26.00 ,26.00 ,0.45 ,9370981700.00 
28.00 ,25.00 ,26.00 ,29.00 ,31.00 ,25.00 ,26.00 ,24.00 ,0.45 ,9393270100.00 
31.00 ,25.00 ,27.00 ,27.00 ,30.00 ,27.00 ,27.00 ,25.00 ,0.45 ,9412060900.00 
32.00 ,25.00 ,27.00 ,28.00 ,27.00 ,27.00 ,23.00 ,24.00 ,0.45 ,9430648900.00 
29.00 ,25.00 ,28.00 ,30.00 ,27.00 ,29.00 ,23.00 ,24.00 ,0.45 ,9450948600.00 
31.00 ,27.00 ,28.00 ,30.00 ,25.00 ,27.00 ,25.00 ,25.00 ,0.45 ,9471342700.00 
33.00 ,30.00 ,28.00 ,30.00 ,26.00 ,32.00 ,26.00 ,26.00 ,0.45 ,9493309000.00 
32.00 ,28.00 ,28.00 ,30.00 ,26.00 ,30.00 ,23.00 ,29.00 ,0.45 ,9512314500.00 
31.00 ,29.00 ,27.00 ,29.00 ,27.00 ,30.00 ,26.00 ,29.00 ,0.45 ,9530971800.00 
30.00 ,30.00 ,28.00 ,29.00 ,28.00 ,29.00 ,25.00 ,28.00 ,0.45 ,9549496900.00 
28.00 ,30.00 ,26.00 ,28.00 ,29.00 ,30.00 ,24.00 ,26.00 ,0.45 ,9570805700.00 
29.00 ,31.00 ,28.00 ,33.00 ,29.00 ,27.00 ,23.00 ,28.00 ,0.45 ,9592845100.00 
29.00 ,32.00 ,26.00 ,32.00 ,31.00 ,29.00 ,25.00 ,27.00 ,0.45 ,9611294900.00 
29.00 ,32.00 ,28.00 ,34.00 ,33.00 ,29.00 ,25.00 ,27.00 ,0.45 ,9630168900.00 
30.00 ,30.00 ,25.00 ,32.00 ,31.00 ,30.00 ,27.00 ,27.00 ,0.45 ,9649545000.00 
33.00 ,29.00 ,27.00 ,34.00 ,30.00 ,31.00 ,27.00 ,29.00 ,0.45 ,9670681500.00 
32.00 ,28.00 ,25.00 ,27.00 ,28.00 ,33.00 ,27.00 ,28.00 ,0.45 ,9693272600.00 
32.00 ,28.00 ,26.00 ,26.00 ,27.00 ,32.00 ,27.00 ,26.00 ,0.45 ,9712694300.00 
30.00 ,27.00 ,24.00 ,26.00 ,24.00 ,36.00 ,27.00 ,24.00 ,0.45 ,9731009800.00 
30.00 ,28.00 ,25.00 ,26.00 ,26.00 ,36.00 ,28.00 ,26.00 ,0.45 ,9749984100.00 
28.00 ,31.00 ,23.00 ,23.00 ,26.00 ,35.00 ,27.00 ,24.00 ,0.45 ,9772917300.00 
29.00 ,31.00 ,23.00 ,23.00 ,27.00 ,33.00 ,31.00 ,22.00 ,0.45 ,9791256300.00 
27.00 ,32.00 ,22.00 ,24.00 ,28.00 ,33.00 ,29.00 ,21.00 ,0.45 ,9809867000.00 
27.00 ,33.00 ,24.00 ,21.00 ,27.00 ,30.00 ,32.00 ,27.00 ,0.45 ,9829769200.00 
28.00 ,32.00 ,25.00 ,21.00 ,28.00 ,32.00 ,33.00 ,28.00 ,0.45 ,9852561300.00 
27.00 ,33.00 ,25.00 ,21.00 ,27.00 ,36.00 ,35.00 ,30.00 ,0.45 ,9871422700.00 
28.00 ,32.00 ,27.00 ,21.00 ,27.00 ,38.00 ,34.00 ,31.00 ,0.45 ,9889830700.00 
29.00 ,31.00 ,26.00 ,21.00 ,25.00 ,40.00 ,36.00 ,31.00 ,0.45 ,9908761000.00 
30.00 ,33.00 ,25.00 ,23.00 ,27.00 ,39.00 ,35.00 ,27.00 ,0.45 ,9930956500.00 
29.00 ,33.00 ,24.00 ,23.00 ,27.00 ,38.00 ,33.00 ,26.00 ,0.45 ,9953185700.00 
31.00 ,31.00 ,25.00 ,24.00 ,25.00 ,34.00 ,31.00 ,25.00 ,0.45 ,9972121900.00 
29.00 ,30.00 ,25.00 ,26.00 ,27.00 ,35.00 ,29.00 ,25.00 ,0.45 ,9991350300.00 
29.00 ,30.00 ,28.00 ,26.00 ,28.00 ,33.00 ,28.00 ,26.00 ,0.45 ,10010251500.00 
30.00 ,27.00 ,28.00 ,26.00 ,27.00 ,33.00 ,23.00 ,27.00 ,0.45 ,10030400600.00 
31.00 ,27.00 ,29.00 ,27.00 ,27.00 ,33.00 ,26.00 ,28.00 ,0.45 ,10052583500.00 
30.00 ,28.00 ,28.00 ,26.00 ,27.00 ,33.00 ,27.00 ,28.00 ,0.45 ,10071093400.00 
28.00 ,28.00 ,28.00 ,24.00 ,27.00 ,30.00 ,28.00 ,29.00 ,0.45 ,10090293800.00 
26.00 ,29.00 ,26.00 ,25.00 ,27.00 ,31.00 ,28.00 ,28.00 ,0.45 ,10109873500.00 
27.00 ,31.00 ,29.00 ,25.00 ,26.00 ,33.00 ,28.00 ,27.00 ,0.45 ,10130390700.00 
27.00 ,30.00 ,27.00 ,24.00 ,25.00 ,34.00 ,27.00 ,25.00 ,0.45 ,10152453900.00 
28.00 ,29.00 ,27.00 ,25.00 ,27.00 ,35.00 ,27.00 ,26.00 ,0.45 ,10172415700.00 
27.00 ,31.00 ,26.00 ,24.00 ,27.00 ,36.00 ,27.00 ,26.00 ,0.45 ,10191717000.00 
26.00 ,32.00 ,27.00 ,24.00 ,26.00 ,32.00 ,27.00 ,26.00 ,0.45 ,10210998000.00 
25.00 ,34.00 ,24.00 ,24.00 ,30.00 ,35.00 ,27.00 ,27.00 ,0.45 ,10229739600.00 
26.00 ,35.00 ,24.00 ,22.00 ,30.00 ,34.00 ,29.00 ,27.00 ,0.45 ,10251136500.00 
27.00 ,35.00 ,24.00 ,23.00 ,30.00 ,35.00 ,27.00 ,26.00 ,0.45 ,10277167500.00 
28.00 ,34.00 ,26.00 ,25.00 ,28.00 ,34.00 ,27.00 ,26.00 ,0.45 ,10297515700.00 
32.00 ,32.00 ,25.00 ,26.00 ,28.00 ,37.00 ,27.00 ,26.00 ,0.45 ,10318701200.00 
34.00 ,29.00 ,27.00 ,25.00 ,28.00 ,34.00 ,27.00 ,26.00 ,0.45 ,10336554300.00 
34.00 ,28.00 ,28.00 ,29.00 ,28.00 ,35.00 ,24.00 ,26.00 ,0.45 ,10356295200.00 
33.00 ,27.00 ,28.00 ,29.00 ,31.00 ,31.00 ,27.00 ,26.00 ,0.45 ,10375743100.00 
34.00 ,27.00 ,28.00 ,30.00 ,30.00 ,32.00 ,27.00 ,25.00 ,0.45 ,10394797600.00 
34.00 ,26.00 ,28.00 ,29.00 ,31.00 ,29.00 ,28.00 ,25.00 ,0.45 ,10413896000.00 
32.00 ,24.00 ,27.00 ,29.00 ,30.00 ,29.00 ,30.00 ,23.00 ,0.45 ,10433921300.00 
31.00 ,25.00 ,28.00 ,27.00 ,31.00 ,29.00 ,31.00 ,24.00 ,0.45 ,10453477200.00 
33.00 ,25.00 ,27.00 ,27.00 ,30.00 ,32.00 ,28.00 ,24.00 ,0.45 ,10471766700.00 
33.00 ,24.00 ,26.00 ,26.00 ,31.00 ,31.00 ,30.00 ,24.00 ,0.45 ,10492606400.00 
32.00 ,29.00 ,27.00 ,25.00 ,31.00 ,31.00 ,28.00 ,26.00 ,0.45 ,10512344300.00 
32.00 ,32.00 ,27.00 ,25.00 ,30.00 ,30.00 ,26.00 ,26.00 ,0.45 ,10530949200.00 
31.00 ,32.00 ,26.00 ,25.00 ,29.00 ,31.00 ,25.00 ,27.00 ,0.45 ,10550384600.00 
28.00 ,35.00 ,26.00 ,26.00 ,27.00 ,29.00 ,28.00 ,26.00 ,0.45 ,10570555900.00 
28.00 ,35.00 ,27.00 ,24.00 ,27.00 ,28.00 ,26.00 ,29.00 ,0.45 ,10592583600.00 
28.00 ,32.00 ,25.00 ,24.00 ,25.00 ,30.00 ,27.00 ,27.00 ,0.45 ,10610771800.00 
30.00 ,32.00 ,25.00 ,25.00 ,28.00 ,30.00 ,26.00 ,28.00 ,0.45 ,10629772800.00 
30.00 ,31.00 ,22.00 ,25.00 ,28.00 ,27.00 ,25.00 ,28.00 ,0.45 ,10648743100.00 
30.00 ,31.00 ,21.00 ,27.00 ,28.00 ,27.00 ,25.00 ,28.00 ,0.45 ,10670156000.00 
30.00 ,33.00 ,23.00 ,29.00 ,26.00 ,29.00 ,24.00 ,24.00 ,0.45 ,10698019700.00 
28.00 ,32.00 ,25.00 ,30.00 ,26.00 ,27.00 ,24.00 ,23.00 ,0.45 ,10717203100.00 
29.00 ,30.00 ,23.00 ,32.00 ,23.00 ,28.00 ,28.00 ,20.00 ,0.45 ,10736442800.00 
30.00 ,29.00 ,26.00 ,31.00 ,24.00 ,28.00 ,28.00 ,20.00 ,0.45 ,10755843000.00 
34.00 ,28.00 ,26.00 ,30.00 ,25.00 ,27.00 ,26.00 ,20.00 ,0.45 ,10774706300.00 
34.00 ,26.00 ,23.00 ,28.00 ,28.00 ,27.00 ,28.00 ,23.00 ,0.45 ,10793265600.00 
33.00 ,26.00 ,21.00 ,27.00 ,28.00 ,29.00 ,29.00 ,24.00 ,0.45 ,10812092400.00 
32.00 ,27.00 ,22.00 ,25.00 ,29.00 ,29.00 ,28.00 ,24.00 ,0.45 ,10832043200.00 
31.00 ,29.00 ,21.00 ,26.00 ,28.00 ,33.00 ,27.00 ,24.00 ,0.45 ,10852156600.00 
27.00 ,28.00 ,21.00 ,24.00 ,26.00 ,33.00 ,27.00 ,24.00 ,0.45 ,10875660200.00 
28.00 ,28.00 ,23.00 ,23.00 ,24.00 ,35.00 ,27.00 ,23.00 ,0.45 ,10896449900.00 
30.00 ,30.00 ,25.00 ,23.00 ,26.00 ,34.00 ,28.00 ,25.00 ,0.45 ,10916866400.00 
30.00 ,29.00 ,24.00 ,22.00 ,25.00 ,34.00 ,28.00 ,26.00 ,0.45 ,10936150200.00 
30.00 ,29.00 ,25.00 ,22.00 ,27.00 ,30.00 ,29.00 ,25.00 ,0.45 ,10955869000.00 
31.00 ,29.00 ,26.00 ,24.00 ,28.00 ,31.00 ,30.00 ,25.00 ,0.45 ,10975943900.00 
30.00 ,28.00 ,24.00 ,28.00 ,27.00 ,30.00 ,30.00 ,25.00 ,0.45 ,10995293900.00 
29.00 ,29.00 ,24.00 ,28.00 ,27.00 ,33.00 ,27.00 ,25.00 ,0.45 ,11015738500.00 
31.00 ,27.00 ,24.00 ,29.00 ,26.00 ,34.00 ,26.00 ,25.00 ,0.45 ,11035907100.00 
31.00 ,28.00 ,22.00 ,27.00 ,25.00 ,34.00 ,24.00 ,26.00 ,0.45 ,11055474500.00 
32.00 ,29.00 ,23.00 ,25.00 ,25.00 ,33.00 ,25.00 ,26.00 ,0.45 ,11076022400.00 
32.00 ,29.00 ,25.00 ,22.00 ,24.00 ,31.00 ,22.00 ,26.00 ,0.45 ,11095261600.00 
33.00 ,27.00 ,24.00 ,23.00 ,24.00 ,27.00 ,22.00 ,24.00 ,0.45 ,11115258000.00 
30.00 ,28.00 ,25.00 ,24.00 ,25.00 ,24.00 ,25.00 ,26.00 ,0.45 ,11134566900.00 
31.00 ,25.00 ,25.00 ,25.00 ,25.00 ,26.00 ,23.00 ,27.00 ,0.45 ,11155157100.00 
30.00 ,22.00 ,23.00 ,29.00 ,27.00 ,32.00 ,25.00 ,27.00 ,0.45 ,11175530700.00 
31.00 ,23.00 ,22.00 ,28.00 ,28.00 ,33.00 ,26.00 ,28.00 ,0.45 ,11195819700.00 
32.00 ,24.00 ,20.00 ,27.00 ,26.00 ,37.00 ,26.00 ,28.00 ,0.45 ,11216248500.00 
31.00 ,26.00 ,20.00 ,25.00 ,26.00 ,38.00 ,24.00 ,26.00 ,0.45 ,11235224200.00 
30.00 ,28.00 ,20.00 ,24.00 ,27.00 ,39.00 ,27.00 ,26.00 ,0.45 ,11255511500.00 
28.00 ,31.00 ,20.00 ,21.00 ,25.00 ,37.00 ,27.00 ,26.00 ,0.45 ,11274416300.00 
29.00 ,29.00 ,21.00 ,21.00 ,24.00 ,37.00 ,27.00 ,25.00 ,0.45 ,11299850700.00 
27.00 ,29.00 ,21.00 ,21.00 ,26.00 ,34.00 ,27.00 ,24.00 ,0.45 ,11321657000.00 
27.00 ,28.00 ,23.00 ,22.00 ,25.00 ,33.00 ,27.00 ,23.00 ,0.45 ,11341959200.00 
26.00 ,26.00 ,24.00 ,27.00 ,25.00 ,31.00 ,28.00 ,24.00 ,0.45 ,11362438300.00 
29.00 ,24.00 ,25.00 ,28.00 ,26.00 ,29.00 ,26.00 ,23.00 ,0.45 ,11384636200.00 
28.00 ,26.00 ,25.00 ,28.00 ,25.00 ,26.00 ,28.00 ,24.00 ,0.45 ,11406276300.00 
28.00 ,25.00 ,28.00 ,31.00 ,25.00 ,25.00 ,29.00 ,24.00 ,0.45 ,11427854500.00 
28.00 ,24.00 ,26.00 ,30.00 ,25.00 ,27.00 ,28.00 ,25.00 ,0.45 ,11456826500.00 
28.00 ,26.00 ,25.00 ,28.00 ,27.00 ,29.00 ,25.00 ,24.00 ,0.45 ,11476681500.00 
29.00 ,25.00 ,24.00 ,28.00 ,26.00 ,30.00 ,29.00 ,26.00 ,0.45 ,11495750500.00 
30.00 ,26.00 ,25.00 ,30.00 ,27.00 ,34.00 ,28.00 ,27.00 ,0.45 ,11514193400.00 
32.00 ,29.00 ,23.00 ,27.00 ,29.00 ,34.00 ,27.00 ,28.00 ,0.45 ,11532597400.00 
36.00 ,30.00 ,24.00 ,27.00 ,29.00 ,37.00 ,27.00 ,29.00 ,0.45 ,11550336200.00 
37.00 ,31.00 ,23.00 ,27.00 ,28.00 ,35.00 ,27.00 ,28.00 ,0.45 ,11568879700.00 
35.00 ,31.00 ,24.00 ,27.00 ,27.00 ,34.00 ,22.00 ,27.00 ,0.45 ,11589021600.00 
33.00 ,31.00 ,23.00 ,25.00 ,26.00 ,33.00 ,23.00 ,27.00 ,0.45 ,11607317100.00 
31.00 ,27.00 ,24.00 ,28.00 ,26.00 ,34.00 ,23.00 ,29.00 ,0.45 ,11626132900.00 
28.00 ,25.00 ,23.00 ,27.00 ,26.00 ,34.00 ,29.00 ,29.00 ,0.45 ,11643569700.00 
28.00 ,24.00 ,24.00 ,27.00 ,25.00 ,35.00 ,31.00 ,28.00 ,0.45 ,11661944500.00 
28.00 ,26.00 ,23.00 ,27.00 ,26.00 ,34.00 ,31.00 ,28.00 ,0.45 ,11680959000.00 
28.00 ,26.00 ,24.00 ,25.00 ,26.00 ,32.00 ,31.00 ,26.00 ,0.45 ,11700277700.00 
30.00 ,28.00 ,25.00 ,22.00 ,25.00 ,32.00 ,31.00 ,26.00 ,0.45 ,11718047800.00 
30.00 ,32.00 ,24.00 ,22.00 ,27.00 ,28.00 ,30.00 ,26.00 ,0.45 ,11736971600.00 
27.00 ,30.00 ,27.00 ,21.00 ,25.00 ,30.00 ,28.00 ,25.00 ,0.45 ,11755223900.00 
27.00 ,30.00 ,25.00 ,22.00 ,26.00 ,32.00 ,34.00 ,26.00 ,0.45 ,11773847600.00 
30.00 ,30.00 ,26.00 ,23.00 ,26.00 ,37.00 ,34.00 ,28.00 ,0.45 ,11793693200.00 
28.00 ,30.00 ,26.00 ,23.00 ,26.00 ,36.00 ,33.00 ,24.00 ,0.45 ,11813101300.00 
28.00 ,33.00 ,27.00 ,24.00 ,24.00 ,38.00 ,29.00 ,23.00 ,0.45 ,11832350100.00 
29.00 ,35.00 ,26.00 ,26.00 ,26.00 ,38.00 ,29.00 ,23.00 ,0.45 ,11853491900.00 
31.00 ,35.00 ,28.00 ,25.00 ,25.00 ,37.00 ,24.00 ,21.00 ,0.45 ,11872136600.00 
28.00 ,36.00 ,28.00 ,25.00 ,26.00 ,35.00 ,23.00 ,21.00 ,0.45 ,11891014500.00 
29.00 ,35.00 ,29.00 ,25.00 ,26.00 ,33.00 ,25.00 ,23.00 ,0.45 ,11914192200.00 
30.00 ,27.00 ,30.00 ,25.00 ,27.00 ,34.00 ,25.00 ,24.00 ,0.45 ,11933701000.00 
31.00 ,30.00 ,30.00 ,25.00 ,28.00 ,32.00 ,27.00 ,25.00 ,0.45 ,11952050300.00 
31.00 ,31.00 ,28.00 ,25.00 ,30.00 ,34.00 ,27.00 ,28.00 ,0.45 ,11971019700.00 
31.00 ,29.00 ,27.00 ,26.00 ,30.00 ,33.00 ,29.00 ,26.00 ,0.45 ,11991466500.00 
32.00 ,29.00 ,25.00 ,25.00 ,30.00 ,33.00 ,30.00 ,26.00 ,0.45 ,12009788700.00 
31.00 ,31.00 ,26.00 ,23.00 ,31.00 ,31.00 ,30.00 ,25.00 ,0.45 ,12028231400.00 
30.00 ,26.00 ,23.00 ,21.00 ,30.00 ,31.00 ,29.00 ,23.00 ,0.45 ,12058092700.00 
29.00 ,24.00 ,26.00 ,21.00 ,29.00 ,32.00 ,28.00 ,23.00 ,0.45 ,12076626900.00 
27.00 ,23.00 ,25.00 ,20.00 ,28.00 ,35.00 ,27.00 ,24.00 ,0.45 ,12095075500.00 
26.00 ,24.00 ,25.00 ,24.00 ,28.00 ,36.00 ,27.00 ,21.00 ,0.45 ,12113721600.00 
28.00 ,25.00 ,26.00 ,25.00 ,29.00 ,39.00 ,29.00 ,21.00 ,0.45 ,12132528900.00 
27.00 ,25.00 ,26.00 ,26.00 ,30.00 ,39.00 ,27.00 ,22.00 ,0.45 ,12151209600.00 
28.00 ,26.00 ,26.00 ,26.00 ,29.00 ,37.00 ,31.00 ,23.00 ,0.45 ,12169401700.00 
29.00 ,31.00 ,27.00 ,26.00 ,30.00 ,35.00 ,28.00 ,24.00 ,0.45 ,12191691100.00 
27.00 ,30.00 ,29.00 ,24.00 ,31.00 ,34.00 ,27.00 ,26.00 ,0.45 ,12213536100.00 
27.00 ,29.00 ,27.00 ,25.00 ,32.00 ,33.00 ,25.00 ,28.00 ,0.45 ,12232298200.00 
27.00 ,31.00 ,27.00 ,24.00 ,29.00 ,32.00 ,24.00 ,26.00 ,0.45 ,12255663100.00 
27.00 ,31.00 ,25.00 ,24.00 ,29.00 ,35.00 ,20.00 ,27.00 ,0.45 ,12274274600.00 
27.00 ,29.00 ,25.00 ,25.00 ,26.00 ,34.00 ,23.00 ,28.00 ,0.45 ,12292504300.00 
31.00 ,30.00 ,23.00 ,25.00 ,28.00 ,38.00 ,24.00 ,29.00 ,0.45 ,12311907600.00 
32.00 ,31.00 ,22.00 ,24.00 ,27.00 ,38.00 ,26.00 ,30.00 ,0.45 ,12330118700.00 
34.00 ,29.00 ,22.00 ,28.00 ,28.00 ,40.00 ,28.00 ,31.00 ,0.45 ,12349867900.00 
33.00 ,28.00 ,21.00 ,28.00 ,30.00 ,39.00 ,30.00 ,29.00 ,0.45 ,12369336900.00 
33.00 ,29.00 ,23.00 ,26.00 ,31.00 ,38.00 ,31.00 ,27.00 ,0.45 ,12391242600.00 
34.00 ,29.00 ,24.00 ,25.00 ,28.00 ,34.00 ,32.00 ,26.00 ,0.45 ,12413514800.00 
32.00 ,28.00 ,25.00 ,25.00 ,26.00 ,34.00 ,31.00 ,22.00 ,0.45 ,12431590100.00 
30.00 ,30.00 ,23.00 ,21.00 ,26.00 ,33.00 ,30.00 ,22.00 ,0.45 ,12449532200.00 
31.00 ,32.00 ,25.00 ,23.00 ,25.00 ,32.00 ,29.00 ,23.00 ,0.45 ,12472286600.00 
32.00 ,30.00 ,23.00 ,24.00 ,24.00 ,31.00 ,26.00 ,27.00 ,0.45 ,12491680700.00 
29.00 ,32.00 ,25.00 ,25.00 ,26.00 ,31.00 ,24.00 ,26.00 ,0.45 ,12519036500.00 
29.00 ,33.00 ,25.00 ,28.00 ,26.00 ,29.00 ,24.00 ,27.00 ,0.45 ,12543193500.00 
31.00 ,32.00 ,27.00 ,28.00 ,25.00 ,29.00 ,24.00 ,26.00 ,0.45 ,12561736700.00 
31.00 ,31.00 ,26.00 ,28.00 ,26.00 ,27.00 ,26.00 ,27.00 ,0.45 ,12580141400.00 
33.00 ,30.00 ,26.00 ,27.00 ,25.00 ,29.00 ,27.00 ,25.00 ,0.45 ,12597751800.00 
31.00 ,29.00 ,26.00 ,26.00 ,28.00 ,28.00 ,27.00 ,25.00 ,0.45 ,12615429800.00 
31.00 ,29.00 ,26.00 ,23.00 ,27.00 ,31.00 ,29.00 ,25.00 ,0.45 ,12634201500.00 
29.00 ,28.00 ,24.00 ,22.00 ,28.00 ,30.00 ,27.00 ,26.00 ,0.45 ,12657606900.00 
27.00 ,31.00 ,25.00 ,21.00 ,26.00 ,35.00 ,26.00 ,24.00 ,0.45 ,12675201500.00 
28.00 ,27.00 ,26.00 ,21.00 ,28.00 ,34.00 ,25.00 ,22.00 ,0.45 ,12693234000.00 
28.00 ,26.00 ,23.00 ,24.00 ,25.00 ,35.00 ,25.00 ,27.00 ,0.45 ,12713763200.00 
30.00 ,27.00 ,24.00 ,23.00 ,27.00 ,37.00 ,23.00 ,29.00 ,0.45 ,12731563000.00 
29.00 ,28.00 ,24.00 ,24.00 ,27.00 ,37.00 ,23.00 ,29.00 ,0.45 ,12750759800.00 
29.00 ,32.00 ,23.00 ,25.00 ,27.00 ,35.00 ,25.00 ,29.00 ,0.45 ,12769031300.00 
26.00 ,34.00 ,23.00 ,25.00 ,29.00 ,36.00 ,24.00 ,30.00 ,0.45 ,12791158700.00 
27.00 ,35.00 ,24.00 ,24.00 ,28.00 ,36.00 ,28.00 ,27.00 ,0.45 ,12813707500.00 
27.00 ,35.00 ,27.00 ,24.00 ,28.00 ,32.00 ,27.00 ,25.00 ,0.45 ,12831804500.00 
27.00 ,35.00 ,29.00 ,24.00 ,29.00 ,30.00 ,28.00 ,27.00 ,0.45 ,12849947200.00 
27.00 ,30.00 ,29.00 ,24.00 ,31.00 ,27.00 ,26.00 ,25.00 ,0.45 ,12869184700.00 
29.00 ,32.00 ,29.00 ,24.00 ,28.00 ,28.00 ,29.00 ,25.00 ,0.45 ,12891383600.00 
30.00 ,32.00 ,29.00 ,24.00 ,30.00 ,29.00 ,26.00 ,23.00 ,0.45 ,12913658800.00 
27.00 ,30.00 ,27.00 ,25.00 ,30.00 ,31.00 ,28.00 ,24.00 ,0.45 ,12931812400.00 
29.00 ,30.00 ,24.00 ,24.00 ,29.00 ,33.00 ,28.00 ,24.00 ,0.45 ,12950865000.00 
31.00 ,31.00 ,26.00 ,28.00 ,29.00 ,33.00 ,27.00 ,26.00 ,0.45 ,12969662900.00 
31.00 ,28.00 ,24.00 ,28.00 ,29.00 ,33.00 ,25.00 ,27.00 ,0.45 ,12991227900.00 
29.00 ,27.00 ,23.00 ,28.00 ,27.00 ,35.00 ,26.00 ,28.00 ,0.45 ,13013485300.00 
30.00 ,30.00 ,23.00 ,27.00 ,27.00 ,34.00 ,23.00 ,29.00 ,0.45 ,13032022200.00 
30.00 ,30.00 ,23.00 ,29.00 ,25.00 ,33.00 ,27.00 ,27.00 ,0.45 ,13050650500.00 
31.00 ,32.00 ,24.00 ,26.00 ,26.00 ,36.00 ,26.00 ,26.00 ,0.45 ,13070113300.00 
30.00 ,31.00 ,27.00 ,26.00 ,27.00 ,36.00 ,28.00 ,24.00 ,0.45 ,13092882400.00 
31.00 ,32.00 ,28.00 ,25.00 ,27.00 ,34.00 ,27.00 ,25.00 ,0.45 ,13112673600.00 
31.00 ,32.00 ,29.00 ,27.00 ,27.00 ,35.00 ,28.00 ,24.00 ,0.45 ,13131430000.00 
35.00 ,32.00 ,28.00 ,28.00 ,28.00 ,36.00 ,25.00 ,25.00 ,0.45 ,13150697300.00 
33.00 ,30.00 ,26.00 ,27.00 ,27.00 ,33.00 ,26.00 ,24.00 ,0.45 ,13173112200.00 
36.00 ,29.00 ,25.00 ,30.00 ,25.00 ,32.00 ,25.00 ,25.00 ,0.45 ,13191642800.00 
36.00 ,27.00 ,23.00 ,31.00 ,25.00 ,30.00 ,24.00 ,24.00 ,0.45 ,13209900500.00 
37.00 ,28.00 ,22.00 ,29.00 ,24.00 ,31.00 ,23.00 ,24.00 ,0.45 ,13229934300.00 
33.00 ,27.00 ,22.00 ,29.00 ,24.00 ,30.00 ,24.00 ,24.00 ,0.45 ,13251564700.00 
30.00 ,27.00 ,24.00 ,29.00 ,22.00 ,28.00 ,24.00 ,24.00 ,0.45 ,13270243900.00 
26.00 ,27.00 ,25.00 ,27.00 ,23.00 ,30.00 ,24.00 ,26.00 ,0.45 ,13289429800.00 
25.00 ,30.00 ,26.00 ,27.00 ,26.00 ,32.00 ,26.00 ,25.00 ,0.45 ,13308798300.00 
24.00 ,28.00 ,27.00 ,29.00 ,25.00 ,30.00 ,26.00 ,23.00 ,0.45 ,13326979700.00 
26.00 ,28.00 ,28.00 ,28.00 ,26.00 ,29.00 ,25.00 ,23.00 ,0.45 ,13349238500.00 
28.00 ,32.00 ,27.00 ,27.00 ,28.00 ,31.00 ,28.00 ,23.00 ,0.46 ,13372776700.00 
30.00 ,32.00 ,27.00 ,24.00 ,28.00 ,30.00 ,28.00 ,20.00 ,0.46 ,13391247000.00 
31.00 ,30.00 ,29.00 ,24.00 ,26.00 ,29.00 ,27.00 ,22.00 ,0.46 ,13413645800.00 
31.00 ,31.00 ,27.00 ,21.00 ,27.00 ,29.00 ,29.00 ,21.00 ,0.45 ,13432186100.00 
31.00 ,32.00 ,27.00 ,24.00 ,27.00 ,32.00 ,29.00 ,24.00 ,0.45 ,13450782700.00 
32.00 ,29.00 ,26.00 ,24.00 ,25.00 ,31.00 ,28.00 ,23.00 ,0.45 ,13469981200.00 
31.00 ,28.00 ,25.00 ,26.00 ,25.00 ,29.00 ,26.00 ,23.00 ,0.46 ,13491304300.00 
31.00 ,30.00 ,24.00 ,27.00 ,24.00 ,28.00 ,25.00 ,23.00 ,0.46 ,13513271100.00 
32.00 ,28.00 ,23.00 ,30.00 ,27.00 ,27.00 ,24.00 ,23.00 ,0.45 ,13531674300.00 
37.00 ,28.00 ,23.00 ,30.00 ,26.00 ,26.00 ,24.00 ,22.00 ,0.45 ,13550374700.00 
35.00 ,28.00 ,23.00 ,30.00 ,28.00 ,29.00 ,24.00 ,24.00 ,0.45 ,13569868900.00 
38.00 ,28.00 ,22.00 ,30.00 ,28.00 ,33.00 ,26.00 ,23.00 ,0.45 ,13591118100.00 
36.00 ,28.00 ,23.00 ,31.00 ,29.00 ,33.00 ,29.00 ,26.00 ,0.45 ,13613473200.00 
37.00 ,29.00 ,26.00 ,30.00 ,27.00 ,34.00 ,26.00 ,29.00 ,0.45 ,13634662600.00 
33.00 ,32.00 ,26.00 ,28.00 ,28.00 ,34.00 ,25.00 ,30.00 ,0.45 ,13653470900.00 
35.00 ,31.00 ,28.00 ,28.00 ,29.00 ,32.00 ,25.00 ,28.00 ,0.45 ,13672334100.00 
35.00 ,32.00 ,29.00 ,29.00 ,29.00 ,29.00 ,24.00 ,30.00 ,0.45 ,13690938500.00 
36.00 ,32.00 ,28.00 ,26.00 ,28.00 ,33.00 ,24.00 ,28.00 ,0.45 ,13713684400.00 
36.00 ,30.00 ,25.00 ,27.00 ,29.00 ,33.00 ,25.00 ,28.00 ,0.45 ,13731781500.00 
34.00 ,29.00 ,24.00 ,30.00 ,28.00 ,34.00 ,27.00 ,29.00 ,0.45 ,13750153400.00 
34.00 ,33.00 ,26.00 ,30.00 ,26.00 ,34.00 ,25.00 ,29.00 ,0.45 ,13769564700.00 
29.00 ,32.00 ,25.00 ,30.00 ,26.00 ,33.00 ,26.00 ,28.00 ,0.45 ,13792054000.00 
28.00 ,32.00 ,25.00 ,30.00 ,27.00 ,34.00 ,26.00 ,27.00 ,0.45 ,13809938100.00 
28.00 ,32.00 ,25.00 ,29.00 ,25.00 ,31.00 ,26.00 ,26.00 ,0.45 ,13827794200.00 
26.00 ,29.00 ,27.00 ,26.00 ,26.00 ,29.00 ,25.00 ,25.00 ,0.45 ,13847747000.00 
26.00 ,27.00 ,25.00 ,27.00 ,28.00 ,29.00 ,26.00 ,25.00 ,0.45 ,13870395000.00 
28.00 ,27.00 ,25.00 ,28.00 ,30.00 ,29.00 ,26.00 ,25.00 ,0.45 ,13892625700.00 
28.00 ,29.00 ,24.00 ,28.00 ,30.00 ,28.00 ,26.00 ,26.00 ,0.45 ,13910867600.00 
25.00 ,32.00 ,26.00 ,29.00 ,29.00 ,33.00 ,26.00 ,26.00 ,0.45 ,13928990400.00 
27.00 ,32.00 ,24.00 ,28.00 ,29.00 ,33.00 ,28.00 ,24.00 ,0.45 ,13948081200.00 
26.00 ,33.00 ,21.00 ,28.00 ,26.00 ,32.00 ,27.00 ,23.00 ,0.45 ,13970461300.00 
26.00 ,33.00 ,24.00 ,25.00 ,24.00 ,32.00 ,27.00 ,24.00 ,0.45 ,13993447200.00 
25.00 ,30.00 ,24.00 ,26.00 ,23.00 ,29.00 ,25.00 ,23.00 ,0.45 ,14011099900.00 
26.00 ,26.00 ,24.00 ,24.00 ,26.00 ,28.00 ,27.00 ,22.00 ,0.45 ,14029695200.00 
26.00 ,28.00 ,24.00 ,25.00 ,24.00 ,27.00 ,26.00 ,23.00 ,0.45 ,14049782100.00 
25.00 ,26.00 ,25.00 ,24.00 ,23.00 ,29.00 ,26.00 ,25.00 ,0.45 ,14072327600.00 
26.00 ,27.00 ,25.00 ,25.00 ,23.00 ,30.00 ,25.00 ,28.00 ,0.45 ,14091498000.00 
25.00 ,26.00 ,28.00 ,25.00 ,26.00 ,32.00 ,26.00 ,29.00 ,0.45 ,14109273300.00 
29.00 ,26.00 ,26.00 ,26.00 ,24.00 ,31.00 ,25.00 ,30.00 ,0.45 ,14129506200.00 
29.00 ,24.00 ,26.00 ,24.00 ,25.00 ,33.00 ,29.00 ,30.00 ,0.45 ,14151563800.00 
31.00 ,25.00 ,29.00 ,25.00 ,27.00 ,32.00 ,30.00 ,30.00 ,0.45 ,14173529700.00 
32.00 ,27.00 ,30.00 ,24.00 ,28.00 ,30.00 ,31.00 ,27.00 ,0.45 ,14191251300.00 
33.00 ,27.00 ,27.00 ,25.00 ,26.00 ,30.00 ,31.00 ,28.00 ,0.45 ,14209406800.00 
30.00 ,30.00 ,26.00 ,24.00 ,28.00 ,31.00 ,31.00 ,27.00 ,0.45 ,14234847100.00 
31.00 ,30.00 ,27.00 ,26.00 ,27.00 ,29.00 ,28.00 ,26.00 ,0.45 ,14254169700.00 
31.00 ,28.00 ,24.00 ,26.00 ,25.00 ,29.00 ,29.00 ,25.00 ,0.45 ,14272710500.00 
30.00 ,32.00 ,23.00 ,28.00 ,27.00 ,31.00 ,32.00 ,27.00 ,0.45 ,14291359500.00 
29.00 ,36.00 ,23.00 ,29.00 ,26.00 ,31.00 ,33.00 ,26.00 ,0.45 ,14312931200.00 
31.00 ,37.00 ,22.00 ,29.00 ,23.00 ,31.00 ,31.00 ,26.00 ,0.45 ,14331367100.00 
30.00 ,37.00 ,22.00 ,28.00 ,28.00 ,35.00 ,55.00 ,29.00 ,0.45 ,14349657200.00 
31.00 ,40.00 ,22.00 ,29.00 ,29.00 ,36.00 ,57.00 ,31.00 ,0.45 ,14368304000.00 
30.00 ,36.00 ,22.00 ,28.00 ,28.00 ,34.00 ,57.00 ,30.00 ,0.45 ,14390630600.00 
32.00 ,32.00 ,24.00 ,24.00 ,31.00 ,35.00 ,58.00 ,29.00 ,0.46 ,14412815600.00 
30.00 ,29.00 ,25.00 ,24.00 ,30.00 ,35.00 ,58.00 ,30.00 ,0.46 ,14430616000.00 
31.00 ,31.00 ,26.00 ,24.00 ,27.00 ,33.00 ,39.00 ,27.00 ,0.46 ,14449533400.00 
32.00 ,26.00 ,28.00 ,22.00 ,29.00 ,32.00 ,36.00 ,25.00 ,0.46 ,14468163200.00 
34.00 ,27.00 ,28.00 ,25.00 ,28.00 ,30.00 ,33.00 ,24.00 ,0.46 ,14490587800.00 
32.00 ,28.00 ,26.00 ,25.00 ,24.00 ,31.00 ,31.00 ,23.00 ,0.46 ,14513051300.00 
33.00 ,29.00 ,25.00 ,28.00 ,25.00 ,30.00 ,30.00 ,25.00 ,0.46 ,14531041500.00 
35.00 ,27.00 ,24.00 ,26.00 ,25.00 ,31.00 ,28.00 ,27.00 ,0.46 ,14548881400.00 
33.00 ,30.00 ,21.00 ,28.00 ,22.00 ,31.00 ,33.00 ,26.00 ,0.46 ,14568820700.00 
33.00 ,29.00 ,22.00 ,27.00 ,23.00 ,33.00 ,36.00 ,27.00 ,0.46 ,14590901000.00 
32.00 ,28.00 ,24.00 ,26.00 ,24.00 ,33.00 ,34.00 ,28.00 ,0.46 ,14613029400.00 
32.00 ,27.00 ,24.00 ,24.00 ,28.00 ,32.00 ,35.00 ,25.00 ,0.45 ,14633263500.00 
30.00 ,30.00 ,23.00 ,26.00 ,32.00 ,32.00 ,37.00 ,24.00 ,0.45 ,14672104600.00 
32.00 ,28.00 ,26.00 ,24.00 ,33.00 ,33.00 ,33.00 ,27.00 ,0.45 ,14690841000.00 
33.00 ,27.00 ,26.00 ,24.00 ,32.00 ,33.00 ,31.00 ,26.00 ,0.45 ,14709799900.00 
33.00 ,26.00 ,27.00 ,27.00 ,32.00 ,33.00 ,34.00 ,26.00 ,0.45 ,14730254500.00 
32.00 ,28.00 ,28.00 ,26.00 ,30.00 ,33.00 ,32.00 ,29.00 ,0.45 ,14747284000.00 
29.00 ,26.00 ,28.00 ,26.00 ,27.00 ,33.00 ,31.00 ,27.00 ,0.45 ,14764968900.00 
30.00 ,26.00 ,27.00 ,27.00 ,25.00 ,31.00 ,29.00 ,26.00 ,0.45 ,14783148300.00 
29.00 ,29.00 ,28.00 ,28.00 ,25.00 ,33.00 ,29.00 ,27.00 ,0.45 ,14801909700.00 
30.00 ,31.00 ,26.00 ,26.00 ,25.00 ,32.00 ,27.00 ,28.00 ,0.45 ,14819555000.00 
29.00 ,30.00 ,27.00 ,26.00 ,24.00 ,31.00 ,27.00 ,25.00 ,0.45 ,14839404200.00 
28.00 ,30.00 ,27.00 ,26.00 ,23.00 ,31.00 ,27.00 ,25.00 ,0.45 ,14857835400.00 
29.00 ,31.00 ,27.00 ,23.00 ,23.00 ,31.00 ,25.00 ,26.00 ,0.45 ,14875948200.00 
31.00 ,28.00 ,26.00 ,25.00 ,26.00 ,29.00 ,24.00 ,28.00 ,0.45 ,14893384400.00 
32.00 ,27.00 ,24.00 ,24.00 ,25.00 ,30.00 ,24.00 ,26.00 ,0.45 ,14912765000.00 
33.00 ,27.00 ,24.00 ,25.00 ,26.00 ,33.00 ,24.00 ,27.00 ,0.45 ,14931469200.00 
38.00 ,27.00 ,25.00 ,26.00 ,29.00 ,33.00 ,25.00 ,25.00 ,0.45 ,14949887400.00 
36.00 ,29.00 ,23.00 ,27.00 ,29.00 ,36.00 ,26.00 ,27.00 ,0.45 ,14969141100.00 
34.00 ,27.00 ,24.00 ,25.00 ,28.00 ,34.00 ,25.00 ,22.00 ,0.45 ,14990228400.00 
34.00 ,31.00 ,26.00 ,25.00 ,28.00 ,35.00 ,26.00 ,24.00 ,0.45 ,15012742700.00 
35.00 ,31.00 ,25.00 ,24.00 ,27.00 ,33.00 ,25.00 ,24.00 ,0.45 ,15031075800.00 
32.00 ,30.00 ,24.00 ,27.00 ,28.00 ,32.00 ,23.00 ,26.00 ,0.45 ,15049020300.00 
33.00 ,29.00 ,28.00 ,33.00 ,28.00 ,27.00 ,25.00 ,22.00 ,0.45 ,15068073400.00 
32.00 ,30.00 ,29.00 ,41.00 ,31.00 ,33.00 ,26.00 ,26.00 ,0.45 ,15090488700.00 
31.00 ,26.00 ,30.00 ,42.00 ,31.00 ,32.00 ,26.00 ,24.00 ,0.45 ,15112807600.00 
31.00 ,26.00 ,30.00 ,44.00 ,31.00 ,34.00 ,26.00 ,25.00 ,0.45 ,15131332000.00 
29.00 ,27.00 ,29.00 ,43.00 ,29.00 ,34.00 ,28.00 ,25.00 ,0.45 ,15151746300.00 
29.00 ,28.00 ,27.00 ,40.00 ,27.00 ,36.00 ,28.00 ,26.00 ,0.46 ,15169697700.00 
29.00 ,28.00 ,28.00 ,32.00 ,26.00 ,33.00 ,28.00 ,23.00 ,0.46 ,15190161700.00 
31.00 ,28.00 ,26.00 ,31.00 ,26.00 ,33.00 ,28.00 ,25.00 ,0.46 ,15212744800.00 
33.00 ,28.00 ,25.00 ,28.00 ,25.00 ,31.00 ,29.00 ,24.00 ,0.46 ,15231226300.00 
34.00 ,29.00 ,28.00 ,27.00 ,25.00 ,32.00 ,28.00 ,23.00 ,0.46 ,15249431000.00 
33.00 ,26.00 ,27.00 ,27.00 ,27.00 ,31.00 ,27.00 ,22.00 ,0.46 ,15268112800.00 
33.00 ,27.00 ,25.00 ,26.00 ,27.00 ,32.00 ,25.00 ,22.00 ,0.46 ,15290312900.00 
32.00 ,27.00 ,24.00 ,27.00 ,27.00 ,32.00 ,23.00 ,20.00 ,0.46 ,15312256400.00 
29.00 ,28.00 ,24.00 ,36.00 ,30.00 ,36.00 ,23.00 ,22.00 ,0.46 ,15331026100.00 
29.00 ,27.00 ,23.00 ,36.00 ,29.00 ,35.00 ,27.00 ,21.00 ,0.46 ,15348824200.00 
28.00 ,27.00 ,26.00 ,37.00 ,28.00 ,33.00 ,27.00 ,21.00 ,0.46 ,15369856000.00 
28.00 ,28.00 ,25.00 ,36.00 ,26.00 ,32.00 ,28.00 ,23.00 ,0.46 ,15393170400.00 
27.00 ,27.00 ,28.00 ,37.00 ,30.00 ,31.00 ,31.00 ,23.00 ,0.46 ,15411087900.00 
26.00 ,27.00 ,31.00 ,26.00 ,25.00 ,27.00 ,28.00 ,24.00 ,0.46 ,15429594700.00 
29.00 ,27.00 ,34.00 ,24.00 ,27.00 ,29.00 ,24.00 ,24.00 ,0.46 ,15449488600.00 
39.00 ,32.00 ,33.00 ,22.00 ,29.00 ,32.00 ,24.00 ,28.00 ,0.46 ,15473516400.00 
38.00 ,31.00 ,35.00 ,23.00 ,27.00 ,30.00 ,22.00 ,28.00 ,0.46 ,15491869800.00 
39.00 ,34.00 ,33.00 ,21.00 ,26.00 ,29.00 ,22.00 ,28.00 ,0.46 ,15510351800.00 
39.00 ,34.00 ,31.00 ,23.00 ,29.00 ,30.00 ,22.00 ,28.00 ,0.46 ,15529016600.00 
36.00 ,35.00 ,28.00 ,23.00 ,29.00 ,30.00 ,25.00 ,28.00 ,0.46 ,15550868400.00 
28.00 ,30.00 ,28.00 ,22.00 ,28.00 ,30.00 ,24.00 ,25.00 ,0.46 ,15573014300.00 
28.00 ,30.00 ,28.00 ,25.00 ,30.00 ,29.00 ,25.00 ,24.00 ,0.46 ,15592176800.00 
32.00 ,31.00 ,30.00 ,26.00 ,30.00 ,29.00 ,25.00 ,27.00 ,0.45 ,15610933200.00 
37.00 ,31.00 ,31.00 ,24.00 ,27.00 ,31.00 ,24.00 ,28.00 ,0.45 ,15629140000.00 
38.00 ,29.00 ,31.00 ,25.00 ,28.00 ,31.00 ,23.00 ,30.00 ,0.45 ,15650018700.00 
36.00 ,32.00 ,31.00 ,26.00 ,27.00 ,31.00 ,21.00 ,27.00 ,0.45 ,15671804400.00 
39.00 ,30.00 ,29.00 ,25.00 ,27.00 ,34.00 ,23.00 ,29.00 ,0.45 ,15693819500.00 
40.00 ,31.00 ,28.00 ,26.00 ,25.00 ,36.00 ,22.00 ,34.00 ,0.45 ,15711854900.00 
35.00 ,30.00 ,28.00 ,26.00 ,25.00 ,32.00 ,25.00 ,32.00 ,0.45 ,15731044800.00 
35.00 ,30.00 ,31.00 ,25.00 ,25.00 ,35.00 ,26.00 ,31.00 ,0.45 ,15750659000.00 
37.00 ,28.00 ,34.00 ,24.00 ,27.00 ,35.00 ,27.00 ,32.00 ,0.45 ,15773146100.00 
34.00 ,29.00 ,34.00 ,23.00 ,28.00 ,33.00 ,26.00 ,33.00 ,0.45 ,15793550300.00 
29.00 ,26.00 ,38.00 ,21.00 ,29.00 ,31.00 ,27.00 ,26.00 ,0.45 ,15812100600.00 
34.00 ,27.00 ,36.00 ,22.00 ,30.00 ,33.00 ,26.00 ,28.00 ,0.45 ,15832241400.00 
38.00 ,27.00 ,36.00 ,23.00 ,30.00 ,33.00 ,26.00 ,28.00 ,0.45 ,15850875600.00 
40.00 ,29.00 ,33.00 ,26.00 ,28.00 ,30.00 ,26.00 ,31.00 ,0.45 ,15870298300.00 
41.00 ,28.00 ,35.00 ,25.00 ,26.00 ,32.00 ,26.00 ,29.00 ,0.45 ,15890835400.00 
41.00 ,29.00 ,29.00 ,27.00 ,26.00 ,32.00 ,25.00 ,30.00 ,0.45 ,15913084500.00 
38.00 ,28.00 ,32.00 ,26.00 ,25.00 ,30.00 ,23.00 ,28.00 ,0.45 ,15931268100.00 
36.00 ,30.00 ,28.00 ,26.00 ,25.00 ,26.00 ,24.00 ,28.00 ,0.45 ,15949369300.00 
34.00 ,28.00 ,28.00 ,25.00 ,24.00 ,27.00 ,26.00 ,27.00 ,0.45 ,15968377100.00 
36.00 ,30.00 ,26.00 ,26.00 ,26.00 ,29.00 ,24.00 ,27.00 ,0.45 ,15990503300.00 
34.00 ,31.00 ,28.00 ,25.00 ,27.00 ,30.00 ,25.00 ,25.00 ,0.45 ,16012677100.00 
35.00 ,30.00 ,30.00 ,26.00 ,26.00 ,32.00 ,29.00 ,26.00 ,0.45 ,16030442300.00 
34.00 ,29.00 ,28.00 ,25.00 ,29.00 ,32.00 ,29.00 ,26.00 ,0.45 ,16048815300.00 
33.00 ,29.00 ,27.00 ,25.00 ,29.00 ,34.00 ,30.00 ,24.00 ,0.45 ,16068281900.00 
30.00 ,27.00 ,28.00 ,27.00 ,28.00 ,33.00 ,30.00 ,22.00 ,0.45 ,16090656000.00 
33.00 ,27.00 ,29.00 ,26.00 ,27.00 ,36.00 ,30.00 ,23.00 ,0.45 ,16112936100.00 
33.00 ,28.00 ,24.00 ,26.00 ,27.00 ,35.00 ,27.00 ,24.00 ,0.45 ,16130894600.00 
32.00 ,29.00 ,28.00 ,27.00 ,25.00 ,35.00 ,28.00 ,24.00 ,0.45 ,16150288300.00 
31.00 ,29.00 ,28.00 ,25.00 ,23.00 ,34.00 ,26.00 ,25.00 ,0.45 ,16169354900.00 
29.00 ,28.00 ,30.00 ,24.00 ,26.00 ,33.00 ,26.00 ,24.00 ,0.45 ,16191756100.00 
27.00 ,27.00 ,30.00 ,23.00 ,26.00 ,31.00 ,26.00 ,25.00 ,0.45 ,16209502500.00 
26.00 ,28.00 ,30.00 ,24.00 ,27.00 ,29.00 ,27.00 ,24.00 ,0.45 ,16228307500.00 
25.00 ,27.00 ,27.00 ,23.00 ,27.00 ,29.00 ,24.00 ,25.00 ,0.45 ,16248374700.00 
33.00 ,28.00 ,25.00 ,25.00 ,27.00 ,28.00 ,23.00 ,24.00 ,0.45 ,16270825100.00 
34.00 ,27.00 ,24.00 ,25.00 ,25.00 ,29.00 ,27.00 ,27.00 ,0.45 ,16293508600.00 
35.00 ,29.00 ,21.00 ,25.00 ,23.00 ,28.00 ,26.00 ,26.00 ,0.45 ,16311654900.00 
33.00 ,29.00 ,23.00 ,26.00 ,22.00 ,28.00 ,25.00 ,26.00 ,0.45 ,16329814200.00 
34.00 ,27.00 ,22.00 ,26.00 ,23.00 ,30.00 ,26.00 ,28.00 ,0.45 ,16351070200.00 
29.00 ,27.00 ,26.00 ,23.00 ,27.00 ,29.00 ,27.00 ,27.00 ,0.45 ,16373064100.00 
28.00 ,27.00 ,24.00 ,23.00 ,25.00 ,29.00 ,26.00 ,25.00 ,0.45 ,16391258700.00 
26.00 ,24.00 ,28.00 ,22.00 ,26.00 ,27.00 ,25.00 ,24.00 ,0.45 ,16410985500.00 
27.00 ,27.00 ,26.00 ,20.00 ,26.00 ,31.00 ,26.00 ,26.00 ,0.45 ,16429936600.00 
32.00 ,27.00 ,27.00 ,22.00 ,25.00 ,29.00 ,27.00 ,25.00 ,0.45 ,16450825400.00 
29.00 ,25.00 ,24.00 ,25.00 ,25.00 ,31.00 ,26.00 ,24.00 ,0.45 ,16473245100.00 
29.00 ,28.00 ,26.00 ,23.00 ,26.00 ,29.00 ,25.00 ,26.00 ,0.45 ,16491410800.00 
30.00 ,27.00 ,24.00 ,24.00 ,27.00 ,32.00 ,24.00 ,26.00 ,0.45 ,16510215200.00 
31.00 ,25.00 ,24.00 ,25.00 ,27.00 ,30.00 ,23.00 ,24.00 ,0.45 ,16529419500.00 
27.00 ,27.00 ,25.00 ,26.00 ,27.00 ,32.00 ,24.00 ,22.00 ,0.45 ,16550146500.00 
30.00 ,29.00 ,26.00 ,25.00 ,25.00 ,33.00 ,25.00 ,22.00 ,0.45 ,16572424900.00 
30.00 ,28.00 ,26.00 ,25.00 ,25.00 ,33.00 ,24.00 ,21.00 ,0.45 ,16592145000.00 
30.00 ,29.00 ,24.00 ,27.00 ,25.00 ,32.00 ,26.00 ,23.00 ,0.45 ,16610733400.00 
29.00 ,29.00 ,26.00 ,27.00 ,24.00 ,32.00 ,26.00 ,23.00 ,0.45 ,16629376600.00 
30.00 ,28.00 ,25.00 ,25.00 ,24.00 ,30.00 ,27.00 ,24.00 ,0.45 ,16648756500.00 
27.00 ,26.00 ,26.00 ,24.00 ,26.00 ,30.00 ,27.00 ,24.00 ,0.45 ,16670687000.00 
31.00 ,27.00 ,26.00 ,25.00 ,26.00 ,31.00 ,28.00 ,24.00 ,0.45 ,16693020000.00 
31.00 ,28.00 ,28.00 ,22.00 ,28.00 ,33.00 ,26.00 ,22.00 ,0.45 ,16711156400.00 
33.00 ,27.00 ,26.00 ,23.00 ,27.00 ,33.00 ,32.00 ,24.00 ,0.45 ,16729405000.00 
32.00 ,27.00 ,25.00 ,22.00 ,27.00 ,33.00 ,33.00 ,27.00 ,0.45 ,16748786900.00 
33.00 ,27.00 ,23.00 ,23.00 ,29.00 ,29.00 ,34.00 ,28.00 ,0.45 ,16770940200.00 
32.00 ,30.00 ,23.00 ,22.00 ,28.00 ,30.00 ,35.00 ,29.00 ,0.45 ,16793086000.00 
31.00 ,28.00 ,20.00 ,23.00 ,26.00 ,28.00 ,36.00 ,30.00 ,0.45 ,16812212500.00 
30.00 ,31.00 ,22.00 ,22.00 ,30.00 ,28.00 ,31.00 ,28.00 ,0.45 ,16830384100.00 
31.00 ,32.00 ,22.00 ,22.00 ,32.00 ,28.00 ,26.00 ,24.00 ,0.45 ,16849652800.00 
32.00 ,31.00 ,25.00 ,24.00 ,28.00 ,31.00 ,29.00 ,24.00 ,0.45 ,16876267000.00 
32.00 ,30.00 ,24.00 ,24.00 ,30.00 ,31.00 ,31.00 ,24.00 ,0.45 ,16895917700.00 
30.00 ,33.00 ,24.00 ,23.00 ,30.00 ,30.00 ,29.00 ,24.00 ,0.45 ,16919159200.00 
31.00 ,30.00 ,27.00 ,24.00 ,30.00 ,32.00 ,29.00 ,24.00 ,0.45 ,16938537500.00 
30.00 ,28.00 ,26.00 ,25.00 ,30.00 ,31.00 ,31.00 ,25.00 ,0.45 ,16958726600.00 
28.00 ,30.00 ,25.00 ,27.00 ,30.00 ,27.00 ,27.00 ,24.00 ,0.45 ,16978770000.00 
29.00 ,29.00 ,25.00 ,26.00 ,32.00 ,26.00 ,25.00 ,24.00 ,0.45 ,16997633800.00 
30.00 ,29.00 ,26.00 ,27.00 ,32.00 ,28.00 ,25.00 ,23.00 ,0.45 ,17015425800.00 
31.00 ,31.00 ,24.00 ,26.00 ,31.00 ,25.00 ,26.00 ,24.00 ,0.45 ,17033653300.00 
30.00 ,30.00 ,28.00 ,26.00 ,31.00 ,25.00 ,25.00 ,24.00 ,0.45 ,17052241100.00 
31.00 ,31.00 ,28.00 ,25.00 ,31.00 ,27.00 ,28.00 ,24.00 ,0.45 ,17071703200.00 
31.00 ,32.00 ,29.00 ,25.00 ,28.00 ,28.00 ,26.00 ,25.00 ,0.45 ,17090271400.00 
31.00 ,29.00 ,28.00 ,26.00 ,28.00 ,28.00 ,27.00 ,25.00 ,0.45 ,17111847800.00 
28.00 ,30.00 ,28.00 ,33.00 ,29.00 ,30.00 ,27.00 ,24.00 ,0.45 ,17130414900.00 
30.00 ,32.00 ,26.00 ,36.00 ,29.00 ,31.00 ,27.00 ,25.00 ,0.45 ,17151013800.00 
30.00 ,39.00 ,28.00 ,39.00 ,31.00 ,33.00 ,23.00 ,25.00 ,0.45 ,17170823900.00 
28.00 ,40.00 ,28.00 ,39.00 ,33.00 ,33.00 ,25.00 ,26.00 ,0.45 ,17189679700.00 
28.00 ,39.00 ,28.00 ,39.00 ,32.00 ,36.00 ,27.00 ,26.00 ,0.45 ,17211457100.00 
30.00 ,40.00 ,26.00 ,36.00 ,28.00 ,38.00 ,28.00 ,26.00 ,0.45 ,17233603500.00 
29.00 ,41.00 ,27.00 ,35.00 ,27.00 ,38.00 ,28.00 ,26.00 ,0.45 ,17253679200.00 
29.00 ,32.00 ,23.00 ,31.00 ,26.00 ,36.00 ,29.00 ,28.00 ,0.46 ,17272672800.00 
28.00 ,29.00 ,24.00 ,31.00 ,24.00 ,36.00 ,29.00 ,27.00 ,0.46 ,17291533300.00 
26.00 ,30.00 ,27.00 ,30.00 ,25.00 ,33.00 ,26.00 ,26.00 ,0.46 ,17311488300.00 
24.00 ,28.00 ,26.00 ,27.00 ,26.00 ,28.00 ,24.00 ,26.00 ,0.46 ,17333746800.00 
28.00 ,27.00 ,26.00 ,25.00 ,28.00 ,33.00 ,24.00 ,25.00 ,0.46 ,17352078200.00 
27.00 ,27.00 ,26.00 ,26.00 ,25.00 ,33.00 ,27.00 ,25.00 ,0.46 ,17371440000.00 
29.00 ,31.00 ,26.00 ,27.00 ,26.00 ,31.00 ,26.00 ,23.00 ,0.46 ,17389952900.00 
29.00 ,30.00 ,23.00 ,27.00 ,25.00 ,32.00 ,28.00 ,24.00 ,0.46 ,17411363000.00 
28.00 ,33.00 ,23.00 ,26.00 ,22.00 ,33.00 ,28.00 ,25.00 ,0.46 ,17434015500.00 
25.00 ,31.00 ,25.00 ,27.00 ,22.00 ,30.00 ,27.00 ,24.00 ,0.46 ,17453358300.00 
25.00 ,30.00 ,27.00 ,24.00 ,23.00 ,31.00 ,26.00 ,23.00 ,0.46 ,17472035500.00 
24.00 ,27.00 ,28.00 ,24.00 ,21.00 ,32.00 ,28.00 ,23.00 ,0.46 ,17491131900.00 
22.00 ,29.00 ,29.00 ,25.00 ,23.00 ,31.00 ,30.00 ,22.00 ,0.46 ,17514092200.00 
26.00 ,27.00 ,28.00 ,24.00 ,26.00 ,30.00 ,30.00 ,22.00 ,0.46 ,17532601900.00 
27.00 ,27.00 ,27.00 ,24.00 ,23.00 ,30.00 ,31.00 ,23.00 ,0.46 ,17551682500.00 
28.00 ,29.00 ,24.00 ,25.00 ,25.00 ,30.00 ,30.00 ,24.00 ,0.46 ,17570576600.00 
27.00 ,30.00 ,24.00 ,23.00 ,27.00 ,29.00 ,36.00 ,27.00 ,0.46 ,17592818900.00 
31.00 ,31.00 ,24.00 ,24.00 ,27.00 ,29.00 ,37.00 ,28.00 ,0.46 ,17611531000.00 
31.00 ,32.00 ,25.00 ,25.00 ,28.00 ,34.00 ,41.00 ,29.00 ,0.46 ,17629937400.00 
30.00 ,34.00 ,23.00 ,24.00 ,30.00 ,32.00 ,42.00 ,30.00 ,0.46 ,17649574300.00 
32.00 ,32.00 ,24.00 ,25.00 ,29.00 ,35.00 ,50.00 ,30.00 ,0.46 ,17671727000.00 
35.00 ,32.00 ,24.00 ,23.00 ,28.00 ,37.00 ,46.00 ,28.00 ,0.46 ,17693741400.00 
33.00 ,32.00 ,23.00 ,24.00 ,29.00 ,38.00 ,43.00 ,27.00 ,0.46 ,17711773200.00 
33.00 ,29.00 ,26.00 ,24.00 ,28.00 ,35.00 ,41.00 ,24.00 ,0.45 ,17730163700.00 
34.00 ,30.00 ,25.00 ,25.00 ,28.00 ,36.00 ,41.00 ,24.00 ,0.45 ,17748768700.00 
31.00 ,30.00 ,23.00 ,26.00 ,28.00 ,32.00 ,35.00 ,25.00 ,0.45 ,17771581400.00 
28.00 ,27.00 ,23.00 ,29.00 ,29.00 ,32.00 ,39.00 ,26.00 ,0.45 ,17793656400.00 
31.00 ,27.00 ,23.00 ,29.00 ,28.00 ,33.00 ,39.00 ,26.00 ,0.45 ,17811702400.00 
31.00 ,29.00 ,19.00 ,28.00 ,30.00 ,31.00 ,42.00 ,27.00 ,0.45 ,17830802700.00 
30.00 ,27.00 ,23.00 ,30.00 ,28.00 ,31.00 ,42.00 ,27.00 ,0.45 ,17850393800.00 
30.00 ,28.00 ,26.00 ,28.00 ,28.00 ,33.00 ,39.00 ,27.00 ,0.45 ,17872544800.00 
30.00 ,30.00 ,25.00 ,28.00 ,28.00 ,31.00 ,35.00 ,26.00 ,0.45 ,17891920700.00 
27.00 ,29.00 ,26.00 ,25.00 ,25.00 ,31.00 ,39.00 ,27.00 ,0.45 ,17910856900.00 
26.00 ,25.00 ,28.00 ,26.00 ,23.00 ,34.00 ,37.00 ,27.00 ,0.45 ,17929840900.00 
24.00 ,26.00 ,26.00 ,24.00 ,26.00 ,34.00 ,36.00 ,29.00 ,0.45 ,17949726200.00 
29.00 ,24.00 ,24.00 ,24.00 ,27.00 ,33.00 ,41.00 ,29.00 ,0.45 ,17971214300.00 
32.00 ,26.00 ,24.00 ,24.00 ,27.00 ,34.00 ,44.00 ,28.00 ,0.45 ,17992241600.00 
32.00 ,27.00 ,24.00 ,24.00 ,31.00 ,33.00 ,40.00 ,28.00 ,0.45 ,18011434100.00 
31.00 ,30.00 ,24.00 ,23.00 ,31.00 ,32.00 ,39.00 ,26.00 ,0.45 ,18030703100.00 
32.00 ,31.00 ,26.00 ,23.00 ,32.00 ,33.00 ,41.00 ,25.00 ,0.45 ,18053108600.00 
31.00 ,32.00 ,25.00 ,22.00 ,31.00 ,33.00 ,35.00 ,23.00 ,0.45 ,18072146200.00 
29.00 ,31.00 ,26.00 ,22.00 ,31.00 ,32.00 ,41.00 ,24.00 ,0.45 ,18092155700.00 
30.00 ,32.00 ,24.00 ,23.00 ,28.00 ,32.00 ,44.00 ,26.00 ,0.45 ,18110632900.00 
32.00 ,31.00 ,25.00 ,24.00 ,28.00 ,32.00 ,45.00 ,26.00 ,0.45 ,18129609000.00 
31.00 ,31.00 ,26.00 ,25.00 ,24.00 ,29.00 ,45.00 ,24.00 ,0.45 ,18149042100.00 
31.00 ,30.00 ,26.00 ,27.00 ,26.00 ,30.00 ,51.00 ,26.00 ,0.45 ,18170182600.00 
33.00 ,30.00 ,26.00 ,27.00 ,26.00 ,30.00 ,47.00 ,24.00 ,0.45 ,18193011700.00 
34.00 ,28.00 ,26.00 ,25.00 ,25.00 ,29.00 ,45.00 ,22.00 ,0.45 ,18212548200.00 
34.00 ,30.00 ,24.00 ,26.00 ,23.00 ,35.00 ,63.00 ,24.00 ,0.45 ,18230957100.00 
35.00 ,28.00 ,24.00 ,27.00 ,22.00 ,37.00 ,63.00 ,26.00 ,0.45 ,18250341800.00 
32.00 ,29.00 ,25.00 ,27.00 ,23.00 ,38.00 ,59.00 ,24.00 ,0.46 ,18269730400.00 
30.00 ,32.00 ,26.00 ,27.00 ,22.00 ,39.00 ,65.00 ,28.00 ,0.46 ,18291686800.00 
29.00 ,34.00 ,28.00 ,31.00 ,32.00 ,47.00 ,100.00 ,32.00 ,0.46 ,18310725300.00 
29.00 ,31.00 ,37.00 ,120.00 ,67.00 ,43.00 ,91.00 ,33.00 ,0.46 ,18329690500.00 
31.00 ,35.00 ,49.00 ,149.00 ,81.00 ,45.00 ,103.00 ,36.00 ,0.47 ,18349031300.00 
33.00 ,34.00 ,50.00 ,158.00 ,95.00 ,43.00 ,105.00 ,36.00 ,0.47 ,18369387000.00 
34.00 ,35.00 ,51.00 ,176.00 ,117.00 ,45.00 ,115.00 ,42.00 ,0.48 ,18391075800.00 
41.00 ,64.00 ,67.00 ,189.00 ,125.00 ,41.00 ,111.00 ,50.00 ,0.49 ,18413414500.00 
54.00 ,109.00 ,102.00 ,154.00 ,119.00 ,43.00 ,114.00 ,60.00 ,0.49 ,18431348400.00 
61.00 ,137.00 ,147.00 ,153.00 ,126.00 ,42.00 ,109.00 ,63.00 ,0.50 ,18452683000.00 
73.00 ,152.00 ,160.00 ,169.00 ,135.00 ,49.00 ,108.00 ,67.00 ,0.50 ,18470923900.00 
79.00 ,159.00 ,184.00 ,171.00 ,126.00 ,46.00 ,91.00 ,63.00 ,0.51 ,18491033500.00 
78.00 ,151.00 ,188.00 ,188.00 ,127.00 ,44.00 ,60.00 ,57.00 ,0.51 ,18513390000.00 
70.00 ,128.00 ,176.00 ,190.00 ,125.00 ,43.00 ,51.00 ,48.00 ,0.52 ,18531407600.00 
65.00 ,96.00 ,143.00 ,174.00 ,114.00 ,42.00 ,40.00 ,43.00 ,0.53 ,18550946900.00 
53.00 ,76.00 ,141.00 ,168.00 ,107.00 ,35.00 ,40.00 ,39.00 ,0.53 ,18569908600.00 
44.00 ,65.00 ,133.00 ,183.00 ,107.00 ,36.00 ,38.00 ,38.00 ,0.53 ,18591194400.00 
39.00 ,64.00 ,142.00 ,170.00 ,108.00 ,36.00 ,39.00 ,38.00 ,0.53 ,18614010000.00 
38.00 ,60.00 ,146.00 ,192.00 ,105.00 ,34.00 ,38.00 ,34.00 ,0.54 ,18632849500.00 
39.00 ,66.00 ,151.00 ,192.00 ,103.00 ,40.00 ,37.00 ,34.00 ,0.54 ,18651667000.00 
37.00 ,62.00 ,149.00 ,186.00 ,92.00 ,39.00 ,35.00 ,30.00 ,0.54 ,18670333300.00 
37.00 ,72.00 ,198.00 ,161.00 ,83.00 ,39.00 ,33.00 ,31.00 ,0.54 ,18692476300.00 
40.00 ,82.00 ,214.00 ,159.00 ,70.00 ,38.00 ,35.00 ,28.00 ,0.55 ,18710976800.00 
41.00 ,81.00 ,228.00 ,136.00 ,69.00 ,40.00 ,34.00 ,29.00 ,0.55 ,18729421100.00 
45.00 ,92.00 ,275.00 ,141.00 ,64.00 ,37.00 ,35.00 ,37.00 ,0.56 ,18749266700.00 
50.00 ,97.00 ,295.00 ,150.00 ,67.00 ,37.00 ,34.00 ,44.00 ,0.56 ,18772110400.00 
55.00 ,107.00 ,293.00 ,161.00 ,82.00 ,43.00 ,36.00 ,47.00 ,0.56 ,18794491500.00 
65.00 ,130.00 ,381.00 ,183.00 ,86.00 ,44.00 ,33.00 ,51.00 ,0.56 ,18813348000.00 
66.00 ,131.00 ,377.00 ,185.00 ,87.00 ,43.00 ,38.00 ,51.00 ,0.56 ,18831793000.00 
65.00 ,154.00 ,357.00 ,182.00 ,89.00 ,39.00 ,38.00 ,47.00 ,0.56 ,18852980100.00 
70.00 ,200.00 ,482.00 ,185.00 ,87.00 ,43.00 ,42.00 ,47.00 ,0.56 ,18872364500.00 
78.00 ,225.00 ,479.00 ,178.00 ,69.00 ,39.00 ,40.00 ,47.00 ,0.57 ,18893109500.00 
83.00 ,244.00 ,473.00 ,155.00 ,74.00 ,45.00 ,44.00 ,51.00 ,0.57 ,18912831300.00 
96.00 ,279.00 ,604.00 ,195.00 ,79.00 ,60.00 ,44.00 ,65.00 ,0.56 ,18931597600.00 
114.00 ,576.00 ,696.00 ,270.00 ,121.00 ,70.00 ,47.00 ,99.00 ,0.55 ,18950953200.00 
116.00 ,671.00 ,703.00 ,267.00 ,134.00 ,92.00 ,50.00 ,185.00 ,0.53 ,18969595000.00 
121.00 ,707.00 ,745.00 ,331.00 ,164.00 ,127.00 ,67.00 ,251.00 ,0.51 ,18991937600.00 
114.00 ,778.00 ,767.00 ,338.00 ,224.00 ,127.00 ,140.00 ,429.00 ,0.48 ,19011398500.00 
130.00 ,832.00 ,728.00 ,318.00 ,232.00 ,131.00 ,264.00 ,926.00 ,0.46 ,19030514900.00 
135.00 ,938.00 ,663.00 ,268.00 ,215.00 ,135.00 ,578.00 ,1040.00 ,0.45 ,19048920900.00 
299.00 ,1070.00 ,611.00 ,275.00 ,215.00 ,130.00 ,648.00 ,1038.00 ,0.44 ,19069003100.00 
340.00 ,1127.00 ,573.00 ,214.00 ,200.00 ,99.00 ,659.00 ,1029.00 ,0.45 ,19090047400.00 
359.00 ,1187.00 ,520.00 ,211.00 ,123.00 ,99.00 ,883.00 ,1162.00 ,0.45 ,19112526000.00 
498.00 ,1283.00 ,444.00 ,208.00 ,108.00 ,91.00 ,1077.00 ,1218.00 ,0.45 ,19134028800.00 
587.00 ,1253.00 ,417.00 ,189.00 ,105.00 ,83.00 ,990.00 ,1168.00 ,0.45 ,19159664500.00 
705.00 ,1340.00 ,349.00 ,176.00 ,83.00 ,71.00 ,1021.00 ,1262.00 ,0.45 ,19178692800.00 
831.00 ,1350.00 ,383.00 ,168.00 ,64.00 ,77.00 ,1327.00 ,1526.00 ,0.46 ,19197069200.00 
1037.00 ,1357.00 ,439.00 ,165.00 ,61.00 ,82.00 ,1425.00 ,1633.00 ,0.47 ,19214726100.00 
1279.00 ,1508.00 ,699.00 ,173.00 ,53.00 ,108.00 ,1383.00 ,1534.00 ,0.49 ,19234373500.00 
1429.00 ,1653.00 ,952.00 ,182.00 ,62.00 ,113.00 ,1372.00 ,1697.00 ,0.52 ,19253245400.00 
1358.00 ,1517.00 ,962.00 ,172.00 ,64.00 ,115.00 ,1319.00 ,1629.00 ,0.54 ,19272324300.00 
1280.00 ,1457.00 ,944.00 ,147.00 ,70.00 ,115.00 ,1004.00 ,1396.00 ,0.55 ,19291189900.00 
1117.00 ,1370.00 ,924.00 ,119.00 ,67.00 ,109.00 ,617.00 ,1107.00 ,0.56 ,19311909700.00 
755.00 ,1052.00 ,751.00 ,89.00 ,63.00 ,90.00 ,267.00 ,865.00 ,0.56 ,19333440200.00 
271.00 ,527.00 ,367.00 ,75.00 ,55.00 ,83.00 ,162.00 ,364.00 ,0.56 ,19353057400.00 
225.00 ,301.00 ,335.00 ,76.00 ,59.00 ,78.00 ,142.00 ,334.00 ,0.55 ,19377382600.00 
196.00 ,237.00 ,309.00 ,89.00 ,52.00 ,69.00 ,130.00 ,270.00 ,0.55 ,19396529800.00 
188.00 ,175.00 ,229.00 ,101.00 ,56.00 ,69.00 ,123.00 ,213.00 ,0.55 ,19415557000.00 
207.00 ,163.00 ,179.00 ,108.00 ,63.00 ,60.00 ,119.00 ,179.00 ,0.55 ,19434834000.00 
219.00 ,159.00 ,168.00 ,103.00 ,67.00 ,61.00 ,90.00 ,121.00 ,0.55 ,19454538600.00 
221.00 ,129.00 ,153.00 ,100.00 ,70.00 ,59.00 ,89.00 ,113.00 ,0.54 ,19473359200.00 
215.00 ,122.00 ,112.00 ,84.00 ,70.00 ,57.00 ,85.00 ,102.00 ,0.54 ,19493000800.00 
208.00 ,109.00 ,98.00 ,66.00 ,66.00 ,61.00 ,96.00 ,106.00 ,0.54 ,19512126200.00 
252.00 ,101.00 ,94.00 ,53.00 ,61.00 ,60.00 ,94.00 ,113.00 ,0.53 ,19532676400.00 
231.00 ,110.00 ,88.00 ,61.00 ,56.00 ,53.00 ,87.00 ,112.00 ,0.52 ,19551129000.00 
250.00 ,112.00 ,87.00 ,67.00 ,50.00 ,50.00 ,87.00 ,110.00 ,0.51 ,19569985700.00 
251.00 ,110.00 ,86.00 ,70.00 ,53.00 ,50.00 ,91.00 ,109.00 ,0.51 ,19589357200.00 
258.00 ,130.00 ,169.00 ,80.00 ,55.00 ,51.00 ,86.00 ,101.00 ,0.51 ,19610796400.00 
248.00 ,138.00 ,184.00 ,146.00 ,70.00 ,48.00 ,72.00 ,106.00 ,0.51 ,19632621300.00 
306.00 ,138.00 ,209.00 ,159.00 ,70.00 ,46.00 ,68.00 ,110.00 ,0.51 ,19650612600.00 
483.00 ,146.00 ,248.00 ,169.00 ,70.00 ,48.00 ,68.00 ,113.00 ,0.51 ,19670607200.00 
524.00 ,158.00 ,258.00 ,175.00 ,71.00 ,50.00 ,60.00 ,112.00 ,0.51 ,19688627900.00 
520.00 ,144.00 ,251.00 ,178.00 ,71.00 ,43.00 ,44.00 ,109.00 ,0.51 ,19711262000.00 
493.00 ,147.00 ,245.00 ,130.00 ,55.00 ,39.00 ,139.00 ,79.00 ,0.50 ,19732535500.00 
469.00 ,165.00 ,232.00 ,118.00 ,56.00 ,40.00 ,312.00 ,53.00 ,0.51 ,19750994000.00 
271.00 ,157.00 ,198.00 ,101.00 ,48.00 ,41.00 ,332.00 ,46.00 ,0.51 ,19769244800.00 
176.00 ,147.00 ,199.00 ,96.00 ,42.00 ,38.00 ,334.00 ,41.00 ,0.51 ,19788076500.00 
175.00 ,141.00 ,141.00 ,84.00 ,43.00 ,38.00 ,336.00 ,42.00 ,0.52 ,19810361400.00 
164.00 ,126.00 ,131.00 ,81.00 ,43.00 ,40.00 ,311.00 ,42.00 ,0.52 ,19832576300.00 
120.00 ,83.00 ,121.00 ,64.00 ,41.00 ,46.00 ,139.00 ,42.00 ,0.52 ,19851833400.00 
97.00 ,76.00 ,106.00 ,64.00 ,46.00 ,49.00 ,81.00 ,39.00 ,0.52 ,19870213500.00 
98.00 ,87.00 ,136.00 ,77.00 ,52.00 ,50.00 ,76.00 ,41.00 ,0.52 ,19889581100.00 
91.00 ,84.00 ,140.00 ,79.00 ,51.00 ,50.00 ,64.00 ,35.00 ,0.52 ,19911463400.00 
91.00 ,85.00 ,138.00 ,79.00 ,52.00 ,56.00 ,54.00 ,36.00 ,0.53 ,19934087500.00 
98.00 ,81.00 ,132.00 ,81.00 ,48.00 ,52.00 ,64.00 ,36.00 ,0.53 ,19953072200.00 
101.00 ,81.00 ,133.00 ,77.00 ,43.00 ,50.00 ,64.00 ,78.00 ,0.53 ,19971393300.00 
96.00 ,59.00 ,70.00 ,48.00 ,37.00 ,51.00 ,64.00 ,81.00 ,0.53 ,19991491200.00 
99.00 ,54.00 ,65.00 ,42.00 ,34.00 ,51.00 ,70.00 ,83.00 ,0.53 ,20010456900.00 
94.00 ,48.00 ,72.00 ,39.00 ,32.00 ,42.00 ,70.00 ,84.00 ,0.52 ,20028936000.00 
84.00 ,53.00 ,79.00 ,38.00 ,31.00 ,38.00 ,65.00 ,85.00 ,0.52 ,20048666500.00 
68.00 ,54.00 ,75.00 ,33.00 ,31.00 ,37.00 ,63.00 ,50.00 ,0.51 ,20070978000.00 
71.00 ,50.00 ,74.00 ,35.00 ,31.00 ,37.00 ,63.00 ,46.00 ,0.51 ,20093514200.00 
65.00 ,55.00 ,128.00 ,37.00 ,29.00 ,38.00 ,52.00 ,42.00 ,0.51 ,20111920800.00 
74.00 ,66.00 ,136.00 ,40.00 ,30.00 ,37.00 ,49.00 ,38.00 ,0.51 ,20130851000.00 
71.00 ,64.00 ,134.00 ,39.00 ,29.00 ,37.00 ,40.00 ,31.00 ,0.51 ,20151077800.00 
70.00 ,61.00 ,136.00 ,39.00 ,30.00 ,35.00 ,38.00 ,35.00 ,0.50 ,20173025000.00 
65.00 ,71.00 ,153.00 ,39.00 ,29.00 ,32.00 ,32.00 ,31.00 ,0.50 ,20193306500.00 
73.00 ,80.00 ,157.00 ,37.00 ,30.00 ,31.00 ,34.00 ,33.00 ,0.50 ,20213817900.00 
65.00 ,72.00 ,153.00 ,35.00 ,29.00 ,32.00 ,34.00 ,30.00 ,0.50 ,20234021000.00 
103.00 ,86.00 ,173.00 ,43.00 ,32.00 ,32.00 ,32.00 ,44.00 ,0.50 ,20253695000.00 
107.00 ,88.00 ,177.00 ,44.00 ,32.00 ,31.00 ,28.00 ,40.00 ,0.50 ,20272349500.00 
121.00 ,90.00 ,191.00 ,65.00 ,36.00 ,33.00 ,29.00 ,44.00 ,0.50 ,20291338100.00 
128.00 ,107.00 ,185.00 ,78.00 ,39.00 ,31.00 ,26.00 ,44.00 ,0.50 ,20312558200.00 
134.00 ,109.00 ,196.00 ,87.00 ,42.00 ,33.00 ,32.00 ,54.00 ,0.50 ,20331171500.00 
127.00 ,222.00 ,318.00 ,96.00 ,44.00 ,45.00 ,36.00 ,50.00 ,0.51 ,20349417300.00 
225.00 ,303.00 ,399.00 ,98.00 ,46.00 ,49.00 ,38.00 ,108.00 ,0.51 ,20368273400.00 
237.00 ,338.00 ,437.00 ,98.00 ,48.00 ,51.00 ,41.00 ,112.00 ,0.52 ,20390398600.00 
247.00 ,367.00 ,472.00 ,104.00 ,47.00 ,53.00 ,48.00 ,133.00 ,0.53 ,20412414100.00 
291.00 ,401.00 ,533.00 ,137.00 ,57.00 ,57.00 ,51.00 ,142.00 ,0.53 ,20430942400.00 
286.00 ,358.00 ,472.00 ,136.00 ,57.00 ,52.00 ,60.00 ,148.00 ,0.54 ,20449499200.00 
223.00 ,311.00 ,454.00 ,143.00 ,56.00 ,52.00 ,92.00 ,182.00 ,0.54 ,20468627400.00 
210.00 ,281.00 ,427.00 ,143.00 ,55.00 ,54.00 ,98.00 ,181.00 ,0.55 ,20490200800.00 
202.00 ,240.00 ,384.00 ,134.00 ,56.00 ,58.00 ,101.00 ,199.00 ,0.55 ,20512571300.00 
130.00 ,187.00 ,314.00 ,100.00 ,42.00 ,67.00 ,100.00 ,199.00 ,0.56 ,20531694300.00 
130.00 ,167.00 ,312.00 ,94.00 ,41.00 ,68.00 ,98.00 ,198.00 ,0.56 ,20550863100.00 
121.00 ,134.00 ,256.00 ,85.00 ,43.00 ,69.00 ,74.00 ,149.00 ,0.56 ,20569142100.00 
111.00 ,112.00 ,225.00 ,75.00 ,41.00 ,68.00 ,67.00 ,150.00 ,0.56 ,20590418500.00 
93.00 ,95.00 ,216.00 ,74.00 ,40.00 ,63.00 ,59.00 ,104.00 ,0.55 ,20612914600.00 
95.00 ,86.00 ,191.00 ,69.00 ,43.00 ,52.00 ,56.00 ,90.00 ,0.55 ,20630856400.00 
84.00 ,94.00 ,181.00 ,69.00 ,43.00 ,47.00 ,51.00 ,81.00 ,0.55 ,20649920900.00 
83.00 ,103.00 ,167.00 ,66.00 ,42.00 ,45.00 ,42.00 ,66.00 ,0.54 ,20669408000.00 
78.00 ,100.00 ,177.00 ,63.00 ,39.00 ,47.00 ,42.00 ,80.00 ,0.54 ,20691758100.00 
79.00 ,107.00 ,194.00 ,66.00 ,38.00 ,52.00 ,46.00 ,94.00 ,0.53 ,20709987700.00 
76.00 ,115.00 ,194.00 ,68.00 ,41.00 ,54.00 ,46.00 ,94.00 ,0.53 ,20728479100.00 
83.00 ,128.00 ,221.00 ,74.00 ,42.00 ,58.00 ,47.00 ,97.00 ,0.53 ,20748363400.00 
82.00 ,119.00 ,228.00 ,79.00 ,42.00 ,58.00 ,51.00 ,95.00 ,0.53 ,20770387300.00 
89.00 ,121.00 ,218.00 ,78.00 ,42.00 ,59.00 ,49.00 ,80.00 ,0.53 ,20792735200.00 
89.00 ,121.00 ,221.00 ,76.00 ,42.00 ,55.00 ,47.00 ,82.00 ,0.53 ,20811105600.00 
90.00 ,105.00 ,236.00 ,81.00 ,37.00 ,52.00 ,48.00 ,80.00 ,0.53 ,20830572400.00 
106.00 ,94.00 ,293.00 ,90.00 ,36.00 ,50.00 ,51.00 ,80.00 ,0.53 ,20849155700.00 
108.00 ,94.00 ,288.00 ,85.00 ,35.00 ,58.00 ,65.00 ,105.00 ,0.53 ,20870208800.00 
110.00 ,97.00 ,292.00 ,88.00 ,42.00 ,83.00 ,82.00 ,137.00 ,0.53 ,20892682700.00 
109.00 ,130.00 ,345.00 ,100.00 ,43.00 ,88.00 ,82.00 ,127.00 ,0.53 ,20911591100.00 
108.00 ,130.00 ,326.00 ,91.00 ,43.00 ,89.00 ,82.00 ,128.00 ,0.54 ,20930078000.00 
88.00 ,125.00 ,262.00 ,76.00 ,42.00 ,90.00 ,78.00 ,127.00 ,0.54 ,20949098500.00 
81.00 ,128.00 ,257.00 ,77.00 ,43.00 ,85.00 ,66.00 ,106.00 ,0.54 ,20973643200.00 
74.00 ,120.00 ,249.00 ,75.00 ,36.00 ,60.00 ,44.00 ,59.00 ,0.54 ,20992281300.00 
70.00 ,71.00 ,136.00 ,50.00 ,33.00 ,52.00 ,41.00 ,53.00 ,0.54 ,21014074300.00 
66.00 ,71.00 ,131.00 ,52.00 ,36.00 ,46.00 ,38.00 ,51.00 ,0.54 ,21032474500.00 
70.00 ,75.00 ,125.00 ,47.00 ,34.00 ,51.00 ,38.00 ,47.00 ,0.54 ,21051053400.00 
70.00 ,69.00 ,130.00 ,42.00 ,32.00 ,50.00 ,44.00 ,71.00 ,0.53 ,21069902500.00 
67.00 ,77.00 ,127.00 ,43.00 ,32.00 ,48.00 ,43.00 ,72.00 ,0.53 ,21092153700.00 
76.00 ,84.00 ,136.00 ,49.00 ,33.00 ,50.00 ,45.00 ,74.00 ,0.53 ,21113952000.00 
95.00 ,106.00 ,209.00 ,83.00 ,35.00 ,54.00 ,46.00 ,79.00 ,0.53 ,21132899200.00 
99.00 ,111.00 ,215.00 ,85.00 ,36.00 ,46.00 ,45.00 ,81.00 ,0.53 ,21152189600.00 
98.00 ,111.00 ,206.00 ,84.00 ,38.00 ,46.00 ,38.00 ,98.00 ,0.53 ,21170859100.00 
105.00 ,112.00 ,238.00 ,97.00 ,39.00 ,47.00 ,42.00 ,98.00 ,0.53 ,21191816500.00 
101.00 ,113.00 ,242.00 ,98.00 ,41.00 ,47.00 ,38.00 ,101.00 ,0.53 ,21213858600.00 
86.00 ,96.00 ,195.00 ,70.00 ,37.00 ,43.00 ,37.00 ,99.00 ,0.52 ,21232036100.00 
88.00 ,87.00 ,184.00 ,72.00 ,36.00 ,42.00 ,37.00 ,98.00 ,0.52 ,21251363700.00 
88.00 ,90.00 ,185.00 ,74.00 ,34.00 ,39.00 ,36.00 ,61.00 ,0.52 ,21276201500.00 
82.00 ,96.00 ,164.00 ,84.00 ,34.00 ,34.00 ,30.00 ,58.00 ,0.53 ,21295538300.00 
107.00 ,97.00 ,163.00 ,98.00 ,33.00 ,32.00 ,34.00 ,62.00 ,0.53 ,21314545100.00 
117.00 ,99.00 ,159.00 ,102.00 ,32.00 ,36.00 ,46.00 ,96.00 ,0.53 ,21334294900.00 
113.00 ,108.00 ,160.00 ,101.00 ,36.00 ,35.00 ,48.00 ,98.00 ,0.54 ,21352604600.00 
143.00 ,106.00 ,167.00 ,102.00 ,37.00 ,37.00 ,48.00 ,101.00 ,0.54 ,21371304400.00 
145.00 ,105.00 ,201.00 ,93.00 ,42.00 ,39.00 ,49.00 ,102.00 ,0.54 ,21389900200.00 
137.00 ,121.00 ,191.00 ,97.00 ,49.00 ,38.00 ,50.00 ,96.00 ,0.54 ,21409693800.00 
129.00 ,123.00 ,197.00 ,100.00 ,51.00 ,37.00 ,43.00 ,64.00 ,0.54 ,21431888400.00 
137.00 ,129.00 ,213.00 ,124.00 ,59.00 ,43.00 ,43.00 ,69.00 ,0.54 ,21450113400.00 
142.00 ,140.00 ,220.00 ,125.00 ,59.00 ,43.00 ,46.00 ,66.00 ,0.54 ,21468781900.00 
168.00 ,148.00 ,181.00 ,128.00 ,60.00 ,44.00 ,53.00 ,121.00 ,0.55 ,21487872400.00 
181.00 ,148.00 ,197.00 ,139.00 ,61.00 ,45.00 ,52.00 ,127.00 ,0.55 ,21509621100.00 
208.00 ,147.00 ,224.00 ,143.00 ,61.00 ,45.00 ,50.00 ,124.00 ,0.55 ,21531819500.00 
208.00 ,143.00 ,215.00 ,125.00 ,54.00 ,44.00 ,58.00 ,120.00 ,0.55 ,21554048900.00 
190.00 ,134.00 ,210.00 ,123.00 ,55.00 ,46.00 ,63.00 ,121.00 ,0.55 ,21572425700.00 
205.00 ,126.00 ,209.00 ,114.00 ,51.00 ,51.00 ,58.00 ,105.00 ,0.55 ,21591185000.00 
216.00 ,116.00 ,204.00 ,83.00 ,53.00 ,59.00 ,64.00 ,116.00 ,0.55 ,21609569100.00 
200.00 ,116.00 ,160.00 ,68.00 ,53.00 ,59.00 ,69.00 ,125.00 ,0.55 ,21631865700.00 
199.00 ,105.00 ,178.00 ,71.00 ,52.00 ,81.00 ,95.00 ,128.00 ,0.55 ,21650410700.00 
203.00 ,126.00 ,175.00 ,87.00 ,54.00 ,84.00 ,94.00 ,133.00 ,0.54 ,21670977600.00 
167.00 ,124.00 ,185.00 ,93.00 ,55.00 ,81.00 ,92.00 ,104.00 ,0.54 ,21689242500.00 
141.00 ,120.00 ,267.00 ,107.00 ,49.00 ,81.00 ,105.00 ,91.00 ,0.54 ,21709626700.00 
148.00 ,120.00 ,268.00 ,116.00 ,51.00 ,81.00 ,102.00 ,82.00 ,0.54 ,21731971900.00 
147.00 ,130.00 ,267.00 ,116.00 ,50.00 ,57.00 ,75.00 ,99.00 ,0.54 ,21754355700.00 
139.00 ,111.00 ,270.00 ,108.00 ,49.00 ,52.00 ,70.00 ,93.00 ,0.54 ,21772916700.00 
139.00 ,123.00 ,282.00 ,114.00 ,48.00 ,52.00 ,70.00 ,93.00 ,0.54 ,21791999400.00 
151.00 ,135.00 ,291.00 ,107.00 ,47.00 ,44.00 ,43.00 ,95.00 ,0.54 ,21811219800.00 
139.00 ,135.00 ,299.00 ,101.00 ,45.00 ,43.00 ,41.00 ,90.00 ,0.54 ,21834386300.00 
152.00 ,142.00 ,286.00 ,112.00 ,55.00 ,43.00 ,40.00 ,65.00 ,0.54 ,21853329700.00 
161.00 ,170.00 ,314.00 ,129.00 ,72.00 ,44.00 ,45.00 ,65.00 ,0.54 ,21873149400.00 
172.00 ,176.00 ,308.00 ,133.00 ,79.00 ,44.00 ,57.00 ,65.00 ,0.54 ,21893111100.00 
176.00 ,184.00 ,292.00 ,132.00 ,80.00 ,72.00 ,84.00 ,56.00 ,0.55 ,21914080300.00 
205.00 ,195.00 ,293.00 ,149.00 ,82.00 ,84.00 ,91.00 ,62.00 ,0.55 ,21931948600.00 
207.00 ,196.00 ,294.00 ,140.00 ,81.00 ,87.00 ,114.00 ,66.00 ,0.55 ,21950680100.00 
204.00 ,188.00 ,358.00 ,137.00 ,68.00 ,89.00 ,116.00 ,63.00 ,0.55 ,21970206100.00 
211.00 ,178.00 ,357.00 ,131.00 ,63.00 ,93.00 ,116.00 ,69.00 ,0.55 ,21992820900.00 
218.00 ,165.00 ,313.00 ,143.00 ,70.00 ,77.00 ,117.00 ,79.00 ,0.55 ,22011267400.00 
196.00 ,161.00 ,402.00 ,155.00 ,70.00 ,75.00 ,141.00 ,82.00 ,0.56 ,22030613000.00 
200.00 ,163.00 ,409.00 ,153.00 ,65.00 ,78.00 ,126.00 ,81.00 ,0.56 ,22049091200.00 
202.00 ,147.00 ,328.00 ,147.00 ,70.00 ,81.00 ,129.00 ,83.00 ,0.56 ,22069882800.00 
198.00 ,144.00 ,337.00 ,157.00 ,80.00 ,82.00 ,127.00 ,78.00 ,0.56 ,22092426000.00 
173.00 ,137.00 ,331.00 ,141.00 ,75.00 ,81.00 ,117.00 ,65.00 ,0.56 ,22111948200.00 
176.00 ,131.00 ,225.00 ,113.00 ,73.00 ,72.00 ,94.00 ,61.00 ,0.57 ,22130818800.00 
171.00 ,116.00 ,219.00 ,116.00 ,74.00 ,74.00 ,103.00 ,70.00 ,0.57 ,22149723500.00 
172.00 ,112.00 ,222.00 ,119.00 ,70.00 ,97.00 ,110.00 ,70.00 ,0.56 ,22168533300.00 
173.00 ,109.00 ,216.00 ,107.00 ,67.00 ,100.00 ,111.00 ,73.00 ,0.56 ,22190521900.00 
187.00 ,109.00 ,259.00 ,118.00 ,68.00 ,99.00 ,107.00 ,79.00 ,0.56 ,22212653600.00 
186.00 ,109.00 ,272.00 ,129.00 ,72.00 ,99.00 ,99.00 ,78.00 ,0.56 ,22231134800.00 
183.00 ,127.00 ,270.00 ,136.00 ,79.00 ,96.00 ,93.00 ,76.00 ,0.56 ,22250614800.00 
253.00 ,139.00 ,300.00 ,135.00 ,78.00 ,72.00 ,76.00 ,100.00 ,0.56 ,22269388400.00 
244.00 ,155.00 ,315.00 ,138.00 ,75.00 ,62.00 ,70.00 ,100.00 ,0.55 ,22290744100.00 
265.00 ,167.00 ,311.00 ,128.00 ,72.00 ,94.00 ,96.00 ,111.00 ,0.55 ,22312577200.00 
385.00 ,190.00 ,344.00 ,142.00 ,80.00 ,110.00 ,127.00 ,149.00 ,0.55 ,22330912400.00 
416.00 ,221.00 ,368.00 ,154.00 ,77.00 ,114.00 ,140.00 ,153.00 ,0.55 ,22350074900.00 
385.00 ,221.00 ,386.00 ,154.00 ,91.00 ,118.00 ,142.00 ,141.00 ,0.55 ,22370378400.00 
388.00 ,212.00 ,364.00 ,152.00 ,99.00 ,121.00 ,145.00 ,139.00 ,0.55 ,22392134300.00 
380.00 ,204.00 ,334.00 ,150.00 ,99.00 ,101.00 ,131.00 ,128.00 ,0.55 ,22412852500.00 
255.00 ,177.00 ,282.00 ,126.00 ,90.00 ,86.00 ,104.00 ,92.00 ,0.55 ,22432996700.00 
204.00 ,129.00 ,289.00 ,100.00 ,92.00 ,95.00 ,86.00 ,83.00 ,0.55 ,22452163400.00 
230.00 ,118.00 ,245.00 ,102.00 ,83.00 ,107.00 ,108.00 ,87.00 ,0.54 ,22471178200.00 
232.00 ,132.00 ,248.00 ,97.00 ,68.00 ,124.00 ,118.00 ,93.00 ,0.54 ,22490116300.00 
212.00 ,129.00 ,295.00 ,129.00 ,70.00 ,124.00 ,118.00 ,91.00 ,0.54 ,22512398800.00 
206.00 ,128.00 ,297.00 ,135.00 ,72.00 ,122.00 ,111.00 ,77.00 ,0.54 ,22530928300.00 
194.00 ,126.00 ,267.00 ,138.00 ,63.00 ,108.00 ,102.00 ,67.00 ,0.54 ,22550368800.00 
134.00 ,130.00 ,280.00 ,129.00 ,54.00 ,88.00 ,74.00 ,56.00 ,0.54 ,22569881700.00 
126.00 ,121.00 ,309.00 ,136.00 ,56.00 ,60.00 ,48.00 ,49.00 ,0.55 ,22589928300.00 
125.00 ,128.00 ,303.00 ,109.00 ,53.00 ,53.00 ,39.00 ,51.00 ,0.55 ,22612211700.00 
127.00 ,134.00 ,336.00 ,100.00 ,47.00 ,50.00 ,54.00 ,55.00 ,0.55 ,22631202900.00 
162.00 ,136.00 ,320.00 ,96.00 ,52.00 ,48.00 ,55.00 ,81.00 ,0.55 ,22649738300.00 
174.00 ,131.00 ,302.00 ,101.00 ,56.00 ,43.00 ,61.00 ,91.00 ,0.55 ,22668400200.00 
180.00 ,132.00 ,275.00 ,90.00 ,55.00 ,40.00 ,59.00 ,95.00 ,0.55 ,22689846000.00 
193.00 ,130.00 ,236.00 ,90.00 ,51.00 ,43.00 ,59.00 ,98.00 ,0.55 ,22709375300.00 
202.00 ,125.00 ,204.00 ,98.00 ,51.00 ,44.00 ,49.00 ,101.00 ,0.55 ,22727770300.00 
193.00 ,132.00 ,234.00 ,99.00 ,47.00 ,53.00 ,73.00 ,91.00 ,0.55 ,22746705200.00 
202.00 ,167.00 ,268.00 ,98.00 ,43.00 ,59.00 ,102.00 ,83.00 ,0.55 ,22767881900.00 
211.00 ,172.00 ,307.00 ,120.00 ,46.00 ,58.00 ,103.00 ,86.00 ,0.56 ,22789614400.00 
205.00 ,172.00 ,320.00 ,127.00 ,53.00 ,63.00 ,109.00 ,86.00 ,0.56 ,22812384600.00 
201.00 ,171.00 ,305.00 ,127.00 ,56.00 ,64.00 ,111.00 ,84.00 ,0.55 ,22831084700.00 
194.00 ,168.00 ,309.00 ,129.00 ,55.00 ,61.00 ,96.00 ,79.00 ,0.56 ,22850212600.00 
185.00 ,148.00 ,273.00 ,134.00 ,64.00 ,87.00 ,66.00 ,77.00 ,0.56 ,22870705400.00 
219.00 ,152.00 ,287.00 ,117.00 ,61.00 ,88.00 ,67.00 ,108.00 ,0.56 ,22891672700.00 
214.00 ,150.00 ,316.00 ,151.00 ,60.00 ,88.00 ,62.00 ,112.00 ,0.56 ,22913624300.00 
252.00 ,159.00 ,365.00 ,156.00 ,59.00 ,87.00 ,57.00 ,130.00 ,0.56 ,22933177000.00 
260.00 ,152.00 ,358.00 ,152.00 ,63.00 ,96.00 ,94.00 ,135.00 ,0.56 ,22951625600.00 
270.00 ,167.00 ,374.00 ,151.00 ,59.00 ,102.00 ,169.00 ,149.00 ,0.57 ,22971556400.00 
288.00 ,159.00 ,330.00 ,149.00 ,61.00 ,107.00 ,177.00 ,137.00 ,0.57 ,22990378000.00 
287.00 ,154.00 ,289.00 ,112.00 ,60.00 ,105.00 ,178.00 ,135.00 ,0.57 ,23012639800.00 
262.00 ,170.00 ,222.00 ,101.00 ,59.00 ,105.00 ,183.00 ,120.00 ,0.57 ,23030910800.00 
255.00 ,167.00 ,200.00 ,100.00 ,54.00 ,114.00 ,216.00 ,112.00 ,0.57 ,23049683900.00 
244.00 ,143.00 ,161.00 ,90.00 ,48.00 ,94.00 ,184.00 ,98.00 ,0.56 ,23068693200.00 
197.00 ,133.00 ,169.00 ,93.00 ,42.00 ,90.00 ,180.00 ,83.00 ,0.56 ,23090491200.00 
239.00 ,153.00 ,175.00 ,88.00 ,41.00 ,90.00 ,180.00 ,85.00 ,0.56 ,23112933400.00 
247.00 ,141.00 ,217.00 ,81.00 ,40.00 ,89.00 ,178.00 ,86.00 ,0.56 ,23133223200.00 
270.00 ,139.00 ,247.00 ,94.00 ,46.00 ,62.00 ,118.00 ,106.00 ,0.56 ,23151849300.00 
294.00 ,137.00 ,241.00 ,88.00 ,44.00 ,58.00 ,82.00 ,126.00 ,0.56 ,23170431300.00 
287.00 ,139.00 ,227.00 ,82.00 ,44.00 ,51.00 ,72.00 ,128.00 ,0.56 ,23189636600.00 
255.00 ,121.00 ,223.00 ,81.00 ,41.00 ,52.00 ,66.00 ,127.00 ,0.55 ,23211717900.00 
239.00 ,123.00 ,272.00 ,102.00 ,43.00 ,51.00 ,57.00 ,122.00 ,0.55 ,23230546800.00 
219.00 ,135.00 ,263.00 ,97.00 ,37.00 ,49.00 ,48.00 ,106.00 ,0.55 ,23249448500.00 
171.00 ,134.00 ,268.00 ,98.00 ,37.00 ,39.00 ,41.00 ,84.00 ,0.55 ,23267547000.00 
175.00 ,146.00 ,273.00 ,98.00 ,39.00 ,40.00 ,38.00 ,108.00 ,0.55 ,23289511800.00 
191.00 ,153.00 ,278.00 ,101.00 ,43.00 ,40.00 ,40.00 ,116.00 ,0.55 ,23311734300.00 
264.00 ,149.00 ,200.00 ,79.00 ,45.00 ,44.00 ,53.00 ,122.00 ,0.55 ,23329658800.00 
280.00 ,145.00 ,209.00 ,84.00 ,46.00 ,44.00 ,55.00 ,129.00 ,0.55 ,23348846900.00 
293.00 ,148.00 ,221.00 ,89.00 ,48.00 ,43.00 ,55.00 ,135.00 ,0.55 ,23368401200.00 
292.00 ,157.00 ,212.00 ,83.00 ,48.00 ,44.00 ,56.00 ,111.00 ,0.55 ,23389449200.00 
288.00 ,164.00 ,199.00 ,77.00 ,44.00 ,42.00 ,58.00 ,108.00 ,0.55 ,23411728300.00 
218.00 ,170.00 ,207.00 ,74.00 ,40.00 ,37.00 ,50.00 ,106.00 ,0.54 ,23430146100.00 
238.00 ,168.00 ,183.00 ,63.00 ,43.00 ,43.00 ,69.00 ,124.00 ,0.54 ,23449010000.00 
235.00 ,171.00 ,174.00 ,59.00 ,41.00 ,55.00 ,81.00 ,124.00 ,0.54 ,23469641800.00 
240.00 ,158.00 ,176.00 ,63.00 ,43.00 ,56.00 ,86.00 ,125.00 ,0.54 ,23489575900.00 
237.00 ,146.00 ,186.00 ,65.00 ,43.00 ,58.00 ,83.00 ,121.00 ,0.53 ,23512238300.00 
255.00 ,135.00 ,163.00 ,66.00 ,49.00 ,59.00 ,80.00 ,121.00 ,0.53 ,23531662900.00 
208.00 ,136.00 ,159.00 ,61.00 ,47.00 ,57.00 ,65.00 ,94.00 ,0.52 ,23551726800.00 
218.00 ,127.00 ,176.00 ,63.00 ,46.00 ,50.00 ,51.00 ,89.00 ,0.52 ,23571346800.00 
219.00 ,121.00 ,208.00 ,70.00 ,46.00 ,48.00 ,47.00 ,111.00 ,0.52 ,23590851100.00 
210.00 ,125.00 ,198.00 ,72.00 ,56.00 ,50.00 ,56.00 ,116.00 ,0.51 ,23613374900.00 
227.00 ,122.00 ,190.00 ,72.00 ,57.00 ,59.00 ,74.00 ,123.00 ,0.51 ,23632561600.00 
274.00 ,143.00 ,197.00 ,77.00 ,59.00 ,59.00 ,82.00 ,154.00 ,0.51 ,23651530900.00 
288.00 ,158.00 ,217.00 ,83.00 ,61.00 ,60.00 ,87.00 ,157.00 ,0.51 ,23670306200.00 
322.00 ,161.00 ,192.00 ,78.00 ,63.00 ,59.00 ,94.00 ,154.00 ,0.50 ,23689892800.00 
334.00 ,156.00 ,188.00 ,73.00 ,57.00 ,62.00 ,103.00 ,169.00 ,0.50 ,23710185500.00 
309.00 ,151.00 ,190.00 ,68.00 ,49.00 ,59.00 ,100.00 ,186.00 ,0.50 ,23732395300.00 
310.00 ,143.00 ,177.00 ,65.00 ,47.00 ,70.00 ,111.00 ,187.00 ,0.49 ,23750922000.00 
308.00 ,127.00 ,119.00 ,50.00 ,45.00 ,93.00 ,210.00 ,200.00 ,0.49 ,23769654900.00 
274.00 ,171.00 ,122.00 ,57.00 ,44.00 ,99.00 ,224.00 ,195.00 ,0.49 ,23788748400.00 
292.00 ,182.00 ,128.00 ,66.00 ,50.00 ,98.00 ,220.00 ,193.00 ,0.49 ,23809973400.00 
301.00 ,189.00 ,139.00 ,74.00 ,59.00 ,97.00 ,230.00 ,175.00 ,0.49 ,23832464400.00 
293.00 ,181.00 ,143.00 ,77.00 ,60.00 ,94.00 ,226.00 ,154.00 ,0.49 ,23851320800.00 
276.00 ,181.00 ,140.00 ,82.00 ,61.00 ,71.00 ,142.00 ,134.00 ,0.49 ,23870108300.00 
266.00 ,162.00 ,137.00 ,78.00 ,62.00 ,66.00 ,124.00 ,142.00 ,0.49 ,23889731500.00 
252.00 ,147.00 ,129.00 ,72.00 ,56.00 ,64.00 ,120.00 ,131.00 ,0.49 ,23910640600.00 
242.00 ,142.00 ,107.00 ,65.00 ,49.00 ,60.00 ,98.00 ,124.00 ,0.49 ,23932275200.00 
198.00 ,132.00 ,96.00 ,66.00 ,51.00 ,50.00 ,101.00 ,121.00 ,0.49 ,23952227500.00 
197.00 ,133.00 ,94.00 ,63.00 ,50.00 ,50.00 ,102.00 ,125.00 ,0.49 ,23970729700.00 
204.00 ,108.00 ,64.00 ,57.00 ,45.00 ,60.00 ,98.00 ,134.00 ,0.49 ,23990313100.00 
206.00 ,107.00 ,64.00 ,60.00 ,49.00 ,61.00 ,103.00 ,126.00 ,0.49 ,24010443300.00 
204.00 ,105.00 ,64.00 ,65.00 ,50.00 ,61.00 ,99.00 ,126.00 ,0.49 ,24032926600.00 
196.00 ,111.00 ,65.00 ,61.00 ,51.00 ,61.00 ,86.00 ,116.00 ,0.48 ,24051393800.00 
182.00 ,104.00 ,61.00 ,66.00 ,54.00 ,58.00 ,71.00 ,107.00 ,0.48 ,24071403600.00 
150.00 ,86.00 ,56.00 ,70.00 ,53.00 ,45.00 ,56.00 ,72.00 ,0.48 ,24090900400.00 
96.00 ,82.00 ,51.00 ,73.00 ,53.00 ,39.00 ,51.00 ,82.00 ,0.48 ,24111893600.00 
87.00 ,71.00 ,47.00 ,69.00 ,51.00 ,39.00 ,47.00 ,87.00 ,0.48 ,24130974800.00 
80.00 ,55.00 ,41.00 ,67.00 ,44.00 ,37.00 ,45.00 ,85.00 ,0.48 ,24149993600.00 
68.00 ,42.00 ,39.00 ,58.00 ,38.00 ,43.00 ,48.00 ,85.00 ,0.48 ,24169013400.00 
61.00 ,42.00 ,40.00 ,55.00 ,39.00 ,45.00 ,50.00 ,80.00 ,0.48 ,24190715200.00 
56.00 ,39.00 ,37.00 ,43.00 ,35.00 ,52.00 ,58.00 ,78.00 ,0.47 ,24212392200.00 
46.00 ,42.00 ,34.00 ,40.00 ,35.00 ,55.00 ,60.00 ,78.00 ,0.47 ,24231155500.00 
46.00 ,61.00 ,53.00 ,48.00 ,36.00 ,58.00 ,69.00 ,80.00 ,0.47 ,24249639700.00 
52.00 ,67.00 ,54.00 ,54.00 ,35.00 ,61.00 ,84.00 ,75.00 ,0.47 ,24268847600.00 
166.00 ,82.00 ,60.00 ,61.00 ,40.00 ,65.00 ,90.00 ,91.00 ,0.47 ,24290233100.00 
223.00 ,98.00 ,67.00 ,63.00 ,41.00 ,63.00 ,83.00 ,104.00 ,0.47 ,24312825400.00 
255.00 ,107.00 ,71.00 ,63.00 ,39.00 ,68.00 ,113.00 ,152.00 ,0.47 ,24332743700.00 
269.00 ,100.00 ,61.00 ,57.00 ,42.00 ,69.00 ,109.00 ,160.00 ,0.47 ,24351317800.00 
292.00 ,110.00 ,64.00 ,50.00 ,41.00 ,70.00 ,123.00 ,171.00 ,0.47 ,24370230200.00 
249.00 ,108.00 ,62.00 ,42.00 ,37.00 ,68.00 ,129.00 ,167.00 ,0.47 ,24388887200.00 
203.00 ,98.00 ,54.00 ,37.00 ,34.00 ,66.00 ,127.00 ,151.00 ,0.47 ,24411503100.00 
166.00 ,90.00 ,48.00 ,36.00 ,35.00 ,59.00 ,104.00 ,120.00 ,0.47 ,24433774900.00 
146.00 ,85.00 ,45.00 ,32.00 ,31.00 ,60.00 ,112.00 ,113.00 ,0.47 ,24452210200.00 
93.00 ,67.00 ,40.00 ,32.00 ,33.00 ,49.00 ,84.00 ,97.00 ,0.47 ,24470476900.00 
84.00 ,53.00 ,36.00 ,34.00 ,33.00 ,49.00 ,64.00 ,92.00 ,0.47 ,24489048100.00 
83.00 ,45.00 ,35.00 ,35.00 ,35.00 ,52.00 ,66.00 ,92.00 ,0.47 ,24511306000.00 
69.00 ,38.00 ,34.00 ,35.00 ,34.00 ,54.00 ,59.00 ,64.00 ,0.47 ,24532980700.00 
60.00 ,39.00 ,34.00 ,36.00 ,35.00 ,51.00 ,38.00 ,55.00 ,0.47 ,24554097800.00 
65.00 ,71.00 ,158.00 ,43.00 ,33.00 ,49.00 ,38.00 ,55.00 ,0.47 ,24573740200.00 
62.00 ,70.00 ,164.00 ,40.00 ,30.00 ,46.00 ,46.00 ,67.00 ,0.47 ,24592501300.00 
55.00 ,72.00 ,169.00 ,38.00 ,30.00 ,46.00 ,48.00 ,90.00 ,0.47 ,24612337600.00 
148.00 ,112.00 ,185.00 ,42.00 ,33.00 ,43.00 ,48.00 ,115.00 ,0.47 ,24634730200.00 
166.00 ,122.00 ,198.00 ,48.00 ,34.00 ,47.00 ,50.00 ,117.00 ,0.47 ,24653844700.00 
203.00 ,110.00 ,126.00 ,41.00 ,35.00 ,49.00 ,50.00 ,136.00 ,0.47 ,24674327200.00 
223.00 ,118.00 ,120.00 ,42.00 ,39.00 ,50.00 ,42.00 ,142.00 ,0.47 ,24693279000.00 
223.00 ,146.00 ,169.00 ,45.00 ,38.00 ,45.00 ,36.00 ,128.00 ,0.47 ,24712986900.00 
181.00 ,124.00 ,155.00 ,42.00 ,37.00 ,47.00 ,36.00 ,107.00 ,0.47 ,24733098100.00 
166.00 ,115.00 ,140.00 ,35.00 ,34.00 ,41.00 ,34.00 ,104.00 ,0.47 ,24751518900.00 
114.00 ,117.00 ,144.00 ,36.00 ,33.00 ,39.00 ,33.00 ,79.00 ,0.47 ,24770848000.00 
64.00 ,109.00 ,150.00 ,39.00 ,31.00 ,37.00 ,34.00 ,48.00 ,0.47 ,24789262300.00 
62.00 ,67.00 ,89.00 ,36.00 ,31.00 ,34.00 ,33.00 ,49.00 ,0.47 ,24810118000.00 
48.00 ,55.00 ,90.00 ,39.00 ,30.00 ,31.00 ,35.00 ,47.00 ,0.47 ,24832845300.00 
49.00 ,56.00 ,87.00 ,37.00 ,31.00 ,44.00 ,43.00 ,71.00 ,0.47 ,24851053800.00 
48.00 ,52.00 ,93.00 ,44.00 ,37.00 ,53.00 ,41.00 ,65.00 ,0.47 ,24869894600.00 
57.00 ,57.00 ,84.00 ,43.00 ,38.00 ,76.00 ,115.00 ,84.00 ,0.47 ,24889072200.00 
57.00 ,55.00 ,79.00 ,42.00 ,37.00 ,80.00 ,120.00 ,124.00 ,0.47 ,24910259300.00 
68.00 ,73.00 ,73.00 ,41.00 ,37.00 ,85.00 ,125.00 ,130.00 ,0.47 ,24932917900.00 
69.00 ,76.00 ,77.00 ,44.00 ,39.00 ,79.00 ,124.00 ,119.00 ,0.47 ,24951495400.00 
71.00 ,83.00 ,59.00 ,34.00 ,32.00 ,74.00 ,127.00 ,124.00 ,0.47 ,24970963100.00 
65.00 ,81.00 ,49.00 ,31.00 ,32.00 ,50.00 ,67.00 ,114.00 ,0.47 ,24990893100.00 
67.00 ,80.00 ,47.00 ,31.00 ,30.00 ,48.00 ,68.00 ,88.00 ,0.47 ,25010485700.00 
59.00 ,71.00 ,47.00 ,26.00 ,32.00 ,42.00 ,67.00 ,82.00 ,0.47 ,25033066300.00 
51.00 ,65.00 ,33.00 ,25.00 ,28.00 ,44.00 ,64.00 ,82.00 ,0.47 ,25051524300.00 
51.00 ,55.00 ,34.00 ,25.00 ,27.00 ,42.00 ,64.00 ,77.00 ,0.47 ,25070172100.00 
51.00 ,69.00 ,87.00 ,32.00 ,27.00 ,44.00 ,73.00 ,75.00 ,0.47 ,25089231400.00 
56.00 ,93.00 ,148.00 ,43.00 ,32.00 ,56.00 ,68.00 ,92.00 ,0.47 ,25111795100.00 
69.00 ,93.00 ,154.00 ,48.00 ,33.00 ,84.00 ,100.00 ,97.00 ,0.47 ,25130776100.00 
76.00 ,97.00 ,157.00 ,47.00 ,33.00 ,86.00 ,107.00 ,104.00 ,0.47 ,25150179000.00 
145.00 ,115.00 ,158.00 ,49.00 ,36.00 ,87.00 ,106.00 ,114.00 ,0.47 ,25171424100.00 
186.00 ,119.00 ,138.00 ,45.00 ,36.00 ,87.00 ,105.00 ,154.00 ,0.47 ,25190792800.00 
204.00 ,108.00 ,71.00 ,39.00 ,34.00 ,81.00 ,106.00 ,142.00 ,0.47 ,25209191800.00 
229.00 ,112.00 ,60.00 ,35.00 ,32.00 ,54.00 ,91.00 ,160.00 ,0.47 ,25228284900.00 
247.00 ,114.00 ,56.00 ,35.00 ,36.00 ,50.00 ,89.00 ,160.00 ,0.47 ,25247491300.00 
216.00 ,96.00 ,51.00 ,33.00 ,34.00 ,50.00 ,87.00 ,163.00 ,0.47 ,25268833300.00 
190.00 ,83.00 ,66.00 ,33.00 ,36.00 ,59.00 ,86.00 ,134.00 ,0.47 ,25291007500.00 
170.00 ,74.00 ,66.00 ,28.00 ,38.00 ,60.00 ,83.00 ,131.00 ,0.47 ,25313613500.00 
131.00 ,63.00 ,64.00 ,29.00 ,41.00 ,71.00 ,84.00 ,112.00 ,0.47 ,25332594400.00 
101.00 ,53.00 ,61.00 ,29.00 ,38.00 ,75.00 ,87.00 ,112.00 ,0.47 ,25351307100.00 
130.00 ,60.00 ,65.00 ,31.00 ,41.00 ,74.00 ,87.00 ,108.00 ,0.46 ,25370431200.00 
150.00 ,64.00 ,47.00 ,33.00 ,45.00 ,87.00 ,103.00 ,127.00 ,0.46 ,25390686000.00 
180.00 ,70.00 ,48.00 ,34.00 ,45.00 ,87.00 ,105.00 ,139.00 ,0.46 ,25411112400.00 
187.00 ,77.00 ,47.00 ,31.00 ,42.00 ,77.00 ,89.00 ,137.00 ,0.46 ,25433203900.00 
187.00 ,79.00 ,47.00 ,30.00 ,42.00 ,76.00 ,81.00 ,133.00 ,0.45 ,25454200600.00 
169.00 ,77.00 ,47.00 ,29.00 ,40.00 ,76.00 ,83.00 ,126.00 ,0.45 ,25473918700.00 
143.00 ,70.00 ,45.00 ,27.00 ,34.00 ,50.00 ,55.00 ,110.00 ,0.45 ,25492907200.00 
102.00 ,67.00 ,43.00 ,25.00 ,30.00 ,44.00 ,52.00 ,101.00 ,0.45 ,25513390600.00 
84.00 ,61.00 ,44.00 ,28.00 ,30.00 ,40.00 ,43.00 ,91.00 ,0.45 ,25532769900.00 
65.00 ,59.00 ,55.00 ,27.00 ,31.00 ,37.00 ,47.00 ,105.00 ,0.45 ,25551069900.00 
67.00 ,51.00 ,53.00 ,27.00 ,30.00 ,39.00 ,57.00 ,120.00 ,0.45 ,25570265000.00 
85.00 ,53.00 ,55.00 ,30.00 ,30.00 ,40.00 ,58.00 ,121.00 ,0.45 ,25589945900.00 
82.00 ,51.00 ,54.00 ,31.00 ,29.00 ,39.00 ,55.00 ,112.00 ,0.45 ,25609883500.00 
129.00 ,104.00 ,54.00 ,30.00 ,36.00 ,73.00 ,71.00 ,152.00 ,0.45 ,25642841500.00 
153.00 ,108.00 ,43.00 ,32.00 ,35.00 ,75.00 ,71.00 ,154.00 ,0.45 ,25663758600.00 
153.00 ,111.00 ,40.00 ,33.00 ,35.00 ,77.00 ,61.00 ,144.00 ,0.45 ,25682637900.00 
145.00 ,110.00 ,38.00 ,32.00 ,35.00 ,78.00 ,58.00 ,138.00 ,0.45 ,25703020400.00 
145.00 ,111.00 ,38.00 ,32.00 ,38.00 ,78.00 ,59.00 ,138.00 ,0.45 ,25722207000.00 
105.00 ,64.00 ,36.00 ,30.00 ,33.00 ,51.00 ,46.00 ,109.00 ,0.45 ,25740652100.00 
68.00 ,54.00 ,33.00 ,29.00 ,32.00 ,52.00 ,46.00 ,90.00 ,0.45 ,25758601300.00 
61.00 ,46.00 ,32.00 ,28.00 ,32.00 ,45.00 ,46.00 ,88.00 ,0.45 ,25777033500.00 
55.00 ,43.00 ,29.00 ,26.00 ,29.00 ,45.00 ,48.00 ,84.00 ,0.45 ,25796035100.00 
52.00 ,43.00 ,26.00 ,24.00 ,24.00 ,45.00 ,50.00 ,103.00 ,0.45 ,25814723600.00 
50.00 ,40.00 ,26.00 ,25.00 ,21.00 ,39.00 ,48.00 ,93.00 ,0.45 ,25834274500.00 
70.00 ,49.00 ,27.00 ,24.00 ,24.00 ,33.00 ,61.00 ,98.00 ,0.45 ,25853532400.00 
71.00 ,50.00 ,30.00 ,24.00 ,27.00 ,31.00 ,59.00 ,99.00 ,0.45 ,25872582700.00 
76.00 ,53.00 ,29.00 ,24.00 ,27.00 ,32.00 ,60.00 ,108.00 ,0.45 ,25892197800.00 
114.00 ,80.00 ,36.00 ,25.00 ,28.00 ,34.00 ,61.00 ,101.00 ,0.45 ,25910781000.00 
118.00 ,82.00 ,39.00 ,28.00 ,30.00 ,33.00 ,58.00 ,99.00 ,0.45 ,25930434800.00 
110.00 ,79.00 ,41.00 ,26.00 ,28.00 ,34.00 ,41.00 ,93.00 ,0.45 ,25952469800.00 
109.00 ,82.00 ,73.00 ,32.00 ,24.00 ,33.00 ,41.00 ,89.00 ,0.45 ,25972557700.00 
104.00 ,82.00 ,77.00 ,31.00 ,25.00 ,30.00 ,39.00 ,72.00 ,0.45 ,25991395500.00 
61.00 ,55.00 ,77.00 ,32.00 ,26.00 ,28.00 ,47.00 ,89.00 ,0.45 ,26010020400.00 
56.00 ,96.00 ,152.00 ,39.00 ,25.00 ,29.00 ,48.00 ,87.00 ,0.45 ,26030265400.00 
49.00 ,96.00 ,158.00 ,39.00 ,27.00 ,29.00 ,48.00 ,90.00 ,0.45 ,26053162000.00 
49.00 ,96.00 ,149.00 ,36.00 ,27.00 ,28.00 ,48.00 ,91.00 ,0.46 ,26071793500.00 
49.00 ,98.00 ,152.00 ,37.00 ,27.00 ,28.00 ,45.00 ,90.00 ,0.46 ,26091618900.00 
49.00 ,120.00 ,243.00 ,55.00 ,31.00 ,31.00 ,30.00 ,55.00 ,0.46 ,26112582000.00 
43.00 ,92.00 ,216.00 ,49.00 ,30.00 ,30.00 ,27.00 ,50.00 ,0.46 ,26131487000.00 
44.00 ,124.00 ,230.00 ,55.00 ,33.00 ,31.00 ,25.00 ,43.00 ,0.47 ,26152427300.00 
100.00 ,136.00 ,232.00 ,57.00 ,35.00 ,32.00 ,25.00 ,56.00 ,0.47 ,26171486500.00 
184.00 ,153.00 ,235.00 ,58.00 ,38.00 ,31.00 ,26.00 ,88.00 ,0.47 ,26191403500.00 
192.00 ,141.00 ,149.00 ,42.00 ,35.00 ,29.00 ,26.00 ,93.00 ,0.48 ,26211350400.00 
257.00 ,157.00 ,156.00 ,43.00 ,38.00 ,29.00 ,28.00 ,127.00 ,0.48 ,26230663700.00 
261.00 ,136.00 ,133.00 ,36.00 ,34.00 ,30.00 ,30.00 ,128.00 ,0.48 ,26253782400.00 
247.00 ,135.00 ,148.00 ,35.00 ,33.00 ,30.00 ,30.00 ,122.00 ,0.48 ,26274289800.00 
194.00 ,114.00 ,141.00 ,35.00 ,31.00 ,30.00 ,29.00 ,100.00 ,0.48 ,26292938300.00 
186.00 ,108.00 ,131.00 ,33.00 ,30.00 ,27.00 ,28.00 ,93.00 ,0.48 ,26312055100.00 
81.00 ,81.00 ,102.00 ,35.00 ,29.00 ,28.00 ,28.00 ,40.00 ,0.48 ,26333783900.00 
65.00 ,77.00 ,98.00 ,36.00 ,31.00 ,23.00 ,25.00 ,34.00 ,0.48 ,26353088400.00 
56.00 ,50.00 ,57.00 ,34.00 ,33.00 ,25.00 ,26.00 ,28.00 ,0.48 ,26372045000.00 
57.00 ,47.00 ,48.00 ,38.00 ,34.00 ,30.00 ,28.00 ,33.00 ,0.48 ,26390521300.00 
56.00 ,45.00 ,42.00 ,43.00 ,38.00 ,32.00 ,28.00 ,39.00 ,0.47 ,26410855300.00 
48.00 ,50.00 ,43.00 ,46.00 ,44.00 ,32.00 ,28.00 ,37.00 ,0.47 ,26432941900.00 
46.00 ,45.00 ,38.00 ,47.00 ,44.00 ,33.00 ,28.00 ,37.00 ,0.47 ,26451330300.00 
53.00 ,45.00 ,37.00 ,52.00 ,42.00 ,32.00 ,26.00 ,46.00 ,0.47 ,26469848400.00 
64.00 ,44.00 ,38.00 ,52.00 ,41.00 ,28.00 ,26.00 ,50.00 ,0.47 ,26488548800.00 
71.00 ,45.00 ,38.00 ,49.00 ,38.00 ,31.00 ,26.00 ,50.00 ,0.47 ,26510634100.00 
75.00 ,47.00 ,57.00 ,46.00 ,35.00 ,29.00 ,28.00 ,59.00 ,0.47 ,26532827200.00 
80.00 ,50.00 ,68.00 ,47.00 ,36.00 ,30.00 ,29.00 ,67.00 ,0.47 ,26550922800.00 
75.00 ,52.00 ,72.00 ,40.00 ,37.00 ,31.00 ,28.00 ,62.00 ,0.47 ,26569640600.00 
78.00 ,51.00 ,71.00 ,38.00 ,39.00 ,30.00 ,32.00 ,68.00 ,0.47 ,26588696200.00 
95.00 ,55.00 ,71.00 ,41.00 ,40.00 ,30.00 ,60.00 ,102.00 ,0.47 ,26611404400.00 
116.00 ,86.00 ,56.00 ,41.00 ,42.00 ,36.00 ,85.00 ,117.00 ,0.47 ,26634847800.00 
120.00 ,90.00 ,51.00 ,41.00 ,41.00 ,37.00 ,98.00 ,120.00 ,0.47 ,26654619900.00 
122.00 ,93.00 ,48.00 ,43.00 ,40.00 ,35.00 ,101.00 ,122.00 ,0.47 ,26675657900.00 
120.00 ,96.00 ,52.00 ,44.00 ,41.00 ,36.00 ,103.00 ,121.00 ,0.46 ,26694016400.00 
116.00 ,97.00 ,58.00 ,62.00 ,48.00 ,37.00 ,121.00 ,111.00 ,0.46 ,26713683000.00 
99.00 ,73.00 ,66.00 ,68.00 ,43.00 ,35.00 ,116.00 ,101.00 ,0.46 ,26732323900.00 
102.00 ,72.00 ,68.00 ,68.00 ,45.00 ,39.00 ,118.00 ,103.00 ,0.46 ,26751387100.00 
116.00 ,83.00 ,78.00 ,72.00 ,59.00 ,60.00 ,212.00 ,148.00 ,0.46 ,26770427600.00 
131.00 ,107.00 ,106.00 ,74.00 ,64.00 ,65.00 ,244.00 ,189.00 ,0.46 ,26795870800.00 
149.00 ,126.00 ,118.00 ,71.00 ,63.00 ,64.00 ,233.00 ,199.00 ,0.46 ,26816389100.00 
169.00 ,126.00 ,127.00 ,68.00 ,64.00 ,64.00 ,228.00 ,211.00 ,0.46 ,26835356400.00 
188.00 ,136.00 ,134.00 ,74.00 ,69.00 ,69.00 ,227.00 ,213.00 ,0.46 ,26854987900.00 
190.00 ,127.00 ,142.00 ,72.00 ,59.00 ,54.00 ,147.00 ,189.00 ,0.46 ,26874595100.00 
264.00 ,117.00 ,131.00 ,74.00 ,54.00 ,50.00 ,87.00 ,189.00 ,0.46 ,26893723700.00 
269.00 ,147.00 ,144.00 ,85.00 ,65.00 ,63.00 ,152.00 ,210.00 ,0.47 ,26912927100.00 
260.00 ,151.00 ,139.00 ,89.00 ,66.00 ,66.00 ,169.00 ,196.00 ,0.47 ,26931736700.00 
251.00 ,144.00 ,147.00 ,97.00 ,66.00 ,60.00 ,165.00 ,197.00 ,0.47 ,26951878300.00 
257.00 ,148.00 ,144.00 ,104.00 ,71.00 ,63.00 ,175.00 ,203.00 ,0.47 ,26970571300.00 
178.00 ,142.00 ,140.00 ,99.00 ,69.00 ,64.00 ,177.00 ,170.00 ,0.47 ,26989880700.00 
153.00 ,110.00 ,143.00 ,84.00 ,58.00 ,51.00 ,127.00 ,125.00 ,0.47 ,27011857900.00 
233.00 ,188.00 ,162.00 ,81.00 ,56.00 ,54.00 ,139.00 ,222.00 ,0.47 ,27030780100.00 
234.00 ,197.00 ,155.00 ,70.00 ,50.00 ,56.00 ,137.00 ,223.00 ,0.47 ,27051625900.00 
228.00 ,199.00 ,148.00 ,59.00 ,41.00 ,52.00 ,120.00 ,220.00 ,0.47 ,27073815000.00 
221.00 ,198.00 ,146.00 ,59.00 ,39.00 ,49.00 ,112.00 ,217.00 ,0.48 ,27093723200.00 
219.00 ,189.00 ,121.00 ,54.00 ,35.00 ,47.00 ,106.00 ,214.00 ,0.48 ,27113024100.00 
124.00 ,115.00 ,86.00 ,46.00 ,31.00 ,40.00 ,49.00 ,109.00 ,0.48 ,27132588600.00 
113.00 ,101.00 ,154.00 ,62.00 ,36.00 ,38.00 ,51.00 ,95.00 ,0.48 ,27153036300.00 
102.00 ,104.00 ,218.00 ,85.00 ,39.00 ,40.00 ,47.00 ,101.00 ,0.48 ,27172171000.00 
105.00 ,180.00 ,416.00 ,138.00 ,48.00 ,47.00 ,56.00 ,116.00 ,0.49 ,27191272700.00 
106.00 ,198.00 ,462.00 ,151.00 ,51.00 ,59.00 ,110.00 ,152.00 ,0.50 ,27210052800.00 
102.00 ,213.00 ,502.00 ,170.00 ,57.00 ,62.00 ,118.00 ,162.00 ,0.50 ,27229287300.00 
96.00 ,231.00 ,554.00 ,190.00 ,61.00 ,72.00 ,134.00 ,196.00 ,0.51 ,27251526200.00 
102.00 ,244.00 ,577.00 ,187.00 ,75.00 ,80.00 ,152.00 ,193.00 ,0.51 ,27271042900.00 
119.00 ,218.00 ,524.00 ,180.00 ,84.00 ,91.00 ,154.00 ,255.00 ,0.51 ,27289927100.00 
125.00 ,232.00 ,554.00 ,197.00 ,85.00 ,85.00 ,125.00 ,240.00 ,0.51 ,27308755100.00 
135.00 ,227.00 ,538.00 ,189.00 ,83.00 ,83.00 ,123.00 ,247.00 ,0.52 ,27330780700.00 
138.00 ,210.00 ,479.00 ,163.00 ,78.00 ,74.00 ,105.00 ,224.00 ,0.52 ,27354013100.00 
131.00 ,203.00 ,469.00 ,160.00 ,66.00 ,69.00 ,82.00 ,231.00 ,0.52 ,27373285500.00 
116.00 ,201.00 ,407.00 ,138.00 ,48.00 ,52.00 ,76.00 ,177.00 ,0.53 ,27393599100.00 
111.00 ,167.00 ,317.00 ,100.00 ,50.00 ,63.00 ,75.00 ,174.00 ,0.53 ,27414773200.00 
100.00 ,160.00 ,323.00 ,86.00 ,51.00 ,74.00 ,77.00 ,167.00 ,0.53 ,27433997800.00 
87.00 ,160.00 ,300.00 ,92.00 ,57.00 ,75.00 ,75.00 ,163.00 ,0.52 ,27452924500.00 
81.00 ,159.00 ,258.00 ,85.00 ,53.00 ,72.00 ,68.00 ,145.00 ,0.52 ,27472220400.00 
79.00 ,138.00 ,272.00 ,88.00 ,56.00 ,74.00 ,64.00 ,138.00 ,0.52 ,27493595200.00 
94.00 ,137.00 ,280.00 ,89.00 ,52.00 ,70.00 ,96.00 ,135.00 ,0.52 ,27513092600.00 
90.00 ,124.00 ,238.00 ,86.00 ,49.00 ,61.00 ,94.00 ,118.00 ,0.52 ,27532105100.00 
94.00 ,125.00 ,243.00 ,83.00 ,50.00 ,69.00 ,97.00 ,121.00 ,0.52 ,27550702800.00 
94.00 ,107.00 ,258.00 ,87.00 ,51.00 ,71.00 ,98.00 ,121.00 ,0.52 ,27569389800.00 
84.00 ,98.00 ,221.00 ,72.00 ,48.00 ,70.00 ,97.00 ,123.00 ,0.52 ,27588605300.00 
58.00 ,97.00 ,197.00 ,69.00 ,47.00 ,68.00 ,61.00 ,116.00 ,0.52 ,27609819600.00 
58.00 ,92.00 ,193.00 ,74.00 ,47.00 ,71.00 ,53.00 ,113.00 ,0.52 ,27632237900.00 
56.00 ,89.00 ,210.00 ,70.00 ,43.00 ,74.00 ,48.00 ,112.00 ,0.51 ,27651174900.00 
52.00 ,80.00 ,151.00 ,61.00 ,42.00 ,74.00 ,44.00 ,106.00 ,0.51 ,27670127000.00 
53.00 ,79.00 ,160.00 ,57.00 ,44.00 ,72.00 ,46.00 ,59.00 ,0.51 ,27689708000.00 
64.00 ,79.00 ,186.00 ,57.00 ,44.00 ,79.00 ,45.00 ,67.00 ,0.51 ,27710134400.00 
64.00 ,82.00 ,196.00 ,53.00 ,43.00 ,78.00 ,43.00 ,64.00 ,0.51 ,27731936400.00 
64.00 ,73.00 ,188.00 ,54.00 ,39.00 ,65.00 ,39.00 ,59.00 ,0.51 ,27751136400.00 
66.00 ,94.00 ,249.00 ,66.00 ,39.00 ,69.00 ,40.00 ,60.00 ,0.51 ,27770003500.00 
64.00 ,93.00 ,258.00 ,68.00 ,37.00 ,71.00 ,41.00 ,58.00 ,0.50 ,27788526900.00 
50.00 ,95.00 ,251.00 ,65.00 ,34.00 ,61.00 ,42.00 ,47.00 ,0.50 ,27809819200.00 
51.00 ,105.00 ,268.00 ,70.00 ,34.00 ,61.00 ,43.00 ,48.00 ,0.51 ,27832780100.00 
52.00 ,110.00 ,259.00 ,68.00 ,36.00 ,66.00 ,44.00 ,47.00 ,0.51 ,27852251600.00 
53.00 ,93.00 ,200.00 ,58.00 ,37.00 ,63.00 ,46.00 ,47.00 ,0.51 ,27881467200.00 
53.00 ,92.00 ,180.00 ,56.00 ,35.00 ,59.00 ,43.00 ,45.00 ,0.51 ,27904066000.00 
56.00 ,88.00 ,170.00 ,60.00 ,37.00 ,57.00 ,38.00 ,47.00 ,0.51 ,27925823900.00 
54.00 ,77.00 ,145.00 ,63.00 ,43.00 ,57.00 ,37.00 ,42.00 ,0.51 ,27945834200.00 
51.00 ,78.00 ,159.00 ,69.00 ,48.00 ,54.00 ,39.00 ,43.00 ,0.51 ,27965375900.00 
46.00 ,75.00 ,152.00 ,68.00 ,45.00 ,48.00 ,35.00 ,42.00 ,0.51 ,27984520700.00 
50.00 ,84.00 ,159.00 ,69.00 ,47.00 ,45.00 ,34.00 ,42.00 ,0.51 ,28002969100.00 
56.00 ,92.00 ,163.00 ,67.00 ,48.00 ,42.00 ,36.00 ,40.00 ,0.51 ,28021552800.00 
74.00 ,101.00 ,183.00 ,58.00 ,42.00 ,42.00 ,35.00 ,49.00 ,0.51 ,28040810700.00 
78.00 ,101.00 ,178.00 ,48.00 ,38.00 ,41.00 ,29.00 ,50.00 ,0.51 ,28058837000.00 
82.00 ,125.00 ,218.00 ,56.00 ,38.00 ,56.00 ,41.00 ,62.00 ,0.51 ,28077203900.00 
78.00 ,123.00 ,210.00 ,54.00 ,37.00 ,58.00 ,42.00 ,63.00 ,0.51 ,28095273600.00 
75.00 ,112.00 ,199.00 ,63.00 ,47.00 ,61.00 ,41.00 ,65.00 ,0.51 ,28114229000.00 
57.00 ,104.00 ,187.00 ,74.00 ,53.00 ,59.00 ,43.00 ,58.00 ,0.51 ,28133679300.00 
55.00 ,102.00 ,187.00 ,76.00 ,52.00 ,58.00 ,44.00 ,56.00 ,0.51 ,28153450600.00 
60.00 ,85.00 ,178.00 ,77.00 ,54.00 ,46.00 ,34.00 ,58.00 ,0.51 ,28174129700.00 
64.00 ,89.00 ,186.00 ,84.00 ,58.00 ,48.00 ,33.00 ,57.00 ,0.51 ,28193004400.00 
60.00 ,94.00 ,211.00 ,79.00 ,52.00 ,43.00 ,33.00 ,54.00 ,0.51 ,28212896500.00 
58.00 ,88.00 ,191.00 ,69.00 ,46.00 ,46.00 ,30.00 ,56.00 ,0.51 ,28232361500.00 
58.00 ,84.00 ,196.00 ,70.00 ,47.00 ,53.00 ,34.00 ,55.00 ,0.51 ,28251927200.00 
49.00 ,79.00 ,160.00 ,66.00 ,47.00 ,48.00 ,36.00 ,44.00 ,0.51 ,28273749500.00 
44.00 ,68.00 ,147.00 ,64.00 ,42.00 ,46.00 ,34.00 ,41.00 ,0.51 ,28292609100.00 
57.00 ,71.00 ,130.00 ,64.00 ,38.00 ,52.00 ,37.00 ,50.00 ,0.51 ,28312227800.00 
55.00 ,77.00 ,137.00 ,66.00 ,38.00 ,48.00 ,37.00 ,48.00 ,0.51 ,28330344800.00 
51.00 ,84.00 ,150.00 ,65.00 ,36.00 ,40.00 ,33.00 ,46.00 ,0.52 ,28351407000.00 
60.00 ,89.00 ,159.00 ,67.00 ,32.00 ,42.00 ,31.00 ,50.00 ,0.52 ,28370846600.00 
61.00 ,94.00 ,172.00 ,60.00 ,31.00 ,46.00 ,36.00 ,51.00 ,0.51 ,28389658800.00 
56.00 ,93.00 ,161.00 ,53.00 ,28.00 ,40.00 ,32.00 ,44.00 ,0.51 ,28408546900.00 
57.00 ,102.00 ,174.00 ,55.00 ,30.00 ,44.00 ,33.00 ,44.00 ,0.51 ,28429012600.00 
55.00 ,99.00 ,167.00 ,52.00 ,33.00 ,50.00 ,34.00 ,44.00 ,0.51 ,28451060700.00 
60.00 ,106.00 ,174.00 ,46.00 ,36.00 ,58.00 ,34.00 ,47.00 ,0.51 ,28473360200.00 
64.00 ,108.00 ,169.00 ,45.00 ,35.00 ,63.00 ,33.00 ,62.00 ,0.51 ,28492370000.00 
61.00 ,108.00 ,165.00 ,44.00 ,36.00 ,62.00 ,33.00 ,62.00 ,0.51 ,28511166700.00 
62.00 ,100.00 ,159.00 ,43.00 ,32.00 ,61.00 ,34.00 ,63.00 ,0.51 ,28530105400.00 
65.00 ,99.00 ,145.00 ,47.00 ,34.00 ,58.00 ,36.00 ,65.00 ,0.51 ,28552246800.00 
49.00 ,80.00 ,129.00 ,46.00 ,30.00 ,49.00 ,36.00 ,55.00 ,0.51 ,28571277500.00 
44.00 ,75.00 ,128.00 ,45.00 ,30.00 ,42.00 ,33.00 ,39.00 ,0.51 ,28590430800.00 
52.00 ,85.00 ,168.00 ,52.00 ,33.00 ,45.00 ,34.00 ,40.00 ,0.51 ,28610233700.00 
52.00 ,78.00 ,152.00 ,49.00 ,35.00 ,45.00 ,33.00 ,43.00 ,0.51 ,28632044600.00 
52.00 ,74.00 ,147.00 ,44.00 ,33.00 ,44.00 ,28.00 ,42.00 ,0.51 ,28651137800.00 
55.00 ,75.00 ,155.00 ,47.00 ,35.00 ,42.00 ,30.00 ,45.00 ,0.51 ,28671254100.00 
53.00 ,78.00 ,173.00 ,47.00 ,36.00 ,38.00 ,29.00 ,43.00 ,0.50 ,28691414200.00 
43.00 ,60.00 ,143.00 ,38.00 ,33.00 ,36.00 ,28.00 ,38.00 ,0.50 ,28710599800.00 
37.00 ,56.00 ,141.00 ,38.00 ,32.00 ,33.00 ,26.00 ,30.00 ,0.50 ,28733007900.00 
49.00 ,124.00 ,253.00 ,64.00 ,33.00 ,32.00 ,31.00 ,39.00 ,0.50 ,28752310500.00 
47.00 ,141.00 ,262.00 ,67.00 ,30.00 ,31.00 ,32.00 ,40.00 ,0.50 ,28772205700.00 
52.00 ,140.00 ,247.00 ,66.00 ,30.00 ,31.00 ,32.00 ,44.00 ,0.51 ,28792792400.00 
54.00 ,142.00 ,245.00 ,66.00 ,30.00 ,33.00 ,30.00 ,44.00 ,0.51 ,28812255500.00 
55.00 ,143.00 ,246.00 ,67.00 ,27.00 ,33.00 ,31.00 ,46.00 ,0.51 ,28832248100.00 
49.00 ,100.00 ,201.00 ,59.00 ,32.00 ,34.00 ,27.00 ,42.00 ,0.51 ,28851160400.00 
58.00 ,117.00 ,241.00 ,71.00 ,38.00 ,38.00 ,25.00 ,42.00 ,0.51 ,28869891500.00 
59.00 ,117.00 ,257.00 ,71.00 ,40.00 ,40.00 ,25.00 ,45.00 ,0.51 ,28890145600.00 
61.00 ,118.00 ,261.00 ,74.00 ,44.00 ,38.00 ,26.00 ,47.00 ,0.52 ,28909893700.00 
66.00 ,120.00 ,262.00 ,74.00 ,45.00 ,39.00 ,25.00 ,46.00 ,0.52 ,28932143300.00 
65.00 ,116.00 ,224.00 ,63.00 ,46.00 ,42.00 ,26.00 ,50.00 ,0.52 ,28950943800.00 
60.00 ,83.00 ,162.00 ,54.00 ,46.00 ,42.00 ,28.00 ,60.00 ,0.52 ,28974382500.00 
58.00 ,78.00 ,138.00 ,54.00 ,43.00 ,41.00 ,32.00 ,58.00 ,0.52 ,28993843000.00 
55.00 ,77.00 ,123.00 ,50.00 ,39.00 ,43.00 ,32.00 ,59.00 ,0.52 ,29012703100.00 
50.00 ,73.00 ,119.00 ,48.00 ,39.00 ,43.00 ,34.00 ,61.00 ,0.52 ,29031301500.00 
56.00 ,77.00 ,110.00 ,52.00 ,36.00 ,42.00 ,34.00 ,60.00 ,0.51 ,29053633300.00 
56.00 ,72.00 ,118.00 ,47.00 ,35.00 ,39.00 ,33.00 ,47.00 ,0.51 ,29073262500.00 
60.00 ,72.00 ,114.00 ,51.00 ,36.00 ,42.00 ,29.00 ,45.00 ,0.51 ,29092330600.00 
62.00 ,68.00 ,116.00 ,50.00 ,37.00 ,42.00 ,30.00 ,45.00 ,0.51 ,29110789700.00 
67.00 ,94.00 ,146.00 ,54.00 ,37.00 ,40.00 ,31.00 ,45.00 ,0.51 ,29131699100.00 
61.00 ,98.00 ,172.00 ,49.00 ,41.00 ,47.00 ,39.00 ,44.00 ,0.51 ,29154292900.00 
57.00 ,96.00 ,164.00 ,47.00 ,37.00 ,50.00 ,39.00 ,44.00 ,0.50 ,29173984100.00 
53.00 ,103.00 ,175.00 ,43.00 ,38.00 ,49.00 ,41.00 ,44.00 ,0.50 ,29192983800.00 
58.00 ,105.00 ,173.00 ,44.00 ,38.00 ,48.00 ,41.00 ,53.00 ,0.50 ,29213213900.00 
60.00 ,92.00 ,167.00 ,48.00 ,39.00 ,59.00 ,45.00 ,57.00 ,0.50 ,29232826000.00 
60.00 ,83.00 ,158.00 ,49.00 ,33.00 ,51.00 ,43.00 ,59.00 ,0.50 ,29252692300.00 
62.00 ,88.00 ,188.00 ,50.00 ,34.00 ,51.00 ,43.00 ,62.00 ,0.50 ,29271904300.00 
62.00 ,83.00 ,193.00 ,55.00 ,34.00 ,57.00 ,45.00 ,61.00 ,0.50 ,29291310600.00 
63.00 ,111.00 ,237.00 ,56.00 ,34.00 ,59.00 ,47.00 ,55.00 ,0.50 ,29310866700.00 
56.00 ,102.00 ,225.00 ,48.00 ,33.00 ,49.00 ,42.00 ,51.00 ,0.50 ,29331429300.00 
57.00 ,103.00 ,203.00 ,45.00 ,33.00 ,50.00 ,36.00 ,46.00 ,0.50 ,29353353900.00 
62.00 ,98.00 ,177.00 ,41.00 ,31.00 ,48.00 ,34.00 ,47.00 ,0.50 ,29372515400.00 
59.00 ,92.00 ,158.00 ,34.00 ,30.00 ,38.00 ,30.00 ,46.00 ,0.50 ,29391692700.00 
64.00 ,59.00 ,108.00 ,38.00 ,31.00 ,38.00 ,25.00 ,51.00 ,0.50 ,29411167300.00 
61.00 ,59.00 ,104.00 ,37.00 ,32.00 ,40.00 ,27.00 ,49.00 ,0.50 ,29431610200.00 
62.00 ,59.00 ,112.00 ,42.00 ,32.00 ,36.00 ,27.00 ,45.00 ,0.50 ,29453647000.00 
56.00 ,65.00 ,119.00 ,41.00 ,32.00 ,42.00 ,29.00 ,40.00 ,0.50 ,29474094700.00 
65.00 ,95.00 ,171.00 ,57.00 ,35.00 ,46.00 ,28.00 ,44.00 ,0.50 ,29493487600.00 
54.00 ,95.00 ,166.00 ,57.00 ,33.00 ,42.00 ,30.00 ,34.00 ,0.50 ,29513433300.00 
56.00 ,122.00 ,201.00 ,63.00 ,33.00 ,40.00 ,29.00 ,37.00 ,0.50 ,29533698200.00 
56.00 ,121.00 ,198.00 ,63.00 ,32.00 ,41.00 ,29.00 ,41.00 ,0.50 ,29554299000.00 
55.00 ,117.00 ,190.00 ,63.00 ,33.00 ,37.00 ,27.00 ,42.00 ,0.50 ,29574741100.00 
52.00 ,100.00 ,188.00 ,53.00 ,28.00 ,31.00 ,27.00 ,39.00 ,0.50 ,29595762700.00 
55.00 ,103.00 ,194.00 ,51.00 ,30.00 ,37.00 ,29.00 ,48.00 ,0.50 ,29614620000.00 
53.00 ,72.00 ,162.00 ,44.00 ,30.00 ,37.00 ,30.00 ,48.00 ,0.50 ,29634583700.00 
53.00 ,75.00 ,164.00 ,41.00 ,31.00 ,38.00 ,31.00 ,48.00 ,0.50 ,29654440300.00 
53.00 ,75.00 ,165.00 ,41.00 ,31.00 ,39.00 ,33.00 ,48.00 ,0.50 ,29674235400.00 
50.00 ,102.00 ,205.00 ,53.00 ,33.00 ,40.00 ,33.00 ,50.00 ,0.51 ,29692908000.00 
58.00 ,100.00 ,190.00 ,53.00 ,31.00 ,34.00 ,30.00 ,43.00 ,0.51 ,29712114200.00 
60.00 ,101.00 ,189.00 ,52.00 ,30.00 ,32.00 ,27.00 ,44.00 ,0.51 ,29731989600.00 
60.00 ,108.00 ,202.00 ,56.00 ,29.00 ,30.00 ,26.00 ,53.00 ,0.51 ,29752941900.00 
59.00 ,107.00 ,202.00 ,55.00 ,29.00 ,29.00 ,28.00 ,53.00 ,0.51 ,29773164700.00 
61.00 ,80.00 ,120.00 ,44.00 ,27.00 ,29.00 ,27.00 ,53.00 ,0.51 ,29793592200.00 
49.00 ,72.00 ,115.00 ,40.00 ,27.00 ,33.00 ,26.00 ,50.00 ,0.51 ,29813268800.00 
53.00 ,75.00 ,114.00 ,40.00 ,27.00 ,34.00 ,26.00 ,51.00 ,0.50 ,29833274800.00 
51.00 ,66.00 ,81.00 ,35.00 ,27.00 ,32.00 ,26.00 ,39.00 ,0.50 ,29853111100.00 
56.00 ,69.00 ,80.00 ,36.00 ,29.00 ,30.00 ,23.00 ,44.00 ,0.50 ,29873430800.00 
55.00 ,67.00 ,113.00 ,43.00 ,33.00 ,33.00 ,26.00 ,42.00 ,0.50 ,29893661400.00 
55.00 ,72.00 ,115.00 ,43.00 ,33.00 ,30.00 ,28.00 ,44.00 ,0.50 ,29912562000.00 
59.00 ,75.00 ,115.00 ,47.00 ,36.00 ,29.00 ,28.00 ,41.00 ,0.50 ,29932981400.00 
70.00 ,73.00 ,121.00 ,47.00 ,37.00 ,30.00 ,27.00 ,43.00 ,0.50 ,29953728000.00 
71.00 ,93.00 ,133.00 ,51.00 ,38.00 ,32.00 ,29.00 ,44.00 ,0.50 ,29973918300.00 
75.00 ,103.00 ,163.00 ,45.00 ,35.00 ,28.00 ,31.00 ,56.00 ,0.49 ,29993440000.00 
79.00 ,102.00 ,170.00 ,52.00 ,41.00 ,30.00 ,30.00 ,57.00 ,0.49 ,30012879500.00 
74.00 ,103.00 ,171.00 ,54.00 ,44.00 ,34.00 ,34.00 ,57.00 ,0.49 ,30034120700.00 
65.00 ,112.00 ,177.00 ,54.00 ,42.00 ,35.00 ,35.00 ,56.00 ,0.49 ,30053331300.00 
60.00 ,98.00 ,170.00 ,55.00 ,40.00 ,35.00 ,33.00 ,52.00 ,0.50 ,30072716800.00 
66.00 ,113.00 ,116.00 ,54.00 ,42.00 ,36.00 ,31.00 ,43.00 ,0.50 ,30101343400.00 
82.00 ,156.00 ,185.00 ,77.00 ,41.00 ,40.00 ,33.00 ,55.00 ,0.50 ,30120637500.00 
92.00 ,178.00 ,225.00 ,78.00 ,37.00 ,38.00 ,30.00 ,59.00 ,0.51 ,30141606900.00 
100.00 ,182.00 ,231.00 ,81.00 ,39.00 ,37.00 ,30.00 ,66.00 ,0.51 ,30160788400.00 
106.00 ,191.00 ,245.00 ,81.00 ,39.00 ,40.00 ,33.00 ,67.00 ,0.51 ,30180273000.00 
113.00 ,193.00 ,255.00 ,85.00 ,39.00 ,41.00 ,32.00 ,74.00 ,0.52 ,30197887700.00 
103.00 ,169.00 ,214.00 ,62.00 ,35.00 ,36.00 ,31.00 ,70.00 ,0.52 ,30216368100.00 
101.00 ,152.00 ,177.00 ,59.00 ,32.00 ,37.00 ,29.00 ,77.00 ,0.52 ,30236181400.00 
98.00 ,145.00 ,168.00 ,57.00 ,31.00 ,38.00 ,32.00 ,74.00 ,0.52 ,30255760200.00 
105.00 ,134.00 ,158.00 ,54.00 ,31.00 ,34.00 ,33.00 ,85.00 ,0.52 ,30275570400.00 
96.00 ,115.00 ,162.00 ,48.00 ,32.00 ,34.00 ,36.00 ,85.00 ,0.52 ,30295066100.00 
100.00 ,122.00 ,177.00 ,54.00 ,37.00 ,38.00 ,37.00 ,84.00 ,0.52 ,30314264900.00 
131.00 ,116.00 ,204.00 ,55.00 ,38.00 ,36.00 ,42.00 ,109.00 ,0.52 ,30333333800.00 
139.00 ,127.00 ,202.00 ,63.00 ,39.00 ,40.00 ,40.00 ,113.00 ,0.52 ,30352193000.00 
135.00 ,130.00 ,223.00 ,69.00 ,40.00 ,40.00 ,36.00 ,107.00 ,0.52 ,30372784300.00 
136.00 ,140.00 ,231.00 ,69.00 ,40.00 ,42.00 ,35.00 ,104.00 ,0.52 ,30392017500.00 
134.00 ,171.00 ,228.00 ,63.00 ,40.00 ,42.00 ,35.00 ,104.00 ,0.51 ,30411250400.00 
98.00 ,187.00 ,237.00 ,60.00 ,39.00 ,44.00 ,29.00 ,69.00 ,0.51 ,30430535900.00 
82.00 ,183.00 ,263.00 ,54.00 ,40.00 ,48.00 ,32.00 ,64.00 ,0.51 ,30450700700.00 
71.00 ,192.00 ,278.00 ,60.00 ,41.00 ,48.00 ,33.00 ,62.00 ,0.51 ,30472654000.00 
89.00 ,208.00 ,305.00 ,62.00 ,41.00 ,48.00 ,31.00 ,64.00 ,0.51 ,30491656600.00 
90.00 ,177.00 ,325.00 ,64.00 ,43.00 ,45.00 ,31.00 ,61.00 ,0.51 ,30511047300.00 
103.00 ,169.00 ,338.00 ,75.00 ,47.00 ,45.00 ,28.00 ,68.00 ,0.51 ,30530856700.00 
106.00 ,176.00 ,330.00 ,80.00 ,50.00 ,40.00 ,27.00 ,65.00 ,0.52 ,30550300800.00 
126.00 ,175.00 ,315.00 ,73.00 ,49.00 ,39.00 ,30.00 ,72.00 ,0.52 ,30572807300.00 
110.00 ,163.00 ,298.00 ,70.00 ,48.00 ,37.00 ,36.00 ,69.00 ,0.52 ,30592774900.00 
114.00 ,161.00 ,279.00 ,71.00 ,45.00 ,39.00 ,42.00 ,79.00 ,0.52 ,30611856600.00 
120.00 ,163.00 ,239.00 ,72.00 ,44.00 ,44.00 ,43.00 ,84.00 ,0.52 ,30631750300.00 
131.00 ,163.00 ,228.00 ,66.00 ,41.00 ,43.00 ,42.00 ,90.00 ,0.52 ,30651144800.00 
118.00 ,159.00 ,229.00 ,73.00 ,43.00 ,44.00 ,42.00 ,85.00 ,0.52 ,30673561200.00 
128.00 ,172.00 ,282.00 ,93.00 ,45.00 ,44.00 ,37.00 ,83.00 ,0.52 ,30692911500.00 
129.00 ,173.00 ,285.00 ,93.00 ,49.00 ,52.00 ,30.00 ,76.00 ,0.52 ,30713374000.00 
128.00 ,190.00 ,331.00 ,91.00 ,47.00 ,49.00 ,30.00 ,73.00 ,0.53 ,30733021600.00 
140.00 ,210.00 ,369.00 ,96.00 ,47.00 ,50.00 ,32.00 ,74.00 ,0.53 ,30753166400.00 
155.00 ,212.00 ,368.00 ,92.00 ,46.00 ,50.00 ,29.00 ,91.00 ,0.53 ,30772225700.00 
162.00 ,200.00 ,323.00 ,77.00 ,51.00 ,51.00 ,31.00 ,100.00 ,0.53 ,30792050400.00 
162.00 ,222.00 ,333.00 ,81.00 ,51.00 ,45.00 ,37.00 ,105.00 ,0.54 ,30811577000.00 
163.00 ,204.00 ,292.00 ,74.00 ,53.00 ,42.00 ,35.00 ,104.00 ,0.54 ,30831347400.00 
158.00 ,221.00 ,312.00 ,88.00 ,56.00 ,47.00 ,38.00 ,103.00 ,0.54 ,30853093800.00 
159.00 ,234.00 ,323.00 ,93.00 ,55.00 ,47.00 ,40.00 ,105.00 ,0.54 ,30872325000.00 
158.00 ,242.00 ,325.00 ,98.00 ,55.00 ,53.00 ,40.00 ,102.00 ,0.55 ,30891582500.00 
158.00 ,232.00 ,322.00 ,97.00 ,53.00 ,53.00 ,34.00 ,99.00 ,0.55 ,30912149000.00 
151.00 ,236.00 ,350.00 ,102.00 ,53.00 ,54.00 ,44.00 ,102.00 ,0.56 ,30932009200.00 
140.00 ,207.00 ,291.00 ,89.00 ,50.00 ,50.00 ,41.00 ,102.00 ,0.56 ,30953394600.00 
124.00 ,191.00 ,296.00 ,83.00 ,49.00 ,49.00 ,41.00 ,100.00 ,0.56 ,30973251000.00 
112.00 ,193.00 ,303.00 ,82.00 ,44.00 ,48.00 ,41.00 ,97.00 ,0.56 ,30992263200.00 
114.00 ,182.00 ,381.00 ,93.00 ,41.00 ,48.00 ,42.00 ,99.00 ,0.56 ,31011747200.00 
137.00 ,173.00 ,358.00 ,88.00 ,39.00 ,52.00 ,42.00 ,144.00 ,0.56 ,31031521600.00 
138.00 ,163.00 ,381.00 ,92.00 ,42.00 ,55.00 ,43.00 ,148.00 ,0.56 ,31054082800.00 
148.00 ,171.00 ,365.00 ,93.00 ,43.00 ,58.00 ,45.00 ,143.00 ,0.56 ,31073896800.00 
171.00 ,207.00 ,376.00 ,88.00 ,45.00 ,53.00 ,48.00 ,148.00 ,0.57 ,31094051300.00 
172.00 ,222.00 ,330.00 ,76.00 ,43.00 ,51.00 ,50.00 ,149.00 ,0.57 ,31113281100.00 
153.00 ,274.00 ,392.00 ,78.00 ,44.00 ,46.00 ,41.00 ,99.00 ,0.57 ,31132778700.00 
157.00 ,275.00 ,365.00 ,67.00 ,41.00 ,44.00 ,43.00 ,105.00 ,0.57 ,31154505100.00 
148.00 ,277.00 ,395.00 ,80.00 ,43.00 ,42.00 ,41.00 ,113.00 ,0.57 ,31173834300.00 
130.00 ,253.00 ,369.00 ,75.00 ,43.00 ,45.00 ,40.00 ,109.00 ,0.57 ,31196848300.00 
131.00 ,249.00 ,322.00 ,72.00 ,45.00 ,44.00 ,48.00 ,108.00 ,0.57 ,31216188700.00 
129.00 ,232.00 ,250.00 ,79.00 ,47.00 ,53.00 ,49.00 ,112.00 ,0.57 ,31235543000.00 
126.00 ,233.00 ,295.00 ,82.00 ,49.00 ,58.00 ,54.00 ,106.00 ,0.57 ,31256777000.00 
159.00 ,233.00 ,275.00 ,85.00 ,52.00 ,59.00 ,53.00 ,109.00 ,0.57 ,31275800200.00 
156.00 ,226.00 ,308.00 ,93.00 ,50.00 ,60.00 ,51.00 ,109.00 ,0.57 ,31294550600.00 
163.00 ,250.00 ,374.00 ,98.00 ,49.00 ,60.00 ,52.00 ,169.00 ,0.57 ,31314376800.00 
