3.900000000000000000e+01,3.600000000000000000e+01,4.000000000000000000e+01,3.500000000000000000e+01,3.600000000000000000e+01,5.100000000000000000e+01,3.000000000000000000e+01,3.100000000000000000e+01,4.699999999999999734e-01,4.773903000000000000e+08
4.300000000000000000e+01,3.900000000000000000e+01,4.000000000000000000e+01,4.100000000000000000e+01,4.200000000000000000e+01,5.000000000000000000e+01,3.000000000000000000e+01,3.100000000000000000e+01,4.699999999999999734e-01,5.075876000000000000e+08
4.500000000000000000e+01,3.800000000000000000e+01,3.600000000000000000e+01,4.500000000000000000e+01,4.300000000000000000e+01,4.900000000000000000e+01,3.100000000000000000e+01,3.100000000000000000e+01,4.699999999999999734e-01,1.320880300000000000e+09
4.500000000000000000e+01,4.000000000000000000e+01,3.700000000000000000e+01,4.900000000000000000e+01,4.200000000000000000e+01,5.500000000000000000e+01,3.500000000000000000e+01,3.000000000000000000e+01,4.699999999999999734e-01,1.339040100000000000e+09
4.700000000000000000e+01,3.900000000000000000e+01,3.400000000000000000e+01,4.800000000000000000e+01,4.800000000000000000e+01,5.000000000000000000e+01,3.400000000000000000e+01,2.700000000000000000e+01,4.699999999999999734e-01,1.358969000000000000e+09
3.700000000000000000e+01,4.000000000000000000e+01,3.100000000000000000e+01,5.100000000000000000e+01,5.100000000000000000e+01,6.200000000000000000e+01,3.500000000000000000e+01,2.600000000000000000e+01,4.699999999999999734e-01,1.379193200000000000e+09
3.300000000000000000e+01,4.200000000000000000e+01,8.500000000000000000e+01,9.200000000000000000e+01,6.200000000000000000e+01,6.400000000000000000e+01,3.400000000000000000e+01,2.500000000000000000e+01,4.799999999999999822e-01,1.399138000000000000e+09
2.600000000000000000e+01,4.200000000000000000e+01,1.210000000000000000e+02,2.150000000000000000e+02,8.700000000000000000e+01,8.000000000000000000e+01,4.200000000000000000e+01,2.300000000000000000e+01,4.799999999999999822e-01,1.421339700000000000e+09
2.800000000000000000e+01,4.300000000000000000e+01,1.290000000000000000e+02,2.260000000000000000e+02,1.700000000000000000e+02,1.480000000000000000e+02,5.500000000000000000e+01,2.600000000000000000e+01,4.899999999999999911e-01,1.441758600000000000e+09
2.500000000000000000e+01,4.500000000000000000e+01,1.370000000000000000e+02,2.410000000000000000e+02,2.700000000000000000e+02,2.070000000000000000e+02,6.800000000000000000e+01,3.100000000000000000e+01,4.799999999999999822e-01,1.460798300000000000e+09
2.700000000000000000e+01,4.700000000000000000e+01,1.500000000000000000e+02,2.870000000000000000e+02,3.080000000000000000e+02,2.260000000000000000e+02,7.600000000000000000e+01,3.300000000000000000e+01,4.799999999999999822e-01,1.488569600000000000e+09
3.100000000000000000e+01,9.300000000000000000e+01,1.490000000000000000e+02,3.200000000000000000e+02,3.760000000000000000e+02,3.420000000000000000e+02,1.010000000000000000e+02,4.100000000000000000e+01,4.699999999999999734e-01,1.510272000000000000e+09
3.500000000000000000e+01,9.700000000000000000e+01,1.300000000000000000e+02,2.600000000000000000e+02,4.200000000000000000e+02,3.780000000000000000e+02,1.080000000000000000e+02,4.600000000000000000e+01,4.699999999999999734e-01,1.534901100000000000e+09
3.200000000000000000e+01,1.030000000000000000e+02,1.410000000000000000e+02,2.510000000000000000e+02,4.050000000000000000e+02,3.790000000000000000e+02,1.050000000000000000e+02,5.000000000000000000e+01,4.600000000000000200e-01,1.554869400000000000e+09
3.200000000000000000e+01,1.090000000000000000e+02,1.640000000000000000e+02,2.660000000000000000e+02,4.540000000000000000e+02,4.160000000000000000e+02,1.030000000000000000e+02,4.900000000000000000e+01,4.500000000000000111e-01,1.574467900000000000e+09
3.400000000000000000e+01,1.140000000000000000e+02,1.760000000000000000e+02,2.580000000000000000e+02,5.250000000000000000e+02,4.600000000000000000e+02,1.060000000000000000e+02,5.300000000000000000e+01,4.400000000000000022e-01,1.593825900000000000e+09
3.300000000000000000e+01,9.000000000000000000e+01,2.260000000000000000e+02,2.080000000000000000e+02,4.880000000000000000e+02,3.890000000000000000e+02,8.700000000000000000e+01,5.600000000000000000e+01,4.299999999999999933e-01,1.613739800000000000e+09
3.200000000000000000e+01,8.400000000000000000e+01,2.310000000000000000e+02,2.070000000000000000e+02,5.400000000000000000e+02,4.080000000000000000e+02,9.500000000000000000e+01,5.600000000000000000e+01,4.199999999999999845e-01,1.632645900000000000e+09
3.400000000000000000e+01,7.700000000000000000e+01,2.280000000000000000e+02,2.260000000000000000e+02,5.660000000000000000e+02,4.280000000000000000e+02,1.070000000000000000e+02,5.300000000000000000e+01,4.099999999999999756e-01,1.681525300000000000e+09
3.300000000000000000e+01,6.900000000000000000e+01,2.080000000000000000e+02,2.030000000000000000e+02,5.420000000000000000e+02,4.310000000000000000e+02,1.090000000000000000e+02,5.300000000000000000e+01,3.900000000000000133e-01,1.701564200000000000e+09
3.000000000000000000e+01,6.000000000000000000e+01,1.940000000000000000e+02,1.610000000000000000e+02,4.740000000000000000e+02,3.830000000000000000e+02,1.010000000000000000e+02,5.000000000000000000e+01,3.699999999999999956e-01,1.722658500000000000e+09
2.700000000000000000e+01,4.200000000000000000e+01,1.190000000000000000e+02,1.840000000000000000e+02,4.670000000000000000e+02,3.850000000000000000e+02,9.900000000000000000e+01,4.100000000000000000e+01,3.699999999999999956e-01,1.741813900000000000e+09
2.500000000000000000e+01,4.100000000000000000e+01,1.020000000000000000e+02,1.930000000000000000e+02,3.720000000000000000e+02,3.450000000000000000e+02,8.500000000000000000e+01,3.500000000000000000e+01,3.599999999999999867e-01,1.760632300000000000e+09
2.700000000000000000e+01,4.100000000000000000e+01,1.220000000000000000e+02,1.950000000000000000e+02,3.240000000000000000e+02,3.000000000000000000e+02,6.400000000000000000e+01,3.400000000000000000e+01,3.599999999999999867e-01,1.779925200000000000e+09
2.600000000000000000e+01,4.000000000000000000e+01,1.230000000000000000e+02,1.900000000000000000e+02,2.360000000000000000e+02,2.010000000000000000e+02,5.800000000000000000e+01,3.300000000000000000e+01,3.599999999999999867e-01,1.798773800000000000e+09
2.800000000000000000e+01,5.700000000000000000e+01,1.150000000000000000e+02,1.790000000000000000e+02,1.930000000000000000e+02,1.970000000000000000e+02,5.900000000000000000e+01,3.100000000000000000e+01,3.599999999999999867e-01,1.818530900000000000e+09
2.900000000000000000e+01,5.900000000000000000e+01,1.170000000000000000e+02,1.790000000000000000e+02,2.660000000000000000e+02,2.290000000000000000e+02,7.100000000000000000e+01,3.100000000000000000e+01,3.699999999999999956e-01,1.838229100000000000e+09
3.200000000000000000e+01,6.400000000000000000e+01,1.180000000000000000e+02,1.910000000000000000e+02,2.690000000000000000e+02,2.290000000000000000e+02,7.300000000000000000e+01,3.400000000000000000e+01,3.699999999999999956e-01,1.856497200000000000e+09
2.800000000000000000e+01,6.600000000000000000e+01,8.100000000000000000e+01,1.710000000000000000e+02,2.650000000000000000e+02,2.230000000000000000e+02,7.100000000000000000e+01,3.300000000000000000e+01,3.800000000000000044e-01,1.874817500000000000e+09
2.700000000000000000e+01,6.700000000000000000e+01,8.100000000000000000e+01,1.810000000000000000e+02,2.490000000000000000e+02,2.180000000000000000e+02,6.600000000000000000e+01,3.300000000000000000e+01,3.800000000000000044e-01,1.892913700000000000e+09
3.000000000000000000e+01,5.200000000000000000e+01,7.800000000000000000e+01,1.840000000000000000e+02,2.470000000000000000e+02,2.100000000000000000e+02,6.300000000000000000e+01,3.200000000000000000e+01,3.900000000000000133e-01,1.911681300000000000e+09
3.300000000000000000e+01,5.400000000000000000e+01,6.700000000000000000e+01,1.640000000000000000e+02,2.500000000000000000e+02,2.530000000000000000e+02,6.400000000000000000e+01,4.100000000000000000e+01,4.000000000000000222e-01,1.928788400000000000e+09
3.200000000000000000e+01,5.400000000000000000e+01,6.100000000000000000e+01,1.550000000000000000e+02,2.450000000000000000e+02,2.330000000000000000e+02,6.300000000000000000e+01,4.400000000000000000e+01,4.099999999999999756e-01,1.945346700000000000e+09
3.400000000000000000e+01,5.500000000000000000e+01,5.800000000000000000e+01,1.480000000000000000e+02,2.400000000000000000e+02,2.270000000000000000e+02,6.400000000000000000e+01,4.600000000000000000e+01,4.099999999999999756e-01,1.961849600000000000e+09
3.600000000000000000e+01,8.000000000000000000e+01,7.600000000000000000e+01,1.440000000000000000e+02,2.380000000000000000e+02,2.250000000000000000e+02,6.600000000000000000e+01,4.500000000000000000e+01,4.199999999999999845e-01,1.978295400000000000e+09
3.400000000000000000e+01,1.000000000000000000e+02,9.000000000000000000e+01,1.530000000000000000e+02,2.300000000000000000e+02,2.210000000000000000e+02,6.400000000000000000e+01,4.300000000000000000e+01,4.199999999999999845e-01,1.996827300000000000e+09
3.300000000000000000e+01,9.900000000000000000e+01,8.600000000000000000e+01,1.420000000000000000e+02,1.190000000000000000e+02,9.100000000000000000e+01,4.600000000000000000e+01,3.100000000000000000e+01,4.299999999999999933e-01,2.014549500000000000e+09
3.000000000000000000e+01,9.900000000000000000e+01,1.060000000000000000e+02,1.310000000000000000e+02,5.900000000000000000e+01,6.800000000000000000e+01,3.400000000000000000e+01,2.500000000000000000e+01,4.400000000000000022e-01,2.031947800000000000e+09
3.600000000000000000e+01,1.110000000000000000e+02,1.100000000000000000e+02,1.400000000000000000e+02,5.500000000000000000e+01,6.500000000000000000e+01,3.300000000000000000e+01,2.600000000000000000e+01,4.500000000000000111e-01,2.049103700000000000e+09
3.300000000000000000e+01,9.700000000000000000e+01,1.040000000000000000e+02,1.340000000000000000e+02,4.900000000000000000e+01,7.400000000000000000e+01,3.300000000000000000e+01,2.500000000000000000e+01,4.600000000000000200e-01,2.066280600000000000e+09
3.300000000000000000e+01,8.900000000000000000e+01,1.000000000000000000e+02,1.510000000000000000e+02,4.100000000000000000e+01,6.100000000000000000e+01,3.600000000000000000e+01,2.800000000000000000e+01,4.699999999999999734e-01,2.082868500000000000e+09
3.800000000000000000e+01,1.020000000000000000e+02,1.220000000000000000e+02,1.510000000000000000e+02,4.100000000000000000e+01,5.800000000000000000e+01,3.700000000000000000e+01,3.100000000000000000e+01,4.799999999999999822e-01,2.099348800000000000e+09
4.000000000000000000e+01,1.030000000000000000e+02,1.190000000000000000e+02,1.840000000000000000e+02,4.200000000000000000e+01,5.700000000000000000e+01,3.800000000000000000e+01,3.200000000000000000e+01,5.000000000000000000e-01,2.115972100000000000e+09
3.700000000000000000e+01,9.600000000000000000e+01,1.300000000000000000e+02,1.830000000000000000e+02,4.800000000000000000e+01,5.600000000000000000e+01,4.000000000000000000e+01,2.900000000000000000e+01,5.100000000000000089e-01,2.132779500000000000e+09
4.100000000000000000e+01,1.130000000000000000e+02,1.540000000000000000e+02,2.110000000000000000e+02,5.600000000000000000e+01,5.300000000000000000e+01,3.900000000000000000e+01,3.000000000000000000e+01,5.300000000000000266e-01,2.150186700000000000e+09
4.000000000000000000e+01,1.170000000000000000e+02,1.620000000000000000e+02,2.130000000000000000e+02,5.900000000000000000e+01,5.400000000000000000e+01,4.000000000000000000e+01,3.300000000000000000e+01,5.400000000000000355e-01,2.167507800000000000e+09
3.500000000000000000e+01,1.210000000000000000e+02,1.930000000000000000e+02,2.390000000000000000e+02,6.000000000000000000e+01,5.300000000000000000e+01,3.900000000000000000e+01,3.300000000000000000e+01,5.600000000000000533e-01,2.184146800000000000e+09
3.500000000000000000e+01,1.220000000000000000e+02,2.150000000000000000e+02,2.220000000000000000e+02,6.700000000000000000e+01,5.300000000000000000e+01,3.500000000000000000e+01,3.200000000000000000e+01,5.699999999999999512e-01,2.201451800000000000e+09
3.700000000000000000e+01,1.260000000000000000e+02,2.500000000000000000e+02,2.540000000000000000e+02,6.700000000000000000e+01,5.600000000000000000e+01,4.000000000000000000e+01,3.500000000000000000e+01,5.899999999999999689e-01,2.218166400000000000e+09
3.800000000000000000e+01,1.370000000000000000e+02,2.560000000000000000e+02,2.790000000000000000e+02,6.900000000000000000e+01,4.700000000000000000e+01,4.000000000000000000e+01,3.900000000000000000e+01,5.999999999999999778e-01,2.235598400000000000e+09
4.300000000000000000e+01,1.670000000000000000e+02,2.640000000000000000e+02,2.920000000000000000e+02,7.400000000000000000e+01,5.200000000000000000e+01,4.400000000000000000e+01,4.300000000000000000e+01,6.099999999999999867e-01,2.256602000000000000e+09
4.900000000000000000e+01,1.660000000000000000e+02,2.580000000000000000e+02,2.920000000000000000e+02,8.400000000000000000e+01,6.100000000000000000e+01,4.700000000000000000e+01,5.400000000000000000e+01,6.199999999999999956e-01,2.276199800000000000e+09
5.100000000000000000e+01,1.660000000000000000e+02,2.770000000000000000e+02,3.200000000000000000e+02,8.100000000000000000e+01,6.300000000000000000e+01,5.300000000000000000e+01,6.000000000000000000e+01,6.199999999999999956e-01,2.294951600000000000e+09
8.300000000000000000e+01,1.620000000000000000e+02,2.660000000000000000e+02,3.390000000000000000e+02,8.300000000000000000e+01,6.200000000000000000e+01,5.200000000000000000e+01,6.300000000000000000e+01,6.300000000000000044e-01,2.312317900000000000e+09
8.900000000000000000e+01,1.420000000000000000e+02,2.810000000000000000e+02,3.210000000000000000e+02,8.200000000000000000e+01,6.400000000000000000e+01,5.200000000000000000e+01,6.400000000000000000e+01,6.400000000000000133e-01,2.330175800000000000e+09
1.200000000000000000e+02,1.140000000000000000e+02,3.140000000000000000e+02,3.040000000000000000e+02,7.700000000000000000e+01,5.800000000000000000e+01,4.900000000000000000e+01,8.300000000000000000e+01,6.500000000000000222e-01,2.347596700000000000e+09
1.640000000000000000e+02,1.210000000000000000e+02,3.160000000000000000e+02,2.890000000000000000e+02,6.400000000000000000e+01,6.200000000000000000e+01,4.600000000000000000e+01,9.800000000000000000e+01,6.500000000000000222e-01,2.365350600000000000e+09
1.720000000000000000e+02,1.240000000000000000e+02,2.860000000000000000e+02,2.650000000000000000e+02,6.200000000000000000e+01,5.800000000000000000e+01,4.200000000000000000e+01,1.000000000000000000e+02,6.500000000000000222e-01,2.381875300000000000e+09
1.690000000000000000e+02,1.390000000000000000e+02,3.860000000000000000e+02,2.100000000000000000e+02,5.500000000000000000e+01,5.400000000000000000e+01,3.900000000000000000e+01,1.060000000000000000e+02,6.600000000000000311e-01,2.399968600000000000e+09
1.680000000000000000e+02,1.400000000000000000e+02,3.680000000000000000e+02,1.810000000000000000e+02,4.900000000000000000e+01,5.300000000000000000e+01,4.500000000000000000e+01,1.090000000000000000e+02,6.600000000000000311e-01,2.416868100000000000e+09
1.520000000000000000e+02,1.340000000000000000e+02,3.380000000000000000e+02,1.760000000000000000e+02,4.700000000000000000e+01,5.700000000000000000e+01,4.400000000000000000e+01,9.400000000000000000e+01,6.600000000000000311e-01,2.433695200000000000e+09
1.070000000000000000e+02,1.260000000000000000e+02,3.300000000000000000e+02,2.330000000000000000e+02,5.700000000000000000e+01,4.600000000000000000e+01,4.600000000000000000e+01,8.800000000000000000e+01,6.600000000000000311e-01,2.450103500000000000e+09
1.050000000000000000e+02,1.210000000000000000e+02,3.290000000000000000e+02,2.140000000000000000e+02,5.300000000000000000e+01,4.300000000000000000e+01,6.000000000000000000e+01,8.900000000000000000e+01,6.600000000000000311e-01,2.467747300000000000e+09
1.000000000000000000e+02,9.900000000000000000e+01,1.700000000000000000e+02,2.140000000000000000e+02,5.100000000000000000e+01,4.500000000000000000e+01,6.200000000000000000e+01,8.000000000000000000e+01,6.600000000000000311e-01,2.485515400000000000e+09
1.020000000000000000e+02,1.010000000000000000e+02,1.550000000000000000e+02,2.100000000000000000e+02,4.900000000000000000e+01,4.500000000000000000e+01,7.300000000000000000e+01,7.800000000000000000e+01,6.600000000000000311e-01,2.503405000000000000e+09
9.400000000000000000e+01,8.400000000000000000e+01,1.320000000000000000e+02,2.010000000000000000e+02,4.700000000000000000e+01,4.000000000000000000e+01,8.300000000000000000e+01,8.100000000000000000e+01,6.500000000000000222e-01,2.522180600000000000e+09
8.700000000000000000e+01,6.700000000000000000e+01,9.000000000000000000e+01,1.190000000000000000e+02,3.300000000000000000e+01,4.000000000000000000e+01,8.300000000000000000e+01,6.200000000000000000e+01,6.500000000000000222e-01,2.538787800000000000e+09
7.500000000000000000e+01,6.400000000000000000e+01,7.400000000000000000e+01,1.260000000000000000e+02,3.300000000000000000e+01,4.000000000000000000e+01,7.400000000000000000e+01,6.200000000000000000e+01,6.500000000000000222e-01,2.555260800000000000e+09
5.600000000000000000e+01,6.100000000000000000e+01,6.200000000000000000e+01,1.110000000000000000e+02,3.400000000000000000e+01,3.900000000000000000e+01,7.100000000000000000e+01,6.000000000000000000e+01,6.400000000000000133e-01,2.572886300000000000e+09
4.300000000000000000e+01,4.700000000000000000e+01,5.000000000000000000e+01,1.050000000000000000e+02,3.200000000000000000e+01,3.200000000000000000e+01,6.300000000000000000e+01,5.500000000000000000e+01,6.400000000000000133e-01,2.589863500000000000e+09
4.400000000000000000e+01,4.300000000000000000e+01,5.100000000000000000e+01,1.050000000000000000e+02,3.600000000000000000e+01,3.300000000000000000e+01,5.000000000000000000e+01,5.300000000000000000e+01,6.300000000000000044e-01,2.606749600000000000e+09
5.100000000000000000e+01,4.900000000000000000e+01,4.900000000000000000e+01,9.900000000000000000e+01,3.600000000000000000e+01,4.000000000000000000e+01,4.900000000000000000e+01,5.600000000000000000e+01,6.300000000000000044e-01,2.624481700000000000e+09
6.400000000000000000e+01,4.900000000000000000e+01,3.900000000000000000e+01,7.100000000000000000e+01,3.500000000000000000e+01,4.000000000000000000e+01,5.100000000000000000e+01,5.600000000000000000e+01,6.199999999999999956e-01,2.641408500000000000e+09
6.800000000000000000e+01,4.800000000000000000e+01,3.600000000000000000e+01,5.800000000000000000e+01,3.400000000000000000e+01,3.900000000000000000e+01,6.000000000000000000e+01,6.400000000000000000e+01,6.099999999999999867e-01,2.660108500000000000e+09
6.900000000000000000e+01,4.300000000000000000e+01,3.600000000000000000e+01,5.300000000000000000e+01,3.700000000000000000e+01,4.100000000000000000e+01,5.600000000000000000e+01,6.600000000000000000e+01,6.099999999999999867e-01,2.678086100000000000e+09
7.300000000000000000e+01,4.400000000000000000e+01,3.000000000000000000e+01,3.500000000000000000e+01,3.100000000000000000e+01,4.600000000000000000e+01,5.300000000000000000e+01,6.800000000000000000e+01,5.999999999999999778e-01,2.695768900000000000e+09
6.700000000000000000e+01,3.600000000000000000e+01,3.600000000000000000e+01,3.400000000000000000e+01,3.000000000000000000e+01,3.600000000000000000e+01,5.100000000000000000e+01,6.800000000000000000e+01,5.799999999999999600e-01,2.713913800000000000e+09
6.900000000000000000e+01,3.000000000000000000e+01,3.700000000000000000e+01,3.600000000000000000e+01,3.200000000000000000e+01,3.400000000000000000e+01,5.000000000000000000e+01,6.700000000000000000e+01,5.699999999999999512e-01,2.751452800000000000e+09
6.800000000000000000e+01,2.900000000000000000e+01,3.800000000000000000e+01,3.500000000000000000e+01,3.200000000000000000e+01,4.000000000000000000e+01,4.300000000000000000e+01,6.700000000000000000e+01,5.600000000000000533e-01,2.768618200000000000e+09
1.120000000000000000e+02,2.900000000000000000e+01,3.600000000000000000e+01,3.100000000000000000e+01,2.900000000000000000e+01,4.100000000000000000e+01,4.300000000000000000e+01,6.600000000000000000e+01,5.500000000000000444e-01,2.785027100000000000e+09
1.290000000000000000e+02,3.300000000000000000e+01,3.600000000000000000e+01,2.700000000000000000e+01,2.800000000000000000e+01,3.600000000000000000e+01,5.200000000000000000e+01,9.900000000000000000e+01,5.400000000000000355e-01,2.801016900000000000e+09
1.350000000000000000e+02,3.100000000000000000e+01,3.000000000000000000e+01,3.000000000000000000e+01,3.200000000000000000e+01,4.400000000000000000e+01,5.300000000000000000e+01,1.010000000000000000e+02,5.300000000000000266e-01,2.817800200000000000e+09
1.340000000000000000e+02,3.100000000000000000e+01,2.800000000000000000e+01,2.800000000000000000e+01,3.200000000000000000e+01,4.700000000000000000e+01,4.900000000000000000e+01,1.000000000000000000e+02,5.200000000000000178e-01,2.835006300000000000e+09
1.340000000000000000e+02,3.900000000000000000e+01,2.700000000000000000e+01,3.000000000000000000e+01,3.000000000000000000e+01,4.600000000000000000e+01,5.200000000000000000e+01,9.700000000000000000e+01,5.100000000000000089e-01,2.852914600000000000e+09
1.060000000000000000e+02,4.100000000000000000e+01,2.900000000000000000e+01,3.000000000000000000e+01,2.900000000000000000e+01,4.600000000000000000e+01,5.000000000000000000e+01,1.040000000000000000e+02,5.000000000000000000e-01,2.870248200000000000e+09
8.900000000000000000e+01,3.900000000000000000e+01,3.000000000000000000e+01,2.900000000000000000e+01,3.100000000000000000e+01,4.500000000000000000e+01,4.100000000000000000e+01,7.700000000000000000e+01,5.000000000000000000e-01,2.888231600000000000e+09
8.700000000000000000e+01,4.000000000000000000e+01,3.000000000000000000e+01,2.500000000000000000e+01,2.700000000000000000e+01,3.900000000000000000e+01,4.000000000000000000e+01,7.500000000000000000e+01,4.899999999999999911e-01,2.906690800000000000e+09
7.700000000000000000e+01,4.200000000000000000e+01,2.900000000000000000e+01,2.400000000000000000e+01,3.000000000000000000e+01,3.600000000000000000e+01,4.600000000000000000e+01,8.400000000000000000e+01,4.799999999999999822e-01,2.923406200000000000e+09
1.050000000000000000e+02,3.800000000000000000e+01,2.900000000000000000e+01,2.200000000000000000e+01,3.000000000000000000e+01,4.600000000000000000e+01,3.900000000000000000e+01,8.800000000000000000e+01,4.799999999999999822e-01,2.940105300000000000e+09
1.090000000000000000e+02,3.500000000000000000e+01,2.900000000000000000e+01,2.500000000000000000e+01,2.900000000000000000e+01,4.500000000000000000e+01,4.500000000000000000e+01,7.700000000000000000e+01,4.699999999999999734e-01,2.956241600000000000e+09
1.020000000000000000e+02,3.300000000000000000e+01,3.000000000000000000e+01,2.500000000000000000e+01,2.700000000000000000e+01,4.600000000000000000e+01,4.500000000000000000e+01,7.900000000000000000e+01,4.699999999999999734e-01,2.972755100000000000e+09
1.130000000000000000e+02,3.600000000000000000e+01,3.000000000000000000e+01,2.500000000000000000e+01,2.800000000000000000e+01,4.500000000000000000e+01,4.800000000000000000e+01,7.600000000000000000e+01,4.600000000000000200e-01,2.989499500000000000e+09
1.160000000000000000e+02,3.400000000000000000e+01,3.100000000000000000e+01,2.700000000000000000e+01,2.400000000000000000e+01,4.600000000000000000e+01,4.300000000000000000e+01,7.000000000000000000e+01,4.600000000000000200e-01,3.006045700000000000e+09
8.900000000000000000e+01,2.900000000000000000e+01,3.000000000000000000e+01,2.700000000000000000e+01,2.300000000000000000e+01,4.200000000000000000e+01,4.400000000000000000e+01,6.400000000000000000e+01,4.600000000000000200e-01,3.022760000000000000e+09
8.000000000000000000e+01,3.200000000000000000e+01,3.000000000000000000e+01,2.700000000000000000e+01,2.300000000000000000e+01,4.300000000000000000e+01,3.900000000000000000e+01,6.700000000000000000e+01,4.600000000000000200e-01,3.040375800000000000e+09
8.200000000000000000e+01,3.600000000000000000e+01,3.200000000000000000e+01,2.600000000000000000e+01,3.700000000000000000e+01,4.000000000000000000e+01,4.000000000000000000e+01,6.100000000000000000e+01,4.500000000000000111e-01,3.057609600000000000e+09
8.500000000000000000e+01,3.000000000000000000e+01,3.000000000000000000e+01,2.800000000000000000e+01,3.600000000000000000e+01,4.000000000000000000e+01,4.500000000000000000e+01,6.800000000000000000e+01,4.500000000000000111e-01,3.075074700000000000e+09
8.000000000000000000e+01,3.400000000000000000e+01,3.100000000000000000e+01,2.800000000000000000e+01,3.700000000000000000e+01,3.900000000000000000e+01,4.700000000000000000e+01,5.700000000000000000e+01,4.500000000000000111e-01,3.094284900000000000e+09
8.300000000000000000e+01,4.300000000000000000e+01,3.200000000000000000e+01,2.900000000000000000e+01,3.900000000000000000e+01,3.700000000000000000e+01,5.200000000000000000e+01,6.000000000000000000e+01,4.500000000000000111e-01,3.112107500000000000e+09
8.300000000000000000e+01,4.100000000000000000e+01,3.100000000000000000e+01,2.700000000000000000e+01,4.100000000000000000e+01,3.500000000000000000e+01,5.000000000000000000e+01,6.000000000000000000e+01,4.500000000000000111e-01,3.128665700000000000e+09
8.200000000000000000e+01,3.800000000000000000e+01,2.800000000000000000e+01,3.000000000000000000e+01,3.500000000000000000e+01,3.700000000000000000e+01,5.300000000000000000e+01,5.400000000000000000e+01,4.500000000000000111e-01,3.144992000000000000e+09
5.300000000000000000e+01,3.900000000000000000e+01,3.200000000000000000e+01,2.900000000000000000e+01,3.400000000000000000e+01,4.500000000000000000e+01,5.200000000000000000e+01,5.400000000000000000e+01,4.500000000000000111e-01,3.161921800000000000e+09
5.800000000000000000e+01,4.100000000000000000e+01,3.000000000000000000e+01,2.900000000000000000e+01,3.400000000000000000e+01,4.900000000000000000e+01,4.900000000000000000e+01,5.300000000000000000e+01,4.500000000000000111e-01,3.178876300000000000e+09
5.500000000000000000e+01,3.300000000000000000e+01,2.900000000000000000e+01,3.200000000000000000e+01,3.000000000000000000e+01,4.500000000000000000e+01,4.300000000000000000e+01,4.800000000000000000e+01,4.500000000000000111e-01,3.196915800000000000e+09
7.300000000000000000e+01,3.200000000000000000e+01,2.800000000000000000e+01,3.100000000000000000e+01,2.900000000000000000e+01,5.200000000000000000e+01,4.600000000000000000e+01,5.400000000000000000e+01,4.500000000000000111e-01,3.214722200000000000e+09
7.600000000000000000e+01,3.700000000000000000e+01,2.700000000000000000e+01,2.800000000000000000e+01,2.200000000000000000e+01,5.300000000000000000e+01,4.200000000000000000e+01,6.800000000000000000e+01,4.500000000000000111e-01,3.232137000000000000e+09
7.800000000000000000e+01,3.700000000000000000e+01,2.300000000000000000e+01,2.800000000000000000e+01,2.800000000000000000e+01,5.000000000000000000e+01,3.400000000000000000e+01,6.200000000000000000e+01,4.500000000000000111e-01,3.248621600000000000e+09
7.700000000000000000e+01,3.600000000000000000e+01,2.300000000000000000e+01,2.800000000000000000e+01,2.600000000000000000e+01,4.900000000000000000e+01,4.000000000000000000e+01,6.700000000000000000e+01,4.500000000000000111e-01,3.265059200000000000e+09
7.700000000000000000e+01,3.500000000000000000e+01,2.100000000000000000e+01,2.400000000000000000e+01,2.900000000000000000e+01,5.000000000000000000e+01,4.500000000000000000e+01,7.400000000000000000e+01,4.500000000000000111e-01,3.281109900000000000e+09
9.800000000000000000e+01,3.600000000000000000e+01,2.400000000000000000e+01,2.400000000000000000e+01,2.800000000000000000e+01,5.500000000000000000e+01,4.500000000000000000e+01,7.300000000000000000e+01,4.500000000000000111e-01,3.297296000000000000e+09
9.500000000000000000e+01,3.200000000000000000e+01,2.500000000000000000e+01,2.500000000000000000e+01,3.000000000000000000e+01,5.800000000000000000e+01,4.500000000000000000e+01,6.300000000000000000e+01,4.500000000000000111e-01,3.315452800000000000e+09
9.500000000000000000e+01,3.500000000000000000e+01,2.500000000000000000e+01,2.500000000000000000e+01,2.600000000000000000e+01,6.100000000000000000e+01,4.800000000000000000e+01,6.200000000000000000e+01,4.500000000000000111e-01,3.332628900000000000e+09
1.000000000000000000e+02,3.100000000000000000e+01,2.500000000000000000e+01,2.200000000000000000e+01,3.000000000000000000e+01,6.000000000000000000e+01,5.000000000000000000e+01,6.800000000000000000e+01,4.500000000000000111e-01,3.350251200000000000e+09
9.900000000000000000e+01,4.000000000000000000e+01,2.600000000000000000e+01,2.600000000000000000e+01,2.900000000000000000e+01,5.800000000000000000e+01,4.600000000000000000e+01,6.200000000000000000e+01,4.500000000000000111e-01,3.367171400000000000e+09
5.900000000000000000e+01,4.400000000000000000e+01,2.400000000000000000e+01,2.500000000000000000e+01,3.100000000000000000e+01,4.600000000000000000e+01,4.100000000000000000e+01,6.100000000000000000e+01,4.500000000000000111e-01,3.383849600000000000e+09
6.500000000000000000e+01,4.300000000000000000e+01,2.500000000000000000e+01,2.800000000000000000e+01,2.700000000000000000e+01,4.800000000000000000e+01,4.200000000000000000e+01,7.100000000000000000e+01,4.500000000000000111e-01,3.401542200000000000e+09
7.400000000000000000e+01,4.400000000000000000e+01,2.600000000000000000e+01,2.800000000000000000e+01,2.900000000000000000e+01,4.600000000000000000e+01,4.200000000000000000e+01,7.200000000000000000e+01,4.400000000000000022e-01,3.419148400000000000e+09
8.300000000000000000e+01,4.500000000000000000e+01,3.000000000000000000e+01,2.900000000000000000e+01,2.800000000000000000e+01,5.100000000000000000e+01,4.700000000000000000e+01,7.300000000000000000e+01,4.400000000000000022e-01,3.436454200000000000e+09
8.400000000000000000e+01,3.900000000000000000e+01,2.800000000000000000e+01,3.100000000000000000e+01,2.900000000000000000e+01,5.000000000000000000e+01,4.700000000000000000e+01,7.300000000000000000e+01,4.400000000000000022e-01,3.452925400000000000e+09
8.700000000000000000e+01,3.400000000000000000e+01,2.700000000000000000e+01,3.200000000000000000e+01,3.000000000000000000e+01,5.100000000000000000e+01,4.600000000000000000e+01,6.900000000000000000e+01,4.500000000000000111e-01,3.469212000000000000e+09
8.000000000000000000e+01,3.300000000000000000e+01,2.800000000000000000e+01,2.900000000000000000e+01,3.200000000000000000e+01,4.500000000000000000e+01,4.800000000000000000e+01,5.700000000000000000e+01,4.500000000000000111e-01,3.485635300000000000e+09
6.700000000000000000e+01,3.200000000000000000e+01,2.800000000000000000e+01,3.000000000000000000e+01,2.900000000000000000e+01,4.700000000000000000e+01,5.500000000000000000e+01,5.700000000000000000e+01,4.500000000000000111e-01,3.504781000000000000e+09
5.300000000000000000e+01,3.300000000000000000e+01,2.300000000000000000e+01,2.900000000000000000e+01,2.600000000000000000e+01,4.300000000000000000e+01,5.000000000000000000e+01,4.300000000000000000e+01,4.500000000000000111e-01,3.521990700000000000e+09
5.100000000000000000e+01,3.000000000000000000e+01,2.500000000000000000e+01,2.400000000000000000e+01,2.700000000000000000e+01,4.100000000000000000e+01,5.000000000000000000e+01,4.300000000000000000e+01,4.500000000000000111e-01,3.538537000000000000e+09
4.500000000000000000e+01,3.000000000000000000e+01,2.500000000000000000e+01,2.900000000000000000e+01,2.600000000000000000e+01,4.100000000000000000e+01,5.200000000000000000e+01,4.000000000000000000e+01,4.500000000000000111e-01,3.555565800000000000e+09
4.800000000000000000e+01,3.200000000000000000e+01,2.800000000000000000e+01,3.000000000000000000e+01,2.600000000000000000e+01,4.400000000000000000e+01,4.800000000000000000e+01,4.600000000000000000e+01,4.500000000000000111e-01,3.571871800000000000e+09
9.400000000000000000e+01,3.200000000000000000e+01,2.700000000000000000e+01,2.700000000000000000e+01,2.600000000000000000e+01,3.600000000000000000e+01,3.600000000000000000e+01,6.800000000000000000e+01,4.500000000000000111e-01,3.590428400000000000e+09
9.100000000000000000e+01,2.900000000000000000e+01,3.000000000000000000e+01,2.600000000000000000e+01,2.900000000000000000e+01,3.700000000000000000e+01,3.200000000000000000e+01,6.700000000000000000e+01,4.500000000000000111e-01,3.607468500000000000e+09
9.600000000000000000e+01,3.100000000000000000e+01,2.900000000000000000e+01,2.700000000000000000e+01,2.900000000000000000e+01,4.200000000000000000e+01,3.200000000000000000e+01,6.700000000000000000e+01,4.500000000000000111e-01,3.624172300000000000e+09
9.900000000000000000e+01,3.300000000000000000e+01,2.900000000000000000e+01,2.200000000000000000e+01,2.700000000000000000e+01,4.100000000000000000e+01,3.200000000000000000e+01,6.800000000000000000e+01,4.500000000000000111e-01,3.640542300000000000e+09
1.090000000000000000e+02,3.100000000000000000e+01,2.500000000000000000e+01,2.200000000000000000e+01,2.600000000000000000e+01,4.100000000000000000e+01,3.500000000000000000e+01,7.200000000000000000e+01,4.500000000000000111e-01,3.658580500000000000e+09
9.300000000000000000e+01,3.200000000000000000e+01,2.600000000000000000e+01,2.700000000000000000e+01,2.600000000000000000e+01,5.000000000000000000e+01,3.700000000000000000e+01,5.400000000000000000e+01,4.500000000000000111e-01,3.675183900000000000e+09
1.100000000000000000e+02,3.100000000000000000e+01,2.300000000000000000e+01,2.700000000000000000e+01,2.700000000000000000e+01,5.300000000000000000e+01,3.900000000000000000e+01,5.600000000000000000e+01,4.500000000000000111e-01,3.692401500000000000e+09
1.130000000000000000e+02,3.000000000000000000e+01,2.300000000000000000e+01,2.900000000000000000e+01,2.800000000000000000e+01,5.000000000000000000e+01,4.000000000000000000e+01,5.900000000000000000e+01,4.400000000000000022e-01,3.709835600000000000e+09
1.130000000000000000e+02,3.000000000000000000e+01,2.300000000000000000e+01,2.800000000000000000e+01,2.900000000000000000e+01,5.800000000000000000e+01,4.900000000000000000e+01,5.700000000000000000e+01,4.400000000000000022e-01,3.727313000000000000e+09
1.020000000000000000e+02,3.300000000000000000e+01,2.300000000000000000e+01,2.700000000000000000e+01,2.800000000000000000e+01,5.800000000000000000e+01,5.400000000000000000e+01,5.300000000000000000e+01,4.400000000000000022e-01,3.743717100000000000e+09
8.800000000000000000e+01,3.400000000000000000e+01,2.000000000000000000e+01,2.600000000000000000e+01,2.800000000000000000e+01,5.100000000000000000e+01,5.600000000000000000e+01,5.200000000000000000e+01,4.400000000000000022e-01,3.762171600000000000e+09
6.600000000000000000e+01,3.400000000000000000e+01,2.200000000000000000e+01,2.500000000000000000e+01,2.600000000000000000e+01,4.800000000000000000e+01,5.500000000000000000e+01,6.100000000000000000e+01,4.400000000000000022e-01,3.779778100000000000e+09
7.100000000000000000e+01,3.400000000000000000e+01,2.300000000000000000e+01,2.200000000000000000e+01,2.400000000000000000e+01,5.000000000000000000e+01,6.700000000000000000e+01,5.800000000000000000e+01,4.400000000000000022e-01,3.806310500000000000e+09
1.010000000000000000e+02,3.800000000000000000e+01,2.400000000000000000e+01,2.100000000000000000e+01,2.500000000000000000e+01,4.200000000000000000e+01,6.800000000000000000e+01,6.300000000000000000e+01,4.400000000000000022e-01,3.829761900000000000e+09
1.020000000000000000e+02,3.600000000000000000e+01,2.600000000000000000e+01,2.600000000000000000e+01,2.500000000000000000e+01,4.900000000000000000e+01,6.400000000000000000e+01,6.100000000000000000e+01,4.400000000000000022e-01,3.847299600000000000e+09
1.060000000000000000e+02,3.100000000000000000e+01,2.700000000000000000e+01,2.400000000000000000e+01,2.700000000000000000e+01,4.700000000000000000e+01,6.100000000000000000e+01,6.300000000000000000e+01,4.400000000000000022e-01,3.865007600000000000e+09
1.070000000000000000e+02,3.100000000000000000e+01,2.600000000000000000e+01,2.400000000000000000e+01,3.200000000000000000e+01,4.600000000000000000e+01,6.100000000000000000e+01,5.300000000000000000e+01,4.500000000000000111e-01,3.881903300000000000e+09
9.700000000000000000e+01,3.200000000000000000e+01,2.200000000000000000e+01,2.700000000000000000e+01,3.200000000000000000e+01,4.500000000000000000e+01,5.000000000000000000e+01,5.400000000000000000e+01,4.500000000000000111e-01,3.898774500000000000e+09
6.400000000000000000e+01,2.400000000000000000e+01,2.400000000000000000e+01,2.900000000000000000e+01,3.100000000000000000e+01,4.800000000000000000e+01,4.000000000000000000e+01,5.200000000000000000e+01,4.500000000000000111e-01,3.916281600000000000e+09
6.200000000000000000e+01,3.000000000000000000e+01,2.200000000000000000e+01,2.500000000000000000e+01,3.300000000000000000e+01,4.100000000000000000e+01,3.900000000000000000e+01,6.000000000000000000e+01,4.500000000000000111e-01,3.933852600000000000e+09
5.600000000000000000e+01,3.300000000000000000e+01,2.400000000000000000e+01,3.000000000000000000e+01,3.100000000000000000e+01,4.400000000000000000e+01,4.700000000000000000e+01,5.800000000000000000e+01,4.500000000000000111e-01,3.951107400000000000e+09
5.400000000000000000e+01,3.300000000000000000e+01,2.400000000000000000e+01,2.900000000000000000e+01,2.700000000000000000e+01,5.000000000000000000e+01,4.800000000000000000e+01,5.800000000000000000e+01,4.500000000000000111e-01,3.970042400000000000e+09
8.200000000000000000e+01,3.600000000000000000e+01,2.800000000000000000e+01,2.900000000000000000e+01,3.100000000000000000e+01,5.100000000000000000e+01,4.300000000000000000e+01,7.600000000000000000e+01,4.500000000000000111e-01,3.987062200000000000e+09
8.300000000000000000e+01,3.600000000000000000e+01,2.500000000000000000e+01,2.800000000000000000e+01,3.100000000000000000e+01,4.800000000000000000e+01,4.400000000000000000e+01,7.800000000000000000e+01,4.500000000000000111e-01,4.005144100000000000e+09
8.600000000000000000e+01,3.600000000000000000e+01,2.900000000000000000e+01,3.000000000000000000e+01,3.100000000000000000e+01,4.700000000000000000e+01,4.300000000000000000e+01,7.100000000000000000e+01,4.400000000000000022e-01,4.022848300000000000e+09
9.500000000000000000e+01,3.300000000000000000e+01,2.700000000000000000e+01,2.500000000000000000e+01,3.100000000000000000e+01,4.700000000000000000e+01,3.700000000000000000e+01,7.500000000000000000e+01,4.400000000000000022e-01,4.042247500000000000e+09
9.400000000000000000e+01,3.200000000000000000e+01,2.700000000000000000e+01,2.700000000000000000e+01,3.100000000000000000e+01,3.900000000000000000e+01,4.000000000000000000e+01,7.700000000000000000e+01,4.400000000000000022e-01,4.060745200000000000e+09
7.400000000000000000e+01,3.200000000000000000e+01,2.500000000000000000e+01,2.500000000000000000e+01,2.800000000000000000e+01,3.800000000000000000e+01,4.500000000000000000e+01,5.600000000000000000e+01,4.400000000000000022e-01,4.078383700000000000e+09
7.300000000000000000e+01,3.200000000000000000e+01,2.600000000000000000e+01,2.700000000000000000e+01,2.800000000000000000e+01,5.500000000000000000e+01,4.300000000000000000e+01,5.600000000000000000e+01,4.400000000000000022e-01,4.096435900000000000e+09
7.000000000000000000e+01,2.800000000000000000e+01,2.500000000000000000e+01,2.800000000000000000e+01,2.600000000000000000e+01,5.500000000000000000e+01,4.400000000000000000e+01,5.600000000000000000e+01,4.400000000000000022e-01,4.114040300000000000e+09
5.200000000000000000e+01,3.200000000000000000e+01,2.500000000000000000e+01,3.100000000000000000e+01,2.500000000000000000e+01,5.300000000000000000e+01,4.400000000000000000e+01,4.700000000000000000e+01,4.400000000000000022e-01,4.132384200000000000e+09
5.500000000000000000e+01,3.400000000000000000e+01,2.900000000000000000e+01,3.000000000000000000e+01,2.400000000000000000e+01,5.400000000000000000e+01,4.300000000000000000e+01,4.700000000000000000e+01,4.400000000000000022e-01,4.150531700000000000e+09
4.900000000000000000e+01,3.200000000000000000e+01,3.100000000000000000e+01,3.200000000000000000e+01,2.200000000000000000e+01,5.300000000000000000e+01,4.100000000000000000e+01,4.800000000000000000e+01,4.400000000000000022e-01,4.169183800000000000e+09
4.500000000000000000e+01,3.000000000000000000e+01,3.100000000000000000e+01,3.000000000000000000e+01,2.600000000000000000e+01,3.100000000000000000e+01,3.900000000000000000e+01,4.300000000000000000e+01,4.400000000000000022e-01,4.187649200000000000e+09
4.700000000000000000e+01,3.200000000000000000e+01,2.900000000000000000e+01,3.000000000000000000e+01,2.600000000000000000e+01,3.200000000000000000e+01,3.900000000000000000e+01,5.500000000000000000e+01,4.400000000000000022e-01,4.205579400000000000e+09
4.900000000000000000e+01,2.800000000000000000e+01,3.000000000000000000e+01,2.500000000000000000e+01,2.600000000000000000e+01,4.300000000000000000e+01,4.600000000000000000e+01,5.300000000000000000e+01,4.400000000000000022e-01,4.224331300000000000e+09
4.200000000000000000e+01,3.100000000000000000e+01,2.600000000000000000e+01,2.700000000000000000e+01,2.800000000000000000e+01,4.500000000000000000e+01,4.600000000000000000e+01,4.900000000000000000e+01,4.400000000000000022e-01,4.245648800000000000e+09
5.300000000000000000e+01,2.900000000000000000e+01,2.300000000000000000e+01,2.500000000000000000e+01,3.200000000000000000e+01,4.900000000000000000e+01,4.300000000000000000e+01,6.000000000000000000e+01,4.400000000000000022e-01,4.264567600000000000e+09
6.800000000000000000e+01,3.300000000000000000e+01,2.300000000000000000e+01,2.800000000000000000e+01,2.900000000000000000e+01,5.000000000000000000e+01,4.100000000000000000e+01,5.800000000000000000e+01,4.500000000000000111e-01,4.284068800000000000e+09
6.800000000000000000e+01,3.100000000000000000e+01,2.400000000000000000e+01,2.900000000000000000e+01,2.900000000000000000e+01,5.200000000000000000e+01,4.100000000000000000e+01,5.300000000000000000e+01,4.500000000000000111e-01,4.302594400000000000e+09
6.600000000000000000e+01,3.100000000000000000e+01,2.200000000000000000e+01,2.900000000000000000e+01,3.200000000000000000e+01,4.200000000000000000e+01,3.800000000000000000e+01,5.900000000000000000e+01,4.500000000000000111e-01,4.323251700000000000e+09
6.500000000000000000e+01,2.600000000000000000e+01,2.500000000000000000e+01,2.800000000000000000e+01,3.000000000000000000e+01,4.200000000000000000e+01,3.600000000000000000e+01,6.600000000000000000e+01,4.500000000000000111e-01,4.345619300000000000e+09
6.300000000000000000e+01,2.800000000000000000e+01,2.700000000000000000e+01,2.900000000000000000e+01,2.900000000000000000e+01,3.900000000000000000e+01,3.800000000000000000e+01,5.800000000000000000e+01,4.400000000000000022e-01,4.363625500000000000e+09
5.100000000000000000e+01,2.800000000000000000e+01,2.600000000000000000e+01,2.600000000000000000e+01,2.800000000000000000e+01,3.800000000000000000e+01,3.900000000000000000e+01,5.900000000000000000e+01,4.400000000000000022e-01,4.381425000000000000e+09
7.600000000000000000e+01,2.700000000000000000e+01,2.500000000000000000e+01,2.300000000000000000e+01,2.800000000000000000e+01,4.400000000000000000e+01,4.500000000000000000e+01,5.400000000000000000e+01,4.400000000000000022e-01,4.401061100000000000e+09
8.300000000000000000e+01,3.300000000000000000e+01,2.900000000000000000e+01,2.200000000000000000e+01,2.900000000000000000e+01,4.500000000000000000e+01,4.200000000000000000e+01,5.600000000000000000e+01,4.400000000000000022e-01,4.423243100000000000e+09
8.200000000000000000e+01,3.400000000000000000e+01,2.700000000000000000e+01,2.400000000000000000e+01,2.800000000000000000e+01,4.100000000000000000e+01,4.100000000000000000e+01,4.900000000000000000e+01,4.400000000000000022e-01,4.445428200000000000e+09
7.700000000000000000e+01,3.100000000000000000e+01,2.700000000000000000e+01,2.200000000000000000e+01,2.600000000000000000e+01,4.200000000000000000e+01,4.100000000000000000e+01,4.700000000000000000e+01,4.400000000000000022e-01,4.463572500000000000e+09
7.800000000000000000e+01,3.600000000000000000e+01,2.700000000000000000e+01,2.600000000000000000e+01,2.800000000000000000e+01,4.600000000000000000e+01,4.200000000000000000e+01,4.800000000000000000e+01,4.400000000000000022e-01,4.483293700000000000e+09
5.200000000000000000e+01,3.500000000000000000e+01,2.700000000000000000e+01,2.600000000000000000e+01,3.100000000000000000e+01,3.600000000000000000e+01,3.800000000000000000e+01,6.500000000000000000e+01,4.400000000000000022e-01,4.500985400000000000e+09
4.200000000000000000e+01,3.200000000000000000e+01,2.200000000000000000e+01,2.700000000000000000e+01,2.700000000000000000e+01,3.900000000000000000e+01,3.600000000000000000e+01,5.900000000000000000e+01,4.400000000000000022e-01,4.523162900000000000e+09
4.300000000000000000e+01,3.400000000000000000e+01,2.400000000000000000e+01,2.600000000000000000e+01,3.000000000000000000e+01,4.100000000000000000e+01,3.400000000000000000e+01,5.900000000000000000e+01,4.400000000000000022e-01,4.545339600000000000e+09
4.100000000000000000e+01,3.400000000000000000e+01,2.300000000000000000e+01,2.700000000000000000e+01,3.300000000000000000e+01,4.000000000000000000e+01,3.300000000000000000e+01,5.900000000000000000e+01,4.400000000000000022e-01,4.563448000000000000e+09
3.700000000000000000e+01,2.700000000000000000e+01,2.300000000000000000e+01,2.400000000000000000e+01,3.100000000000000000e+01,4.500000000000000000e+01,3.400000000000000000e+01,5.600000000000000000e+01,4.400000000000000022e-01,4.581653200000000000e+09
4.400000000000000000e+01,2.800000000000000000e+01,2.700000000000000000e+01,2.500000000000000000e+01,3.000000000000000000e+01,4.500000000000000000e+01,3.900000000000000000e+01,6.200000000000000000e+01,4.400000000000000022e-01,4.601051400000000000e+09
4.200000000000000000e+01,3.100000000000000000e+01,2.800000000000000000e+01,2.500000000000000000e+01,3.000000000000000000e+01,4.300000000000000000e+01,3.700000000000000000e+01,6.100000000000000000e+01,4.400000000000000022e-01,4.623416800000000000e+09
4.500000000000000000e+01,2.800000000000000000e+01,2.800000000000000000e+01,2.300000000000000000e+01,2.800000000000000000e+01,4.500000000000000000e+01,4.600000000000000000e+01,7.200000000000000000e+01,4.400000000000000022e-01,4.641857600000000000e+09
5.000000000000000000e+01,2.900000000000000000e+01,2.700000000000000000e+01,2.600000000000000000e+01,2.600000000000000000e+01,4.600000000000000000e+01,5.500000000000000000e+01,7.900000000000000000e+01,4.400000000000000022e-01,4.659649400000000000e+09
8.100000000000000000e+01,3.100000000000000000e+01,2.600000000000000000e+01,2.900000000000000000e+01,2.800000000000000000e+01,4.000000000000000000e+01,5.700000000000000000e+01,7.900000000000000000e+01,4.400000000000000022e-01,4.680334600000000000e+09
7.600000000000000000e+01,3.400000000000000000e+01,2.500000000000000000e+01,2.800000000000000000e+01,2.700000000000000000e+01,3.900000000000000000e+01,5.200000000000000000e+01,6.000000000000000000e+01,4.400000000000000022e-01,4.703062800000000000e+09
7.900000000000000000e+01,3.000000000000000000e+01,2.400000000000000000e+01,2.700000000000000000e+01,2.600000000000000000e+01,4.100000000000000000e+01,5.100000000000000000e+01,6.200000000000000000e+01,4.400000000000000022e-01,4.725596900000000000e+09
8.500000000000000000e+01,3.300000000000000000e+01,2.100000000000000000e+01,3.000000000000000000e+01,2.500000000000000000e+01,3.700000000000000000e+01,4.500000000000000000e+01,6.000000000000000000e+01,4.400000000000000022e-01,4.743349700000000000e+09
8.200000000000000000e+01,3.600000000000000000e+01,2.300000000000000000e+01,2.600000000000000000e+01,2.400000000000000000e+01,3.500000000000000000e+01,3.400000000000000000e+01,5.700000000000000000e+01,4.400000000000000022e-01,4.767610200000000000e+09
5.600000000000000000e+01,3.400000000000000000e+01,2.400000000000000000e+01,2.400000000000000000e+01,2.300000000000000000e+01,3.300000000000000000e+01,3.700000000000000000e+01,6.000000000000000000e+01,4.400000000000000022e-01,4.786571000000000000e+09
7.700000000000000000e+01,3.200000000000000000e+01,2.300000000000000000e+01,2.400000000000000000e+01,2.500000000000000000e+01,3.700000000000000000e+01,4.200000000000000000e+01,6.300000000000000000e+01,4.400000000000000022e-01,4.804950900000000000e+09
8.200000000000000000e+01,3.100000000000000000e+01,2.100000000000000000e+01,2.500000000000000000e+01,2.500000000000000000e+01,3.300000000000000000e+01,4.600000000000000000e+01,6.700000000000000000e+01,4.400000000000000022e-01,4.822876100000000000e+09
7.600000000000000000e+01,3.100000000000000000e+01,2.500000000000000000e+01,2.400000000000000000e+01,2.600000000000000000e+01,3.200000000000000000e+01,4.500000000000000000e+01,6.000000000000000000e+01,4.400000000000000022e-01,4.845343600000000000e+09
7.700000000000000000e+01,2.800000000000000000e+01,2.700000000000000000e+01,2.600000000000000000e+01,2.800000000000000000e+01,3.400000000000000000e+01,4.600000000000000000e+01,5.400000000000000000e+01,4.400000000000000022e-01,4.865123400000000000e+09
7.600000000000000000e+01,2.900000000000000000e+01,2.400000000000000000e+01,2.400000000000000000e+01,2.700000000000000000e+01,3.700000000000000000e+01,4.300000000000000000e+01,5.300000000000000000e+01,4.400000000000000022e-01,4.884080600000000000e+09
9.200000000000000000e+01,3.100000000000000000e+01,2.300000000000000000e+01,2.400000000000000000e+01,2.600000000000000000e+01,3.100000000000000000e+01,3.600000000000000000e+01,6.800000000000000000e+01,4.400000000000000022e-01,4.913310400000000000e+09
9.100000000000000000e+01,3.300000000000000000e+01,2.600000000000000000e+01,2.700000000000000000e+01,2.500000000000000000e+01,3.300000000000000000e+01,3.400000000000000000e+01,6.500000000000000000e+01,4.400000000000000022e-01,4.931998300000000000e+09
9.200000000000000000e+01,3.900000000000000000e+01,2.600000000000000000e+01,2.600000000000000000e+01,2.900000000000000000e+01,3.600000000000000000e+01,3.200000000000000000e+01,6.200000000000000000e+01,4.400000000000000022e-01,4.950910400000000000e+09
9.600000000000000000e+01,4.000000000000000000e+01,2.600000000000000000e+01,2.300000000000000000e+01,2.800000000000000000e+01,3.600000000000000000e+01,3.100000000000000000e+01,6.500000000000000000e+01,4.400000000000000022e-01,4.968739500000000000e+09
9.400000000000000000e+01,4.000000000000000000e+01,2.800000000000000000e+01,2.400000000000000000e+01,2.700000000000000000e+01,3.900000000000000000e+01,3.100000000000000000e+01,7.000000000000000000e+01,4.400000000000000022e-01,4.986894600000000000e+09
6.000000000000000000e+01,4.100000000000000000e+01,2.900000000000000000e+01,2.700000000000000000e+01,2.600000000000000000e+01,3.900000000000000000e+01,3.400000000000000000e+01,5.200000000000000000e+01,4.400000000000000022e-01,5.005154100000000000e+09
5.900000000000000000e+01,4.100000000000000000e+01,2.800000000000000000e+01,2.700000000000000000e+01,2.600000000000000000e+01,3.700000000000000000e+01,3.900000000000000000e+01,5.100000000000000000e+01,4.400000000000000022e-01,5.024460200000000000e+09
5.800000000000000000e+01,3.300000000000000000e+01,2.500000000000000000e+01,2.700000000000000000e+01,2.200000000000000000e+01,4.100000000000000000e+01,3.800000000000000000e+01,5.300000000000000000e+01,4.400000000000000022e-01,5.045134300000000000e+09
5.800000000000000000e+01,3.600000000000000000e+01,2.300000000000000000e+01,2.900000000000000000e+01,1.900000000000000000e+01,4.000000000000000000e+01,4.100000000000000000e+01,5.600000000000000000e+01,4.400000000000000022e-01,5.064518500000000000e+09
7.100000000000000000e+01,3.500000000000000000e+01,2.300000000000000000e+01,2.900000000000000000e+01,2.100000000000000000e+01,3.200000000000000000e+01,3.900000000000000000e+01,5.000000000000000000e+01,4.400000000000000022e-01,5.082393500000000000e+09
7.400000000000000000e+01,3.300000000000000000e+01,2.300000000000000000e+01,2.900000000000000000e+01,2.400000000000000000e+01,3.500000000000000000e+01,4.000000000000000000e+01,5.100000000000000000e+01,4.400000000000000022e-01,5.100585100000000000e+09
7.200000000000000000e+01,3.200000000000000000e+01,2.500000000000000000e+01,2.600000000000000000e+01,2.200000000000000000e+01,3.900000000000000000e+01,3.400000000000000000e+01,6.200000000000000000e+01,4.400000000000000022e-01,5.122840800000000000e+09
6.900000000000000000e+01,3.400000000000000000e+01,2.400000000000000000e+01,2.500000000000000000e+01,2.500000000000000000e+01,3.400000000000000000e+01,3.800000000000000000e+01,6.800000000000000000e+01,4.400000000000000022e-01,5.145215900000000000e+09
6.400000000000000000e+01,3.000000000000000000e+01,2.500000000000000000e+01,2.600000000000000000e+01,2.600000000000000000e+01,3.800000000000000000e+01,3.700000000000000000e+01,6.100000000000000000e+01,4.400000000000000022e-01,5.163629900000000000e+09
5.000000000000000000e+01,2.900000000000000000e+01,2.500000000000000000e+01,2.800000000000000000e+01,2.700000000000000000e+01,3.900000000000000000e+01,3.900000000000000000e+01,5.900000000000000000e+01,4.400000000000000022e-01,5.182125600000000000e+09
4.400000000000000000e+01,3.200000000000000000e+01,2.600000000000000000e+01,2.600000000000000000e+01,2.500000000000000000e+01,3.800000000000000000e+01,4.100000000000000000e+01,6.600000000000000000e+01,4.400000000000000022e-01,5.200644500000000000e+09
4.100000000000000000e+01,3.500000000000000000e+01,2.500000000000000000e+01,2.700000000000000000e+01,2.700000000000000000e+01,3.600000000000000000e+01,4.100000000000000000e+01,5.400000000000000000e+01,4.400000000000000022e-01,5.222901100000000000e+09
6.500000000000000000e+01,3.200000000000000000e+01,2.600000000000000000e+01,2.700000000000000000e+01,2.600000000000000000e+01,4.700000000000000000e+01,4.800000000000000000e+01,5.400000000000000000e+01,4.400000000000000022e-01,5.245093600000000000e+09
6.700000000000000000e+01,3.000000000000000000e+01,2.700000000000000000e+01,2.700000000000000000e+01,2.700000000000000000e+01,4.900000000000000000e+01,4.600000000000000000e+01,5.300000000000000000e+01,4.500000000000000111e-01,5.262920500000000000e+09
6.900000000000000000e+01,3.200000000000000000e+01,2.700000000000000000e+01,2.400000000000000000e+01,2.400000000000000000e+01,5.300000000000000000e+01,4.300000000000000000e+01,6.400000000000000000e+01,4.500000000000000111e-01,5.280497800000000000e+09
7.000000000000000000e+01,3.900000000000000000e+01,2.600000000000000000e+01,2.500000000000000000e+01,2.500000000000000000e+01,5.500000000000000000e+01,4.200000000000000000e+01,5.600000000000000000e+01,4.500000000000000111e-01,5.300636300000000000e+09
6.600000000000000000e+01,3.700000000000000000e+01,2.500000000000000000e+01,2.500000000000000000e+01,2.400000000000000000e+01,6.500000000000000000e+01,4.300000000000000000e+01,5.600000000000000000e+01,4.500000000000000111e-01,5.322828200000000000e+09
4.800000000000000000e+01,3.700000000000000000e+01,2.500000000000000000e+01,2.600000000000000000e+01,2.400000000000000000e+01,5.600000000000000000e+01,3.300000000000000000e+01,4.800000000000000000e+01,4.500000000000000111e-01,5.345137900000000000e+09
5.000000000000000000e+01,3.900000000000000000e+01,2.300000000000000000e+01,2.300000000000000000e+01,2.200000000000000000e+01,5.500000000000000000e+01,3.800000000000000000e+01,5.600000000000000000e+01,4.500000000000000111e-01,5.363542400000000000e+09
6.600000000000000000e+01,3.800000000000000000e+01,2.500000000000000000e+01,2.600000000000000000e+01,2.300000000000000000e+01,5.100000000000000000e+01,4.100000000000000000e+01,5.200000000000000000e+01,4.500000000000000111e-01,5.382088100000000000e+09
6.600000000000000000e+01,2.700000000000000000e+01,2.400000000000000000e+01,2.600000000000000000e+01,2.300000000000000000e+01,5.600000000000000000e+01,3.900000000000000000e+01,5.200000000000000000e+01,4.500000000000000111e-01,5.400920800000000000e+09
6.800000000000000000e+01,2.400000000000000000e+01,2.400000000000000000e+01,2.500000000000000000e+01,2.500000000000000000e+01,5.000000000000000000e+01,4.200000000000000000e+01,5.800000000000000000e+01,4.500000000000000111e-01,5.422943100000000000e+09
6.600000000000000000e+01,2.800000000000000000e+01,2.600000000000000000e+01,2.600000000000000000e+01,2.500000000000000000e+01,5.100000000000000000e+01,4.100000000000000000e+01,5.800000000000000000e+01,4.500000000000000111e-01,5.445388100000000000e+09
6.500000000000000000e+01,2.700000000000000000e+01,2.600000000000000000e+01,2.900000000000000000e+01,2.600000000000000000e+01,5.100000000000000000e+01,4.100000000000000000e+01,5.400000000000000000e+01,4.500000000000000111e-01,5.465163300000000000e+09
4.300000000000000000e+01,2.600000000000000000e+01,2.400000000000000000e+01,2.700000000000000000e+01,2.900000000000000000e+01,5.300000000000000000e+01,4.400000000000000000e+01,4.700000000000000000e+01,4.500000000000000111e-01,5.484262800000000000e+09
5.600000000000000000e+01,2.800000000000000000e+01,2.500000000000000000e+01,2.900000000000000000e+01,2.700000000000000000e+01,4.700000000000000000e+01,4.500000000000000000e+01,6.100000000000000000e+01,4.500000000000000111e-01,5.503197800000000000e+09
7.300000000000000000e+01,3.100000000000000000e+01,2.600000000000000000e+01,2.900000000000000000e+01,2.700000000000000000e+01,4.500000000000000000e+01,4.800000000000000000e+01,6.100000000000000000e+01,4.500000000000000111e-01,5.524700600000000000e+09
7.600000000000000000e+01,2.900000000000000000e+01,2.400000000000000000e+01,2.900000000000000000e+01,2.600000000000000000e+01,5.200000000000000000e+01,4.700000000000000000e+01,6.300000000000000000e+01,4.500000000000000111e-01,5.543193900000000000e+09
7.500000000000000000e+01,2.900000000000000000e+01,2.400000000000000000e+01,2.800000000000000000e+01,3.100000000000000000e+01,4.600000000000000000e+01,4.500000000000000000e+01,6.900000000000000000e+01,4.500000000000000111e-01,5.561144500000000000e+09
7.600000000000000000e+01,3.100000000000000000e+01,2.600000000000000000e+01,2.900000000000000000e+01,2.700000000000000000e+01,4.600000000000000000e+01,4.700000000000000000e+01,6.900000000000000000e+01,4.500000000000000111e-01,5.580363900000000000e+09
6.800000000000000000e+01,3.100000000000000000e+01,2.500000000000000000e+01,2.500000000000000000e+01,2.800000000000000000e+01,5.000000000000000000e+01,5.100000000000000000e+01,5.800000000000000000e+01,4.500000000000000111e-01,5.602417700000000000e+09
5.100000000000000000e+01,3.100000000000000000e+01,2.500000000000000000e+01,2.600000000000000000e+01,2.800000000000000000e+01,4.900000000000000000e+01,4.600000000000000000e+01,6.100000000000000000e+01,4.500000000000000111e-01,5.624990900000000000e+09
4.900000000000000000e+01,2.900000000000000000e+01,2.600000000000000000e+01,2.500000000000000000e+01,2.800000000000000000e+01,4.000000000000000000e+01,4.700000000000000000e+01,6.200000000000000000e+01,4.500000000000000111e-01,5.643367600000000000e+09
9.800000000000000000e+01,2.800000000000000000e+01,2.700000000000000000e+01,2.300000000000000000e+01,2.300000000000000000e+01,5.400000000000000000e+01,4.600000000000000000e+01,5.900000000000000000e+01,4.500000000000000111e-01,5.661594400000000000e+09
1.060000000000000000e+02,2.800000000000000000e+01,2.300000000000000000e+01,2.200000000000000000e+01,2.200000000000000000e+01,5.500000000000000000e+01,4.200000000000000000e+01,6.100000000000000000e+01,4.500000000000000111e-01,5.680226500000000000e+09
1.090000000000000000e+02,2.700000000000000000e+01,2.800000000000000000e+01,2.100000000000000000e+01,2.300000000000000000e+01,5.300000000000000000e+01,3.400000000000000000e+01,5.800000000000000000e+01,4.500000000000000111e-01,5.702576500000000000e+09
1.080000000000000000e+02,2.500000000000000000e+01,2.700000000000000000e+01,2.500000000000000000e+01,2.200000000000000000e+01,5.200000000000000000e+01,3.400000000000000000e+01,6.200000000000000000e+01,4.500000000000000111e-01,5.724690300000000000e+09
1.100000000000000000e+02,2.400000000000000000e+01,2.600000000000000000e+01,2.400000000000000000e+01,2.400000000000000000e+01,5.100000000000000000e+01,3.400000000000000000e+01,6.500000000000000000e+01,4.500000000000000111e-01,5.743615600000000000e+09
7.600000000000000000e+01,2.700000000000000000e+01,2.400000000000000000e+01,2.500000000000000000e+01,2.400000000000000000e+01,4.400000000000000000e+01,4.000000000000000000e+01,6.100000000000000000e+01,4.500000000000000111e-01,5.763911500000000000e+09
6.500000000000000000e+01,2.900000000000000000e+01,2.400000000000000000e+01,2.600000000000000000e+01,2.500000000000000000e+01,4.200000000000000000e+01,4.300000000000000000e+01,7.100000000000000000e+01,4.400000000000000022e-01,5.782415000000000000e+09
5.900000000000000000e+01,2.600000000000000000e+01,2.300000000000000000e+01,2.700000000000000000e+01,3.000000000000000000e+01,4.200000000000000000e+01,4.600000000000000000e+01,7.300000000000000000e+01,4.400000000000000022e-01,5.802236800000000000e+09
7.100000000000000000e+01,2.600000000000000000e+01,2.300000000000000000e+01,2.900000000000000000e+01,3.100000000000000000e+01,4.100000000000000000e+01,4.400000000000000000e+01,6.300000000000000000e+01,4.400000000000000022e-01,5.824451000000000000e+09
6.500000000000000000e+01,2.800000000000000000e+01,2.300000000000000000e+01,3.000000000000000000e+01,2.900000000000000000e+01,5.200000000000000000e+01,4.800000000000000000e+01,6.300000000000000000e+01,4.400000000000000022e-01,5.843101100000000000e+09
6.800000000000000000e+01,2.600000000000000000e+01,2.700000000000000000e+01,5.600000000000000000e+01,3.000000000000000000e+01,4.600000000000000000e+01,4.300000000000000000e+01,7.900000000000000000e+01,4.400000000000000022e-01,5.862417000000000000e+09
7.700000000000000000e+01,4.000000000000000000e+01,3.000000000000000000e+01,7.100000000000000000e+01,3.300000000000000000e+01,4.500000000000000000e+01,3.700000000000000000e+01,7.200000000000000000e+01,4.400000000000000022e-01,5.882196400000000000e+09
8.700000000000000000e+01,4.600000000000000000e+01,6.600000000000000000e+01,1.300000000000000000e+02,2.900000000000000000e+01,4.700000000000000000e+01,3.700000000000000000e+01,7.400000000000000000e+01,4.500000000000000111e-01,5.902328600000000000e+09
7.700000000000000000e+01,4.800000000000000000e+01,8.600000000000000000e+01,1.320000000000000000e+02,2.800000000000000000e+01,4.700000000000000000e+01,4.100000000000000000e+01,8.600000000000000000e+01,4.600000000000000200e-01,5.924382600000000000e+09
8.200000000000000000e+01,5.200000000000000000e+01,1.480000000000000000e+02,1.490000000000000000e+02,3.500000000000000000e+01,3.600000000000000000e+01,3.900000000000000000e+01,8.600000000000000000e+01,4.699999999999999734e-01,5.942833900000000000e+09
7.400000000000000000e+01,5.500000000000000000e+01,1.530000000000000000e+02,1.520000000000000000e+02,3.600000000000000000e+01,4.500000000000000000e+01,4.100000000000000000e+01,7.400000000000000000e+01,4.799999999999999822e-01,5.962471500000000000e+09
6.600000000000000000e+01,4.800000000000000000e+01,1.760000000000000000e+02,1.610000000000000000e+02,3.700000000000000000e+01,4.600000000000000000e+01,4.100000000000000000e+01,7.600000000000000000e+01,4.799999999999999822e-01,5.991759900000000000e+09
9.600000000000000000e+01,4.300000000000000000e+01,1.750000000000000000e+02,1.350000000000000000e+02,3.900000000000000000e+01,4.300000000000000000e+01,3.700000000000000000e+01,8.000000000000000000e+01,4.899999999999999911e-01,6.011209400000000000e+09
9.800000000000000000e+01,4.500000000000000000e+01,2.030000000000000000e+02,1.380000000000000000e+02,4.200000000000000000e+01,4.700000000000000000e+01,3.300000000000000000e+01,6.700000000000000000e+01,5.000000000000000000e-01,6.029295100000000000e+09
9.500000000000000000e+01,4.500000000000000000e+01,1.710000000000000000e+02,1.460000000000000000e+02,4.100000000000000000e+01,4.600000000000000000e+01,2.800000000000000000e+01,6.300000000000000000e+01,5.100000000000000089e-01,6.047636900000000000e+09
9.500000000000000000e+01,4.500000000000000000e+01,1.880000000000000000e+02,1.460000000000000000e+02,4.300000000000000000e+01,3.800000000000000000e+01,2.700000000000000000e+01,6.100000000000000000e+01,5.200000000000000178e-01,6.065776200000000000e+09
9.400000000000000000e+01,5.400000000000000000e+01,2.140000000000000000e+02,1.520000000000000000e+02,4.000000000000000000e+01,3.400000000000000000e+01,2.500000000000000000e+01,5.400000000000000000e+01,5.300000000000000266e-01,6.085326000000000000e+09
5.000000000000000000e+01,6.600000000000000000e+01,2.300000000000000000e+02,1.570000000000000000e+02,5.700000000000000000e+01,4.800000000000000000e+01,3.500000000000000000e+01,6.000000000000000000e+01,5.400000000000000355e-01,6.103624600000000000e+09
4.400000000000000000e+01,7.600000000000000000e+01,2.140000000000000000e+02,1.570000000000000000e+02,6.500000000000000000e+01,6.800000000000000000e+01,3.600000000000000000e+01,6.300000000000000000e+01,5.500000000000000444e-01,6.122487800000000000e+09
5.000000000000000000e+01,8.800000000000000000e+01,2.750000000000000000e+02,1.500000000000000000e+02,7.200000000000000000e+01,7.300000000000000000e+01,4.100000000000000000e+01,6.300000000000000000e+01,5.600000000000000533e-01,6.144601800000000000e+09
5.200000000000000000e+01,9.700000000000000000e+01,2.720000000000000000e+02,1.520000000000000000e+02,7.300000000000000000e+01,7.600000000000000000e+01,3.900000000000000000e+01,6.500000000000000000e+01,5.600000000000000533e-01,6.162992400000000000e+09
6.000000000000000000e+01,9.400000000000000000e+01,2.510000000000000000e+02,1.430000000000000000e+02,7.300000000000000000e+01,7.700000000000000000e+01,4.000000000000000000e+01,6.500000000000000000e+01,5.600000000000000533e-01,6.181634100000000000e+09
8.400000000000000000e+01,1.130000000000000000e+02,2.660000000000000000e+02,1.430000000000000000e+02,6.600000000000000000e+01,6.800000000000000000e+01,3.100000000000000000e+01,5.700000000000000000e+01,5.699999999999999512e-01,6.200367400000000000e+09
9.200000000000000000e+01,1.110000000000000000e+02,2.650000000000000000e+02,1.630000000000000000e+02,5.900000000000000000e+01,5.000000000000000000e+01,2.900000000000000000e+01,5.700000000000000000e+01,5.699999999999999512e-01,6.222436500000000000e+09
9.200000000000000000e+01,1.020000000000000000e+02,2.240000000000000000e+02,1.640000000000000000e+02,5.100000000000000000e+01,4.900000000000000000e+01,2.500000000000000000e+01,6.900000000000000000e+01,5.699999999999999512e-01,6.244711000000000000e+09
1.170000000000000000e+02,1.180000000000000000e+02,2.190000000000000000e+02,1.640000000000000000e+02,4.700000000000000000e+01,4.500000000000000000e+01,3.200000000000000000e+01,7.500000000000000000e+01,5.799999999999999600e-01,6.262879000000000000e+09
1.210000000000000000e+02,1.240000000000000000e+02,2.380000000000000000e+02,1.730000000000000000e+02,5.400000000000000000e+01,4.500000000000000000e+01,3.600000000000000000e+01,8.600000000000000000e+01,5.799999999999999600e-01,6.281977100000000000e+09
1.110000000000000000e+02,1.400000000000000000e+02,2.060000000000000000e+02,1.680000000000000000e+02,4.800000000000000000e+01,4.500000000000000000e+01,3.600000000000000000e+01,8.700000000000000000e+01,5.799999999999999600e-01,6.300712900000000000e+09
1.080000000000000000e+02,1.470000000000000000e+02,2.080000000000000000e+02,1.750000000000000000e+02,4.700000000000000000e+01,4.200000000000000000e+01,3.700000000000000000e+01,9.200000000000000000e+01,5.899999999999999689e-01,6.322353300000000000e+09
1.140000000000000000e+02,1.550000000000000000e+02,2.000000000000000000e+02,1.700000000000000000e+02,5.300000000000000000e+01,3.700000000000000000e+01,3.800000000000000000e+01,8.300000000000000000e+01,5.899999999999999689e-01,6.344791500000000000e+09
9.700000000000000000e+01,1.510000000000000000e+02,2.170000000000000000e+02,1.770000000000000000e+02,5.400000000000000000e+01,4.200000000000000000e+01,3.600000000000000000e+01,7.900000000000000000e+01,5.899999999999999689e-01,6.363112100000000000e+09
1.660000000000000000e+02,1.800000000000000000e+02,1.790000000000000000e+02,1.620000000000000000e+02,5.000000000000000000e+01,4.400000000000000000e+01,3.300000000000000000e+01,9.700000000000000000e+01,5.899999999999999689e-01,6.381984200000000000e+09
1.630000000000000000e+02,1.690000000000000000e+02,1.820000000000000000e+02,1.620000000000000000e+02,4.900000000000000000e+01,4.300000000000000000e+01,3.500000000000000000e+01,9.700000000000000000e+01,5.999999999999999778e-01,6.400361100000000000e+09
1.650000000000000000e+02,1.730000000000000000e+02,1.730000000000000000e+02,1.340000000000000000e+02,4.600000000000000000e+01,4.400000000000000000e+01,3.500000000000000000e+01,9.600000000000000000e+01,5.999999999999999778e-01,6.422299600000000000e+09
1.620000000000000000e+02,1.700000000000000000e+02,1.640000000000000000e+02,1.340000000000000000e+02,3.600000000000000000e+01,4.300000000000000000e+01,3.300000000000000000e+01,9.700000000000000000e+01,5.999999999999999778e-01,6.444489700000000000e+09
1.580000000000000000e+02,1.610000000000000000e+02,1.540000000000000000e+02,1.400000000000000000e+02,3.500000000000000000e+01,4.500000000000000000e+01,3.100000000000000000e+01,9.800000000000000000e+01,5.999999999999999778e-01,6.462357000000000000e+09
8.900000000000000000e+01,1.390000000000000000e+02,1.690000000000000000e+02,1.460000000000000000e+02,3.100000000000000000e+01,4.500000000000000000e+01,3.200000000000000000e+01,7.100000000000000000e+01,6.099999999999999867e-01,6.480792800000000000e+09
1.040000000000000000e+02,1.330000000000000000e+02,1.550000000000000000e+02,1.640000000000000000e+02,3.700000000000000000e+01,4.500000000000000000e+01,3.200000000000000000e+01,6.900000000000000000e+01,6.099999999999999867e-01,6.500042200000000000e+09
1.130000000000000000e+02,1.290000000000000000e+02,1.890000000000000000e+02,1.700000000000000000e+02,3.600000000000000000e+01,4.300000000000000000e+01,3.200000000000000000e+01,7.600000000000000000e+01,6.099999999999999867e-01,6.522204600000000000e+09
1.080000000000000000e+02,1.260000000000000000e+02,1.870000000000000000e+02,1.680000000000000000e+02,3.500000000000000000e+01,5.200000000000000000e+01,3.300000000000000000e+01,7.200000000000000000e+01,6.099999999999999867e-01,6.544968300000000000e+09
1.070000000000000000e+02,1.230000000000000000e+02,1.680000000000000000e+02,1.500000000000000000e+02,3.400000000000000000e+01,4.600000000000000000e+01,3.800000000000000000e+01,7.200000000000000000e+01,6.099999999999999867e-01,6.564184800000000000e+09
9.700000000000000000e+01,1.040000000000000000e+02,1.670000000000000000e+02,1.520000000000000000e+02,3.900000000000000000e+01,4.500000000000000000e+01,3.700000000000000000e+01,7.300000000000000000e+01,6.199999999999999956e-01,6.583993500000000000e+09
9.800000000000000000e+01,9.200000000000000000e+01,1.670000000000000000e+02,1.220000000000000000e+02,3.000000000000000000e+01,4.800000000000000000e+01,3.600000000000000000e+01,8.400000000000000000e+01,6.099999999999999867e-01,6.602470000000000000e+09
1.030000000000000000e+02,7.800000000000000000e+01,1.180000000000000000e+02,1.060000000000000000e+02,3.100000000000000000e+01,5.700000000000000000e+01,7.000000000000000000e+01,6.900000000000000000e+01,6.099999999999999867e-01,6.624802900000000000e+09
1.270000000000000000e+02,8.200000000000000000e+01,9.900000000000000000e+01,9.700000000000000000e+01,3.200000000000000000e+01,5.300000000000000000e+01,1.180000000000000000e+02,9.800000000000000000e+01,6.099999999999999867e-01,6.642654800000000000e+09
1.310000000000000000e+02,8.100000000000000000e+01,9.600000000000000000e+01,8.600000000000000000e+01,3.500000000000000000e+01,5.700000000000000000e+01,1.200000000000000000e+02,9.700000000000000000e+01,6.099999999999999867e-01,6.661655600000000000e+09
1.280000000000000000e+02,7.400000000000000000e+01,6.800000000000000000e+01,5.400000000000000000e+01,2.900000000000000000e+01,5.600000000000000000e+01,1.220000000000000000e+02,1.010000000000000000e+02,6.099999999999999867e-01,6.680263700000000000e+09
1.170000000000000000e+02,6.700000000000000000e+01,6.200000000000000000e+01,4.700000000000000000e+01,2.900000000000000000e+01,5.600000000000000000e+01,1.240000000000000000e+02,9.000000000000000000e+01,5.999999999999999778e-01,6.702541600000000000e+09
1.050000000000000000e+02,7.000000000000000000e+01,5.200000000000000000e+01,3.700000000000000000e+01,3.000000000000000000e+01,4.600000000000000000e+01,1.110000000000000000e+02,9.100000000000000000e+01,5.899999999999999689e-01,6.724573300000000000e+09
7.400000000000000000e+01,5.500000000000000000e+01,3.800000000000000000e+01,3.000000000000000000e+01,2.700000000000000000e+01,4.200000000000000000e+01,6.500000000000000000e+01,6.300000000000000000e+01,5.799999999999999600e-01,6.743592800000000000e+09
8.900000000000000000e+01,5.400000000000000000e+01,3.200000000000000000e+01,2.800000000000000000e+01,2.500000000000000000e+01,3.800000000000000000e+01,7.600000000000000000e+01,7.100000000000000000e+01,5.799999999999999600e-01,6.761841500000000000e+09
9.900000000000000000e+01,5.500000000000000000e+01,2.800000000000000000e+01,2.600000000000000000e+01,2.600000000000000000e+01,4.000000000000000000e+01,1.040000000000000000e+02,6.800000000000000000e+01,5.699999999999999512e-01,6.781036900000000000e+09
1.030000000000000000e+02,5.400000000000000000e+01,2.500000000000000000e+01,2.800000000000000000e+01,2.700000000000000000e+01,3.900000000000000000e+01,1.140000000000000000e+02,8.200000000000000000e+01,5.600000000000000533e-01,6.803268300000000000e+09
9.900000000000000000e+01,4.300000000000000000e+01,2.500000000000000000e+01,2.700000000000000000e+01,2.600000000000000000e+01,3.900000000000000000e+01,1.140000000000000000e+02,9.000000000000000000e+01,5.400000000000000355e-01,6.825489400000000000e+09
9.700000000000000000e+01,4.200000000000000000e+01,2.400000000000000000e+01,2.800000000000000000e+01,2.700000000000000000e+01,3.900000000000000000e+01,1.150000000000000000e+02,9.500000000000000000e+01,5.300000000000000266e-01,6.843276100000000000e+09
7.600000000000000000e+01,3.600000000000000000e+01,2.400000000000000000e+01,2.800000000000000000e+01,2.600000000000000000e+01,4.500000000000000000e+01,1.090000000000000000e+02,8.600000000000000000e+01,5.300000000000000266e-01,6.861762400000000000e+09
8.200000000000000000e+01,3.500000000000000000e+01,2.500000000000000000e+01,3.000000000000000000e+01,2.800000000000000000e+01,4.400000000000000000e+01,8.200000000000000000e+01,9.500000000000000000e+01,5.200000000000000178e-01,6.880956600000000000e+09
8.300000000000000000e+01,3.300000000000000000e+01,2.500000000000000000e+01,2.800000000000000000e+01,2.700000000000000000e+01,4.600000000000000000e+01,7.000000000000000000e+01,9.000000000000000000e+01,5.100000000000000089e-01,6.903895000000000000e+09
8.200000000000000000e+01,4.100000000000000000e+01,2.300000000000000000e+01,3.000000000000000000e+01,2.700000000000000000e+01,4.700000000000000000e+01,7.500000000000000000e+01,8.600000000000000000e+01,5.000000000000000000e-01,6.925557000000000000e+09
8.100000000000000000e+01,4.200000000000000000e+01,2.300000000000000000e+01,3.000000000000000000e+01,2.800000000000000000e+01,4.900000000000000000e+01,7.000000000000000000e+01,7.900000000000000000e+01,5.000000000000000000e-01,6.943568200000000000e+09
8.000000000000000000e+01,4.400000000000000000e+01,2.500000000000000000e+01,3.500000000000000000e+01,2.900000000000000000e+01,4.600000000000000000e+01,6.600000000000000000e+01,8.700000000000000000e+01,4.899999999999999911e-01,6.962811400000000000e+09
6.200000000000000000e+01,4.700000000000000000e+01,2.500000000000000000e+01,3.200000000000000000e+01,2.700000000000000000e+01,4.400000000000000000e+01,6.700000000000000000e+01,7.700000000000000000e+01,4.899999999999999911e-01,6.982771800000000000e+09
5.300000000000000000e+01,4.700000000000000000e+01,2.700000000000000000e+01,3.300000000000000000e+01,2.700000000000000000e+01,4.000000000000000000e+01,6.800000000000000000e+01,6.900000000000000000e+01,4.799999999999999822e-01,7.003145300000000000e+09
8.500000000000000000e+01,4.400000000000000000e+01,2.800000000000000000e+01,3.100000000000000000e+01,2.800000000000000000e+01,4.600000000000000000e+01,6.300000000000000000e+01,7.200000000000000000e+01,4.799999999999999822e-01,7.025413900000000000e+09
8.700000000000000000e+01,4.700000000000000000e+01,2.600000000000000000e+01,3.100000000000000000e+01,2.900000000000000000e+01,5.400000000000000000e+01,6.400000000000000000e+01,7.300000000000000000e+01,4.799999999999999822e-01,7.044267800000000000e+09
8.900000000000000000e+01,4.800000000000000000e+01,2.600000000000000000e+01,3.100000000000000000e+01,2.800000000000000000e+01,5.000000000000000000e+01,6.400000000000000000e+01,6.100000000000000000e+01,4.699999999999999734e-01,7.063573800000000000e+09
9.300000000000000000e+01,4.300000000000000000e+01,2.600000000000000000e+01,3.200000000000000000e+01,2.600000000000000000e+01,5.200000000000000000e+01,6.800000000000000000e+01,7.100000000000000000e+01,4.699999999999999734e-01,7.082532600000000000e+09
1.070000000000000000e+02,4.300000000000000000e+01,2.400000000000000000e+01,3.200000000000000000e+01,2.600000000000000000e+01,5.400000000000000000e+01,6.400000000000000000e+01,7.100000000000000000e+01,4.699999999999999734e-01,7.102383700000000000e+09
8.400000000000000000e+01,3.800000000000000000e+01,2.600000000000000000e+01,3.100000000000000000e+01,3.000000000000000000e+01,5.100000000000000000e+01,5.600000000000000000e+01,6.300000000000000000e+01,4.699999999999999734e-01,7.120494700000000000e+09
8.300000000000000000e+01,3.300000000000000000e+01,2.800000000000000000e+01,3.400000000000000000e+01,2.900000000000000000e+01,3.800000000000000000e+01,5.300000000000000000e+01,6.000000000000000000e+01,4.699999999999999734e-01,7.139034400000000000e+09
8.400000000000000000e+01,3.500000000000000000e+01,2.800000000000000000e+01,2.900000000000000000e+01,2.800000000000000000e+01,4.000000000000000000e+01,5.300000000000000000e+01,7.100000000000000000e+01,4.699999999999999734e-01,7.158038300000000000e+09
8.100000000000000000e+01,3.500000000000000000e+01,2.600000000000000000e+01,2.800000000000000000e+01,2.800000000000000000e+01,3.700000000000000000e+01,5.200000000000000000e+01,5.600000000000000000e+01,4.699999999999999734e-01,7.180226900000000000e+09
5.800000000000000000e+01,3.700000000000000000e+01,2.800000000000000000e+01,2.800000000000000000e+01,2.700000000000000000e+01,3.400000000000000000e+01,4.900000000000000000e+01,5.600000000000000000e+01,4.600000000000000200e-01,7.202378400000000000e+09
4.800000000000000000e+01,3.700000000000000000e+01,2.600000000000000000e+01,3.700000000000000000e+01,2.500000000000000000e+01,3.100000000000000000e+01,5.100000000000000000e+01,5.400000000000000000e+01,4.600000000000000200e-01,7.224968400000000000e+09
4.700000000000000000e+01,3.400000000000000000e+01,2.500000000000000000e+01,4.200000000000000000e+01,2.400000000000000000e+01,3.100000000000000000e+01,5.300000000000000000e+01,5.500000000000000000e+01,4.600000000000000200e-01,7.242898400000000000e+09
4.200000000000000000e+01,3.000000000000000000e+01,2.400000000000000000e+01,4.000000000000000000e+01,2.800000000000000000e+01,3.700000000000000000e+01,5.100000000000000000e+01,5.500000000000000000e+01,4.600000000000000200e-01,7.261020300000000000e+09
3.900000000000000000e+01,3.500000000000000000e+01,2.600000000000000000e+01,4.000000000000000000e+01,2.900000000000000000e+01,4.600000000000000000e+01,5.600000000000000000e+01,6.000000000000000000e+01,4.600000000000000200e-01,7.280098200000000000e+09
5.300000000000000000e+01,3.400000000000000000e+01,2.300000000000000000e+01,4.100000000000000000e+01,2.900000000000000000e+01,5.200000000000000000e+01,5.700000000000000000e+01,6.500000000000000000e+01,4.600000000000000200e-01,7.302431300000000000e+09
7.000000000000000000e+01,3.400000000000000000e+01,2.400000000000000000e+01,3.500000000000000000e+01,2.800000000000000000e+01,5.300000000000000000e+01,5.500000000000000000e+01,7.900000000000000000e+01,4.600000000000000200e-01,7.324546800000000000e+09
8.500000000000000000e+01,4.000000000000000000e+01,2.300000000000000000e+01,2.500000000000000000e+01,2.700000000000000000e+01,5.700000000000000000e+01,5.800000000000000000e+01,8.700000000000000000e+01,4.600000000000000200e-01,7.343651200000000000e+09
9.500000000000000000e+01,4.100000000000000000e+01,2.300000000000000000e+01,2.600000000000000000e+01,2.400000000000000000e+01,5.700000000000000000e+01,5.800000000000000000e+01,8.000000000000000000e+01,4.600000000000000200e-01,7.363798500000000000e+09
9.600000000000000000e+01,3.700000000000000000e+01,2.100000000000000000e+01,2.900000000000000000e+01,2.700000000000000000e+01,5.000000000000000000e+01,4.700000000000000000e+01,7.700000000000000000e+01,4.600000000000000200e-01,7.381859100000000000e+09
1.060000000000000000e+02,4.100000000000000000e+01,2.400000000000000000e+01,2.800000000000000000e+01,2.900000000000000000e+01,4.300000000000000000e+01,4.700000000000000000e+01,8.100000000000000000e+01,4.600000000000000200e-01,7.401387200000000000e+09
1.010000000000000000e+02,4.100000000000000000e+01,2.400000000000000000e+01,2.600000000000000000e+01,2.700000000000000000e+01,3.800000000000000000e+01,4.800000000000000000e+01,6.700000000000000000e+01,4.600000000000000200e-01,7.423505700000000000e+09
9.300000000000000000e+01,4.000000000000000000e+01,2.400000000000000000e+01,2.500000000000000000e+01,2.600000000000000000e+01,3.300000000000000000e+01,4.500000000000000000e+01,5.700000000000000000e+01,4.600000000000000200e-01,7.445477200000000000e+09
9.600000000000000000e+01,3.700000000000000000e+01,2.500000000000000000e+01,2.700000000000000000e+01,2.600000000000000000e+01,3.600000000000000000e+01,5.200000000000000000e+01,5.600000000000000000e+01,4.600000000000000200e-01,7.463586400000000000e+09
9.500000000000000000e+01,4.300000000000000000e+01,2.600000000000000000e+01,2.800000000000000000e+01,3.100000000000000000e+01,4.300000000000000000e+01,5.100000000000000000e+01,5.200000000000000000e+01,4.600000000000000200e-01,7.482759400000000000e+09
8.600000000000000000e+01,3.700000000000000000e+01,2.400000000000000000e+01,3.000000000000000000e+01,3.000000000000000000e+01,4.600000000000000000e+01,5.300000000000000000e+01,3.600000000000000000e+01,4.600000000000000200e-01,7.500689300000000000e+09
8.200000000000000000e+01,4.200000000000000000e+01,2.600000000000000000e+01,3.500000000000000000e+01,3.000000000000000000e+01,4.900000000000000000e+01,6.400000000000000000e+01,3.600000000000000000e+01,4.600000000000000200e-01,7.521751900000000000e+09
7.800000000000000000e+01,3.800000000000000000e+01,2.800000000000000000e+01,3.500000000000000000e+01,3.200000000000000000e+01,4.800000000000000000e+01,7.000000000000000000e+01,4.500000000000000000e+01,4.600000000000000200e-01,7.544174600000000000e+09
6.900000000000000000e+01,4.200000000000000000e+01,2.900000000000000000e+01,3.400000000000000000e+01,3.200000000000000000e+01,4.000000000000000000e+01,6.500000000000000000e+01,4.600000000000000000e+01,4.600000000000000200e-01,7.563032900000000000e+09
7.300000000000000000e+01,3.900000000000000000e+01,2.900000000000000000e+01,3.300000000000000000e+01,2.800000000000000000e+01,3.500000000000000000e+01,6.200000000000000000e+01,5.100000000000000000e+01,4.600000000000000200e-01,7.581870600000000000e+09
6.000000000000000000e+01,4.200000000000000000e+01,2.900000000000000000e+01,3.200000000000000000e+01,3.000000000000000000e+01,3.200000000000000000e+01,6.200000000000000000e+01,5.100000000000000000e+01,4.600000000000000200e-01,7.600889000000000000e+09
5.700000000000000000e+01,3.800000000000000000e+01,2.600000000000000000e+01,2.900000000000000000e+01,2.900000000000000000e+01,2.700000000000000000e+01,5.300000000000000000e+01,5.700000000000000000e+01,4.600000000000000200e-01,7.622074700000000000e+09
5.800000000000000000e+01,4.300000000000000000e+01,3.000000000000000000e+01,3.000000000000000000e+01,2.800000000000000000e+01,2.800000000000000000e+01,4.700000000000000000e+01,5.600000000000000000e+01,4.600000000000000200e-01,7.644051500000000000e+09
6.200000000000000000e+01,3.900000000000000000e+01,2.900000000000000000e+01,2.900000000000000000e+01,2.700000000000000000e+01,2.800000000000000000e+01,4.900000000000000000e+01,5.900000000000000000e+01,4.600000000000000200e-01,7.662868100000000000e+09
7.800000000000000000e+01,3.800000000000000000e+01,3.300000000000000000e+01,2.900000000000000000e+01,2.600000000000000000e+01,3.000000000000000000e+01,5.000000000000000000e+01,5.800000000000000000e+01,4.600000000000000200e-01,7.681236500000000000e+09
8.100000000000000000e+01,3.400000000000000000e+01,3.200000000000000000e+01,3.000000000000000000e+01,2.400000000000000000e+01,3.400000000000000000e+01,5.400000000000000000e+01,6.500000000000000000e+01,4.600000000000000200e-01,7.700089500000000000e+09
8.300000000000000000e+01,3.800000000000000000e+01,3.300000000000000000e+01,2.900000000000000000e+01,3.000000000000000000e+01,3.700000000000000000e+01,5.000000000000000000e+01,6.600000000000000000e+01,4.600000000000000200e-01,7.721844800000000000e+09
8.700000000000000000e+01,3.600000000000000000e+01,2.900000000000000000e+01,2.500000000000000000e+01,2.900000000000000000e+01,4.000000000000000000e+01,4.600000000000000000e+01,6.300000000000000000e+01,4.600000000000000200e-01,7.744299200000000000e+09
8.300000000000000000e+01,3.500000000000000000e+01,3.100000000000000000e+01,2.900000000000000000e+01,3.100000000000000000e+01,4.700000000000000000e+01,4.800000000000000000e+01,6.200000000000000000e+01,4.600000000000000200e-01,7.762616300000000000e+09
9.800000000000000000e+01,3.700000000000000000e+01,2.900000000000000000e+01,2.800000000000000000e+01,3.500000000000000000e+01,4.700000000000000000e+01,5.300000000000000000e+01,6.100000000000000000e+01,4.600000000000000200e-01,7.782180800000000000e+09
9.600000000000000000e+01,3.800000000000000000e+01,3.000000000000000000e+01,3.100000000000000000e+01,3.600000000000000000e+01,4.500000000000000000e+01,4.700000000000000000e+01,5.300000000000000000e+01,4.600000000000000200e-01,7.801104500000000000e+09
9.900000000000000000e+01,3.700000000000000000e+01,3.200000000000000000e+01,3.100000000000000000e+01,3.900000000000000000e+01,4.700000000000000000e+01,4.800000000000000000e+01,4.900000000000000000e+01,4.600000000000000200e-01,7.821707100000000000e+09
9.700000000000000000e+01,3.700000000000000000e+01,3.200000000000000000e+01,3.300000000000000000e+01,3.900000000000000000e+01,4.700000000000000000e+01,4.800000000000000000e+01,4.400000000000000000e+01,4.600000000000000200e-01,7.844031000000000000e+09
9.500000000000000000e+01,3.900000000000000000e+01,2.900000000000000000e+01,3.100000000000000000e+01,3.700000000000000000e+01,4.900000000000000000e+01,4.400000000000000000e+01,4.300000000000000000e+01,4.600000000000000200e-01,7.862559400000000000e+09
6.100000000000000000e+01,3.500000000000000000e+01,2.700000000000000000e+01,3.000000000000000000e+01,3.100000000000000000e+01,5.300000000000000000e+01,4.100000000000000000e+01,3.800000000000000000e+01,4.600000000000000200e-01,7.882772100000000000e+09
6.200000000000000000e+01,3.600000000000000000e+01,2.800000000000000000e+01,2.700000000000000000e+01,3.400000000000000000e+01,5.300000000000000000e+01,4.800000000000000000e+01,3.600000000000000000e+01,4.600000000000000200e-01,7.901116400000000000e+09
5.600000000000000000e+01,3.500000000000000000e+01,2.400000000000000000e+01,2.500000000000000000e+01,2.800000000000000000e+01,5.200000000000000000e+01,5.100000000000000000e+01,3.300000000000000000e+01,4.600000000000000200e-01,7.921803300000000000e+09
5.000000000000000000e+01,3.200000000000000000e+01,2.800000000000000000e+01,2.500000000000000000e+01,2.900000000000000000e+01,6.800000000000000000e+01,5.500000000000000000e+01,3.200000000000000000e+01,4.600000000000000200e-01,7.944213000000000000e+09
4.500000000000000000e+01,3.300000000000000000e+01,3.100000000000000000e+01,2.400000000000000000e+01,3.000000000000000000e+01,2.000000000000000000e+02,5.300000000000000000e+01,7.000000000000000000e+01,4.600000000000000200e-01,7.964751900000000000e+09
5.000000000000000000e+01,3.500000000000000000e+01,3.000000000000000000e+01,2.600000000000000000e+01,3.100000000000000000e+01,2.210000000000000000e+02,5.400000000000000000e+01,7.300000000000000000e+01,4.600000000000000200e-01,7.983018900000000000e+09
5.200000000000000000e+01,3.500000000000000000e+01,2.900000000000000000e+01,2.400000000000000000e+01,3.200000000000000000e+01,2.250000000000000000e+02,4.900000000000000000e+01,7.700000000000000000e+01,4.600000000000000200e-01,8.003251800000000000e+09
8.600000000000000000e+01,3.400000000000000000e+01,3.100000000000000000e+01,3.900000000000000000e+01,3.000000000000000000e+01,2.240000000000000000e+02,4.700000000000000000e+01,7.700000000000000000e+01,4.600000000000000200e-01,8.023125600000000000e+09
8.800000000000000000e+01,3.600000000000000000e+01,2.800000000000000000e+01,4.500000000000000000e+01,3.300000000000000000e+01,2.220000000000000000e+02,4.300000000000000000e+01,8.900000000000000000e+01,4.600000000000000200e-01,8.045250000000000000e+09
9.000000000000000000e+01,3.800000000000000000e+01,2.600000000000000000e+01,5.200000000000000000e+01,3.300000000000000000e+01,1.150000000000000000e+02,5.400000000000000000e+01,6.200000000000000000e+01,4.600000000000000200e-01,8.064151100000000000e+09
8.600000000000000000e+01,3.500000000000000000e+01,2.600000000000000000e+01,5.200000000000000000e+01,3.200000000000000000e+01,6.100000000000000000e+01,5.200000000000000000e+01,6.400000000000000000e+01,4.600000000000000200e-01,8.082309300000000000e+09
8.900000000000000000e+01,3.800000000000000000e+01,2.900000000000000000e+01,5.200000000000000000e+01,2.900000000000000000e+01,4.800000000000000000e+01,5.600000000000000000e+01,6.800000000000000000e+01,4.699999999999999734e-01,8.100892700000000000e+09
7.400000000000000000e+01,3.800000000000000000e+01,2.800000000000000000e+01,4.400000000000000000e+01,3.100000000000000000e+01,5.800000000000000000e+01,5.700000000000000000e+01,7.000000000000000000e+01,4.699999999999999734e-01,8.123015400000000000e+09
8.900000000000000000e+01,3.700000000000000000e+01,2.700000000000000000e+01,3.600000000000000000e+01,2.700000000000000000e+01,4.900000000000000000e+01,6.100000000000000000e+01,6.200000000000000000e+01,4.699999999999999734e-01,8.145189800000000000e+09
9.300000000000000000e+01,3.500000000000000000e+01,2.800000000000000000e+01,2.800000000000000000e+01,3.000000000000000000e+01,4.700000000000000000e+01,4.900000000000000000e+01,6.400000000000000000e+01,4.699999999999999734e-01,8.164039100000000000e+09
1.060000000000000000e+02,3.800000000000000000e+01,2.800000000000000000e+01,2.900000000000000000e+01,3.200000000000000000e+01,5.300000000000000000e+01,5.100000000000000000e+01,6.700000000000000000e+01,4.699999999999999734e-01,8.182608700000000000e+09
1.040000000000000000e+02,3.400000000000000000e+01,2.500000000000000000e+01,2.900000000000000000e+01,2.900000000000000000e+01,5.400000000000000000e+01,4.500000000000000000e+01,5.900000000000000000e+01,4.699999999999999734e-01,8.201651800000000000e+09
1.340000000000000000e+02,3.500000000000000000e+01,2.700000000000000000e+01,2.900000000000000000e+01,3.300000000000000000e+01,4.800000000000000000e+01,4.200000000000000000e+01,6.400000000000000000e+01,4.600000000000000200e-01,8.223126200000000000e+09
1.260000000000000000e+02,3.700000000000000000e+01,2.800000000000000000e+01,3.200000000000000000e+01,3.600000000000000000e+01,5.200000000000000000e+01,4.000000000000000000e+01,7.000000000000000000e+01,4.600000000000000200e-01,8.245351100000000000e+09
1.280000000000000000e+02,3.700000000000000000e+01,3.300000000000000000e+01,3.200000000000000000e+01,3.600000000000000000e+01,5.600000000000000000e+01,4.000000000000000000e+01,7.200000000000000000e+01,4.600000000000000200e-01,8.263991600000000000e+09
1.240000000000000000e+02,3.600000000000000000e+01,3.200000000000000000e+01,3.200000000000000000e+01,3.400000000000000000e+01,5.400000000000000000e+01,3.900000000000000000e+01,6.700000000000000000e+01,4.600000000000000200e-01,8.282079500000000000e+09
1.240000000000000000e+02,3.600000000000000000e+01,3.400000000000000000e+01,3.100000000000000000e+01,3.700000000000000000e+01,5.900000000000000000e+01,3.800000000000000000e+01,6.600000000000000000e+01,4.600000000000000200e-01,8.300815500000000000e+09
8.900000000000000000e+01,3.300000000000000000e+01,3.200000000000000000e+01,2.900000000000000000e+01,3.300000000000000000e+01,5.500000000000000000e+01,4.100000000000000000e+01,7.200000000000000000e+01,4.500000000000000111e-01,8.322884500000000000e+09
9.900000000000000000e+01,3.000000000000000000e+01,3.200000000000000000e+01,3.300000000000000000e+01,2.900000000000000000e+01,5.500000000000000000e+01,3.700000000000000000e+01,5.900000000000000000e+01,4.500000000000000111e-01,8.345335300000000000e+09
9.700000000000000000e+01,3.100000000000000000e+01,2.700000000000000000e+01,3.400000000000000000e+01,2.500000000000000000e+01,5.400000000000000000e+01,3.800000000000000000e+01,5.400000000000000000e+01,4.500000000000000111e-01,8.364170800000000000e+09
9.600000000000000000e+01,3.700000000000000000e+01,2.700000000000000000e+01,3.600000000000000000e+01,3.000000000000000000e+01,5.200000000000000000e+01,3.500000000000000000e+01,5.800000000000000000e+01,4.500000000000000111e-01,8.381951700000000000e+09
1.110000000000000000e+02,4.200000000000000000e+01,2.400000000000000000e+01,3.900000000000000000e+01,2.800000000000000000e+01,4.700000000000000000e+01,4.300000000000000000e+01,8.500000000000000000e+01,4.500000000000000111e-01,8.401168300000000000e+09
1.020000000000000000e+02,4.200000000000000000e+01,2.900000000000000000e+01,4.600000000000000000e+01,2.800000000000000000e+01,4.900000000000000000e+01,4.100000000000000000e+01,7.700000000000000000e+01,4.500000000000000111e-01,8.423142300000000000e+09
9.100000000000000000e+01,4.200000000000000000e+01,5.700000000000000000e+01,9.200000000000000000e+01,3.100000000000000000e+01,4.600000000000000000e+01,4.200000000000000000e+01,7.700000000000000000e+01,4.500000000000000111e-01,8.445267900000000000e+09
9.500000000000000000e+01,4.100000000000000000e+01,6.100000000000000000e+01,9.900000000000000000e+01,3.300000000000000000e+01,4.900000000000000000e+01,4.400000000000000000e+01,8.000000000000000000e+01,4.500000000000000111e-01,8.463251200000000000e+09
9.500000000000000000e+01,3.500000000000000000e+01,6.100000000000000000e+01,1.010000000000000000e+02,3.400000000000000000e+01,4.700000000000000000e+01,4.100000000000000000e+01,8.600000000000000000e+01,4.600000000000000200e-01,8.481984200000000000e+09
7.800000000000000000e+01,2.900000000000000000e+01,6.300000000000000000e+01,1.000000000000000000e+02,3.600000000000000000e+01,4.500000000000000000e+01,4.200000000000000000e+01,6.400000000000000000e+01,4.600000000000000200e-01,8.500948100000000000e+09
7.700000000000000000e+01,3.200000000000000000e+01,6.400000000000000000e+01,1.030000000000000000e+02,3.500000000000000000e+01,4.200000000000000000e+01,4.200000000000000000e+01,6.100000000000000000e+01,4.699999999999999734e-01,8.522939800000000000e+09
8.500000000000000000e+01,3.300000000000000000e+01,4.200000000000000000e+01,7.200000000000000000e+01,3.300000000000000000e+01,4.900000000000000000e+01,4.100000000000000000e+01,7.500000000000000000e+01,4.699999999999999734e-01,8.545580400000000000e+09
7.100000000000000000e+01,3.100000000000000000e+01,3.800000000000000000e+01,6.000000000000000000e+01,3.600000000000000000e+01,4.300000000000000000e+01,4.300000000000000000e+01,7.400000000000000000e+01,4.699999999999999734e-01,8.564054300000000000e+09
7.100000000000000000e+01,4.200000000000000000e+01,3.900000000000000000e+01,5.600000000000000000e+01,3.600000000000000000e+01,4.500000000000000000e+01,5.000000000000000000e+01,6.300000000000000000e+01,4.699999999999999734e-01,8.583219100000000000e+09
8.700000000000000000e+01,4.400000000000000000e+01,3.900000000000000000e+01,5.600000000000000000e+01,3.400000000000000000e+01,4.400000000000000000e+01,5.300000000000000000e+01,6.300000000000000000e+01,4.799999999999999822e-01,8.601882700000000000e+09
9.400000000000000000e+01,4.200000000000000000e+01,3.300000000000000000e+01,4.600000000000000000e+01,3.600000000000000000e+01,4.400000000000000000e+01,5.500000000000000000e+01,7.700000000000000000e+01,4.799999999999999822e-01,8.624066300000000000e+09
9.300000000000000000e+01,4.400000000000000000e+01,3.300000000000000000e+01,2.800000000000000000e+01,3.500000000000000000e+01,4.200000000000000000e+01,5.400000000000000000e+01,6.600000000000000000e+01,4.799999999999999822e-01,8.642038600000000000e+09
9.300000000000000000e+01,4.800000000000000000e+01,3.200000000000000000e+01,2.700000000000000000e+01,3.100000000000000000e+01,4.100000000000000000e+01,5.500000000000000000e+01,6.600000000000000000e+01,4.799999999999999822e-01,8.659664800000000000e+09
9.100000000000000000e+01,3.800000000000000000e+01,3.000000000000000000e+01,2.600000000000000000e+01,3.000000000000000000e+01,4.000000000000000000e+01,5.200000000000000000e+01,6.800000000000000000e+01,4.799999999999999822e-01,8.679602600000000000e+09
7.300000000000000000e+01,3.500000000000000000e+01,3.100000000000000000e+01,3.000000000000000000e+01,3.100000000000000000e+01,4.200000000000000000e+01,4.600000000000000000e+01,7.400000000000000000e+01,4.799999999999999822e-01,8.701932600000000000e+09
8.500000000000000000e+01,3.400000000000000000e+01,3.100000000000000000e+01,2.800000000000000000e+01,3.400000000000000000e+01,4.200000000000000000e+01,4.300000000000000000e+01,5.900000000000000000e+01,4.699999999999999734e-01,8.723961700000000000e+09
1.030000000000000000e+02,3.000000000000000000e+01,3.000000000000000000e+01,3.000000000000000000e+01,3.300000000000000000e+01,3.600000000000000000e+01,5.100000000000000000e+01,7.000000000000000000e+01,4.699999999999999734e-01,8.741353900000000000e+09
1.070000000000000000e+02,2.400000000000000000e+01,2.900000000000000000e+01,3.000000000000000000e+01,3.500000000000000000e+01,4.100000000000000000e+01,5.100000000000000000e+01,8.000000000000000000e+01,4.699999999999999734e-01,8.760960200000000000e+09
1.040000000000000000e+02,2.800000000000000000e+01,2.800000000000000000e+01,3.300000000000000000e+01,3.300000000000000000e+01,3.800000000000000000e+01,5.200000000000000000e+01,8.100000000000000000e+01,4.600000000000000200e-01,8.780331100000000000e+09
1.060000000000000000e+02,3.600000000000000000e+01,2.900000000000000000e+01,3.000000000000000000e+01,3.400000000000000000e+01,4.000000000000000000e+01,5.100000000000000000e+01,7.200000000000000000e+01,4.600000000000000200e-01,8.802433300000000000e+09
9.100000000000000000e+01,4.300000000000000000e+01,2.800000000000000000e+01,3.000000000000000000e+01,2.900000000000000000e+01,4.100000000000000000e+01,5.200000000000000000e+01,7.900000000000000000e+01,4.600000000000000200e-01,8.824745900000000000e+09
7.400000000000000000e+01,4.500000000000000000e+01,2.800000000000000000e+01,3.800000000000000000e+01,3.100000000000000000e+01,4.500000000000000000e+01,4.900000000000000000e+01,7.300000000000000000e+01,4.600000000000000200e-01,8.842777600000000000e+09
6.900000000000000000e+01,4.900000000000000000e+01,2.800000000000000000e+01,3.900000000000000000e+01,2.900000000000000000e+01,4.200000000000000000e+01,4.800000000000000000e+01,5.800000000000000000e+01,4.600000000000000200e-01,8.860873000000000000e+09
6.700000000000000000e+01,5.100000000000000000e+01,2.700000000000000000e+01,3.700000000000000000e+01,3.600000000000000000e+01,4.600000000000000000e+01,4.500000000000000000e+01,5.600000000000000000e+01,4.600000000000000200e-01,8.880103200000000000e+09
6.500000000000000000e+01,4.800000000000000000e+01,2.200000000000000000e+01,3.700000000000000000e+01,3.300000000000000000e+01,4.900000000000000000e+01,4.300000000000000000e+01,5.900000000000000000e+01,4.600000000000000200e-01,8.902495100000000000e+09
6.600000000000000000e+01,4.200000000000000000e+01,2.800000000000000000e+01,3.800000000000000000e+01,3.400000000000000000e+01,5.300000000000000000e+01,4.000000000000000000e+01,5.000000000000000000e+01,4.600000000000000200e-01,8.924774100000000000e+09
8.100000000000000000e+01,4.100000000000000000e+01,2.900000000000000000e+01,3.100000000000000000e+01,3.300000000000000000e+01,5.200000000000000000e+01,4.100000000000000000e+01,5.400000000000000000e+01,4.500000000000000111e-01,8.942929300000000000e+09
8.300000000000000000e+01,3.600000000000000000e+01,3.100000000000000000e+01,3.000000000000000000e+01,3.400000000000000000e+01,5.100000000000000000e+01,4.100000000000000000e+01,5.400000000000000000e+01,4.500000000000000111e-01,8.962068300000000000e+09
8.200000000000000000e+01,4.000000000000000000e+01,3.200000000000000000e+01,2.900000000000000000e+01,3.300000000000000000e+01,5.100000000000000000e+01,4.200000000000000000e+01,5.900000000000000000e+01,4.500000000000000111e-01,8.980544600000000000e+09
8.000000000000000000e+01,3.900000000000000000e+01,3.300000000000000000e+01,2.800000000000000000e+01,3.200000000000000000e+01,5.300000000000000000e+01,4.200000000000000000e+01,5.900000000000000000e+01,4.500000000000000111e-01,9.002615400000000000e+09
8.500000000000000000e+01,3.700000000000000000e+01,2.800000000000000000e+01,2.800000000000000000e+01,3.300000000000000000e+01,4.900000000000000000e+01,4.400000000000000000e+01,5.900000000000000000e+01,4.500000000000000111e-01,9.025002500000000000e+09
5.500000000000000000e+01,4.200000000000000000e+01,2.700000000000000000e+01,2.600000000000000000e+01,3.300000000000000000e+01,5.000000000000000000e+01,4.000000000000000000e+01,5.100000000000000000e+01,4.500000000000000111e-01,9.043149700000000000e+09
5.000000000000000000e+01,4.700000000000000000e+01,2.400000000000000000e+01,2.600000000000000000e+01,3.600000000000000000e+01,5.700000000000000000e+01,3.800000000000000000e+01,6.200000000000000000e+01,4.500000000000000111e-01,9.062381500000000000e+09
5.500000000000000000e+01,3.900000000000000000e+01,2.300000000000000000e+01,2.700000000000000000e+01,2.800000000000000000e+01,5.400000000000000000e+01,3.700000000000000000e+01,6.000000000000000000e+01,4.500000000000000111e-01,9.081912000000000000e+09
5.500000000000000000e+01,3.800000000000000000e+01,2.200000000000000000e+01,2.800000000000000000e+01,3.200000000000000000e+01,4.900000000000000000e+01,3.700000000000000000e+01,5.600000000000000000e+01,4.500000000000000111e-01,9.102059600000000000e+09
4.100000000000000000e+01,3.700000000000000000e+01,2.400000000000000000e+01,2.700000000000000000e+01,2.900000000000000000e+01,4.900000000000000000e+01,3.300000000000000000e+01,5.700000000000000000e+01,4.500000000000000111e-01,9.124367800000000000e+09
4.600000000000000000e+01,3.300000000000000000e+01,2.900000000000000000e+01,2.900000000000000000e+01,3.200000000000000000e+01,4.800000000000000000e+01,3.700000000000000000e+01,6.400000000000000000e+01,4.500000000000000111e-01,9.142963800000000000e+09
5.000000000000000000e+01,2.800000000000000000e+01,2.800000000000000000e+01,2.900000000000000000e+01,2.600000000000000000e+01,3.700000000000000000e+01,4.400000000000000000e+01,5.100000000000000000e+01,4.500000000000000111e-01,9.161148100000000000e+09
4.500000000000000000e+01,2.700000000000000000e+01,2.800000000000000000e+01,2.700000000000000000e+01,2.800000000000000000e+01,3.900000000000000000e+01,4.500000000000000000e+01,4.900000000000000000e+01,4.500000000000000111e-01,9.180729300000000000e+09
4.800000000000000000e+01,2.700000000000000000e+01,3.200000000000000000e+01,2.500000000000000000e+01,2.500000000000000000e+01,4.100000000000000000e+01,4.500000000000000000e+01,5.000000000000000000e+01,4.500000000000000111e-01,9.201988900000000000e+09
5.200000000000000000e+01,2.700000000000000000e+01,3.000000000000000000e+01,2.700000000000000000e+01,2.600000000000000000e+01,4.000000000000000000e+01,4.400000000000000000e+01,5.000000000000000000e+01,4.500000000000000111e-01,9.224227700000000000e+09
4.800000000000000000e+01,2.500000000000000000e+01,2.500000000000000000e+01,2.300000000000000000e+01,2.500000000000000000e+01,4.500000000000000000e+01,5.000000000000000000e+01,5.700000000000000000e+01,4.500000000000000111e-01,9.242514000000000000e+09
4.900000000000000000e+01,2.700000000000000000e+01,2.600000000000000000e+01,2.100000000000000000e+01,2.600000000000000000e+01,4.500000000000000000e+01,4.800000000000000000e+01,6.200000000000000000e+01,4.500000000000000111e-01,9.262791700000000000e+09
5.100000000000000000e+01,2.900000000000000000e+01,2.900000000000000000e+01,2.500000000000000000e+01,2.700000000000000000e+01,4.300000000000000000e+01,5.000000000000000000e+01,6.100000000000000000e+01,4.500000000000000111e-01,9.281588200000000000e+09
4.700000000000000000e+01,2.800000000000000000e+01,2.700000000000000000e+01,3.000000000000000000e+01,3.200000000000000000e+01,4.000000000000000000e+01,5.000000000000000000e+01,5.900000000000000000e+01,4.500000000000000111e-01,9.302062500000000000e+09
4.800000000000000000e+01,3.100000000000000000e+01,2.700000000000000000e+01,3.100000000000000000e+01,3.500000000000000000e+01,4.500000000000000000e+01,5.100000000000000000e+01,7.100000000000000000e+01,4.500000000000000111e-01,9.323212400000000000e+09
4.800000000000000000e+01,3.800000000000000000e+01,3.000000000000000000e+01,3.500000000000000000e+01,3.300000000000000000e+01,4.100000000000000000e+01,4.200000000000000000e+01,6.100000000000000000e+01,4.500000000000000111e-01,9.345347400000000000e+09
4.500000000000000000e+01,3.700000000000000000e+01,3.100000000000000000e+01,3.800000000000000000e+01,3.200000000000000000e+01,4.100000000000000000e+01,3.900000000000000000e+01,6.100000000000000000e+01,4.500000000000000111e-01,9.363065700000000000e+09
7.000000000000000000e+01,4.200000000000000000e+01,2.800000000000000000e+01,3.700000000000000000e+01,3.500000000000000000e+01,4.200000000000000000e+01,4.300000000000000000e+01,6.800000000000000000e+01,4.500000000000000111e-01,9.381843100000000000e+09
7.200000000000000000e+01,4.500000000000000000e+01,3.000000000000000000e+01,3.800000000000000000e+01,3.100000000000000000e+01,4.200000000000000000e+01,4.100000000000000000e+01,6.900000000000000000e+01,4.500000000000000111e-01,9.401948000000000000e+09
7.500000000000000000e+01,4.600000000000000000e+01,3.100000000000000000e+01,3.800000000000000000e+01,2.900000000000000000e+01,3.700000000000000000e+01,4.100000000000000000e+01,5.300000000000000000e+01,4.500000000000000111e-01,9.423126100000000000e+09
7.900000000000000000e+01,3.900000000000000000e+01,2.800000000000000000e+01,3.600000000000000000e+01,3.000000000000000000e+01,4.400000000000000000e+01,4.500000000000000000e+01,5.100000000000000000e+01,4.500000000000000111e-01,9.445267500000000000e+09
8.200000000000000000e+01,3.800000000000000000e+01,2.900000000000000000e+01,3.500000000000000000e+01,3.200000000000000000e+01,4.300000000000000000e+01,4.500000000000000000e+01,6.300000000000000000e+01,4.500000000000000111e-01,9.464725700000000000e+09
6.600000000000000000e+01,3.700000000000000000e+01,2.900000000000000000e+01,3.500000000000000000e+01,2.800000000000000000e+01,4.500000000000000000e+01,4.100000000000000000e+01,5.800000000000000000e+01,4.500000000000000111e-01,9.482023800000000000e+09
6.500000000000000000e+01,3.100000000000000000e+01,2.300000000000000000e+01,3.200000000000000000e+01,2.800000000000000000e+01,4.400000000000000000e+01,3.900000000000000000e+01,6.200000000000000000e+01,4.500000000000000111e-01,9.500873200000000000e+09
7.800000000000000000e+01,2.700000000000000000e+01,2.500000000000000000e+01,3.100000000000000000e+01,3.200000000000000000e+01,4.800000000000000000e+01,4.000000000000000000e+01,7.200000000000000000e+01,4.500000000000000111e-01,9.523013900000000000e+09
7.600000000000000000e+01,2.900000000000000000e+01,2.400000000000000000e+01,3.100000000000000000e+01,3.400000000000000000e+01,3.700000000000000000e+01,3.400000000000000000e+01,7.500000000000000000e+01,4.500000000000000111e-01,9.545290400000000000e+09
7.400000000000000000e+01,3.000000000000000000e+01,2.600000000000000000e+01,3.000000000000000000e+01,3.400000000000000000e+01,3.900000000000000000e+01,3.400000000000000000e+01,6.200000000000000000e+01,4.500000000000000111e-01,9.563233700000000000e+09
7.300000000000000000e+01,3.100000000000000000e+01,2.600000000000000000e+01,2.900000000000000000e+01,3.200000000000000000e+01,4.400000000000000000e+01,3.500000000000000000e+01,5.800000000000000000e+01,4.500000000000000111e-01,9.581910700000000000e+09
7.400000000000000000e+01,3.300000000000000000e+01,2.700000000000000000e+01,2.600000000000000000e+01,3.600000000000000000e+01,4.600000000000000000e+01,3.700000000000000000e+01,6.600000000000000000e+01,4.400000000000000022e-01,9.601049800000000000e+09
5.400000000000000000e+01,4.000000000000000000e+01,2.800000000000000000e+01,2.400000000000000000e+01,3.300000000000000000e+01,4.000000000000000000e+01,3.700000000000000000e+01,5.900000000000000000e+01,4.400000000000000022e-01,9.623246700000000000e+09
5.700000000000000000e+01,3.900000000000000000e+01,2.700000000000000000e+01,2.700000000000000000e+01,3.300000000000000000e+01,5.300000000000000000e+01,3.800000000000000000e+01,5.400000000000000000e+01,4.400000000000000022e-01,9.645408600000000000e+09
8.100000000000000000e+01,3.800000000000000000e+01,2.400000000000000000e+01,2.700000000000000000e+01,3.300000000000000000e+01,5.400000000000000000e+01,3.500000000000000000e+01,6.000000000000000000e+01,4.400000000000000022e-01,9.663406400000000000e+09
7.800000000000000000e+01,3.300000000000000000e+01,2.800000000000000000e+01,2.700000000000000000e+01,3.700000000000000000e+01,4.900000000000000000e+01,4.100000000000000000e+01,6.000000000000000000e+01,4.400000000000000022e-01,9.682382900000000000e+09
8.100000000000000000e+01,3.300000000000000000e+01,2.800000000000000000e+01,2.800000000000000000e+01,3.400000000000000000e+01,5.100000000000000000e+01,4.100000000000000000e+01,5.300000000000000000e+01,4.400000000000000022e-01,9.701173900000000000e+09
8.600000000000000000e+01,3.200000000000000000e+01,2.400000000000000000e+01,2.800000000000000000e+01,3.800000000000000000e+01,5.300000000000000000e+01,4.000000000000000000e+01,5.300000000000000000e+01,4.400000000000000022e-01,9.723112000000000000e+09
9.000000000000000000e+01,3.100000000000000000e+01,2.800000000000000000e+01,3.100000000000000000e+01,3.600000000000000000e+01,4.300000000000000000e+01,4.000000000000000000e+01,5.400000000000000000e+01,4.400000000000000022e-01,9.745212500000000000e+09
6.800000000000000000e+01,3.200000000000000000e+01,2.800000000000000000e+01,2.800000000000000000e+01,3.600000000000000000e+01,4.200000000000000000e+01,4.400000000000000000e+01,4.700000000000000000e+01,4.400000000000000022e-01,9.763724600000000000e+09
6.900000000000000000e+01,3.700000000000000000e+01,2.400000000000000000e+01,2.900000000000000000e+01,3.400000000000000000e+01,3.800000000000000000e+01,3.300000000000000000e+01,5.800000000000000000e+01,4.400000000000000022e-01,9.782146600000000000e+09
6.400000000000000000e+01,4.000000000000000000e+01,2.300000000000000000e+01,3.100000000000000000e+01,3.600000000000000000e+01,3.900000000000000000e+01,3.000000000000000000e+01,5.200000000000000000e+01,4.400000000000000022e-01,9.800864300000000000e+09
5.500000000000000000e+01,3.700000000000000000e+01,2.600000000000000000e+01,3.000000000000000000e+01,3.000000000000000000e+01,3.700000000000000000e+01,3.200000000000000000e+01,4.900000000000000000e+01,4.400000000000000022e-01,9.823052700000000000e+09
5.000000000000000000e+01,3.600000000000000000e+01,2.400000000000000000e+01,2.500000000000000000e+01,3.600000000000000000e+01,3.700000000000000000e+01,3.300000000000000000e+01,5.600000000000000000e+01,4.400000000000000022e-01,9.845585000000000000e+09
9.300000000000000000e+01,4.000000000000000000e+01,2.300000000000000000e+01,2.700000000000000000e+01,3.400000000000000000e+01,3.500000000000000000e+01,3.100000000000000000e+01,6.700000000000000000e+01,4.400000000000000022e-01,9.864389200000000000e+09
9.400000000000000000e+01,3.700000000000000000e+01,2.400000000000000000e+01,2.600000000000000000e+01,3.200000000000000000e+01,3.900000000000000000e+01,3.300000000000000000e+01,5.800000000000000000e+01,4.400000000000000022e-01,9.882391300000000000e+09
9.500000000000000000e+01,3.700000000000000000e+01,2.700000000000000000e+01,2.700000000000000000e+01,3.200000000000000000e+01,3.200000000000000000e+01,3.600000000000000000e+01,5.800000000000000000e+01,4.400000000000000022e-01,9.901775300000000000e+09
9.600000000000000000e+01,4.000000000000000000e+01,2.400000000000000000e+01,2.900000000000000000e+01,3.300000000000000000e+01,3.500000000000000000e+01,3.600000000000000000e+01,5.800000000000000000e+01,4.400000000000000022e-01,9.924016000000000000e+09
9.300000000000000000e+01,4.000000000000000000e+01,2.500000000000000000e+01,3.000000000000000000e+01,2.600000000000000000e+01,3.300000000000000000e+01,3.500000000000000000e+01,5.400000000000000000e+01,4.400000000000000022e-01,9.942273600000000000e+09
4.800000000000000000e+01,3.500000000000000000e+01,2.600000000000000000e+01,3.000000000000000000e+01,3.000000000000000000e+01,3.400000000000000000e+01,3.200000000000000000e+01,4.000000000000000000e+01,4.400000000000000022e-01,9.961178100000000000e+09
4.500000000000000000e+01,3.900000000000000000e+01,2.700000000000000000e+01,2.900000000000000000e+01,3.000000000000000000e+01,4.100000000000000000e+01,3.000000000000000000e+01,5.100000000000000000e+01,4.400000000000000022e-01,9.979503000000000000e+09
4.500000000000000000e+01,4.100000000000000000e+01,2.500000000000000000e+01,2.600000000000000000e+01,2.700000000000000000e+01,4.800000000000000000e+01,3.800000000000000000e+01,5.100000000000000000e+01,4.400000000000000022e-01,1.000165700000000000e+10
5.400000000000000000e+01,3.800000000000000000e+01,2.700000000000000000e+01,2.500000000000000000e+01,2.800000000000000000e+01,5.200000000000000000e+01,4.200000000000000000e+01,5.000000000000000000e+01,4.400000000000000022e-01,1.002383690000000000e+10
5.300000000000000000e+01,3.800000000000000000e+01,2.700000000000000000e+01,2.500000000000000000e+01,2.600000000000000000e+01,5.300000000000000000e+01,4.100000000000000000e+01,5.000000000000000000e+01,4.400000000000000022e-01,1.004179760000000000e+10
5.600000000000000000e+01,3.800000000000000000e+01,2.900000000000000000e+01,2.300000000000000000e+01,2.400000000000000000e+01,5.300000000000000000e+01,4.400000000000000000e+01,6.700000000000000000e+01,4.400000000000000022e-01,1.006098280000000000e+10
5.600000000000000000e+01,3.500000000000000000e+01,3.300000000000000000e+01,2.600000000000000000e+01,2.700000000000000000e+01,4.900000000000000000e+01,4.500000000000000000e+01,5.800000000000000000e+01,4.400000000000000022e-01,1.007940340000000000e+10
5.400000000000000000e+01,3.500000000000000000e+01,3.300000000000000000e+01,2.500000000000000000e+01,2.900000000000000000e+01,4.400000000000000000e+01,3.900000000000000000e+01,5.900000000000000000e+01,4.400000000000000022e-01,1.009892510000000000e+10
5.000000000000000000e+01,3.400000000000000000e+01,3.200000000000000000e+01,2.400000000000000000e+01,2.900000000000000000e+01,4.400000000000000000e+01,3.500000000000000000e+01,6.600000000000000000e+01,4.400000000000000022e-01,1.012097590000000000e+10
5.100000000000000000e+01,3.400000000000000000e+01,3.100000000000000000e+01,2.600000000000000000e+01,3.000000000000000000e+01,4.600000000000000000e+01,3.800000000000000000e+01,7.400000000000000000e+01,4.400000000000000022e-01,1.014343120000000000e+10
5.700000000000000000e+01,3.600000000000000000e+01,2.900000000000000000e+01,2.600000000000000000e+01,2.900000000000000000e+01,4.400000000000000000e+01,3.400000000000000000e+01,5.700000000000000000e+01,4.400000000000000022e-01,1.016580680000000000e+10
6.000000000000000000e+01,3.600000000000000000e+01,2.600000000000000000e+01,2.500000000000000000e+01,2.900000000000000000e+01,4.100000000000000000e+01,3.900000000000000000e+01,6.000000000000000000e+01,4.400000000000000022e-01,1.018496780000000000e+10
5.900000000000000000e+01,3.000000000000000000e+01,2.600000000000000000e+01,2.800000000000000000e+01,2.800000000000000000e+01,4.700000000000000000e+01,4.100000000000000000e+01,6.100000000000000000e+01,4.400000000000000022e-01,1.020326520000000000e+10
5.100000000000000000e+01,3.000000000000000000e+01,2.500000000000000000e+01,2.700000000000000000e+01,2.700000000000000000e+01,4.400000000000000000e+01,4.200000000000000000e+01,6.400000000000000000e+01,4.400000000000000022e-01,1.022134880000000000e+10
5.100000000000000000e+01,3.100000000000000000e+01,2.600000000000000000e+01,2.700000000000000000e+01,2.700000000000000000e+01,4.200000000000000000e+01,4.400000000000000000e+01,5.500000000000000000e+01,4.400000000000000022e-01,1.024336080000000000e+10
4.800000000000000000e+01,3.100000000000000000e+01,3.000000000000000000e+01,2.700000000000000000e+01,3.300000000000000000e+01,4.800000000000000000e+01,4.400000000000000000e+01,5.400000000000000000e+01,4.400000000000000022e-01,1.026558940000000000e+10
4.500000000000000000e+01,3.200000000000000000e+01,2.800000000000000000e+01,2.700000000000000000e+01,3.100000000000000000e+01,4.700000000000000000e+01,4.100000000000000000e+01,5.500000000000000000e+01,4.400000000000000022e-01,1.028439100000000000e+10
4.700000000000000000e+01,3.300000000000000000e+01,2.900000000000000000e+01,2.500000000000000000e+01,3.100000000000000000e+01,4.700000000000000000e+01,3.800000000000000000e+01,6.000000000000000000e+01,4.400000000000000022e-01,1.030286400000000000e+10
4.800000000000000000e+01,3.700000000000000000e+01,2.900000000000000000e+01,3.200000000000000000e+01,3.100000000000000000e+01,4.900000000000000000e+01,4.200000000000000000e+01,5.900000000000000000e+01,4.400000000000000022e-01,1.032145850000000000e+10
5.000000000000000000e+01,4.000000000000000000e+01,2.900000000000000000e+01,3.000000000000000000e+01,3.100000000000000000e+01,5.100000000000000000e+01,4.000000000000000000e+01,5.900000000000000000e+01,4.400000000000000022e-01,1.034372320000000000e+10
4.800000000000000000e+01,3.600000000000000000e+01,2.600000000000000000e+01,3.000000000000000000e+01,2.500000000000000000e+01,4.700000000000000000e+01,4.100000000000000000e+01,5.900000000000000000e+01,4.400000000000000022e-01,1.036553810000000000e+10
7.600000000000000000e+01,3.600000000000000000e+01,2.500000000000000000e+01,3.200000000000000000e+01,2.600000000000000000e+01,4.900000000000000000e+01,4.100000000000000000e+01,7.500000000000000000e+01,4.400000000000000022e-01,1.039462200000000000e+10
8.100000000000000000e+01,3.300000000000000000e+01,2.300000000000000000e+01,3.400000000000000000e+01,2.600000000000000000e+01,4.500000000000000000e+01,4.100000000000000000e+01,7.500000000000000000e+01,4.400000000000000022e-01,1.041273840000000000e+10
8.400000000000000000e+01,3.200000000000000000e+01,2.300000000000000000e+01,3.100000000000000000e+01,2.200000000000000000e+01,4.300000000000000000e+01,3.400000000000000000e+01,6.700000000000000000e+01,4.400000000000000022e-01,1.043110100000000000e+10
8.500000000000000000e+01,3.000000000000000000e+01,2.200000000000000000e+01,3.200000000000000000e+01,2.200000000000000000e+01,3.700000000000000000e+01,3.000000000000000000e+01,6.800000000000000000e+01,4.400000000000000022e-01,1.044875030000000000e+10
8.700000000000000000e+01,3.200000000000000000e+01,1.900000000000000000e+01,3.200000000000000000e+01,2.200000000000000000e+01,4.400000000000000000e+01,3.300000000000000000e+01,6.800000000000000000e+01,4.400000000000000022e-01,1.046738500000000000e+10
6.200000000000000000e+01,3.200000000000000000e+01,2.600000000000000000e+01,3.000000000000000000e+01,2.300000000000000000e+01,4.000000000000000000e+01,3.200000000000000000e+01,5.400000000000000000e+01,4.400000000000000022e-01,1.048512650000000000e+10
5.300000000000000000e+01,3.600000000000000000e+01,2.700000000000000000e+01,3.100000000000000000e+01,2.300000000000000000e+01,4.400000000000000000e+01,3.100000000000000000e+01,5.100000000000000000e+01,4.400000000000000022e-01,1.050333270000000000e+10
4.900000000000000000e+01,3.200000000000000000e+01,2.600000000000000000e+01,2.700000000000000000e+01,2.800000000000000000e+01,4.000000000000000000e+01,3.600000000000000000e+01,5.100000000000000000e+01,4.400000000000000022e-01,1.052249970000000000e+10
4.900000000000000000e+01,3.400000000000000000e+01,2.600000000000000000e+01,2.600000000000000000e+01,2.800000000000000000e+01,4.600000000000000000e+01,3.700000000000000000e+01,5.000000000000000000e+01,4.400000000000000022e-01,1.054270880000000000e+10
