4.600000000000000000e+01,5.800000000000000000e+01,3.400000000000000000e+01,5.200000000000000000e+01,3.800000000000000000e+01,3.000000000000000000e+01,2.300000000000000000e+01,2.200000000000000000e+01,4.899999999999999911e-01,5.375510000000000000e+08
4.800000000000000000e+01,7.600000000000000000e+01,3.600000000000000000e+01,5.700000000000000000e+01,4.100000000000000000e+01,2.800000000000000000e+01,2.300000000000000000e+01,2.200000000000000000e+01,4.899999999999999911e-01,5.667591000000000000e+08
5.000000000000000000e+01,8.100000000000000000e+01,3.700000000000000000e+01,5.700000000000000000e+01,4.100000000000000000e+01,3.000000000000000000e+01,2.500000000000000000e+01,2.200000000000000000e+01,4.899999999999999911e-01,1.252851200000000000e+09
4.300000000000000000e+01,7.400000000000000000e+01,3.500000000000000000e+01,5.500000000000000000e+01,4.200000000000000000e+01,2.900000000000000000e+01,2.800000000000000000e+01,2.200000000000000000e+01,4.899999999999999911e-01,1.270100100000000000e+09
4.400000000000000000e+01,7.200000000000000000e+01,3.600000000000000000e+01,5.100000000000000000e+01,3.800000000000000000e+01,2.900000000000000000e+01,2.800000000000000000e+01,2.200000000000000000e+01,4.899999999999999911e-01,1.288433300000000000e+09
3.800000000000000000e+01,7.600000000000000000e+01,3.700000000000000000e+01,5.000000000000000000e+01,3.900000000000000000e+01,2.700000000000000000e+01,2.800000000000000000e+01,2.200000000000000000e+01,4.899999999999999911e-01,1.306698000000000000e+09
3.900000000000000000e+01,8.100000000000000000e+01,4.100000000000000000e+01,5.000000000000000000e+01,3.400000000000000000e+01,2.600000000000000000e+01,2.700000000000000000e+01,2.200000000000000000e+01,4.899999999999999911e-01,1.325424100000000000e+09
3.700000000000000000e+01,7.400000000000000000e+01,3.900000000000000000e+01,5.300000000000000000e+01,3.600000000000000000e+01,2.700000000000000000e+01,2.800000000000000000e+01,2.000000000000000000e+01,4.899999999999999911e-01,1.344230700000000000e+09
3.800000000000000000e+01,7.600000000000000000e+01,4.700000000000000000e+01,5.400000000000000000e+01,3.500000000000000000e+01,2.600000000000000000e+01,2.400000000000000000e+01,2.400000000000000000e+01,4.899999999999999911e-01,1.362375600000000000e+09
3.900000000000000000e+01,7.900000000000000000e+01,4.600000000000000000e+01,5.500000000000000000e+01,3.500000000000000000e+01,2.500000000000000000e+01,2.400000000000000000e+01,2.600000000000000000e+01,4.899999999999999911e-01,1.380219100000000000e+09
4.300000000000000000e+01,7.200000000000000000e+01,4.600000000000000000e+01,5.100000000000000000e+01,2.700000000000000000e+01,2.500000000000000000e+01,2.300000000000000000e+01,2.600000000000000000e+01,4.899999999999999911e-01,1.398766900000000000e+09
4.200000000000000000e+01,8.000000000000000000e+01,4.600000000000000000e+01,7.400000000000000000e+01,3.700000000000000000e+01,2.600000000000000000e+01,2.300000000000000000e+01,2.500000000000000000e+01,4.899999999999999911e-01,1.418791700000000000e+09
4.500000000000000000e+01,8.000000000000000000e+01,4.900000000000000000e+01,1.010000000000000000e+02,3.800000000000000000e+01,2.300000000000000000e+01,1.900000000000000000e+01,2.500000000000000000e+01,5.000000000000000000e-01,1.437899800000000000e+09
5.300000000000000000e+01,9.400000000000000000e+01,4.400000000000000000e+01,1.020000000000000000e+02,4.000000000000000000e+01,2.300000000000000000e+01,1.800000000000000000e+01,2.500000000000000000e+01,5.000000000000000000e-01,1.455552600000000000e+09
5.300000000000000000e+01,9.800000000000000000e+01,5.500000000000000000e+01,1.060000000000000000e+02,4.900000000000000000e+01,2.800000000000000000e+01,2.200000000000000000e+01,2.300000000000000000e+01,5.000000000000000000e-01,1.473687800000000000e+09
4.900000000000000000e+01,9.600000000000000000e+01,5.300000000000000000e+01,1.040000000000000000e+02,5.100000000000000000e+01,2.700000000000000000e+01,2.100000000000000000e+01,2.200000000000000000e+01,5.100000000000000089e-01,1.492695200000000000e+09
4.800000000000000000e+01,7.500000000000000000e+01,5.000000000000000000e+01,8.900000000000000000e+01,4.900000000000000000e+01,3.100000000000000000e+01,2.200000000000000000e+01,2.200000000000000000e+01,5.100000000000000089e-01,1.510541700000000000e+09
4.500000000000000000e+01,8.200000000000000000e+01,6.400000000000000000e+01,6.400000000000000000e+01,5.000000000000000000e+01,3.200000000000000000e+01,2.300000000000000000e+01,2.100000000000000000e+01,5.100000000000000089e-01,1.528989100000000000e+09
3.700000000000000000e+01,7.600000000000000000e+01,7.700000000000000000e+01,6.500000000000000000e+01,4.900000000000000000e+01,3.200000000000000000e+01,2.400000000000000000e+01,2.000000000000000000e+01,5.100000000000000089e-01,1.585797000000000000e+09
3.700000000000000000e+01,7.700000000000000000e+01,7.300000000000000000e+01,5.800000000000000000e+01,4.200000000000000000e+01,2.900000000000000000e+01,2.500000000000000000e+01,2.100000000000000000e+01,5.200000000000000178e-01,1.605299100000000000e+09
3.700000000000000000e+01,7.800000000000000000e+01,7.400000000000000000e+01,6.300000000000000000e+01,5.000000000000000000e+01,3.100000000000000000e+01,2.500000000000000000e+01,2.400000000000000000e+01,5.200000000000000178e-01,1.623135900000000000e+09
3.300000000000000000e+01,7.600000000000000000e+01,7.500000000000000000e+01,6.000000000000000000e+01,4.700000000000000000e+01,2.600000000000000000e+01,2.400000000000000000e+01,2.400000000000000000e+01,5.200000000000000178e-01,1.642087000000000000e+09
3.200000000000000000e+01,7.300000000000000000e+01,6.400000000000000000e+01,5.600000000000000000e+01,4.700000000000000000e+01,2.600000000000000000e+01,2.600000000000000000e+01,2.500000000000000000e+01,5.200000000000000178e-01,1.660257900000000000e+09
3.800000000000000000e+01,9.400000000000000000e+01,5.900000000000000000e+01,5.500000000000000000e+01,4.700000000000000000e+01,2.900000000000000000e+01,2.600000000000000000e+01,2.500000000000000000e+01,5.200000000000000178e-01,1.678092300000000000e+09
3.500000000000000000e+01,9.100000000000000000e+01,5.600000000000000000e+01,5.700000000000000000e+01,5.200000000000000000e+01,2.900000000000000000e+01,2.200000000000000000e+01,2.500000000000000000e+01,5.200000000000000178e-01,1.695956600000000000e+09
3.700000000000000000e+01,9.100000000000000000e+01,5.500000000000000000e+01,5.000000000000000000e+01,5.100000000000000000e+01,2.900000000000000000e+01,2.400000000000000000e+01,2.300000000000000000e+01,5.200000000000000178e-01,1.714114800000000000e+09
3.900000000000000000e+01,9.800000000000000000e+01,5.400000000000000000e+01,5.200000000000000000e+01,5.800000000000000000e+01,3.500000000000000000e+01,2.400000000000000000e+01,2.500000000000000000e+01,5.100000000000000089e-01,1.733358500000000000e+09
4.200000000000000000e+01,9.800000000000000000e+01,5.500000000000000000e+01,4.700000000000000000e+01,5.800000000000000000e+01,3.700000000000000000e+01,2.200000000000000000e+01,2.400000000000000000e+01,5.100000000000000089e-01,1.751691700000000000e+09
3.700000000000000000e+01,8.000000000000000000e+01,5.000000000000000000e+01,5.000000000000000000e+01,8.700000000000000000e+01,4.500000000000000000e+01,2.300000000000000000e+01,2.200000000000000000e+01,5.100000000000000089e-01,1.770582200000000000e+09
3.700000000000000000e+01,7.600000000000000000e+01,9.700000000000000000e+01,6.400000000000000000e+01,9.000000000000000000e+01,5.100000000000000000e+01,2.400000000000000000e+01,2.200000000000000000e+01,5.000000000000000000e-01,1.789630200000000000e+09
3.500000000000000000e+01,7.700000000000000000e+01,1.330000000000000000e+02,8.100000000000000000e+01,1.180000000000000000e+02,5.500000000000000000e+01,2.800000000000000000e+01,2.300000000000000000e+01,5.000000000000000000e-01,1.807454500000000000e+09
3.500000000000000000e+01,7.400000000000000000e+01,1.360000000000000000e+02,8.800000000000000000e+01,1.150000000000000000e+02,5.200000000000000000e+01,2.700000000000000000e+01,2.000000000000000000e+01,5.000000000000000000e-01,1.824836000000000000e+09
3.100000000000000000e+01,7.600000000000000000e+01,1.440000000000000000e+02,9.000000000000000000e+01,1.190000000000000000e+02,5.300000000000000000e+01,2.700000000000000000e+01,2.100000000000000000e+01,5.000000000000000000e-01,1.841454500000000000e+09
3.300000000000000000e+01,9.100000000000000000e+01,1.450000000000000000e+02,1.140000000000000000e+02,1.160000000000000000e+02,5.000000000000000000e+01,3.100000000000000000e+01,2.400000000000000000e+01,5.000000000000000000e-01,1.859174300000000000e+09
3.700000000000000000e+01,9.300000000000000000e+01,1.360000000000000000e+02,1.110000000000000000e+02,1.280000000000000000e+02,4.500000000000000000e+01,3.000000000000000000e+01,2.600000000000000000e+01,5.000000000000000000e-01,1.876234600000000000e+09
3.800000000000000000e+01,9.300000000000000000e+01,1.370000000000000000e+02,1.160000000000000000e+02,1.160000000000000000e+02,4.700000000000000000e+01,2.800000000000000000e+01,2.700000000000000000e+01,5.000000000000000000e-01,1.895643600000000000e+09
3.400000000000000000e+01,8.800000000000000000e+01,1.370000000000000000e+02,1.130000000000000000e+02,1.180000000000000000e+02,4.900000000000000000e+01,2.900000000000000000e+01,2.700000000000000000e+01,5.000000000000000000e-01,1.912581600000000000e+09
3.500000000000000000e+01,8.500000000000000000e+01,1.390000000000000000e+02,1.180000000000000000e+02,1.200000000000000000e+02,4.800000000000000000e+01,2.800000000000000000e+01,2.800000000000000000e+01,5.000000000000000000e-01,1.931073300000000000e+09
2.900000000000000000e+01,6.200000000000000000e+01,1.600000000000000000e+02,9.900000000000000000e+01,1.120000000000000000e+02,4.600000000000000000e+01,2.500000000000000000e+01,2.600000000000000000e+01,5.000000000000000000e-01,1.948170800000000000e+09
3.000000000000000000e+01,6.600000000000000000e+01,1.600000000000000000e+02,1.030000000000000000e+02,1.160000000000000000e+02,4.900000000000000000e+01,2.600000000000000000e+01,2.700000000000000000e+01,5.000000000000000000e-01,1.965100200000000000e+09
3.000000000000000000e+01,7.000000000000000000e+01,1.560000000000000000e+02,9.900000000000000000e+01,1.300000000000000000e+02,4.300000000000000000e+01,2.300000000000000000e+01,2.400000000000000000e+01,5.000000000000000000e-01,1.982044800000000000e+09
3.200000000000000000e+01,7.800000000000000000e+01,2.130000000000000000e+02,1.140000000000000000e+02,1.340000000000000000e+02,4.300000000000000000e+01,2.400000000000000000e+01,2.600000000000000000e+01,5.000000000000000000e-01,1.999112100000000000e+09
3.200000000000000000e+01,8.400000000000000000e+01,2.240000000000000000e+02,1.160000000000000000e+02,1.400000000000000000e+02,4.300000000000000000e+01,2.300000000000000000e+01,2.600000000000000000e+01,5.000000000000000000e-01,2.016011500000000000e+09
3.100000000000000000e+01,8.000000000000000000e+01,2.150000000000000000e+02,1.280000000000000000e+02,1.480000000000000000e+02,4.100000000000000000e+01,2.500000000000000000e+01,2.600000000000000000e+01,5.000000000000000000e-01,2.032654300000000000e+09
2.400000000000000000e+01,7.400000000000000000e+01,2.160000000000000000e+02,1.400000000000000000e+02,1.620000000000000000e+02,4.300000000000000000e+01,2.600000000000000000e+01,2.200000000000000000e+01,5.000000000000000000e-01,2.049108900000000000e+09
2.600000000000000000e+01,7.900000000000000000e+01,2.080000000000000000e+02,1.320000000000000000e+02,1.410000000000000000e+02,4.200000000000000000e+01,2.700000000000000000e+01,2.600000000000000000e+01,5.000000000000000000e-01,2.066910700000000000e+09
2.600000000000000000e+01,7.300000000000000000e+01,1.940000000000000000e+02,1.430000000000000000e+02,1.530000000000000000e+02,4.700000000000000000e+01,3.000000000000000000e+01,2.600000000000000000e+01,5.000000000000000000e-01,2.084225300000000000e+09
2.500000000000000000e+01,6.700000000000000000e+01,1.950000000000000000e+02,1.460000000000000000e+02,1.540000000000000000e+02,5.400000000000000000e+01,3.200000000000000000e+01,2.700000000000000000e+01,5.000000000000000000e-01,2.101350900000000000e+09
2.700000000000000000e+01,6.500000000000000000e+01,1.880000000000000000e+02,1.390000000000000000e+02,1.620000000000000000e+02,6.400000000000000000e+01,3.300000000000000000e+01,2.700000000000000000e+01,5.000000000000000000e-01,2.118251000000000000e+09
2.900000000000000000e+01,7.000000000000000000e+01,1.800000000000000000e+02,1.280000000000000000e+02,1.460000000000000000e+02,7.500000000000000000e+01,3.400000000000000000e+01,3.100000000000000000e+01,5.000000000000000000e-01,2.135677500000000000e+09
2.800000000000000000e+01,6.400000000000000000e+01,1.840000000000000000e+02,1.330000000000000000e+02,1.530000000000000000e+02,7.700000000000000000e+01,3.300000000000000000e+01,2.800000000000000000e+01,5.000000000000000000e-01,2.174140600000000000e+09
2.800000000000000000e+01,6.500000000000000000e+01,1.640000000000000000e+02,1.170000000000000000e+02,1.350000000000000000e+02,7.300000000000000000e+01,3.000000000000000000e+01,2.700000000000000000e+01,5.000000000000000000e-01,2.193371500000000000e+09
2.800000000000000000e+01,6.300000000000000000e+01,1.450000000000000000e+02,1.110000000000000000e+02,1.240000000000000000e+02,6.800000000000000000e+01,3.000000000000000000e+01,2.400000000000000000e+01,5.000000000000000000e-01,2.211561800000000000e+09
2.700000000000000000e+01,6.500000000000000000e+01,1.630000000000000000e+02,1.100000000000000000e+02,9.700000000000000000e+01,5.800000000000000000e+01,2.700000000000000000e+01,2.700000000000000000e+01,5.000000000000000000e-01,2.228536400000000000e+09
2.500000000000000000e+01,6.100000000000000000e+01,1.650000000000000000e+02,1.090000000000000000e+02,8.400000000000000000e+01,4.700000000000000000e+01,2.500000000000000000e+01,2.300000000000000000e+01,5.100000000000000089e-01,2.245164600000000000e+09
2.500000000000000000e+01,6.800000000000000000e+01,1.570000000000000000e+02,1.310000000000000000e+02,1.010000000000000000e+02,5.900000000000000000e+01,2.700000000000000000e+01,2.400000000000000000e+01,5.100000000000000089e-01,2.262034400000000000e+09
2.800000000000000000e+01,6.300000000000000000e+01,1.300000000000000000e+02,1.250000000000000000e+02,1.130000000000000000e+02,6.200000000000000000e+01,3.000000000000000000e+01,2.300000000000000000e+01,5.100000000000000089e-01,2.278606100000000000e+09
2.900000000000000000e+01,6.500000000000000000e+01,1.380000000000000000e+02,1.230000000000000000e+02,1.140000000000000000e+02,6.800000000000000000e+01,2.900000000000000000e+01,2.700000000000000000e+01,5.100000000000000089e-01,2.296879900000000000e+09
3.200000000000000000e+01,6.200000000000000000e+01,1.170000000000000000e+02,1.190000000000000000e+02,1.160000000000000000e+02,7.000000000000000000e+01,3.100000000000000000e+01,4.600000000000000000e+01,5.100000000000000089e-01,2.314194000000000000e+09
3.100000000000000000e+01,5.900000000000000000e+01,1.100000000000000000e+02,1.140000000000000000e+02,1.140000000000000000e+02,6.800000000000000000e+01,3.100000000000000000e+01,5.000000000000000000e+01,5.100000000000000089e-01,2.330741200000000000e+09
3.000000000000000000e+01,5.300000000000000000e+01,1.100000000000000000e+02,9.300000000000000000e+01,9.400000000000000000e+01,5.800000000000000000e+01,2.800000000000000000e+01,5.000000000000000000e+01,5.100000000000000089e-01,2.347537200000000000e+09
2.700000000000000000e+01,5.800000000000000000e+01,1.270000000000000000e+02,9.700000000000000000e+01,8.100000000000000000e+01,5.300000000000000000e+01,2.600000000000000000e+01,5.000000000000000000e+01,5.100000000000000089e-01,2.364526800000000000e+09
2.500000000000000000e+01,5.500000000000000000e+01,1.190000000000000000e+02,9.900000000000000000e+01,7.800000000000000000e+01,4.600000000000000000e+01,2.700000000000000000e+01,5.100000000000000000e+01,5.100000000000000089e-01,2.381030400000000000e+09
2.500000000000000000e+01,5.300000000000000000e+01,1.170000000000000000e+02,9.800000000000000000e+01,7.500000000000000000e+01,4.200000000000000000e+01,2.700000000000000000e+01,3.500000000000000000e+01,5.200000000000000178e-01,2.398819000000000000e+09
2.500000000000000000e+01,5.600000000000000000e+01,1.280000000000000000e+02,9.800000000000000000e+01,7.200000000000000000e+01,4.300000000000000000e+01,2.600000000000000000e+01,3.200000000000000000e+01,5.200000000000000178e-01,2.416419200000000000e+09
2.600000000000000000e+01,5.300000000000000000e+01,1.220000000000000000e+02,9.100000000000000000e+01,6.500000000000000000e+01,4.200000000000000000e+01,2.700000000000000000e+01,3.200000000000000000e+01,5.200000000000000178e-01,2.434683800000000000e+09
1.410000000000000000e+02,4.700000000000000000e+01,1.210000000000000000e+02,8.400000000000000000e+01,6.000000000000000000e+01,4.200000000000000000e+01,2.700000000000000000e+01,3.300000000000000000e+01,5.200000000000000178e-01,2.451738500000000000e+09
1.560000000000000000e+02,4.400000000000000000e+01,1.120000000000000000e+02,7.700000000000000000e+01,5.500000000000000000e+01,4.200000000000000000e+01,2.500000000000000000e+01,2.900000000000000000e+01,5.200000000000000178e-01,2.468714800000000000e+09
1.600000000000000000e+02,6.000000000000000000e+01,1.280000000000000000e+02,7.200000000000000000e+01,4.800000000000000000e+01,3.900000000000000000e+01,2.200000000000000000e+01,2.800000000000000000e+01,5.100000000000000089e-01,2.485925000000000000e+09
1.600000000000000000e+02,5.900000000000000000e+01,1.280000000000000000e+02,7.700000000000000000e+01,4.200000000000000000e+01,3.400000000000000000e+01,2.300000000000000000e+01,2.600000000000000000e+01,5.100000000000000089e-01,2.502489100000000000e+09
1.610000000000000000e+02,5.900000000000000000e+01,1.260000000000000000e+02,6.800000000000000000e+01,3.800000000000000000e+01,3.000000000000000000e+01,2.300000000000000000e+01,2.600000000000000000e+01,5.100000000000000089e-01,2.519599300000000000e+09
8.200000000000000000e+01,5.700000000000000000e+01,1.160000000000000000e+02,7.600000000000000000e+01,4.800000000000000000e+01,3.300000000000000000e+01,2.200000000000000000e+01,2.600000000000000000e+01,5.200000000000000178e-01,2.537331600000000000e+09
4.600000000000000000e+01,6.400000000000000000e+01,1.490000000000000000e+02,8.400000000000000000e+01,5.200000000000000000e+01,3.400000000000000000e+01,2.400000000000000000e+01,2.600000000000000000e+01,5.200000000000000178e-01,2.554446700000000000e+09
3.100000000000000000e+01,5.400000000000000000e+01,1.390000000000000000e+02,8.400000000000000000e+01,5.400000000000000000e+01,3.500000000000000000e+01,2.400000000000000000e+01,2.300000000000000000e+01,5.200000000000000178e-01,2.571786200000000000e+09
2.800000000000000000e+01,5.200000000000000000e+01,1.310000000000000000e+02,7.900000000000000000e+01,5.400000000000000000e+01,3.800000000000000000e+01,2.300000000000000000e+01,2.300000000000000000e+01,5.200000000000000178e-01,2.589148300000000000e+09
2.500000000000000000e+01,5.000000000000000000e+01,1.350000000000000000e+02,8.200000000000000000e+01,5.500000000000000000e+01,3.800000000000000000e+01,2.300000000000000000e+01,2.400000000000000000e+01,5.200000000000000178e-01,2.606507300000000000e+09
2.500000000000000000e+01,5.600000000000000000e+01,1.330000000000000000e+02,7.500000000000000000e+01,5.100000000000000000e+01,3.800000000000000000e+01,2.300000000000000000e+01,2.100000000000000000e+01,5.300000000000000266e-01,2.624057700000000000e+09
2.800000000000000000e+01,6.600000000000000000e+01,1.640000000000000000e+02,6.600000000000000000e+01,5.000000000000000000e+01,3.900000000000000000e+01,2.500000000000000000e+01,2.300000000000000000e+01,5.200000000000000178e-01,2.641847300000000000e+09
2.700000000000000000e+01,6.900000000000000000e+01,1.720000000000000000e+02,6.400000000000000000e+01,4.800000000000000000e+01,3.900000000000000000e+01,2.600000000000000000e+01,2.300000000000000000e+01,5.200000000000000178e-01,2.658557000000000000e+09
2.700000000000000000e+01,7.000000000000000000e+01,1.790000000000000000e+02,6.400000000000000000e+01,4.800000000000000000e+01,3.900000000000000000e+01,2.400000000000000000e+01,2.500000000000000000e+01,5.200000000000000178e-01,2.675067000000000000e+09
2.400000000000000000e+01,6.800000000000000000e+01,1.840000000000000000e+02,6.500000000000000000e+01,4.500000000000000000e+01,3.900000000000000000e+01,2.400000000000000000e+01,2.500000000000000000e+01,5.300000000000000266e-01,2.692149400000000000e+09
2.500000000000000000e+01,6.600000000000000000e+01,1.840000000000000000e+02,6.000000000000000000e+01,4.400000000000000000e+01,4.100000000000000000e+01,2.500000000000000000e+01,2.700000000000000000e+01,5.200000000000000178e-01,2.708826900000000000e+09
2.100000000000000000e+01,5.100000000000000000e+01,1.250000000000000000e+02,5.800000000000000000e+01,4.400000000000000000e+01,4.100000000000000000e+01,2.400000000000000000e+01,2.600000000000000000e+01,5.300000000000000266e-01,2.725463500000000000e+09
2.200000000000000000e+01,4.800000000000000000e+01,1.250000000000000000e+02,5.800000000000000000e+01,4.300000000000000000e+01,4.100000000000000000e+01,2.300000000000000000e+01,2.800000000000000000e+01,5.200000000000000178e-01,2.744626200000000000e+09
2.200000000000000000e+01,5.000000000000000000e+01,1.230000000000000000e+02,5.700000000000000000e+01,4.300000000000000000e+01,3.800000000000000000e+01,2.600000000000000000e+01,2.700000000000000000e+01,5.200000000000000178e-01,2.762481800000000000e+09
2.300000000000000000e+01,5.200000000000000000e+01,1.130000000000000000e+02,4.600000000000000000e+01,3.900000000000000000e+01,3.500000000000000000e+01,2.500000000000000000e+01,2.600000000000000000e+01,5.200000000000000178e-01,2.780001500000000000e+09
2.300000000000000000e+01,4.900000000000000000e+01,1.170000000000000000e+02,4.700000000000000000e+01,3.800000000000000000e+01,3.300000000000000000e+01,2.400000000000000000e+01,2.500000000000000000e+01,5.200000000000000178e-01,2.799339200000000000e+09
2.300000000000000000e+01,4.900000000000000000e+01,1.180000000000000000e+02,4.900000000000000000e+01,3.400000000000000000e+01,2.900000000000000000e+01,2.200000000000000000e+01,2.500000000000000000e+01,5.100000000000000089e-01,2.816678300000000000e+09
2.500000000000000000e+01,5.000000000000000000e+01,1.170000000000000000e+02,5.600000000000000000e+01,3.700000000000000000e+01,3.100000000000000000e+01,2.300000000000000000e+01,2.600000000000000000e+01,5.100000000000000089e-01,2.833773800000000000e+09
2.300000000000000000e+01,4.700000000000000000e+01,1.100000000000000000e+02,5.700000000000000000e+01,3.700000000000000000e+01,3.000000000000000000e+01,2.300000000000000000e+01,2.400000000000000000e+01,5.100000000000000089e-01,2.850663700000000000e+09
2.500000000000000000e+01,4.800000000000000000e+01,1.200000000000000000e+02,6.200000000000000000e+01,3.700000000000000000e+01,3.200000000000000000e+01,2.400000000000000000e+01,2.300000000000000000e+01,5.100000000000000089e-01,2.867028000000000000e+09
2.400000000000000000e+01,4.800000000000000000e+01,1.080000000000000000e+02,6.000000000000000000e+01,3.900000000000000000e+01,3.000000000000000000e+01,2.100000000000000000e+01,2.200000000000000000e+01,5.100000000000000089e-01,2.884340900000000000e+09
2.400000000000000000e+01,4.900000000000000000e+01,1.070000000000000000e+02,6.200000000000000000e+01,4.300000000000000000e+01,3.200000000000000000e+01,2.100000000000000000e+01,2.100000000000000000e+01,5.100000000000000089e-01,2.901167100000000000e+09
2.400000000000000000e+01,4.400000000000000000e+01,9.700000000000000000e+01,5.700000000000000000e+01,4.800000000000000000e+01,3.300000000000000000e+01,2.300000000000000000e+01,1.700000000000000000e+01,5.100000000000000089e-01,2.918883000000000000e+09
2.500000000000000000e+01,4.600000000000000000e+01,1.720000000000000000e+02,7.700000000000000000e+01,4.800000000000000000e+01,3.400000000000000000e+01,2.400000000000000000e+01,2.000000000000000000e+01,5.100000000000000089e-01,2.936323500000000000e+09
2.200000000000000000e+01,4.600000000000000000e+01,1.690000000000000000e+02,7.600000000000000000e+01,5.100000000000000000e+01,3.600000000000000000e+01,2.400000000000000000e+01,2.100000000000000000e+01,5.100000000000000089e-01,2.953404400000000000e+09
2.300000000000000000e+01,4.300000000000000000e+01,1.800000000000000000e+02,7.800000000000000000e+01,4.900000000000000000e+01,3.600000000000000000e+01,2.600000000000000000e+01,2.300000000000000000e+01,5.100000000000000089e-01,2.970818600000000000e+09
2.400000000000000000e+01,4.000000000000000000e+01,1.800000000000000000e+02,7.700000000000000000e+01,4.600000000000000000e+01,3.800000000000000000e+01,2.800000000000000000e+01,2.400000000000000000e+01,5.100000000000000089e-01,2.988313400000000000e+09
2.400000000000000000e+01,4.100000000000000000e+01,1.840000000000000000e+02,7.400000000000000000e+01,3.900000000000000000e+01,3.500000000000000000e+01,2.600000000000000000e+01,2.400000000000000000e+01,5.100000000000000089e-01,3.005184200000000000e+09
2.500000000000000000e+01,3.700000000000000000e+01,1.350000000000000000e+02,6.400000000000000000e+01,3.800000000000000000e+01,3.300000000000000000e+01,2.400000000000000000e+01,2.300000000000000000e+01,5.100000000000000089e-01,3.022196300000000000e+09
2.500000000000000000e+01,3.200000000000000000e+01,1.470000000000000000e+02,6.700000000000000000e+01,3.400000000000000000e+01,3.100000000000000000e+01,2.500000000000000000e+01,2.200000000000000000e+01,5.100000000000000089e-01,3.038643300000000000e+09
2.600000000000000000e+01,3.400000000000000000e+01,1.350000000000000000e+02,6.200000000000000000e+01,3.100000000000000000e+01,2.700000000000000000e+01,2.400000000000000000e+01,2.100000000000000000e+01,5.200000000000000178e-01,3.055222700000000000e+09
2.600000000000000000e+01,3.600000000000000000e+01,1.480000000000000000e+02,7.100000000000000000e+01,3.400000000000000000e+01,2.400000000000000000e+01,2.200000000000000000e+01,2.200000000000000000e+01,5.200000000000000178e-01,3.073252800000000000e+09
2.500000000000000000e+01,3.900000000000000000e+01,1.420000000000000000e+02,7.900000000000000000e+01,3.400000000000000000e+01,2.500000000000000000e+01,2.200000000000000000e+01,2.200000000000000000e+01,5.200000000000000178e-01,3.091996000000000000e+09
2.300000000000000000e+01,3.800000000000000000e+01,1.300000000000000000e+02,7.100000000000000000e+01,3.100000000000000000e+01,2.500000000000000000e+01,2.200000000000000000e+01,2.600000000000000000e+01,5.200000000000000178e-01,3.108754200000000000e+09
2.200000000000000000e+01,4.000000000000000000e+01,1.370000000000000000e+02,7.400000000000000000e+01,3.100000000000000000e+01,2.600000000000000000e+01,2.100000000000000000e+01,2.700000000000000000e+01,5.200000000000000178e-01,3.126114000000000000e+09
2.200000000000000000e+01,5.500000000000000000e+01,1.700000000000000000e+02,8.900000000000000000e+01,3.600000000000000000e+01,2.700000000000000000e+01,2.200000000000000000e+01,2.700000000000000000e+01,5.200000000000000178e-01,3.143267300000000000e+09
2.000000000000000000e+01,5.600000000000000000e+01,1.640000000000000000e+02,8.400000000000000000e+01,3.600000000000000000e+01,2.700000000000000000e+01,2.300000000000000000e+01,2.600000000000000000e+01,5.200000000000000178e-01,3.160813900000000000e+09
2.100000000000000000e+01,5.400000000000000000e+01,1.760000000000000000e+02,7.800000000000000000e+01,3.800000000000000000e+01,2.700000000000000000e+01,2.300000000000000000e+01,2.600000000000000000e+01,5.200000000000000178e-01,3.177183700000000000e+09
2.600000000000000000e+01,5.900000000000000000e+01,1.780000000000000000e+02,7.800000000000000000e+01,4.000000000000000000e+01,3.000000000000000000e+01,2.500000000000000000e+01,2.300000000000000000e+01,5.200000000000000178e-01,3.195325800000000000e+09
2.600000000000000000e+01,5.900000000000000000e+01,1.560000000000000000e+02,8.300000000000000000e+01,4.400000000000000000e+01,3.000000000000000000e+01,2.400000000000000000e+01,2.200000000000000000e+01,5.300000000000000266e-01,3.214198800000000000e+09
2.500000000000000000e+01,4.600000000000000000e+01,1.470000000000000000e+02,7.800000000000000000e+01,4.100000000000000000e+01,3.100000000000000000e+01,2.500000000000000000e+01,2.200000000000000000e+01,5.300000000000000266e-01,3.232538000000000000e+09
2.600000000000000000e+01,4.600000000000000000e+01,1.470000000000000000e+02,7.800000000000000000e+01,4.000000000000000000e+01,3.200000000000000000e+01,2.700000000000000000e+01,2.400000000000000000e+01,5.300000000000000266e-01,3.251144900000000000e+09
2.900000000000000000e+01,5.000000000000000000e+01,1.420000000000000000e+02,1.130000000000000000e+02,4.600000000000000000e+01,3.100000000000000000e+01,2.700000000000000000e+01,2.600000000000000000e+01,5.400000000000000355e-01,3.274147600000000000e+09
2.800000000000000000e+01,5.200000000000000000e+01,1.530000000000000000e+02,1.210000000000000000e+02,5.200000000000000000e+01,2.900000000000000000e+01,2.700000000000000000e+01,2.600000000000000000e+01,5.400000000000000355e-01,3.291960200000000000e+09
2.800000000000000000e+01,5.600000000000000000e+01,1.750000000000000000e+02,1.200000000000000000e+02,5.300000000000000000e+01,3.000000000000000000e+01,2.700000000000000000e+01,2.800000000000000000e+01,5.400000000000000355e-01,3.309889300000000000e+09
2.900000000000000000e+01,6.100000000000000000e+01,1.800000000000000000e+02,1.170000000000000000e+02,5.100000000000000000e+01,3.200000000000000000e+01,2.300000000000000000e+01,3.000000000000000000e+01,5.500000000000000444e-01,3.327847700000000000e+09
2.900000000000000000e+01,6.200000000000000000e+01,1.790000000000000000e+02,1.160000000000000000e+02,5.200000000000000000e+01,3.100000000000000000e+01,2.200000000000000000e+01,2.900000000000000000e+01,5.500000000000000444e-01,3.345139200000000000e+09
2.800000000000000000e+01,6.300000000000000000e+01,1.750000000000000000e+02,8.900000000000000000e+01,4.700000000000000000e+01,3.100000000000000000e+01,2.200000000000000000e+01,2.900000000000000000e+01,5.500000000000000444e-01,3.363122100000000000e+09
3.100000000000000000e+01,6.400000000000000000e+01,1.740000000000000000e+02,8.200000000000000000e+01,4.000000000000000000e+01,3.100000000000000000e+01,1.900000000000000000e+01,2.700000000000000000e+01,5.500000000000000444e-01,3.381224900000000000e+09
3.300000000000000000e+01,6.400000000000000000e+01,1.550000000000000000e+02,7.200000000000000000e+01,3.400000000000000000e+01,3.100000000000000000e+01,2.100000000000000000e+01,2.900000000000000000e+01,5.500000000000000444e-01,3.398894700000000000e+09
3.300000000000000000e+01,6.200000000000000000e+01,1.250000000000000000e+02,7.100000000000000000e+01,3.500000000000000000e+01,2.700000000000000000e+01,2.000000000000000000e+01,2.800000000000000000e+01,5.500000000000000444e-01,3.419095600000000000e+09
3.300000000000000000e+01,6.400000000000000000e+01,1.380000000000000000e+02,6.800000000000000000e+01,3.600000000000000000e+01,2.900000000000000000e+01,2.000000000000000000e+01,2.700000000000000000e+01,5.500000000000000444e-01,3.439227700000000000e+09
3.000000000000000000e+01,6.600000000000000000e+01,1.410000000000000000e+02,8.000000000000000000e+01,3.800000000000000000e+01,3.000000000000000000e+01,2.100000000000000000e+01,2.800000000000000000e+01,5.500000000000000444e-01,3.456722400000000000e+09
2.500000000000000000e+01,6.100000000000000000e+01,1.340000000000000000e+02,7.800000000000000000e+01,4.300000000000000000e+01,2.900000000000000000e+01,2.300000000000000000e+01,2.700000000000000000e+01,5.500000000000000444e-01,3.473768200000000000e+09
2.400000000000000000e+01,5.700000000000000000e+01,1.320000000000000000e+02,7.800000000000000000e+01,4.400000000000000000e+01,2.800000000000000000e+01,2.400000000000000000e+01,2.600000000000000000e+01,5.500000000000000444e-01,3.490683900000000000e+09
2.200000000000000000e+01,5.600000000000000000e+01,1.310000000000000000e+02,8.000000000000000000e+01,4.400000000000000000e+01,2.900000000000000000e+01,2.600000000000000000e+01,2.600000000000000000e+01,5.500000000000000444e-01,3.508629300000000000e+09
2.500000000000000000e+01,5.500000000000000000e+01,1.400000000000000000e+02,8.700000000000000000e+01,4.300000000000000000e+01,2.900000000000000000e+01,2.600000000000000000e+01,2.600000000000000000e+01,5.500000000000000444e-01,3.526145700000000000e+09
2.700000000000000000e+01,5.400000000000000000e+01,1.290000000000000000e+02,7.100000000000000000e+01,4.000000000000000000e+01,2.800000000000000000e+01,2.500000000000000000e+01,2.300000000000000000e+01,5.500000000000000444e-01,3.544049600000000000e+09
2.700000000000000000e+01,4.900000000000000000e+01,1.180000000000000000e+02,9.600000000000000000e+01,3.900000000000000000e+01,2.900000000000000000e+01,2.400000000000000000e+01,2.600000000000000000e+01,5.500000000000000444e-01,3.560984400000000000e+09
2.800000000000000000e+01,5.100000000000000000e+01,1.460000000000000000e+02,1.070000000000000000e+02,4.200000000000000000e+01,3.000000000000000000e+01,2.300000000000000000e+01,2.500000000000000000e+01,5.500000000000000444e-01,3.578623100000000000e+09
2.800000000000000000e+01,5.300000000000000000e+01,1.480000000000000000e+02,1.120000000000000000e+02,4.500000000000000000e+01,2.800000000000000000e+01,2.100000000000000000e+01,2.200000000000000000e+01,5.500000000000000444e-01,3.595771800000000000e+09
2.400000000000000000e+01,5.500000000000000000e+01,1.330000000000000000e+02,1.120000000000000000e+02,4.300000000000000000e+01,2.700000000000000000e+01,2.200000000000000000e+01,2.400000000000000000e+01,5.500000000000000444e-01,3.613045200000000000e+09
2.600000000000000000e+01,5.500000000000000000e+01,1.720000000000000000e+02,1.120000000000000000e+02,4.300000000000000000e+01,2.700000000000000000e+01,2.300000000000000000e+01,2.400000000000000000e+01,5.500000000000000444e-01,3.630715300000000000e+09
2.700000000000000000e+01,5.900000000000000000e+01,1.760000000000000000e+02,9.500000000000000000e+01,4.700000000000000000e+01,3.400000000000000000e+01,2.600000000000000000e+01,2.300000000000000000e+01,5.600000000000000533e-01,3.648375900000000000e+09
2.600000000000000000e+01,5.900000000000000000e+01,1.590000000000000000e+02,9.000000000000000000e+01,5.100000000000000000e+01,3.500000000000000000e+01,2.500000000000000000e+01,2.300000000000000000e+01,5.600000000000000533e-01,3.666744000000000000e+09
2.600000000000000000e+01,5.500000000000000000e+01,1.570000000000000000e+02,8.300000000000000000e+01,5.300000000000000000e+01,4.000000000000000000e+01,2.600000000000000000e+01,2.400000000000000000e+01,5.600000000000000533e-01,3.683570900000000000e+09
2.700000000000000000e+01,4.900000000000000000e+01,1.820000000000000000e+02,1.000000000000000000e+02,6.500000000000000000e+01,4.500000000000000000e+01,2.600000000000000000e+01,2.600000000000000000e+01,5.600000000000000533e-01,3.701572100000000000e+09
2.500000000000000000e+01,4.400000000000000000e+01,1.810000000000000000e+02,1.120000000000000000e+02,7.000000000000000000e+01,4.500000000000000000e+01,2.500000000000000000e+01,2.800000000000000000e+01,5.600000000000000533e-01,3.719052500000000000e+09
2.300000000000000000e+01,3.800000000000000000e+01,1.810000000000000000e+02,1.090000000000000000e+02,6.500000000000000000e+01,4.200000000000000000e+01,2.300000000000000000e+01,2.700000000000000000e+01,5.600000000000000533e-01,3.736818400000000000e+09
2.300000000000000000e+01,4.000000000000000000e+01,1.830000000000000000e+02,1.110000000000000000e+02,6.300000000000000000e+01,4.200000000000000000e+01,2.300000000000000000e+01,2.800000000000000000e+01,5.600000000000000533e-01,3.755858700000000000e+09
2.700000000000000000e+01,4.100000000000000000e+01,2.030000000000000000e+02,1.150000000000000000e+02,6.200000000000000000e+01,3.900000000000000000e+01,2.400000000000000000e+01,2.700000000000000000e+01,5.600000000000000533e-01,3.773964200000000000e+09
2.600000000000000000e+01,4.100000000000000000e+01,1.810000000000000000e+02,9.600000000000000000e+01,5.000000000000000000e+01,3.300000000000000000e+01,2.200000000000000000e+01,2.300000000000000000e+01,5.600000000000000533e-01,3.790844800000000000e+09
2.800000000000000000e+01,3.700000000000000000e+01,1.510000000000000000e+02,8.500000000000000000e+01,4.400000000000000000e+01,3.300000000000000000e+01,2.200000000000000000e+01,2.400000000000000000e+01,5.600000000000000533e-01,3.809398700000000000e+09
2.900000000000000000e+01,4.300000000000000000e+01,1.630000000000000000e+02,1.060000000000000000e+02,5.600000000000000000e+01,3.000000000000000000e+01,2.300000000000000000e+01,2.400000000000000000e+01,5.600000000000000533e-01,3.827008400000000000e+09
2.900000000000000000e+01,4.200000000000000000e+01,1.860000000000000000e+02,1.240000000000000000e+02,7.600000000000000000e+01,3.400000000000000000e+01,2.500000000000000000e+01,2.400000000000000000e+01,5.600000000000000533e-01,3.843929400000000000e+09
2.600000000000000000e+01,4.600000000000000000e+01,1.850000000000000000e+02,1.230000000000000000e+02,7.900000000000000000e+01,3.500000000000000000e+01,2.500000000000000000e+01,2.600000000000000000e+01,5.600000000000000533e-01,3.862590500000000000e+09
2.600000000000000000e+01,4.700000000000000000e+01,1.900000000000000000e+02,1.260000000000000000e+02,8.100000000000000000e+01,3.500000000000000000e+01,2.700000000000000000e+01,2.900000000000000000e+01,5.600000000000000533e-01,3.880436900000000000e+09
3.600000000000000000e+01,4.800000000000000000e+01,2.020000000000000000e+02,1.250000000000000000e+02,8.100000000000000000e+01,3.800000000000000000e+01,6.700000000000000000e+01,2.080000000000000000e+02,5.500000000000000444e-01,3.898318600000000000e+09
3.800000000000000000e+01,4.900000000000000000e+01,2.230000000000000000e+02,1.100000000000000000e+02,7.300000000000000000e+01,4.200000000000000000e+01,6.800000000000000000e+01,2.190000000000000000e+02,5.500000000000000444e-01,3.916047900000000000e+09
3.900000000000000000e+01,5.300000000000000000e+01,2.010000000000000000e+02,7.800000000000000000e+01,5.000000000000000000e+01,4.100000000000000000e+01,6.900000000000000000e+01,2.220000000000000000e+02,5.400000000000000355e-01,3.933471600000000000e+09
4.200000000000000000e+01,5.200000000000000000e+01,1.850000000000000000e+02,7.000000000000000000e+01,4.200000000000000000e+01,4.200000000000000000e+01,7.100000000000000000e+01,2.240000000000000000e+02,5.400000000000000355e-01,3.950890300000000000e+09
4.200000000000000000e+01,5.200000000000000000e+01,1.930000000000000000e+02,7.200000000000000000e+01,3.900000000000000000e+01,4.300000000000000000e+01,7.100000000000000000e+01,2.280000000000000000e+02,5.300000000000000266e-01,3.968622600000000000e+09
3.600000000000000000e+01,5.200000000000000000e+01,1.720000000000000000e+02,6.600000000000000000e+01,3.700000000000000000e+01,4.000000000000000000e+01,4.100000000000000000e+01,1.100000000000000000e+02,5.300000000000000266e-01,3.986219000000000000e+09
3.900000000000000000e+01,4.700000000000000000e+01,1.260000000000000000e+02,5.500000000000000000e+01,3.500000000000000000e+01,3.800000000000000000e+01,5.300000000000000000e+01,1.290000000000000000e+02,5.200000000000000178e-01,4.003473700000000000e+09
4.000000000000000000e+01,4.300000000000000000e+01,1.190000000000000000e+02,5.200000000000000000e+01,3.100000000000000000e+01,3.300000000000000000e+01,5.100000000000000000e+01,1.280000000000000000e+02,5.200000000000000178e-01,4.021452500000000000e+09
3.700000000000000000e+01,4.300000000000000000e+01,1.110000000000000000e+02,4.800000000000000000e+01,3.000000000000000000e+01,3.300000000000000000e+01,5.100000000000000000e+01,1.260000000000000000e+02,5.100000000000000089e-01,4.041067300000000000e+09
3.700000000000000000e+01,4.400000000000000000e+01,6.200000000000000000e+01,2.800000000000000000e+01,2.500000000000000000e+01,3.100000000000000000e+01,5.100000000000000000e+01,1.210000000000000000e+02,5.000000000000000000e-01,4.059435600000000000e+09
3.700000000000000000e+01,4.600000000000000000e+01,5.400000000000000000e+01,2.600000000000000000e+01,2.500000000000000000e+01,3.100000000000000000e+01,4.800000000000000000e+01,1.120000000000000000e+02,5.000000000000000000e-01,4.077464600000000000e+09
3.000000000000000000e+01,4.500000000000000000e+01,4.400000000000000000e+01,2.600000000000000000e+01,2.300000000000000000e+01,2.800000000000000000e+01,3.200000000000000000e+01,6.100000000000000000e+01,4.899999999999999911e-01,4.095710000000000000e+09
2.900000000000000000e+01,4.100000000000000000e+01,4.700000000000000000e+01,2.700000000000000000e+01,2.500000000000000000e+01,2.800000000000000000e+01,3.100000000000000000e+01,5.200000000000000000e+01,4.899999999999999911e-01,4.113461600000000000e+09
3.400000000000000000e+01,3.800000000000000000e+01,4.300000000000000000e+01,2.500000000000000000e+01,2.300000000000000000e+01,2.900000000000000000e+01,2.600000000000000000e+01,7.600000000000000000e+01,4.799999999999999822e-01,4.130951300000000000e+09
3.600000000000000000e+01,3.600000000000000000e+01,4.500000000000000000e+01,3.300000000000000000e+01,2.700000000000000000e+01,2.900000000000000000e+01,2.700000000000000000e+01,7.300000000000000000e+01,4.799999999999999822e-01,4.148977000000000000e+09
3.500000000000000000e+01,3.200000000000000000e+01,4.600000000000000000e+01,4.200000000000000000e+01,2.800000000000000000e+01,2.800000000000000000e+01,2.500000000000000000e+01,6.900000000000000000e+01,4.799999999999999822e-01,4.167853500000000000e+09
3.700000000000000000e+01,3.100000000000000000e+01,4.700000000000000000e+01,4.800000000000000000e+01,3.200000000000000000e+01,3.100000000000000000e+01,2.600000000000000000e+01,6.800000000000000000e+01,4.799999999999999822e-01,4.186071400000000000e+09
3.700000000000000000e+01,3.000000000000000000e+01,3.900000000000000000e+01,5.000000000000000000e+01,3.200000000000000000e+01,3.200000000000000000e+01,2.600000000000000000e+01,6.900000000000000000e+01,4.699999999999999734e-01,4.204755200000000000e+09
3.100000000000000000e+01,2.800000000000000000e+01,4.900000000000000000e+01,5.200000000000000000e+01,3.300000000000000000e+01,2.800000000000000000e+01,2.400000000000000000e+01,3.800000000000000000e+01,4.699999999999999734e-01,4.225180200000000000e+09
2.800000000000000000e+01,2.900000000000000000e+01,5.200000000000000000e+01,5.000000000000000000e+01,3.200000000000000000e+01,3.000000000000000000e+01,2.100000000000000000e+01,3.500000000000000000e+01,4.699999999999999734e-01,4.247335200000000000e+09
2.600000000000000000e+01,3.400000000000000000e+01,5.500000000000000000e+01,6.500000000000000000e+01,3.800000000000000000e+01,3.100000000000000000e+01,2.400000000000000000e+01,3.400000000000000000e+01,4.699999999999999734e-01,4.269402800000000000e+09
2.200000000000000000e+01,3.600000000000000000e+01,5.800000000000000000e+01,7.000000000000000000e+01,4.100000000000000000e+01,3.000000000000000000e+01,2.300000000000000000e+01,3.200000000000000000e+01,4.699999999999999734e-01,4.287150700000000000e+09
2.700000000000000000e+01,4.100000000000000000e+01,5.700000000000000000e+01,7.400000000000000000e+01,4.500000000000000000e+01,3.300000000000000000e+01,2.400000000000000000e+01,2.800000000000000000e+01,4.699999999999999734e-01,4.305863000000000000e+09
3.000000000000000000e+01,5.000000000000000000e+01,5.400000000000000000e+01,7.400000000000000000e+01,4.600000000000000000e+01,3.400000000000000000e+01,2.500000000000000000e+01,2.400000000000000000e+01,4.699999999999999734e-01,4.325485800000000000e+09
3.700000000000000000e+01,5.700000000000000000e+01,4.600000000000000000e+01,7.300000000000000000e+01,4.700000000000000000e+01,3.300000000000000000e+01,2.600000000000000000e+01,2.500000000000000000e+01,4.799999999999999822e-01,4.350159900000000000e+09
3.800000000000000000e+01,7.000000000000000000e+01,4.900000000000000000e+01,5.400000000000000000e+01,4.200000000000000000e+01,3.200000000000000000e+01,2.400000000000000000e+01,2.500000000000000000e+01,4.799999999999999822e-01,4.370962600000000000e+09
3.800000000000000000e+01,7.400000000000000000e+01,6.300000000000000000e+01,5.000000000000000000e+01,4.000000000000000000e+01,2.900000000000000000e+01,2.300000000000000000e+01,2.600000000000000000e+01,4.799999999999999822e-01,4.388982800000000000e+09
3.600000000000000000e+01,7.600000000000000000e+01,7.200000000000000000e+01,5.000000000000000000e+01,3.800000000000000000e+01,2.400000000000000000e+01,2.200000000000000000e+01,2.700000000000000000e+01,4.799999999999999822e-01,4.406739500000000000e+09
3.700000000000000000e+01,8.100000000000000000e+01,8.200000000000000000e+01,5.500000000000000000e+01,4.000000000000000000e+01,2.600000000000000000e+01,2.200000000000000000e+01,2.600000000000000000e+01,4.899999999999999911e-01,4.426224000000000000e+09
4.100000000000000000e+01,8.100000000000000000e+01,8.500000000000000000e+01,5.600000000000000000e+01,3.800000000000000000e+01,2.600000000000000000e+01,2.200000000000000000e+01,2.500000000000000000e+01,4.899999999999999911e-01,4.447043500000000000e+09
4.500000000000000000e+01,7.600000000000000000e+01,8.600000000000000000e+01,5.800000000000000000e+01,4.000000000000000000e+01,2.900000000000000000e+01,2.100000000000000000e+01,2.400000000000000000e+01,4.899999999999999911e-01,4.469216700000000000e+09
4.900000000000000000e+01,8.800000000000000000e+01,8.100000000000000000e+01,5.300000000000000000e+01,3.700000000000000000e+01,2.900000000000000000e+01,2.100000000000000000e+01,2.300000000000000000e+01,4.899999999999999911e-01,4.487310500000000000e+09
6.300000000000000000e+01,8.800000000000000000e+01,9.000000000000000000e+01,6.200000000000000000e+01,3.400000000000000000e+01,2.900000000000000000e+01,1.900000000000000000e+01,2.400000000000000000e+01,4.899999999999999911e-01,4.507437400000000000e+09
6.300000000000000000e+01,8.700000000000000000e+01,8.800000000000000000e+01,6.400000000000000000e+01,3.200000000000000000e+01,2.800000000000000000e+01,2.000000000000000000e+01,2.600000000000000000e+01,5.000000000000000000e-01,4.526295300000000000e+09
6.100000000000000000e+01,8.500000000000000000e+01,8.700000000000000000e+01,6.900000000000000000e+01,3.400000000000000000e+01,2.900000000000000000e+01,2.100000000000000000e+01,2.600000000000000000e+01,5.000000000000000000e-01,4.547038400000000000e+09
7.800000000000000000e+01,8.400000000000000000e+01,1.000000000000000000e+02,7.300000000000000000e+01,3.200000000000000000e+01,3.000000000000000000e+01,2.200000000000000000e+01,3.200000000000000000e+01,5.000000000000000000e-01,4.569164500000000000e+09
7.700000000000000000e+01,7.100000000000000000e+01,1.060000000000000000e+02,7.100000000000000000e+01,3.000000000000000000e+01,2.900000000000000000e+01,2.400000000000000000e+01,3.200000000000000000e+01,5.000000000000000000e-01,4.586986600000000000e+09
6.900000000000000000e+01,7.400000000000000000e+01,1.010000000000000000e+02,5.800000000000000000e+01,3.000000000000000000e+01,2.900000000000000000e+01,2.500000000000000000e+01,3.200000000000000000e+01,5.000000000000000000e-01,4.604729900000000000e+09
6.900000000000000000e+01,6.800000000000000000e+01,1.120000000000000000e+02,6.400000000000000000e+01,3.200000000000000000e+01,2.800000000000000000e+01,2.400000000000000000e+01,3.000000000000000000e+01,5.000000000000000000e-01,4.625576100000000000e+09
6.500000000000000000e+01,6.700000000000000000e+01,1.120000000000000000e+02,6.400000000000000000e+01,3.300000000000000000e+01,2.500000000000000000e+01,2.400000000000000000e+01,3.100000000000000000e+01,5.000000000000000000e-01,4.647857100000000000e+09
4.500000000000000000e+01,7.000000000000000000e+01,9.800000000000000000e+01,6.100000000000000000e+01,3.400000000000000000e+01,2.200000000000000000e+01,2.400000000000000000e+01,2.500000000000000000e+01,5.000000000000000000e-01,4.670186700000000000e+09
4.500000000000000000e+01,6.500000000000000000e+01,8.900000000000000000e+01,6.100000000000000000e+01,3.500000000000000000e+01,2.500000000000000000e+01,2.200000000000000000e+01,2.500000000000000000e+01,5.100000000000000089e-01,4.688383400000000000e+09
4.900000000000000000e+01,5.900000000000000000e+01,1.050000000000000000e+02,6.500000000000000000e+01,3.700000000000000000e+01,2.700000000000000000e+01,2.000000000000000000e+01,2.600000000000000000e+01,5.100000000000000089e-01,4.707246000000000000e+09
4.700000000000000000e+01,6.100000000000000000e+01,9.900000000000000000e+01,5.500000000000000000e+01,3.400000000000000000e+01,2.700000000000000000e+01,2.100000000000000000e+01,2.600000000000000000e+01,5.100000000000000089e-01,4.725778800000000000e+09
5.000000000000000000e+01,6.000000000000000000e+01,1.040000000000000000e+02,4.900000000000000000e+01,2.900000000000000000e+01,2.800000000000000000e+01,2.100000000000000000e+01,2.300000000000000000e+01,5.100000000000000089e-01,4.748021000000000000e+09
4.300000000000000000e+01,5.300000000000000000e+01,1.250000000000000000e+02,4.700000000000000000e+01,2.700000000000000000e+01,2.800000000000000000e+01,2.100000000000000000e+01,2.400000000000000000e+01,5.100000000000000089e-01,4.766226700000000000e+09
4.100000000000000000e+01,5.900000000000000000e+01,1.430000000000000000e+02,4.900000000000000000e+01,2.700000000000000000e+01,2.700000000000000000e+01,2.100000000000000000e+01,2.300000000000000000e+01,5.100000000000000089e-01,4.786152600000000000e+09
3.300000000000000000e+01,5.700000000000000000e+01,1.460000000000000000e+02,4.800000000000000000e+01,2.300000000000000000e+01,2.600000000000000000e+01,2.200000000000000000e+01,2.700000000000000000e+01,5.000000000000000000e-01,4.805483200000000000e+09
3.300000000000000000e+01,5.000000000000000000e+01,1.430000000000000000e+02,4.300000000000000000e+01,2.200000000000000000e+01,2.600000000000000000e+01,2.200000000000000000e+01,2.800000000000000000e+01,5.000000000000000000e-01,4.826942600000000000e+09
2.800000000000000000e+01,5.200000000000000000e+01,1.490000000000000000e+02,4.000000000000000000e+01,2.300000000000000000e+01,2.500000000000000000e+01,2.100000000000000000e+01,3.000000000000000000e+01,5.000000000000000000e-01,4.849543400000000000e+09
2.700000000000000000e+01,5.700000000000000000e+01,1.640000000000000000e+02,4.400000000000000000e+01,2.400000000000000000e+01,2.600000000000000000e+01,2.200000000000000000e+01,3.200000000000000000e+01,5.000000000000000000e-01,4.868756400000000000e+09
2.700000000000000000e+01,5.400000000000000000e+01,1.500000000000000000e+02,4.100000000000000000e+01,2.200000000000000000e+01,2.300000000000000000e+01,2.100000000000000000e+01,3.100000000000000000e+01,5.000000000000000000e-01,4.887136500000000000e+09
2.700000000000000000e+01,5.400000000000000000e+01,1.450000000000000000e+02,4.400000000000000000e+01,2.700000000000000000e+01,2.300000000000000000e+01,2.200000000000000000e+01,2.600000000000000000e+01,5.000000000000000000e-01,4.907267900000000000e+09
2.600000000000000000e+01,5.400000000000000000e+01,1.420000000000000000e+02,4.300000000000000000e+01,2.600000000000000000e+01,2.300000000000000000e+01,2.100000000000000000e+01,2.500000000000000000e+01,5.000000000000000000e-01,4.926888300000000000e+09
2.500000000000000000e+01,5.700000000000000000e+01,1.360000000000000000e+02,4.200000000000000000e+01,2.600000000000000000e+01,2.400000000000000000e+01,2.200000000000000000e+01,2.300000000000000000e+01,5.000000000000000000e-01,4.949097000000000000e+09
2.500000000000000000e+01,5.000000000000000000e+01,1.000000000000000000e+02,3.900000000000000000e+01,2.400000000000000000e+01,2.100000000000000000e+01,2.000000000000000000e+01,2.200000000000000000e+01,5.000000000000000000e-01,4.967125500000000000e+09
2.400000000000000000e+01,4.700000000000000000e+01,1.150000000000000000e+02,4.100000000000000000e+01,2.400000000000000000e+01,2.300000000000000000e+01,2.300000000000000000e+01,2.500000000000000000e+01,5.000000000000000000e-01,4.986333500000000000e+09
2.600000000000000000e+01,4.600000000000000000e+01,1.260000000000000000e+02,4.900000000000000000e+01,2.000000000000000000e+01,2.400000000000000000e+01,2.300000000000000000e+01,2.600000000000000000e+01,5.000000000000000000e-01,5.004898200000000000e+09
2.500000000000000000e+01,4.800000000000000000e+01,1.300000000000000000e+02,5.100000000000000000e+01,2.100000000000000000e+01,2.500000000000000000e+01,2.400000000000000000e+01,2.500000000000000000e+01,5.000000000000000000e-01,5.026954700000000000e+09
2.800000000000000000e+01,4.600000000000000000e+01,1.410000000000000000e+02,5.200000000000000000e+01,2.300000000000000000e+01,2.600000000000000000e+01,2.300000000000000000e+01,2.500000000000000000e+01,5.000000000000000000e-01,5.049229500000000000e+09
2.800000000000000000e+01,4.200000000000000000e+01,1.380000000000000000e+02,5.300000000000000000e+01,2.500000000000000000e+01,2.600000000000000000e+01,2.600000000000000000e+01,2.300000000000000000e+01,5.000000000000000000e-01,5.067488600000000000e+09
2.900000000000000000e+01,4.200000000000000000e+01,1.230000000000000000e+02,5.100000000000000000e+01,2.600000000000000000e+01,2.600000000000000000e+01,2.400000000000000000e+01,2.100000000000000000e+01,5.000000000000000000e-01,5.085489300000000000e+09
2.900000000000000000e+01,4.100000000000000000e+01,9.500000000000000000e+01,3.700000000000000000e+01,2.500000000000000000e+01,2.500000000000000000e+01,2.500000000000000000e+01,1.800000000000000000e+01,5.000000000000000000e-01,5.104618300000000000e+09
2.900000000000000000e+01,4.200000000000000000e+01,9.600000000000000000e+01,3.600000000000000000e+01,2.500000000000000000e+01,2.400000000000000000e+01,2.600000000000000000e+01,2.300000000000000000e+01,5.000000000000000000e-01,5.126768200000000000e+09
2.900000000000000000e+01,4.000000000000000000e+01,7.100000000000000000e+01,3.400000000000000000e+01,2.300000000000000000e+01,2.500000000000000000e+01,2.600000000000000000e+01,2.400000000000000000e+01,5.000000000000000000e-01,5.149079100000000000e+09
3.000000000000000000e+01,3.900000000000000000e+01,6.800000000000000000e+01,3.100000000000000000e+01,2.100000000000000000e+01,2.600000000000000000e+01,2.300000000000000000e+01,2.600000000000000000e+01,5.000000000000000000e-01,5.167778300000000000e+09
2.900000000000000000e+01,3.900000000000000000e+01,7.600000000000000000e+01,3.200000000000000000e+01,2.200000000000000000e+01,2.900000000000000000e+01,2.400000000000000000e+01,2.600000000000000000e+01,5.000000000000000000e-01,5.186169600000000000e+09
2.700000000000000000e+01,4.100000000000000000e+01,7.700000000000000000e+01,3.200000000000000000e+01,2.200000000000000000e+01,2.800000000000000000e+01,2.400000000000000000e+01,2.700000000000000000e+01,5.000000000000000000e-01,5.205479300000000000e+09
2.700000000000000000e+01,4.000000000000000000e+01,7.400000000000000000e+01,3.000000000000000000e+01,2.300000000000000000e+01,2.800000000000000000e+01,2.200000000000000000e+01,2.700000000000000000e+01,4.899999999999999911e-01,5.227058400000000000e+09
2.700000000000000000e+01,4.000000000000000000e+01,8.800000000000000000e+01,3.700000000000000000e+01,2.200000000000000000e+01,2.700000000000000000e+01,2.300000000000000000e+01,2.700000000000000000e+01,4.899999999999999911e-01,5.249371900000000000e+09
2.800000000000000000e+01,4.300000000000000000e+01,8.600000000000000000e+01,3.700000000000000000e+01,2.500000000000000000e+01,2.600000000000000000e+01,2.300000000000000000e+01,2.600000000000000000e+01,4.899999999999999911e-01,5.267848500000000000e+09
2.600000000000000000e+01,4.300000000000000000e+01,8.500000000000000000e+01,4.000000000000000000e+01,2.300000000000000000e+01,2.300000000000000000e+01,2.500000000000000000e+01,2.500000000000000000e+01,4.899999999999999911e-01,5.285435200000000000e+09
2.700000000000000000e+01,4.400000000000000000e+01,8.300000000000000000e+01,3.800000000000000000e+01,2.500000000000000000e+01,2.600000000000000000e+01,2.300000000000000000e+01,2.500000000000000000e+01,4.899999999999999911e-01,5.305234200000000000e+09
2.700000000000000000e+01,4.300000000000000000e+01,7.300000000000000000e+01,3.800000000000000000e+01,2.600000000000000000e+01,2.700000000000000000e+01,2.300000000000000000e+01,2.200000000000000000e+01,4.899999999999999911e-01,5.327417900000000000e+09
2.800000000000000000e+01,4.200000000000000000e+01,6.500000000000000000e+01,3.200000000000000000e+01,2.500000000000000000e+01,2.700000000000000000e+01,2.300000000000000000e+01,2.300000000000000000e+01,4.899999999999999911e-01,5.349549200000000000e+09
2.600000000000000000e+01,3.900000000000000000e+01,7.800000000000000000e+01,3.400000000000000000e+01,2.400000000000000000e+01,3.000000000000000000e+01,2.300000000000000000e+01,2.200000000000000000e+01,4.799999999999999822e-01,5.367116800000000000e+09
2.600000000000000000e+01,3.800000000000000000e+01,7.400000000000000000e+01,3.200000000000000000e+01,2.400000000000000000e+01,2.900000000000000000e+01,2.400000000000000000e+01,2.400000000000000000e+01,4.799999999999999822e-01,5.387313200000000000e+09
2.600000000000000000e+01,3.900000000000000000e+01,7.200000000000000000e+01,3.500000000000000000e+01,2.500000000000000000e+01,2.800000000000000000e+01,2.400000000000000000e+01,2.400000000000000000e+01,4.799999999999999822e-01,5.408228000000000000e+09
2.600000000000000000e+01,3.700000000000000000e+01,7.900000000000000000e+01,3.800000000000000000e+01,2.500000000000000000e+01,2.800000000000000000e+01,2.300000000000000000e+01,2.400000000000000000e+01,4.799999999999999822e-01,5.427506400000000000e+09
2.400000000000000000e+01,3.900000000000000000e+01,8.100000000000000000e+01,3.900000000000000000e+01,2.500000000000000000e+01,2.600000000000000000e+01,2.400000000000000000e+01,2.300000000000000000e+01,4.799999999999999822e-01,5.448073500000000000e+09
2.300000000000000000e+01,3.800000000000000000e+01,8.100000000000000000e+01,4.000000000000000000e+01,2.500000000000000000e+01,2.600000000000000000e+01,2.400000000000000000e+01,2.000000000000000000e+01,4.799999999999999822e-01,5.484255500000000000e+09
3.000000000000000000e+01,4.100000000000000000e+01,8.200000000000000000e+01,3.800000000000000000e+01,2.800000000000000000e+01,2.900000000000000000e+01,2.200000000000000000e+01,2.000000000000000000e+01,4.799999999999999822e-01,5.501872100000000000e+09
3.000000000000000000e+01,3.500000000000000000e+01,8.200000000000000000e+01,3.700000000000000000e+01,2.600000000000000000e+01,2.700000000000000000e+01,2.100000000000000000e+01,2.100000000000000000e+01,4.799999999999999822e-01,5.520603700000000000e+09
3.200000000000000000e+01,4.200000000000000000e+01,9.600000000000000000e+01,4.000000000000000000e+01,2.600000000000000000e+01,2.900000000000000000e+01,2.200000000000000000e+01,2.200000000000000000e+01,4.799999999999999822e-01,5.538358800000000000e+09
3.000000000000000000e+01,3.900000000000000000e+01,9.300000000000000000e+01,3.900000000000000000e+01,2.600000000000000000e+01,2.900000000000000000e+01,2.200000000000000000e+01,2.500000000000000000e+01,4.799999999999999822e-01,5.556528400000000000e+09
3.300000000000000000e+01,4.300000000000000000e+01,8.700000000000000000e+01,3.700000000000000000e+01,2.600000000000000000e+01,2.600000000000000000e+01,2.100000000000000000e+01,2.700000000000000000e+01,4.799999999999999822e-01,5.574497500000000000e+09
2.900000000000000000e+01,4.300000000000000000e+01,8.200000000000000000e+01,3.600000000000000000e+01,2.200000000000000000e+01,2.500000000000000000e+01,2.000000000000000000e+01,2.600000000000000000e+01,4.799999999999999822e-01,5.592542200000000000e+09
3.000000000000000000e+01,4.500000000000000000e+01,8.800000000000000000e+01,3.600000000000000000e+01,2.300000000000000000e+01,2.500000000000000000e+01,2.100000000000000000e+01,2.400000000000000000e+01,4.799999999999999822e-01,5.611956700000000000e+09
2.900000000000000000e+01,4.600000000000000000e+01,8.900000000000000000e+01,3.300000000000000000e+01,2.300000000000000000e+01,2.300000000000000000e+01,2.000000000000000000e+01,2.400000000000000000e+01,4.799999999999999822e-01,5.629804800000000000e+09
3.000000000000000000e+01,4.700000000000000000e+01,8.800000000000000000e+01,3.100000000000000000e+01,2.200000000000000000e+01,2.400000000000000000e+01,1.800000000000000000e+01,2.200000000000000000e+01,4.799999999999999822e-01,5.648288900000000000e+09
2.900000000000000000e+01,4.500000000000000000e+01,8.400000000000000000e+01,3.000000000000000000e+01,2.100000000000000000e+01,2.600000000000000000e+01,2.000000000000000000e+01,2.200000000000000000e+01,4.799999999999999822e-01,5.668735200000000000e+09
2.800000000000000000e+01,4.300000000000000000e+01,8.400000000000000000e+01,3.100000000000000000e+01,2.300000000000000000e+01,2.600000000000000000e+01,2.000000000000000000e+01,2.300000000000000000e+01,4.799999999999999822e-01,5.686790500000000000e+09
2.600000000000000000e+01,4.600000000000000000e+01,8.700000000000000000e+01,3.000000000000000000e+01,2.100000000000000000e+01,2.700000000000000000e+01,2.000000000000000000e+01,2.400000000000000000e+01,4.799999999999999822e-01,5.705449500000000000e+09
2.300000000000000000e+01,4.300000000000000000e+01,7.100000000000000000e+01,2.700000000000000000e+01,2.300000000000000000e+01,2.800000000000000000e+01,2.200000000000000000e+01,2.300000000000000000e+01,4.799999999999999822e-01,5.724409300000000000e+09
2.300000000000000000e+01,4.300000000000000000e+01,8.200000000000000000e+01,3.100000000000000000e+01,2.300000000000000000e+01,2.800000000000000000e+01,2.200000000000000000e+01,2.400000000000000000e+01,4.799999999999999822e-01,5.746519300000000000e+09
2.000000000000000000e+01,4.400000000000000000e+01,9.400000000000000000e+01,3.500000000000000000e+01,2.400000000000000000e+01,2.700000000000000000e+01,2.300000000000000000e+01,2.400000000000000000e+01,4.799999999999999822e-01,5.768734800000000000e+09
2.100000000000000000e+01,4.600000000000000000e+01,9.700000000000000000e+01,3.400000000000000000e+01,2.300000000000000000e+01,2.400000000000000000e+01,2.200000000000000000e+01,2.300000000000000000e+01,4.799999999999999822e-01,5.787294400000000000e+09
2.400000000000000000e+01,4.300000000000000000e+01,9.300000000000000000e+01,3.500000000000000000e+01,2.300000000000000000e+01,2.400000000000000000e+01,2.400000000000000000e+01,2.400000000000000000e+01,4.799999999999999822e-01,5.805747900000000000e+09
2.600000000000000000e+01,4.400000000000000000e+01,8.600000000000000000e+01,3.600000000000000000e+01,2.200000000000000000e+01,2.200000000000000000e+01,2.300000000000000000e+01,2.600000000000000000e+01,4.799999999999999822e-01,5.824221700000000000e+09
2.600000000000000000e+01,4.400000000000000000e+01,7.700000000000000000e+01,3.400000000000000000e+01,2.300000000000000000e+01,2.100000000000000000e+01,2.400000000000000000e+01,2.400000000000000000e+01,4.799999999999999822e-01,5.846341200000000000e+09
2.700000000000000000e+01,4.200000000000000000e+01,7.200000000000000000e+01,3.600000000000000000e+01,2.200000000000000000e+01,2.400000000000000000e+01,2.300000000000000000e+01,2.400000000000000000e+01,4.799999999999999822e-01,5.868592100000000000e+09
2.800000000000000000e+01,4.100000000000000000e+01,7.500000000000000000e+01,3.800000000000000000e+01,2.200000000000000000e+01,2.600000000000000000e+01,2.600000000000000000e+01,2.600000000000000000e+01,4.799999999999999822e-01,5.886848600000000000e+09
2.500000000000000000e+01,3.900000000000000000e+01,6.800000000000000000e+01,3.700000000000000000e+01,2.200000000000000000e+01,2.500000000000000000e+01,2.500000000000000000e+01,2.500000000000000000e+01,4.799999999999999822e-01,5.905550300000000000e+09
2.500000000000000000e+01,3.500000000000000000e+01,7.500000000000000000e+01,3.900000000000000000e+01,2.200000000000000000e+01,2.700000000000000000e+01,2.400000000000000000e+01,2.300000000000000000e+01,4.799999999999999822e-01,5.924232400000000000e+09
2.700000000000000000e+01,3.700000000000000000e+01,6.900000000000000000e+01,3.800000000000000000e+01,2.200000000000000000e+01,2.700000000000000000e+01,2.300000000000000000e+01,2.400000000000000000e+01,4.799999999999999822e-01,5.946359100000000000e+09
2.600000000000000000e+01,3.700000000000000000e+01,6.400000000000000000e+01,3.300000000000000000e+01,2.300000000000000000e+01,2.400000000000000000e+01,2.200000000000000000e+01,2.400000000000000000e+01,4.799999999999999822e-01,5.968522400000000000e+09
3.100000000000000000e+01,3.300000000000000000e+01,5.900000000000000000e+01,3.100000000000000000e+01,2.500000000000000000e+01,2.500000000000000000e+01,1.900000000000000000e+01,2.600000000000000000e+01,4.799999999999999822e-01,5.989254200000000000e+09
3.200000000000000000e+01,3.600000000000000000e+01,7.400000000000000000e+01,3.900000000000000000e+01,2.500000000000000000e+01,2.500000000000000000e+01,1.900000000000000000e+01,2.500000000000000000e+01,4.799999999999999822e-01,6.009013700000000000e+09
3.000000000000000000e+01,3.500000000000000000e+01,6.500000000000000000e+01,3.700000000000000000e+01,2.400000000000000000e+01,2.400000000000000000e+01,2.000000000000000000e+01,2.500000000000000000e+01,4.799999999999999822e-01,6.028603800000000000e+09
2.800000000000000000e+01,3.100000000000000000e+01,6.500000000000000000e+01,3.700000000000000000e+01,2.400000000000000000e+01,2.300000000000000000e+01,2.100000000000000000e+01,2.600000000000000000e+01,4.799999999999999822e-01,6.047175500000000000e+09
3.000000000000000000e+01,3.200000000000000000e+01,6.300000000000000000e+01,3.700000000000000000e+01,2.200000000000000000e+01,2.400000000000000000e+01,2.200000000000000000e+01,2.500000000000000000e+01,4.799999999999999822e-01,6.068661400000000000e+09
3.000000000000000000e+01,4.100000000000000000e+01,6.000000000000000000e+01,3.700000000000000000e+01,2.200000000000000000e+01,2.300000000000000000e+01,2.200000000000000000e+01,2.300000000000000000e+01,4.799999999999999822e-01,6.088182100000000000e+09
3.100000000000000000e+01,4.400000000000000000e+01,6.000000000000000000e+01,3.200000000000000000e+01,2.300000000000000000e+01,2.400000000000000000e+01,2.100000000000000000e+01,2.600000000000000000e+01,4.799999999999999822e-01,6.107360100000000000e+09
3.200000000000000000e+01,4.700000000000000000e+01,6.000000000000000000e+01,3.200000000000000000e+01,2.300000000000000000e+01,2.600000000000000000e+01,1.800000000000000000e+01,2.500000000000000000e+01,4.799999999999999822e-01,6.125754600000000000e+09
3.100000000000000000e+01,4.500000000000000000e+01,6.100000000000000000e+01,3.300000000000000000e+01,2.300000000000000000e+01,2.600000000000000000e+01,2.000000000000000000e+01,2.300000000000000000e+01,4.799999999999999822e-01,6.146963700000000000e+09
3.100000000000000000e+01,4.500000000000000000e+01,6.200000000000000000e+01,3.600000000000000000e+01,2.500000000000000000e+01,2.500000000000000000e+01,2.000000000000000000e+01,2.200000000000000000e+01,4.799999999999999822e-01,6.168915100000000000e+09
2.500000000000000000e+01,3.900000000000000000e+01,6.100000000000000000e+01,3.800000000000000000e+01,2.100000000000000000e+01,2.700000000000000000e+01,2.000000000000000000e+01,2.100000000000000000e+01,4.799999999999999822e-01,6.187078800000000000e+09
2.400000000000000000e+01,3.200000000000000000e+01,4.500000000000000000e+01,3.300000000000000000e+01,2.000000000000000000e+01,2.600000000000000000e+01,2.100000000000000000e+01,1.700000000000000000e+01,4.799999999999999822e-01,6.205475600000000000e+09
2.300000000000000000e+01,2.700000000000000000e+01,4.200000000000000000e+01,3.200000000000000000e+01,2.100000000000000000e+01,2.400000000000000000e+01,2.200000000000000000e+01,1.900000000000000000e+01,4.799999999999999822e-01,6.224557500000000000e+09
2.300000000000000000e+01,2.900000000000000000e+01,4.100000000000000000e+01,3.100000000000000000e+01,2.000000000000000000e+01,2.500000000000000000e+01,2.100000000000000000e+01,2.200000000000000000e+01,4.699999999999999734e-01,6.246665800000000000e+09
2.100000000000000000e+01,3.200000000000000000e+01,4.800000000000000000e+01,3.000000000000000000e+01,2.100000000000000000e+01,2.500000000000000000e+01,2.100000000000000000e+01,2.100000000000000000e+01,4.699999999999999734e-01,6.269022900000000000e+09
2.200000000000000000e+01,3.200000000000000000e+01,5.500000000000000000e+01,3.000000000000000000e+01,2.100000000000000000e+01,2.400000000000000000e+01,2.100000000000000000e+01,2.200000000000000000e+01,4.699999999999999734e-01,6.287203600000000000e+09
2.500000000000000000e+01,3.500000000000000000e+01,6.800000000000000000e+01,3.000000000000000000e+01,2.100000000000000000e+01,2.500000000000000000e+01,2.200000000000000000e+01,2.300000000000000000e+01,4.699999999999999734e-01,6.306159700000000000e+09
2.400000000000000000e+01,3.800000000000000000e+01,7.800000000000000000e+01,3.500000000000000000e+01,2.200000000000000000e+01,2.400000000000000000e+01,2.200000000000000000e+01,2.200000000000000000e+01,4.699999999999999734e-01,6.324462100000000000e+09
2.700000000000000000e+01,4.000000000000000000e+01,8.200000000000000000e+01,4.300000000000000000e+01,2.200000000000000000e+01,2.300000000000000000e+01,2.200000000000000000e+01,2.200000000000000000e+01,4.699999999999999734e-01,6.346736600000000000e+09
2.600000000000000000e+01,3.800000000000000000e+01,7.700000000000000000e+01,4.100000000000000000e+01,2.100000000000000000e+01,2.400000000000000000e+01,2.100000000000000000e+01,2.200000000000000000e+01,4.699999999999999734e-01,6.369351100000000000e+09
2.500000000000000000e+01,3.900000000000000000e+01,7.200000000000000000e+01,3.800000000000000000e+01,2.200000000000000000e+01,2.500000000000000000e+01,2.200000000000000000e+01,2.100000000000000000e+01,4.699999999999999734e-01,6.388408800000000000e+09
2.500000000000000000e+01,3.900000000000000000e+01,6.100000000000000000e+01,3.900000000000000000e+01,2.400000000000000000e+01,2.400000000000000000e+01,2.100000000000000000e+01,2.100000000000000000e+01,4.799999999999999822e-01,6.407421700000000000e+09
2.500000000000000000e+01,4.000000000000000000e+01,4.800000000000000000e+01,3.900000000000000000e+01,3.000000000000000000e+01,2.400000000000000000e+01,2.100000000000000000e+01,2.200000000000000000e+01,4.699999999999999734e-01,6.426431800000000000e+09
2.300000000000000000e+01,3.900000000000000000e+01,4.500000000000000000e+01,4.100000000000000000e+01,5.500000000000000000e+01,3.500000000000000000e+01,2.300000000000000000e+01,2.200000000000000000e+01,4.699999999999999734e-01,6.447617000000000000e+09
2.500000000000000000e+01,4.000000000000000000e+01,8.100000000000000000e+01,4.800000000000000000e+01,6.600000000000000000e+01,3.600000000000000000e+01,2.300000000000000000e+01,2.200000000000000000e+01,4.699999999999999734e-01,6.470158000000000000e+09
2.500000000000000000e+01,4.200000000000000000e+01,8.200000000000000000e+01,5.200000000000000000e+01,7.700000000000000000e+01,3.900000000000000000e+01,2.200000000000000000e+01,2.300000000000000000e+01,4.699999999999999734e-01,6.487873800000000000e+09
2.500000000000000000e+01,4.400000000000000000e+01,9.400000000000000000e+01,5.600000000000000000e+01,8.600000000000000000e+01,4.100000000000000000e+01,2.200000000000000000e+01,2.200000000000000000e+01,4.699999999999999734e-01,6.507041800000000000e+09
3.200000000000000000e+01,5.900000000000000000e+01,1.140000000000000000e+02,6.600000000000000000e+01,1.030000000000000000e+02,4.800000000000000000e+01,2.500000000000000000e+01,2.200000000000000000e+01,4.699999999999999734e-01,6.526271200000000000e+09
3.600000000000000000e+01,6.400000000000000000e+01,1.140000000000000000e+02,7.700000000000000000e+01,1.020000000000000000e+02,4.400000000000000000e+01,2.700000000000000000e+01,2.100000000000000000e+01,4.699999999999999734e-01,6.548416300000000000e+09
3.600000000000000000e+01,7.000000000000000000e+01,9.200000000000000000e+01,7.300000000000000000e+01,9.600000000000000000e+01,4.500000000000000000e+01,2.800000000000000000e+01,2.400000000000000000e+01,4.699999999999999734e-01,6.567467200000000000e+09
3.600000000000000000e+01,7.400000000000000000e+01,1.180000000000000000e+02,7.400000000000000000e+01,8.900000000000000000e+01,4.800000000000000000e+01,2.700000000000000000e+01,2.100000000000000000e+01,4.699999999999999734e-01,6.595860600000000000e+09
3.500000000000000000e+01,7.400000000000000000e+01,1.110000000000000000e+02,7.400000000000000000e+01,8.300000000000000000e+01,4.700000000000000000e+01,2.900000000000000000e+01,2.300000000000000000e+01,4.699999999999999734e-01,6.613719200000000000e+09
3.100000000000000000e+01,6.500000000000000000e+01,9.800000000000000000e+01,6.400000000000000000e+01,5.900000000000000000e+01,4.000000000000000000e+01,2.700000000000000000e+01,2.400000000000000000e+01,4.799999999999999822e-01,6.633149400000000000e+09
2.700000000000000000e+01,6.300000000000000000e+01,1.370000000000000000e+02,5.600000000000000000e+01,4.300000000000000000e+01,3.800000000000000000e+01,2.400000000000000000e+01,2.300000000000000000e+01,4.799999999999999822e-01,6.650667600000000000e+09
2.600000000000000000e+01,5.700000000000000000e+01,1.380000000000000000e+02,6.100000000000000000e+01,4.200000000000000000e+01,3.500000000000000000e+01,2.200000000000000000e+01,2.500000000000000000e+01,4.799999999999999822e-01,6.668805900000000000e+09
2.500000000000000000e+01,5.400000000000000000e+01,1.250000000000000000e+02,6.100000000000000000e+01,3.700000000000000000e+01,3.000000000000000000e+01,2.400000000000000000e+01,2.600000000000000000e+01,4.799999999999999822e-01,6.686505100000000000e+09
2.400000000000000000e+01,5.300000000000000000e+01,1.260000000000000000e+02,5.900000000000000000e+01,3.300000000000000000e+01,2.900000000000000000e+01,2.100000000000000000e+01,2.500000000000000000e+01,4.799999999999999822e-01,6.704822600000000000e+09
2.200000000000000000e+01,5.200000000000000000e+01,1.260000000000000000e+02,5.900000000000000000e+01,3.200000000000000000e+01,2.800000000000000000e+01,2.100000000000000000e+01,2.500000000000000000e+01,4.899999999999999911e-01,6.723799300000000000e+09
2.300000000000000000e+01,5.000000000000000000e+01,9.700000000000000000e+01,5.100000000000000000e+01,2.900000000000000000e+01,2.800000000000000000e+01,2.200000000000000000e+01,2.400000000000000000e+01,4.899999999999999911e-01,6.746047000000000000e+09
2.200000000000000000e+01,4.600000000000000000e+01,9.500000000000000000e+01,4.700000000000000000e+01,3.100000000000000000e+01,2.900000000000000000e+01,2.200000000000000000e+01,2.200000000000000000e+01,4.899999999999999911e-01,6.768183900000000000e+09
2.500000000000000000e+01,4.300000000000000000e+01,8.400000000000000000e+01,4.300000000000000000e+01,3.100000000000000000e+01,2.700000000000000000e+01,2.200000000000000000e+01,2.100000000000000000e+01,4.899999999999999911e-01,6.785680800000000000e+09
2.400000000000000000e+01,4.300000000000000000e+01,8.500000000000000000e+01,4.100000000000000000e+01,2.900000000000000000e+01,2.600000000000000000e+01,2.100000000000000000e+01,2.200000000000000000e+01,4.899999999999999911e-01,6.804751200000000000e+09
2.400000000000000000e+01,3.900000000000000000e+01,8.400000000000000000e+01,4.100000000000000000e+01,2.800000000000000000e+01,2.700000000000000000e+01,2.200000000000000000e+01,2.300000000000000000e+01,4.899999999999999911e-01,6.824639800000000000e+09
2.300000000000000000e+01,4.100000000000000000e+01,7.900000000000000000e+01,4.600000000000000000e+01,2.600000000000000000e+01,2.400000000000000000e+01,2.300000000000000000e+01,2.500000000000000000e+01,4.899999999999999911e-01,6.846002600000000000e+09
2.800000000000000000e+01,4.400000000000000000e+01,8.100000000000000000e+01,6.400000000000000000e+01,2.800000000000000000e+01,2.500000000000000000e+01,2.300000000000000000e+01,2.500000000000000000e+01,4.899999999999999911e-01,6.868267600000000000e+09
2.600000000000000000e+01,4.900000000000000000e+01,8.500000000000000000e+01,6.800000000000000000e+01,2.600000000000000000e+01,2.400000000000000000e+01,2.100000000000000000e+01,2.600000000000000000e+01,4.899999999999999911e-01,6.886296200000000000e+09
2.900000000000000000e+01,4.900000000000000000e+01,8.400000000000000000e+01,7.000000000000000000e+01,3.000000000000000000e+01,2.400000000000000000e+01,2.200000000000000000e+01,2.700000000000000000e+01,4.899999999999999911e-01,6.904432000000000000e+09
2.800000000000000000e+01,4.800000000000000000e+01,7.700000000000000000e+01,7.100000000000000000e+01,3.100000000000000000e+01,2.200000000000000000e+01,2.100000000000000000e+01,2.600000000000000000e+01,5.000000000000000000e-01,6.923721000000000000e+09
2.800000000000000000e+01,4.300000000000000000e+01,6.500000000000000000e+01,6.800000000000000000e+01,4.000000000000000000e+01,2.400000000000000000e+01,2.100000000000000000e+01,2.500000000000000000e+01,5.000000000000000000e-01,6.945888400000000000e+09
2.700000000000000000e+01,4.500000000000000000e+01,6.800000000000000000e+01,5.100000000000000000e+01,3.900000000000000000e+01,2.500000000000000000e+01,2.200000000000000000e+01,2.200000000000000000e+01,4.899999999999999911e-01,6.968069800000000000e+09
2.700000000000000000e+01,4.900000000000000000e+01,7.400000000000000000e+01,4.600000000000000000e+01,3.900000000000000000e+01,2.500000000000000000e+01,2.300000000000000000e+01,2.500000000000000000e+01,4.899999999999999911e-01,6.986689300000000000e+09
2.700000000000000000e+01,4.800000000000000000e+01,6.700000000000000000e+01,5.100000000000000000e+01,5.200000000000000000e+01,3.000000000000000000e+01,2.500000000000000000e+01,2.400000000000000000e+01,4.899999999999999911e-01,7.006150200000000000e+09
2.800000000000000000e+01,4.900000000000000000e+01,6.800000000000000000e+01,6.200000000000000000e+01,7.400000000000000000e+01,3.400000000000000000e+01,2.600000000000000000e+01,2.300000000000000000e+01,4.899999999999999911e-01,7.025089000000000000e+09
2.900000000000000000e+01,5.000000000000000000e+01,6.700000000000000000e+01,6.600000000000000000e+01,8.300000000000000000e+01,3.800000000000000000e+01,2.800000000000000000e+01,2.700000000000000000e+01,4.899999999999999911e-01,7.045905200000000000e+09
3.100000000000000000e+01,6.600000000000000000e+01,7.100000000000000000e+01,8.900000000000000000e+01,1.750000000000000000e+02,6.400000000000000000e+01,3.000000000000000000e+01,2.800000000000000000e+01,4.899999999999999911e-01,7.068635600000000000e+09
3.700000000000000000e+01,7.800000000000000000e+01,7.100000000000000000e+01,1.280000000000000000e+02,2.020000000000000000e+02,7.200000000000000000e+01,3.100000000000000000e+01,2.600000000000000000e+01,4.899999999999999911e-01,7.087052500000000000e+09
3.500000000000000000e+01,7.800000000000000000e+01,9.000000000000000000e+01,1.290000000000000000e+02,2.110000000000000000e+02,7.300000000000000000e+01,3.300000000000000000e+01,2.500000000000000000e+01,4.899999999999999911e-01,7.105711300000000000e+09
3.700000000000000000e+01,9.400000000000000000e+01,1.030000000000000000e+02,1.270000000000000000e+02,2.110000000000000000e+02,7.300000000000000000e+01,3.200000000000000000e+01,2.600000000000000000e+01,4.799999999999999822e-01,7.125602700000000000e+09
3.900000000000000000e+01,1.070000000000000000e+02,1.220000000000000000e+02,1.290000000000000000e+02,2.140000000000000000e+02,7.300000000000000000e+01,3.100000000000000000e+01,2.100000000000000000e+01,4.799999999999999822e-01,7.148323800000000000e+09
3.800000000000000000e+01,1.000000000000000000e+02,1.150000000000000000e+02,1.160000000000000000e+02,1.610000000000000000e+02,5.500000000000000000e+01,2.900000000000000000e+01,1.900000000000000000e+01,4.799999999999999822e-01,7.166076500000000000e+09
3.300000000000000000e+01,8.800000000000000000e+01,1.070000000000000000e+02,7.400000000000000000e+01,1.300000000000000000e+02,4.800000000000000000e+01,2.800000000000000000e+01,2.100000000000000000e+01,4.699999999999999734e-01,7.184283100000000000e+09
3.400000000000000000e+01,8.800000000000000000e+01,1.370000000000000000e+02,9.200000000000000000e+01,1.480000000000000000e+02,4.700000000000000000e+01,2.600000000000000000e+01,2.600000000000000000e+01,4.699999999999999734e-01,7.203898700000000000e+09
3.100000000000000000e+01,9.400000000000000000e+01,1.430000000000000000e+02,1.280000000000000000e+02,1.670000000000000000e+02,5.200000000000000000e+01,2.600000000000000000e+01,2.500000000000000000e+01,4.699999999999999734e-01,7.226130700000000000e+09
3.300000000000000000e+01,1.070000000000000000e+02,1.420000000000000000e+02,1.400000000000000000e+02,1.710000000000000000e+02,5.700000000000000000e+01,2.600000000000000000e+01,2.800000000000000000e+01,4.699999999999999734e-01,7.248164300000000000e+09
3.200000000000000000e+01,1.080000000000000000e+02,1.460000000000000000e+02,1.500000000000000000e+02,1.670000000000000000e+02,5.300000000000000000e+01,2.500000000000000000e+01,2.800000000000000000e+01,4.699999999999999734e-01,7.267466000000000000e+09
3.500000000000000000e+01,1.080000000000000000e+02,1.570000000000000000e+02,1.570000000000000000e+02,1.740000000000000000e+02,5.300000000000000000e+01,2.600000000000000000e+01,2.800000000000000000e+01,4.699999999999999734e-01,7.286829800000000000e+09
3.500000000000000000e+01,1.110000000000000000e+02,1.250000000000000000e+02,1.490000000000000000e+02,1.510000000000000000e+02,5.300000000000000000e+01,2.300000000000000000e+01,2.300000000000000000e+01,4.799999999999999822e-01,7.306401500000000000e+09
3.900000000000000000e+01,1.030000000000000000e+02,1.440000000000000000e+02,1.270000000000000000e+02,1.470000000000000000e+02,5.900000000000000000e+01,2.900000000000000000e+01,2.900000000000000000e+01,4.799999999999999822e-01,7.325589000000000000e+09
3.600000000000000000e+01,8.200000000000000000e+01,1.430000000000000000e+02,1.270000000000000000e+02,1.600000000000000000e+02,5.800000000000000000e+01,3.100000000000000000e+01,2.700000000000000000e+01,4.799999999999999822e-01,7.347826700000000000e+09
7.100000000000000000e+01,1.100000000000000000e+02,1.510000000000000000e+02,1.260000000000000000e+02,1.630000000000000000e+02,1.070000000000000000e+02,6.400000000000000000e+01,4.900000000000000000e+01,4.799999999999999822e-01,7.370063600000000000e+09
8.000000000000000000e+01,1.120000000000000000e+02,1.420000000000000000e+02,1.180000000000000000e+02,1.560000000000000000e+02,1.160000000000000000e+02,7.000000000000000000e+01,5.200000000000000000e+01,4.799999999999999822e-01,7.388883500000000000e+09
8.200000000000000000e+01,1.120000000000000000e+02,1.470000000000000000e+02,1.280000000000000000e+02,1.520000000000000000e+02,1.180000000000000000e+02,7.100000000000000000e+01,5.500000000000000000e+01,4.899999999999999911e-01,7.407390800000000000e+09
8.200000000000000000e+01,1.210000000000000000e+02,1.610000000000000000e+02,1.530000000000000000e+02,1.780000000000000000e+02,1.210000000000000000e+02,7.300000000000000000e+01,5.500000000000000000e+01,4.899999999999999911e-01,7.425835500000000000e+09
8.200000000000000000e+01,1.250000000000000000e+02,1.630000000000000000e+02,1.860000000000000000e+02,2.160000000000000000e+02,1.340000000000000000e+02,7.200000000000000000e+01,5.700000000000000000e+01,4.899999999999999911e-01,7.452125300000000000e+09
6.300000000000000000e+01,1.350000000000000000e+02,1.600000000000000000e+02,1.920000000000000000e+02,2.200000000000000000e+02,1.030000000000000000e+02,5.200000000000000000e+01,4.100000000000000000e+01,4.899999999999999911e-01,7.470196600000000000e+09
4.800000000000000000e+01,1.390000000000000000e+02,1.580000000000000000e+02,1.920000000000000000e+02,2.180000000000000000e+02,9.300000000000000000e+01,4.300000000000000000e+01,3.700000000000000000e+01,4.799999999999999822e-01,7.488929400000000000e+09
5.300000000000000000e+01,1.680000000000000000e+02,1.650000000000000000e+02,1.830000000000000000e+02,2.150000000000000000e+02,8.700000000000000000e+01,4.200000000000000000e+01,3.400000000000000000e+01,4.799999999999999822e-01,7.506895000000000000e+09
5.400000000000000000e+01,1.630000000000000000e+02,1.200000000000000000e+02,1.590000000000000000e+02,1.780000000000000000e+02,7.600000000000000000e+01,3.500000000000000000e+01,3.100000000000000000e+01,4.799999999999999822e-01,7.526104500000000000e+09
5.700000000000000000e+01,1.620000000000000000e+02,1.110000000000000000e+02,1.000000000000000000e+02,9.200000000000000000e+01,4.600000000000000000e+01,3.300000000000000000e+01,2.800000000000000000e+01,4.799999999999999822e-01,7.545764300000000000e+09
5.200000000000000000e+01,1.650000000000000000e+02,1.130000000000000000e+02,7.600000000000000000e+01,7.500000000000000000e+01,3.700000000000000000e+01,2.400000000000000000e+01,2.600000000000000000e+01,4.899999999999999911e-01,7.567872500000000000e+09
7.100000000000000000e+01,1.990000000000000000e+02,1.190000000000000000e+02,9.100000000000000000e+01,8.200000000000000000e+01,3.800000000000000000e+01,2.300000000000000000e+01,2.600000000000000000e+01,4.899999999999999911e-01,7.590032600000000000e+09
6.900000000000000000e+01,1.850000000000000000e+02,1.160000000000000000e+02,9.300000000000000000e+01,7.800000000000000000e+01,4.000000000000000000e+01,2.300000000000000000e+01,2.600000000000000000e+01,4.899999999999999911e-01,7.609054000000000000e+09
7.800000000000000000e+01,1.900000000000000000e+02,1.140000000000000000e+02,8.900000000000000000e+01,7.600000000000000000e+01,3.900000000000000000e+01,2.400000000000000000e+01,2.900000000000000000e+01,4.899999999999999911e-01,7.629075300000000000e+09
7.800000000000000000e+01,1.940000000000000000e+02,1.110000000000000000e+02,8.200000000000000000e+01,7.100000000000000000e+01,3.500000000000000000e+01,2.600000000000000000e+01,3.000000000000000000e+01,5.000000000000000000e-01,7.654501600000000000e+09
7.600000000000000000e+01,1.740000000000000000e+02,9.900000000000000000e+01,7.600000000000000000e+01,4.900000000000000000e+01,3.100000000000000000e+01,2.700000000000000000e+01,4.400000000000000000e+01,5.000000000000000000e-01,7.673435000000000000e+09
7.600000000000000000e+01,2.250000000000000000e+02,1.940000000000000000e+02,7.600000000000000000e+01,4.400000000000000000e+01,3.100000000000000000e+01,2.700000000000000000e+01,4.800000000000000000e+01,5.100000000000000089e-01,7.691197900000000000e+09
8.100000000000000000e+01,2.340000000000000000e+02,1.930000000000000000e+02,7.000000000000000000e+01,4.300000000000000000e+01,2.900000000000000000e+01,2.600000000000000000e+01,4.800000000000000000e+01,5.100000000000000089e-01,7.710032800000000000e+09
7.200000000000000000e+01,2.330000000000000000e+02,1.980000000000000000e+02,6.600000000000000000e+01,3.900000000000000000e+01,2.700000000000000000e+01,2.600000000000000000e+01,4.600000000000000000e+01,5.200000000000000178e-01,7.734384200000000000e+09
7.000000000000000000e+01,2.310000000000000000e+02,1.980000000000000000e+02,7.900000000000000000e+01,4.800000000000000000e+01,3.000000000000000000e+01,2.600000000000000000e+01,4.500000000000000000e+01,5.300000000000000266e-01,7.752615100000000000e+09
8.400000000000000000e+01,2.540000000000000000e+02,2.210000000000000000e+02,1.020000000000000000e+02,5.300000000000000000e+01,3.100000000000000000e+01,2.500000000000000000e+01,3.700000000000000000e+01,5.300000000000000266e-01,7.771807300000000000e+09
7.700000000000000000e+01,1.880000000000000000e+02,1.550000000000000000e+02,1.080000000000000000e+02,5.200000000000000000e+01,3.400000000000000000e+01,2.600000000000000000e+01,3.400000000000000000e+01,5.400000000000000355e-01,7.789784900000000000e+09
7.800000000000000000e+01,1.810000000000000000e+02,1.660000000000000000e+02,1.310000000000000000e+02,6.300000000000000000e+01,3.500000000000000000e+01,2.800000000000000000e+01,3.400000000000000000e+01,5.500000000000000444e-01,7.807807800000000000e+09
8.500000000000000000e+01,1.750000000000000000e+02,1.620000000000000000e+02,1.370000000000000000e+02,6.800000000000000000e+01,3.600000000000000000e+01,2.900000000000000000e+01,3.600000000000000000e+01,5.500000000000000444e-01,7.826288300000000000e+09
8.500000000000000000e+01,1.690000000000000000e+02,1.610000000000000000e+02,1.300000000000000000e+02,6.300000000000000000e+01,3.500000000000000000e+01,2.800000000000000000e+01,3.600000000000000000e+01,5.600000000000000533e-01,7.845460000000000000e+09
7.100000000000000000e+01,1.310000000000000000e+02,1.300000000000000000e+02,1.120000000000000000e+02,6.200000000000000000e+01,3.600000000000000000e+01,2.800000000000000000e+01,3.100000000000000000e+01,5.600000000000000533e-01,7.867804500000000000e+09
7.100000000000000000e+01,1.610000000000000000e+02,2.610000000000000000e+02,1.090000000000000000e+02,6.400000000000000000e+01,3.800000000000000000e+01,2.600000000000000000e+01,3.100000000000000000e+01,5.699999999999999512e-01,7.889933200000000000e+09
5.900000000000000000e+01,1.460000000000000000e+02,2.590000000000000000e+02,8.400000000000000000e+01,5.700000000000000000e+01,3.700000000000000000e+01,2.600000000000000000e+01,2.800000000000000000e+01,5.699999999999999512e-01,7.907964300000000000e+09
4.800000000000000000e+01,1.510000000000000000e+02,2.600000000000000000e+02,7.800000000000000000e+01,5.200000000000000000e+01,3.600000000000000000e+01,2.400000000000000000e+01,2.600000000000000000e+01,5.699999999999999512e-01,7.926641100000000000e+09
4.800000000000000000e+01,1.530000000000000000e+02,2.610000000000000000e+02,7.800000000000000000e+01,5.100000000000000000e+01,3.600000000000000000e+01,2.300000000000000000e+01,2.600000000000000000e+01,5.699999999999999512e-01,7.945436400000000000e+09
4.700000000000000000e+01,1.490000000000000000e+02,2.640000000000000000e+02,9.300000000000000000e+01,4.700000000000000000e+01,3.500000000000000000e+01,2.200000000000000000e+01,2.500000000000000000e+01,5.799999999999999600e-01,7.967923200000000000e+09
4.600000000000000000e+01,1.250000000000000000e+02,1.340000000000000000e+02,8.300000000000000000e+01,4.500000000000000000e+01,3.000000000000000000e+01,2.600000000000000000e+01,2.400000000000000000e+01,5.799999999999999600e-01,7.990071500000000000e+09
4.600000000000000000e+01,1.220000000000000000e+02,1.200000000000000000e+02,8.600000000000000000e+01,4.100000000000000000e+01,3.000000000000000000e+01,2.400000000000000000e+01,2.500000000000000000e+01,5.799999999999999600e-01,8.009704700000000000e+09
5.100000000000000000e+01,1.190000000000000000e+02,1.160000000000000000e+02,8.600000000000000000e+01,4.200000000000000000e+01,3.300000000000000000e+01,2.300000000000000000e+01,2.700000000000000000e+01,5.799999999999999600e-01,8.028520600000000000e+09
6.200000000000000000e+01,1.180000000000000000e+02,1.070000000000000000e+02,8.600000000000000000e+01,4.400000000000000000e+01,3.200000000000000000e+01,2.500000000000000000e+01,2.500000000000000000e+01,5.799999999999999600e-01,8.047019000000000000e+09
6.200000000000000000e+01,1.160000000000000000e+02,9.500000000000000000e+01,7.200000000000000000e+01,4.900000000000000000e+01,3.600000000000000000e+01,2.400000000000000000e+01,2.700000000000000000e+01,5.699999999999999512e-01,8.067671700000000000e+09
5.400000000000000000e+01,8.000000000000000000e+01,7.400000000000000000e+01,5.900000000000000000e+01,4.300000000000000000e+01,3.500000000000000000e+01,2.000000000000000000e+01,2.600000000000000000e+01,5.699999999999999512e-01,8.089860000000000000e+09
7.000000000000000000e+01,1.080000000000000000e+02,9.000000000000000000e+01,5.700000000000000000e+01,4.300000000000000000e+01,3.600000000000000000e+01,2.400000000000000000e+01,2.800000000000000000e+01,5.699999999999999512e-01,8.108200900000000000e+09
6.600000000000000000e+01,1.020000000000000000e+02,8.600000000000000000e+01,5.400000000000000000e+01,4.200000000000000000e+01,3.300000000000000000e+01,2.400000000000000000e+01,2.600000000000000000e+01,5.600000000000000533e-01,8.128106500000000000e+09
5.500000000000000000e+01,9.700000000000000000e+01,8.700000000000000000e+01,5.100000000000000000e+01,4.000000000000000000e+01,3.200000000000000000e+01,2.400000000000000000e+01,2.600000000000000000e+01,5.600000000000000533e-01,8.146036200000000000e+09
5.400000000000000000e+01,9.700000000000000000e+01,8.700000000000000000e+01,4.700000000000000000e+01,3.000000000000000000e+01,2.700000000000000000e+01,2.500000000000000000e+01,2.500000000000000000e+01,5.600000000000000533e-01,8.167596800000000000e+09
5.600000000000000000e+01,9.700000000000000000e+01,8.800000000000000000e+01,4.600000000000000000e+01,2.800000000000000000e+01,2.500000000000000000e+01,2.700000000000000000e+01,2.500000000000000000e+01,5.500000000000000444e-01,8.189920400000000000e+09
3.400000000000000000e+01,6.500000000000000000e+01,5.400000000000000000e+01,3.500000000000000000e+01,2.900000000000000000e+01,2.400000000000000000e+01,2.300000000000000000e+01,2.200000000000000000e+01,5.500000000000000444e-01,8.208627700000000000e+09
3.300000000000000000e+01,5.700000000000000000e+01,5.200000000000000000e+01,2.900000000000000000e+01,2.500000000000000000e+01,2.300000000000000000e+01,2.300000000000000000e+01,2.400000000000000000e+01,5.400000000000000355e-01,8.226335600000000000e+09
3.400000000000000000e+01,6.400000000000000000e+01,5.300000000000000000e+01,2.900000000000000000e+01,2.500000000000000000e+01,2.400000000000000000e+01,2.300000000000000000e+01,2.400000000000000000e+01,5.400000000000000355e-01,8.246564200000000000e+09
3.400000000000000000e+01,8.500000000000000000e+01,5.000000000000000000e+01,3.200000000000000000e+01,2.700000000000000000e+01,2.700000000000000000e+01,2.300000000000000000e+01,2.200000000000000000e+01,5.300000000000000266e-01,8.268623900000000000e+09
4.900000000000000000e+01,9.100000000000000000e+01,4.500000000000000000e+01,3.300000000000000000e+01,3.100000000000000000e+01,2.600000000000000000e+01,2.200000000000000000e+01,2.300000000000000000e+01,5.200000000000000178e-01,8.287274000000000000e+09
4.800000000000000000e+01,9.300000000000000000e+01,4.400000000000000000e+01,4.400000000000000000e+01,3.800000000000000000e+01,2.700000000000000000e+01,2.400000000000000000e+01,2.200000000000000000e+01,5.200000000000000178e-01,8.305756000000000000e+09
4.800000000000000000e+01,1.030000000000000000e+02,5.000000000000000000e+01,5.200000000000000000e+01,4.600000000000000000e+01,3.100000000000000000e+01,2.600000000000000000e+01,1.900000000000000000e+01,5.200000000000000178e-01,8.324078700000000000e+09
5.600000000000000000e+01,1.840000000000000000e+02,6.400000000000000000e+01,5.600000000000000000e+01,5.800000000000000000e+01,4.100000000000000000e+01,2.900000000000000000e+01,2.100000000000000000e+01,5.200000000000000178e-01,8.346311900000000000e+09
5.800000000000000000e+01,1.920000000000000000e+02,8.900000000000000000e+01,8.100000000000000000e+01,7.000000000000000000e+01,4.700000000000000000e+01,3.100000000000000000e+01,2.300000000000000000e+01,5.200000000000000178e-01,8.368526100000000000e+09
4.500000000000000000e+01,1.930000000000000000e+02,1.340000000000000000e+02,1.970000000000000000e+02,1.020000000000000000e+02,4.700000000000000000e+01,3.300000000000000000e+01,2.200000000000000000e+01,5.200000000000000178e-01,8.387608800000000000e+09
6.100000000000000000e+01,2.310000000000000000e+02,1.790000000000000000e+02,3.040000000000000000e+02,1.590000000000000000e+02,6.700000000000000000e+01,3.600000000000000000e+01,2.600000000000000000e+01,5.200000000000000178e-01,8.405783300000000000e+09
7.800000000000000000e+01,2.420000000000000000e+02,1.960000000000000000e+02,3.220000000000000000e+02,1.630000000000000000e+02,7.100000000000000000e+01,3.600000000000000000e+01,3.000000000000000000e+01,5.200000000000000178e-01,8.425245900000000000e+09
8.800000000000000000e+01,2.110000000000000000e+02,1.920000000000000000e+02,4.370000000000000000e+02,1.870000000000000000e+02,7.400000000000000000e+01,3.900000000000000000e+01,2.900000000000000000e+01,5.200000000000000178e-01,8.447779500000000000e+09
1.090000000000000000e+02,4.170000000000000000e+02,2.870000000000000000e+02,5.530000000000000000e+02,2.290000000000000000e+02,9.900000000000000000e+01,4.000000000000000000e+01,3.700000000000000000e+01,5.100000000000000089e-01,8.470085600000000000e+09
1.530000000000000000e+02,4.390000000000000000e+02,3.130000000000000000e+02,6.510000000000000000e+02,2.650000000000000000e+02,1.020000000000000000e+02,4.000000000000000000e+01,4.200000000000000000e+01,5.100000000000000089e-01,8.488612600000000000e+09
1.560000000000000000e+02,4.310000000000000000e+02,3.050000000000000000e+02,9.000000000000000000e+02,3.890000000000000000e+02,1.450000000000000000e+02,4.800000000000000000e+01,4.300000000000000000e+01,5.000000000000000000e-01,8.508915900000000000e+09
1.580000000000000000e+02,4.440000000000000000e+02,3.210000000000000000e+02,9.180000000000000000e+02,3.960000000000000000e+02,1.520000000000000000e+02,5.100000000000000000e+01,4.900000000000000000e+01,4.899999999999999911e-01,8.527795100000000000e+09
1.620000000000000000e+02,4.640000000000000000e+02,3.730000000000000000e+02,9.270000000000000000e+02,4.150000000000000000e+02,1.670000000000000000e+02,4.900000000000000000e+01,5.000000000000000000e+01,4.799999999999999822e-01,8.547182700000000000e+09
1.670000000000000000e+02,3.070000000000000000e+02,3.620000000000000000e+02,9.570000000000000000e+02,4.210000000000000000e+02,1.590000000000000000e+02,5.000000000000000000e+01,4.800000000000000000e+01,4.699999999999999734e-01,8.569413500000000000e+09
1.480000000000000000e+02,3.220000000000000000e+02,3.420000000000000000e+02,9.650000000000000000e+02,4.240000000000000000e+02,1.650000000000000000e+02,5.000000000000000000e+01,4.500000000000000000e+01,4.600000000000000200e-01,8.588458500000000000e+09
1.540000000000000000e+02,3.170000000000000000e+02,3.580000000000000000e+02,8.250000000000000000e+02,3.750000000000000000e+02,1.260000000000000000e+02,4.800000000000000000e+01,5.100000000000000000e+01,4.500000000000000111e-01,8.606799000000000000e+09
1.500000000000000000e+02,3.200000000000000000e+02,3.590000000000000000e+02,9.100000000000000000e+02,4.440000000000000000e+02,1.460000000000000000e+02,5.400000000000000000e+01,4.900000000000000000e+01,4.299999999999999933e-01,8.626068200000000000e+09
1.490000000000000000e+02,3.600000000000000000e+02,3.480000000000000000e+02,9.780000000000000000e+02,4.520000000000000000e+02,1.330000000000000000e+02,5.700000000000000000e+01,5.300000000000000000e+01,4.199999999999999845e-01,8.647183800000000000e+09
1.350000000000000000e+02,3.530000000000000000e+02,3.270000000000000000e+02,1.002000000000000000e+03,4.820000000000000000e+02,1.440000000000000000e+02,5.900000000000000000e+01,5.100000000000000000e+01,4.099999999999999756e-01,8.669434200000000000e+09
1.290000000000000000e+02,3.390000000000000000e+02,3.260000000000000000e+02,1.003000000000000000e+03,4.960000000000000000e+02,1.490000000000000000e+02,5.900000000000000000e+01,5.400000000000000000e+01,3.900000000000000133e-01,8.688902000000000000e+09
1.210000000000000000e+02,3.540000000000000000e+02,3.670000000000000000e+02,1.072000000000000000e+03,5.690000000000000000e+02,1.750000000000000000e+02,7.000000000000000000e+01,5.000000000000000000e+01,3.800000000000000044e-01,8.707045100000000000e+09
1.270000000000000000e+02,3.520000000000000000e+02,3.700000000000000000e+02,1.092000000000000000e+03,5.920000000000000000e+02,1.650000000000000000e+02,7.300000000000000000e+01,5.300000000000000000e+01,3.800000000000000044e-01,8.725179600000000000e+09
1.360000000000000000e+02,2.910000000000000000e+02,3.560000000000000000e+02,1.043000000000000000e+03,5.850000000000000000e+02,1.710000000000000000e+02,7.200000000000000000e+01,5.400000000000000000e+01,3.699999999999999956e-01,8.753600500000000000e+09
1.510000000000000000e+02,2.910000000000000000e+02,3.690000000000000000e+02,1.023000000000000000e+03,5.570000000000000000e+02,1.610000000000000000e+02,7.200000000000000000e+01,6.100000000000000000e+01,3.699999999999999956e-01,8.772654800000000000e+09
1.490000000000000000e+02,2.710000000000000000e+02,3.870000000000000000e+02,1.098000000000000000e+03,6.480000000000000000e+02,1.890000000000000000e+02,8.900000000000000000e+01,6.800000000000000000e+01,3.699999999999999956e-01,8.791712100000000000e+09
1.530000000000000000e+02,2.590000000000000000e+02,3.770000000000000000e+02,1.070000000000000000e+03,6.270000000000000000e+02,1.800000000000000000e+02,7.900000000000000000e+01,7.000000000000000000e+01,3.699999999999999956e-01,8.809764400000000000e+09
1.490000000000000000e+02,2.770000000000000000e+02,4.650000000000000000e+02,1.116000000000000000e+03,6.100000000000000000e+02,1.800000000000000000e+02,7.900000000000000000e+01,6.700000000000000000e+01,3.599999999999999867e-01,8.827446600000000000e+09
1.630000000000000000e+02,2.600000000000000000e+02,4.590000000000000000e+02,1.112000000000000000e+03,6.130000000000000000e+02,1.790000000000000000e+02,8.000000000000000000e+01,7.200000000000000000e+01,3.599999999999999867e-01,8.845760800000000000e+09
1.480000000000000000e+02,2.470000000000000000e+02,4.450000000000000000e+02,1.168000000000000000e+03,6.330000000000000000e+02,1.910000000000000000e+02,8.400000000000000000e+01,7.100000000000000000e+01,3.599999999999999867e-01,8.867314900000000000e+09
1.430000000000000000e+02,2.600000000000000000e+02,4.960000000000000000e+02,1.152000000000000000e+03,5.580000000000000000e+02,1.680000000000000000e+02,7.100000000000000000e+01,6.500000000000000000e+01,3.599999999999999867e-01,8.889500700000000000e+09
1.560000000000000000e+02,2.600000000000000000e+02,5.660000000000000000e+02,1.223000000000000000e+03,6.210000000000000000e+02,1.860000000000000000e+02,8.100000000000000000e+01,6.600000000000000000e+01,3.499999999999999778e-01,8.907084300000000000e+09
1.690000000000000000e+02,2.340000000000000000e+02,5.000000000000000000e+02,1.149000000000000000e+03,5.820000000000000000e+02,1.800000000000000000e+02,7.300000000000000000e+01,6.700000000000000000e+01,3.499999999999999778e-01,8.925128100000000000e+09
1.580000000000000000e+02,2.630000000000000000e+02,4.960000000000000000e+02,1.167000000000000000e+03,5.800000000000000000e+02,1.760000000000000000e+02,7.300000000000000000e+01,6.200000000000000000e+01,3.499999999999999778e-01,8.945024600000000000e+09
1.740000000000000000e+02,2.800000000000000000e+02,5.030000000000000000e+02,1.147000000000000000e+03,5.720000000000000000e+02,1.610000000000000000e+02,6.700000000000000000e+01,6.400000000000000000e+01,3.499999999999999778e-01,8.967281500000000000e+09
1.850000000000000000e+02,2.650000000000000000e+02,4.690000000000000000e+02,1.097000000000000000e+03,5.460000000000000000e+02,1.560000000000000000e+02,6.600000000000000000e+01,6.400000000000000000e+01,3.499999999999999778e-01,8.989485200000000000e+09
1.870000000000000000e+02,2.580000000000000000e+02,3.440000000000000000e+02,9.540000000000000000e+02,3.680000000000000000e+02,1.090000000000000000e+02,5.400000000000000000e+01,6.000000000000000000e+01,3.599999999999999867e-01,9.007579500000000000e+09
1.730000000000000000e+02,2.380000000000000000e+02,3.380000000000000000e+02,9.210000000000000000e+02,3.550000000000000000e+02,1.080000000000000000e+02,5.300000000000000000e+01,5.800000000000000000e+01,3.599999999999999867e-01,9.026078200000000000e+09
1.580000000000000000e+02,2.190000000000000000e+02,3.740000000000000000e+02,9.590000000000000000e+02,3.620000000000000000e+02,1.060000000000000000e+02,5.300000000000000000e+01,5.300000000000000000e+01,3.699999999999999956e-01,9.045005400000000000e+09
1.520000000000000000e+02,2.330000000000000000e+02,4.430000000000000000e+02,9.290000000000000000e+02,3.990000000000000000e+02,1.350000000000000000e+02,5.800000000000000000e+01,4.900000000000000000e+01,3.699999999999999956e-01,9.067789200000000000e+09
1.390000000000000000e+02,2.580000000000000000e+02,4.460000000000000000e+02,1.001000000000000000e+03,4.580000000000000000e+02,1.510000000000000000e+02,6.200000000000000000e+01,5.100000000000000000e+01,3.699999999999999956e-01,9.089457900000000000e+09
1.630000000000000000e+02,3.010000000000000000e+02,5.110000000000000000e+02,1.059000000000000000e+03,5.080000000000000000e+02,1.690000000000000000e+02,7.000000000000000000e+01,7.700000000000000000e+01,3.699999999999999956e-01,9.107921200000000000e+09
1.760000000000000000e+02,3.060000000000000000e+02,4.990000000000000000e+02,1.029000000000000000e+03,5.020000000000000000e+02,1.670000000000000000e+02,7.000000000000000000e+01,8.100000000000000000e+01,3.699999999999999956e-01,9.126440200000000000e+09
1.780000000000000000e+02,2.940000000000000000e+02,4.890000000000000000e+02,9.570000000000000000e+02,4.860000000000000000e+02,1.650000000000000000e+02,6.800000000000000000e+01,8.400000000000000000e+01,3.699999999999999956e-01,9.148728000000000000e+09
1.770000000000000000e+02,2.830000000000000000e+02,4.200000000000000000e+02,9.130000000000000000e+02,4.380000000000000000e+02,1.480000000000000000e+02,6.500000000000000000e+01,8.200000000000000000e+01,3.699999999999999956e-01,9.168954600000000000e+09
2.020000000000000000e+02,2.630000000000000000e+02,4.880000000000000000e+02,9.060000000000000000e+02,4.130000000000000000e+02,1.510000000000000000e+02,6.400000000000000000e+01,8.700000000000000000e+01,3.699999999999999956e-01,9.189371700000000000e+09
1.900000000000000000e+02,3.030000000000000000e+02,4.420000000000000000e+02,8.560000000000000000e+02,3.550000000000000000e+02,1.330000000000000000e+02,5.600000000000000000e+01,7.900000000000000000e+01,3.699999999999999956e-01,9.207377700000000000e+09
1.930000000000000000e+02,3.030000000000000000e+02,4.430000000000000000e+02,8.690000000000000000e+02,3.570000000000000000e+02,1.340000000000000000e+02,5.900000000000000000e+01,7.700000000000000000e+01,3.699999999999999956e-01,9.226442300000000000e+09
1.920000000000000000e+02,3.020000000000000000e+02,4.480000000000000000e+02,9.710000000000000000e+02,4.250000000000000000e+02,1.570000000000000000e+02,6.500000000000000000e+01,7.800000000000000000e+01,3.699999999999999956e-01,9.246122900000000000e+09
1.930000000000000000e+02,3.200000000000000000e+02,4.680000000000000000e+02,1.048000000000000000e+03,4.540000000000000000e+02,1.610000000000000000e+02,6.900000000000000000e+01,7.900000000000000000e+01,3.699999999999999956e-01,9.268968700000000000e+09
1.740000000000000000e+02,3.130000000000000000e+02,3.550000000000000000e+02,9.590000000000000000e+02,3.930000000000000000e+02,1.350000000000000000e+02,6.400000000000000000e+01,7.300000000000000000e+01,3.599999999999999867e-01,9.287148000000000000e+09
1.700000000000000000e+02,2.620000000000000000e+02,3.900000000000000000e+02,9.160000000000000000e+02,3.750000000000000000e+02,1.370000000000000000e+02,6.200000000000000000e+01,6.100000000000000000e+01,3.599999999999999867e-01,9.306848100000000000e+09
1.980000000000000000e+02,2.800000000000000000e+02,4.300000000000000000e+02,9.490000000000000000e+02,3.780000000000000000e+02,1.370000000000000000e+02,6.000000000000000000e+01,6.300000000000000000e+01,3.699999999999999956e-01,9.325365600000000000e+09
2.190000000000000000e+02,2.910000000000000000e+02,4.100000000000000000e+02,8.600000000000000000e+02,2.890000000000000000e+02,1.100000000000000000e+02,6.000000000000000000e+01,6.600000000000000000e+01,3.699999999999999956e-01,9.347494500000000000e+09
2.280000000000000000e+02,2.770000000000000000e+02,3.750000000000000000e+02,7.430000000000000000e+02,2.160000000000000000e+02,9.300000000000000000e+01,5.300000000000000000e+01,6.500000000000000000e+01,3.800000000000000044e-01,9.369852900000000000e+09
2.340000000000000000e+02,2.910000000000000000e+02,4.330000000000000000e+02,7.690000000000000000e+02,2.650000000000000000e+02,1.130000000000000000e+02,6.100000000000000000e+01,6.600000000000000000e+01,3.800000000000000044e-01,9.387817800000000000e+09
2.230000000000000000e+02,3.010000000000000000e+02,3.830000000000000000e+02,8.840000000000000000e+02,3.190000000000000000e+02,1.180000000000000000e+02,6.400000000000000000e+01,6.700000000000000000e+01,3.900000000000000133e-01,9.405682500000000000e+09
2.090000000000000000e+02,3.650000000000000000e+02,4.070000000000000000e+02,9.810000000000000000e+02,3.720000000000000000e+02,1.210000000000000000e+02,6.900000000000000000e+01,6.800000000000000000e+01,3.900000000000000133e-01,9.425597800000000000e+09
1.920000000000000000e+02,3.710000000000000000e+02,4.210000000000000000e+02,9.930000000000000000e+02,3.800000000000000000e+02,1.320000000000000000e+02,6.700000000000000000e+01,6.500000000000000000e+01,3.900000000000000133e-01,9.447444400000000000e+09
1.720000000000000000e+02,3.640000000000000000e+02,4.520000000000000000e+02,1.027000000000000000e+03,3.950000000000000000e+02,1.340000000000000000e+02,6.900000000000000000e+01,6.200000000000000000e+01,3.900000000000000133e-01,9.469713000000000000e+09
1.560000000000000000e+02,3.530000000000000000e+02,3.950000000000000000e+02,1.023000000000000000e+03,3.800000000000000000e+02,1.230000000000000000e+02,6.800000000000000000e+01,6.000000000000000000e+01,3.900000000000000133e-01,9.488200000000000000e+09
1.470000000000000000e+02,3.420000000000000000e+02,3.890000000000000000e+02,9.400000000000000000e+02,3.560000000000000000e+02,1.230000000000000000e+02,6.500000000000000000e+01,5.500000000000000000e+01,3.900000000000000133e-01,9.506815100000000000e+09
1.450000000000000000e+02,2.530000000000000000e+02,3.720000000000000000e+02,8.370000000000000000e+02,3.950000000000000000e+02,1.410000000000000000e+02,6.900000000000000000e+01,5.900000000000000000e+01,3.900000000000000133e-01,9.525630100000000000e+09
1.540000000000000000e+02,2.790000000000000000e+02,4.140000000000000000e+02,1.019000000000000000e+03,4.400000000000000000e+02,1.410000000000000000e+02,7.200000000000000000e+01,6.100000000000000000e+01,3.900000000000000133e-01,9.547792500000000000e+09
1.650000000000000000e+02,2.690000000000000000e+02,3.840000000000000000e+02,9.820000000000000000e+02,4.370000000000000000e+02,1.370000000000000000e+02,7.300000000000000000e+01,6.500000000000000000e+01,3.900000000000000133e-01,9.569981200000000000e+09
1.640000000000000000e+02,2.810000000000000000e+02,3.970000000000000000e+02,9.360000000000000000e+02,4.320000000000000000e+02,1.370000000000000000e+02,6.800000000000000000e+01,6.400000000000000000e+01,3.900000000000000133e-01,9.588672700000000000e+09
1.840000000000000000e+02,2.600000000000000000e+02,4.220000000000000000e+02,1.008000000000000000e+03,4.500000000000000000e+02,1.330000000000000000e+02,7.000000000000000000e+01,7.200000000000000000e+01,3.900000000000000133e-01,9.607891200000000000e+09
1.640000000000000000e+02,3.390000000000000000e+02,4.360000000000000000e+02,1.054000000000000000e+03,4.160000000000000000e+02,1.160000000000000000e+02,6.000000000000000000e+01,6.600000000000000000e+01,3.800000000000000044e-01,9.627509700000000000e+09
1.530000000000000000e+02,2.960000000000000000e+02,4.030000000000000000e+02,9.380000000000000000e+02,3.920000000000000000e+02,1.120000000000000000e+02,5.500000000000000000e+01,6.900000000000000000e+01,3.800000000000000044e-01,9.647320700000000000e+09
1.480000000000000000e+02,3.130000000000000000e+02,3.960000000000000000e+02,9.060000000000000000e+02,3.730000000000000000e+02,1.130000000000000000e+02,5.600000000000000000e+01,6.700000000000000000e+01,3.800000000000000044e-01,9.669403900000000000e+09
1.460000000000000000e+02,2.970000000000000000e+02,4.120000000000000000e+02,9.340000000000000000e+02,3.720000000000000000e+02,1.130000000000000000e+02,5.200000000000000000e+01,6.800000000000000000e+01,3.800000000000000044e-01,9.687602400000000000e+09
1.250000000000000000e+02,2.960000000000000000e+02,3.860000000000000000e+02,8.360000000000000000e+02,3.350000000000000000e+02,1.070000000000000000e+02,4.900000000000000000e+01,5.900000000000000000e+01,3.800000000000000044e-01,9.707227900000000000e+09
1.420000000000000000e+02,1.950000000000000000e+02,3.250000000000000000e+02,7.870000000000000000e+02,2.790000000000000000e+02,1.010000000000000000e+02,4.800000000000000000e+01,6.400000000000000000e+01,3.800000000000000044e-01,9.726852200000000000e+09
1.420000000000000000e+02,2.050000000000000000e+02,2.900000000000000000e+02,6.550000000000000000e+02,2.290000000000000000e+02,9.000000000000000000e+01,4.700000000000000000e+01,5.600000000000000000e+01,3.900000000000000133e-01,9.747238300000000000e+09
1.310000000000000000e+02,1.820000000000000000e+02,3.100000000000000000e+02,7.600000000000000000e+02,3.270000000000000000e+02,1.050000000000000000e+02,4.800000000000000000e+01,5.400000000000000000e+01,3.900000000000000133e-01,9.769445900000000000e+09
1.330000000000000000e+02,2.040000000000000000e+02,2.590000000000000000e+02,7.330000000000000000e+02,3.240000000000000000e+02,9.900000000000000000e+01,4.700000000000000000e+01,4.900000000000000000e+01,4.000000000000000222e-01,9.788000300000000000e+09
1.330000000000000000e+02,1.830000000000000000e+02,2.470000000000000000e+02,6.800000000000000000e+02,3.150000000000000000e+02,1.090000000000000000e+02,4.800000000000000000e+01,4.800000000000000000e+01,4.000000000000000222e-01,9.807572600000000000e+09
1.020000000000000000e+02,1.980000000000000000e+02,2.360000000000000000e+02,6.120000000000000000e+02,3.030000000000000000e+02,1.040000000000000000e+02,4.700000000000000000e+01,4.300000000000000000e+01,4.099999999999999756e-01,9.825955100000000000e+09
8.700000000000000000e+01,1.940000000000000000e+02,2.280000000000000000e+02,5.710000000000000000e+02,2.970000000000000000e+02,1.000000000000000000e+02,5.000000000000000000e+01,1.190000000000000000e+02,4.099999999999999756e-01,9.847397700000000000e+09
9.600000000000000000e+01,1.890000000000000000e+02,1.730000000000000000e+02,4.000000000000000000e+02,1.810000000000000000e+02,8.600000000000000000e+01,1.020000000000000000e+02,1.680000000000000000e+02,4.199999999999999845e-01,9.891500100000000000e+09
9.700000000000000000e+01,1.610000000000000000e+02,1.650000000000000000e+02,2.950000000000000000e+02,1.440000000000000000e+02,9.000000000000000000e+01,1.040000000000000000e+02,1.730000000000000000e+02,4.299999999999999933e-01,9.912977700000000000e+09
8.600000000000000000e+01,1.590000000000000000e+02,1.620000000000000000e+02,3.890000000000000000e+02,1.570000000000000000e+02,7.500000000000000000e+01,1.060000000000000000e+02,1.770000000000000000e+02,4.400000000000000022e-01,9.930412300000000000e+09
9.700000000000000000e+01,1.170000000000000000e+02,1.340000000000000000e+02,3.530000000000000000e+02,1.470000000000000000e+02,7.200000000000000000e+01,1.110000000000000000e+02,1.830000000000000000e+02,4.500000000000000111e-01,9.949136700000000000e+09
1.020000000000000000e+02,9.800000000000000000e+01,1.220000000000000000e+02,3.580000000000000000e+02,1.530000000000000000e+02,1.240000000000000000e+02,1.460000000000000000e+02,2.090000000000000000e+02,4.600000000000000200e-01,9.966743400000000000e+09
1.020000000000000000e+02,7.200000000000000000e+01,1.140000000000000000e+02,3.480000000000000000e+02,1.470000000000000000e+02,1.490000000000000000e+02,1.690000000000000000e+02,3.190000000000000000e+02,4.699999999999999734e-01,9.985933600000000000e+09
1.120000000000000000e+02,7.700000000000000000e+01,1.140000000000000000e+02,3.430000000000000000e+02,1.420000000000000000e+02,1.470000000000000000e+02,1.720000000000000000e+02,3.340000000000000000e+02,4.699999999999999734e-01,1.000390370000000000e+10
1.200000000000000000e+02,1.430000000000000000e+02,2.430000000000000000e+02,1.960000000000000000e+02,9.900000000000000000e+01,1.460000000000000000e+02,1.740000000000000000e+02,3.370000000000000000e+02,4.799999999999999822e-01,1.002187050000000000e+10
1.300000000000000000e+02,2.580000000000000000e+02,2.880000000000000000e+02,1.500000000000000000e+02,8.100000000000000000e+01,1.450000000000000000e+02,1.730000000000000000e+02,3.380000000000000000e+02,4.799999999999999822e-01,1.003946840000000000e+10
1.280000000000000000e+02,2.770000000000000000e+02,2.950000000000000000e+02,1.220000000000000000e+02,5.200000000000000000e+01,1.050000000000000000e+02,1.510000000000000000e+02,3.070000000000000000e+02,4.799999999999999822e-01,1.005763940000000000e+10
1.240000000000000000e+02,2.770000000000000000e+02,2.980000000000000000e+02,1.110000000000000000e+02,4.700000000000000000e+01,7.100000000000000000e+01,1.070000000000000000e+02,1.700000000000000000e+02,4.899999999999999911e-01,1.007578180000000000e+10
1.100000000000000000e+02,2.800000000000000000e+02,3.030000000000000000e+02,1.010000000000000000e+02,5.000000000000000000e+01,6.700000000000000000e+01,1.050000000000000000e+02,1.400000000000000000e+02,4.899999999999999911e-01,1.009365920000000000e+10
1.030000000000000000e+02,2.540000000000000000e+02,2.070000000000000000e+02,8.600000000000000000e+01,4.800000000000000000e+01,6.200000000000000000e+01,1.010000000000000000e+02,1.490000000000000000e+02,5.000000000000000000e-01,1.011113820000000000e+10
8.100000000000000000e+01,1.400000000000000000e+02,1.400000000000000000e+02,6.700000000000000000e+01,4.200000000000000000e+01,6.000000000000000000e+01,1.030000000000000000e+02,1.440000000000000000e+02,5.000000000000000000e-01,1.012948770000000000e+10
8.300000000000000000e+01,1.000000000000000000e+02,1.200000000000000000e+02,5.600000000000000000e+01,4.000000000000000000e+01,5.900000000000000000e+01,9.100000000000000000e+01,1.350000000000000000e+02,5.000000000000000000e-01,1.014848750000000000e+10
8.600000000000000000e+01,9.700000000000000000e+01,1.120000000000000000e+02,5.700000000000000000e+01,4.000000000000000000e+01,4.100000000000000000e+01,6.300000000000000000e+01,1.060000000000000000e+02,5.000000000000000000e-01,1.016798760000000000e+10
7.900000000000000000e+01,9.000000000000000000e+01,9.500000000000000000e+01,4.900000000000000000e+01,3.400000000000000000e+01,3.500000000000000000e+01,5.500000000000000000e+01,9.600000000000000000e+01,5.000000000000000000e-01,1.018907180000000000e+10
9.300000000000000000e+01,7.500000000000000000e+01,6.800000000000000000e+01,4.000000000000000000e+01,3.400000000000000000e+01,3.600000000000000000e+01,6.200000000000000000e+01,1.160000000000000000e+02,4.899999999999999911e-01,1.020721510000000000e+10
1.020000000000000000e+02,6.600000000000000000e+01,5.300000000000000000e+01,3.700000000000000000e+01,3.100000000000000000e+01,3.400000000000000000e+01,5.800000000000000000e+01,1.140000000000000000e+02,4.899999999999999911e-01,1.022618170000000000e+10
1.000000000000000000e+02,6.200000000000000000e+01,4.600000000000000000e+01,3.800000000000000000e+01,3.200000000000000000e+01,3.000000000000000000e+01,5.600000000000000000e+01,1.160000000000000000e+02,4.899999999999999911e-01,1.024479790000000000e+10
9.200000000000000000e+01,6.300000000000000000e+01,4.100000000000000000e+01,3.600000000000000000e+01,2.700000000000000000e+01,2.700000000000000000e+01,5.500000000000000000e+01,1.160000000000000000e+02,4.899999999999999911e-01,1.026664510000000000e+10
9.400000000000000000e+01,4.600000000000000000e+01,3.900000000000000000e+01,4.000000000000000000e+01,3.000000000000000000e+01,3.200000000000000000e+01,5.400000000000000000e+01,1.250000000000000000e+02,4.899999999999999911e-01,1.028891710000000000e+10
8.000000000000000000e+01,3.800000000000000000e+01,3.800000000000000000e+01,3.800000000000000000e+01,3.300000000000000000e+01,3.800000000000000000e+01,6.500000000000000000e+01,8.300000000000000000e+01,4.899999999999999911e-01,1.030796250000000000e+10
7.100000000000000000e+01,3.900000000000000000e+01,3.800000000000000000e+01,3.800000000000000000e+01,3.400000000000000000e+01,3.900000000000000000e+01,8.400000000000000000e+01,2.640000000000000000e+02,4.799999999999999822e-01,1.032736820000000000e+10
7.400000000000000000e+01,3.700000000000000000e+01,3.700000000000000000e+01,3.600000000000000000e+01,3.000000000000000000e+01,4.100000000000000000e+01,8.900000000000000000e+01,2.810000000000000000e+02,4.699999999999999734e-01,1.034647260000000000e+10
7.700000000000000000e+01,3.800000000000000000e+01,3.900000000000000000e+01,3.700000000000000000e+01,3.600000000000000000e+01,4.200000000000000000e+01,9.200000000000000000e+01,2.890000000000000000e+02,4.699999999999999734e-01,1.036666610000000000e+10
7.900000000000000000e+01,3.900000000000000000e+01,3.700000000000000000e+01,3.400000000000000000e+01,3.500000000000000000e+01,3.900000000000000000e+01,9.400000000000000000e+01,2.970000000000000000e+02,4.600000000000000200e-01,1.038876490000000000e+10
7.200000000000000000e+01,4.100000000000000000e+01,3.400000000000000000e+01,3.600000000000000000e+01,3.500000000000000000e+01,3.400000000000000000e+01,8.000000000000000000e+01,2.960000000000000000e+02,4.600000000000000200e-01,1.040679240000000000e+10
6.600000000000000000e+01,3.600000000000000000e+01,3.500000000000000000e+01,3.900000000000000000e+01,3.700000000000000000e+01,3.600000000000000000e+01,6.900000000000000000e+01,1.640000000000000000e+02,4.500000000000000111e-01,1.042474470000000000e+10
6.700000000000000000e+01,4.100000000000000000e+01,3.400000000000000000e+01,4.000000000000000000e+01,3.800000000000000000e+01,3.500000000000000000e+01,7.200000000000000000e+01,1.360000000000000000e+02,4.500000000000000111e-01,1.044443600000000000e+10
