5.200000000000000000e+01,7.700000000000000000e+01,2.060000000000000000e+02,1.230000000000000000e+02,8.000000000000000000e+01,6.500000000000000000e+01,5.900000000000000000e+01,4.000000000000000000e+01,5.600000000000000533e-01,4.648971000000000000e+08
5.000000000000000000e+01,7.000000000000000000e+01,1.940000000000000000e+02,9.700000000000000000e+01,8.400000000000000000e+01,6.700000000000000000e+01,6.000000000000000000e+01,4.000000000000000000e+01,5.600000000000000533e-01,5.006742000000000000e+08
4.900000000000000000e+01,6.800000000000000000e+01,1.830000000000000000e+02,1.050000000000000000e+02,8.800000000000000000e+01,1.310000000000000000e+02,6.000000000000000000e+01,4.000000000000000000e+01,5.600000000000000533e-01,1.277650700000000000e+09
4.600000000000000000e+01,6.000000000000000000e+01,1.690000000000000000e+02,1.220000000000000000e+02,1.010000000000000000e+02,1.510000000000000000e+02,5.200000000000000000e+01,4.300000000000000000e+01,5.699999999999999512e-01,1.296654900000000000e+09
4.300000000000000000e+01,4.900000000000000000e+01,1.550000000000000000e+02,1.170000000000000000e+02,1.010000000000000000e+02,1.480000000000000000e+02,4.700000000000000000e+01,4.200000000000000000e+01,5.699999999999999512e-01,1.316331900000000000e+09
3.200000000000000000e+01,5.100000000000000000e+01,1.280000000000000000e+02,1.090000000000000000e+02,1.020000000000000000e+02,1.460000000000000000e+02,4.200000000000000000e+01,3.400000000000000000e+01,5.699999999999999512e-01,1.334950200000000000e+09
3.400000000000000000e+01,5.300000000000000000e+01,1.120000000000000000e+02,1.150000000000000000e+02,1.000000000000000000e+02,1.460000000000000000e+02,4.200000000000000000e+01,3.400000000000000000e+01,5.699999999999999512e-01,1.354320700000000000e+09
3.800000000000000000e+01,5.700000000000000000e+01,1.260000000000000000e+02,1.100000000000000000e+02,9.400000000000000000e+01,1.100000000000000000e+02,3.900000000000000000e+01,3.100000000000000000e+01,5.699999999999999512e-01,1.373129800000000000e+09
4.000000000000000000e+01,5.400000000000000000e+01,1.340000000000000000e+02,8.800000000000000000e+01,8.300000000000000000e+01,8.300000000000000000e+01,3.700000000000000000e+01,2.700000000000000000e+01,5.600000000000000533e-01,1.391299200000000000e+09
4.200000000000000000e+01,6.200000000000000000e+01,1.610000000000000000e+02,8.400000000000000000e+01,5.900000000000000000e+01,8.800000000000000000e+01,3.200000000000000000e+01,2.800000000000000000e+01,5.600000000000000533e-01,1.408979800000000000e+09
4.200000000000000000e+01,5.700000000000000000e+01,1.520000000000000000e+02,7.600000000000000000e+01,6.700000000000000000e+01,8.700000000000000000e+01,3.000000000000000000e+01,2.700000000000000000e+01,5.500000000000000444e-01,1.427367000000000000e+09
4.100000000000000000e+01,5.900000000000000000e+01,1.510000000000000000e+02,6.900000000000000000e+01,6.800000000000000000e+01,8.700000000000000000e+01,3.500000000000000000e+01,2.800000000000000000e+01,5.500000000000000444e-01,1.445416200000000000e+09
3.700000000000000000e+01,5.700000000000000000e+01,1.390000000000000000e+02,7.000000000000000000e+01,1.140000000000000000e+02,6.500000000000000000e+01,3.500000000000000000e+01,3.000000000000000000e+01,5.400000000000000355e-01,1.464143500000000000e+09
3.700000000000000000e+01,5.500000000000000000e+01,1.220000000000000000e+02,8.200000000000000000e+01,1.170000000000000000e+02,5.700000000000000000e+01,4.000000000000000000e+01,2.700000000000000000e+01,5.400000000000000355e-01,1.482832500000000000e+09
3.800000000000000000e+01,6.100000000000000000e+01,9.300000000000000000e+01,1.420000000000000000e+02,1.300000000000000000e+02,4.400000000000000000e+01,4.100000000000000000e+01,2.900000000000000000e+01,5.400000000000000355e-01,1.500471700000000000e+09
3.900000000000000000e+01,6.000000000000000000e+01,9.300000000000000000e+01,1.490000000000000000e+02,1.280000000000000000e+02,4.900000000000000000e+01,4.100000000000000000e+01,2.900000000000000000e+01,5.400000000000000355e-01,1.518971900000000000e+09
3.600000000000000000e+01,5.600000000000000000e+01,8.500000000000000000e+01,1.460000000000000000e+02,1.280000000000000000e+02,5.000000000000000000e+01,4.100000000000000000e+01,2.700000000000000000e+01,5.400000000000000355e-01,1.537308000000000000e+09
3.800000000000000000e+01,5.600000000000000000e+01,8.800000000000000000e+01,1.550000000000000000e+02,9.200000000000000000e+01,4.500000000000000000e+01,4.100000000000000000e+01,2.600000000000000000e+01,5.400000000000000355e-01,1.555379700000000000e+09
3.500000000000000000e+01,5.700000000000000000e+01,1.010000000000000000e+02,1.580000000000000000e+02,8.400000000000000000e+01,5.200000000000000000e+01,4.300000000000000000e+01,3.000000000000000000e+01,5.400000000000000355e-01,1.599601200000000000e+09
3.500000000000000000e+01,4.300000000000000000e+01,9.100000000000000000e+01,1.140000000000000000e+02,6.200000000000000000e+01,5.200000000000000000e+01,4.400000000000000000e+01,2.800000000000000000e+01,5.400000000000000355e-01,1.618465500000000000e+09
3.500000000000000000e+01,4.400000000000000000e+01,9.200000000000000000e+01,1.200000000000000000e+02,6.200000000000000000e+01,5.200000000000000000e+01,4.400000000000000000e+01,2.900000000000000000e+01,5.400000000000000355e-01,1.638923900000000000e+09
3.700000000000000000e+01,4.300000000000000000e+01,9.400000000000000000e+01,1.190000000000000000e+02,6.100000000000000000e+01,5.100000000000000000e+01,4.500000000000000000e+01,3.000000000000000000e+01,5.400000000000000355e-01,1.657196000000000000e+09
3.800000000000000000e+01,4.500000000000000000e+01,9.600000000000000000e+01,1.150000000000000000e+02,9.600000000000000000e+01,5.200000000000000000e+01,4.700000000000000000e+01,3.100000000000000000e+01,5.400000000000000355e-01,1.676118300000000000e+09
4.000000000000000000e+01,4.400000000000000000e+01,9.200000000000000000e+01,1.170000000000000000e+02,1.030000000000000000e+02,5.100000000000000000e+01,5.100000000000000000e+01,3.100000000000000000e+01,5.400000000000000355e-01,1.694978000000000000e+09
4.600000000000000000e+01,5.900000000000000000e+01,1.150000000000000000e+02,1.330000000000000000e+02,1.090000000000000000e+02,6.300000000000000000e+01,6.400000000000000000e+01,3.200000000000000000e+01,5.400000000000000355e-01,1.713686200000000000e+09
4.700000000000000000e+01,5.900000000000000000e+01,1.220000000000000000e+02,1.300000000000000000e+02,1.050000000000000000e+02,6.400000000000000000e+01,6.800000000000000000e+01,3.300000000000000000e+01,5.500000000000000444e-01,1.732399300000000000e+09
5.000000000000000000e+01,6.000000000000000000e+01,1.290000000000000000e+02,1.340000000000000000e+02,1.130000000000000000e+02,6.300000000000000000e+01,6.700000000000000000e+01,3.100000000000000000e+01,5.500000000000000444e-01,1.751531400000000000e+09
5.000000000000000000e+01,6.200000000000000000e+01,1.380000000000000000e+02,1.300000000000000000e+02,8.500000000000000000e+01,6.800000000000000000e+01,6.500000000000000000e+01,3.100000000000000000e+01,5.500000000000000444e-01,1.771146900000000000e+09
5.100000000000000000e+01,6.300000000000000000e+01,1.410000000000000000e+02,1.210000000000000000e+02,1.370000000000000000e+02,6.800000000000000000e+01,5.800000000000000000e+01,3.200000000000000000e+01,5.500000000000000444e-01,1.791386500000000000e+09
4.300000000000000000e+01,5.500000000000000000e+01,1.190000000000000000e+02,9.800000000000000000e+01,1.390000000000000000e+02,5.900000000000000000e+01,4.400000000000000000e+01,3.100000000000000000e+01,5.400000000000000355e-01,1.810194700000000000e+09
4.600000000000000000e+01,6.700000000000000000e+01,1.400000000000000000e+02,8.900000000000000000e+01,1.430000000000000000e+02,5.700000000000000000e+01,3.600000000000000000e+01,3.200000000000000000e+01,5.400000000000000355e-01,1.827983800000000000e+09
4.300000000000000000e+01,7.500000000000000000e+01,1.990000000000000000e+02,1.010000000000000000e+02,1.390000000000000000e+02,5.500000000000000000e+01,3.300000000000000000e+01,3.400000000000000000e+01,5.300000000000000266e-01,1.846708100000000000e+09
4.000000000000000000e+01,7.000000000000000000e+01,2.030000000000000000e+02,9.400000000000000000e+01,1.440000000000000000e+02,4.600000000000000000e+01,3.700000000000000000e+01,3.200000000000000000e+01,5.300000000000000266e-01,1.866070900000000000e+09
3.900000000000000000e+01,7.200000000000000000e+01,2.100000000000000000e+02,1.020000000000000000e+02,9.300000000000000000e+01,4.200000000000000000e+01,4.000000000000000000e+01,3.000000000000000000e+01,5.200000000000000178e-01,1.885253000000000000e+09
4.200000000000000000e+01,6.800000000000000000e+01,2.090000000000000000e+02,1.040000000000000000e+02,1.240000000000000000e+02,5.100000000000000000e+01,3.900000000000000000e+01,3.000000000000000000e+01,5.200000000000000178e-01,1.905944200000000000e+09
3.900000000000000000e+01,5.700000000000000000e+01,2.000000000000000000e+02,1.070000000000000000e+02,1.220000000000000000e+02,5.100000000000000000e+01,3.900000000000000000e+01,3.200000000000000000e+01,5.200000000000000178e-01,1.924440400000000000e+09
3.600000000000000000e+01,4.600000000000000000e+01,1.430000000000000000e+02,1.170000000000000000e+02,1.260000000000000000e+02,5.100000000000000000e+01,4.000000000000000000e+01,3.100000000000000000e+01,5.200000000000000178e-01,1.942619200000000000e+09
4.000000000000000000e+01,5.500000000000000000e+01,1.330000000000000000e+02,1.240000000000000000e+02,1.260000000000000000e+02,5.400000000000000000e+01,3.500000000000000000e+01,3.300000000000000000e+01,5.200000000000000178e-01,1.962036000000000000e+09
3.600000000000000000e+01,5.000000000000000000e+01,1.120000000000000000e+02,1.230000000000000000e+02,1.260000000000000000e+02,5.300000000000000000e+01,3.200000000000000000e+01,3.100000000000000000e+01,5.100000000000000089e-01,1.987406200000000000e+09
3.500000000000000000e+01,5.400000000000000000e+01,1.170000000000000000e+02,1.230000000000000000e+02,8.700000000000000000e+01,4.000000000000000000e+01,3.200000000000000000e+01,3.200000000000000000e+01,5.100000000000000089e-01,2.008715400000000000e+09
3.400000000000000000e+01,5.600000000000000000e+01,1.150000000000000000e+02,1.220000000000000000e+02,8.300000000000000000e+01,3.800000000000000000e+01,3.000000000000000000e+01,2.800000000000000000e+01,5.100000000000000089e-01,2.028254400000000000e+09
3.500000000000000000e+01,5.800000000000000000e+01,1.150000000000000000e+02,9.400000000000000000e+01,6.800000000000000000e+01,3.700000000000000000e+01,2.900000000000000000e+01,2.700000000000000000e+01,5.100000000000000089e-01,2.046876100000000000e+09
3.200000000000000000e+01,4.900000000000000000e+01,1.080000000000000000e+02,8.800000000000000000e+01,5.600000000000000000e+01,3.300000000000000000e+01,3.000000000000000000e+01,2.500000000000000000e+01,5.200000000000000178e-01,2.063776600000000000e+09
3.100000000000000000e+01,4.900000000000000000e+01,1.150000000000000000e+02,7.700000000000000000e+01,4.900000000000000000e+01,3.100000000000000000e+01,3.000000000000000000e+01,2.600000000000000000e+01,5.200000000000000178e-01,2.081233800000000000e+09
2.700000000000000000e+01,5.200000000000000000e+01,1.030000000000000000e+02,6.700000000000000000e+01,5.200000000000000000e+01,3.400000000000000000e+01,2.900000000000000000e+01,2.400000000000000000e+01,5.200000000000000178e-01,2.098313200000000000e+09
2.900000000000000000e+01,5.800000000000000000e+01,1.160000000000000000e+02,8.300000000000000000e+01,6.300000000000000000e+01,4.000000000000000000e+01,3.000000000000000000e+01,2.400000000000000000e+01,5.200000000000000178e-01,2.114750100000000000e+09
2.900000000000000000e+01,6.000000000000000000e+01,1.140000000000000000e+02,1.060000000000000000e+02,6.900000000000000000e+01,4.400000000000000000e+01,2.900000000000000000e+01,2.400000000000000000e+01,5.200000000000000178e-01,2.131461700000000000e+09
2.700000000000000000e+01,6.200000000000000000e+01,1.170000000000000000e+02,1.080000000000000000e+02,7.300000000000000000e+01,4.600000000000000000e+01,3.100000000000000000e+01,2.500000000000000000e+01,5.300000000000000266e-01,2.149113700000000000e+09
2.800000000000000000e+01,6.400000000000000000e+01,1.110000000000000000e+02,1.110000000000000000e+02,7.200000000000000000e+01,4.700000000000000000e+01,2.900000000000000000e+01,2.200000000000000000e+01,5.300000000000000266e-01,2.165636600000000000e+09
3.500000000000000000e+01,5.600000000000000000e+01,1.200000000000000000e+02,1.140000000000000000e+02,7.100000000000000000e+01,4.600000000000000000e+01,2.900000000000000000e+01,2.500000000000000000e+01,5.300000000000000266e-01,2.184310300000000000e+09
3.200000000000000000e+01,4.400000000000000000e+01,1.170000000000000000e+02,1.060000000000000000e+02,5.900000000000000000e+01,4.100000000000000000e+01,2.700000000000000000e+01,2.500000000000000000e+01,5.300000000000000266e-01,2.202146400000000000e+09
3.600000000000000000e+01,4.600000000000000000e+01,1.070000000000000000e+02,8.600000000000000000e+01,6.600000000000000000e+01,3.700000000000000000e+01,2.800000000000000000e+01,2.500000000000000000e+01,5.300000000000000266e-01,2.220077600000000000e+09
3.800000000000000000e+01,5.200000000000000000e+01,1.170000000000000000e+02,8.300000000000000000e+01,6.300000000000000000e+01,3.500000000000000000e+01,2.800000000000000000e+01,2.500000000000000000e+01,5.300000000000000266e-01,2.237319100000000000e+09
4.100000000000000000e+01,6.000000000000000000e+01,1.410000000000000000e+02,9.700000000000000000e+01,6.800000000000000000e+01,3.900000000000000000e+01,3.100000000000000000e+01,2.900000000000000000e+01,5.300000000000000266e-01,2.254346800000000000e+09
3.800000000000000000e+01,6.200000000000000000e+01,1.380000000000000000e+02,9.400000000000000000e+01,6.700000000000000000e+01,4.300000000000000000e+01,3.400000000000000000e+01,2.700000000000000000e+01,5.400000000000000355e-01,2.272443200000000000e+09
4.000000000000000000e+01,6.700000000000000000e+01,1.390000000000000000e+02,9.700000000000000000e+01,9.800000000000000000e+01,5.200000000000000000e+01,4.000000000000000000e+01,2.900000000000000000e+01,5.400000000000000355e-01,2.289040000000000000e+09
3.800000000000000000e+01,6.400000000000000000e+01,1.420000000000000000e+02,1.420000000000000000e+02,1.030000000000000000e+02,6.000000000000000000e+01,4.200000000000000000e+01,3.200000000000000000e+01,5.400000000000000355e-01,2.306494000000000000e+09
4.200000000000000000e+01,7.500000000000000000e+01,1.950000000000000000e+02,1.710000000000000000e+02,1.160000000000000000e+02,6.300000000000000000e+01,4.900000000000000000e+01,3.000000000000000000e+01,5.400000000000000355e-01,2.324550500000000000e+09
4.900000000000000000e+01,9.200000000000000000e+01,1.990000000000000000e+02,1.800000000000000000e+02,1.360000000000000000e+02,6.700000000000000000e+01,5.100000000000000000e+01,3.200000000000000000e+01,5.400000000000000355e-01,2.341935900000000000e+09
4.800000000000000000e+01,9.500000000000000000e+01,2.060000000000000000e+02,1.940000000000000000e+02,1.590000000000000000e+02,7.000000000000000000e+01,5.700000000000000000e+01,3.300000000000000000e+01,5.400000000000000355e-01,2.359053200000000000e+09
5.200000000000000000e+01,1.000000000000000000e+02,2.020000000000000000e+02,2.250000000000000000e+02,1.540000000000000000e+02,6.400000000000000000e+01,5.600000000000000000e+01,3.400000000000000000e+01,5.400000000000000355e-01,2.375998500000000000e+09
5.300000000000000000e+01,1.050000000000000000e+02,2.070000000000000000e+02,2.010000000000000000e+02,1.480000000000000000e+02,5.900000000000000000e+01,5.400000000000000000e+01,3.300000000000000000e+01,5.400000000000000355e-01,2.392670900000000000e+09
5.000000000000000000e+01,9.400000000000000000e+01,1.460000000000000000e+02,1.850000000000000000e+02,1.440000000000000000e+02,6.200000000000000000e+01,4.700000000000000000e+01,3.300000000000000000e+01,5.400000000000000355e-01,2.410365300000000000e+09
5.000000000000000000e+01,7.300000000000000000e+01,1.170000000000000000e+02,1.670000000000000000e+02,1.250000000000000000e+02,5.500000000000000000e+01,4.200000000000000000e+01,3.000000000000000000e+01,5.400000000000000355e-01,2.427825300000000000e+09
5.400000000000000000e+01,7.100000000000000000e+01,1.050000000000000000e+02,1.650000000000000000e+02,1.050000000000000000e+02,5.100000000000000000e+01,3.400000000000000000e+01,3.200000000000000000e+01,5.400000000000000355e-01,2.445493800000000000e+09
5.100000000000000000e+01,6.200000000000000000e+01,9.600000000000000000e+01,1.120000000000000000e+02,8.700000000000000000e+01,4.900000000000000000e+01,2.800000000000000000e+01,3.000000000000000000e+01,5.400000000000000355e-01,2.463767100000000000e+09
5.400000000000000000e+01,5.900000000000000000e+01,8.700000000000000000e+01,1.060000000000000000e+02,8.400000000000000000e+01,4.700000000000000000e+01,2.600000000000000000e+01,2.800000000000000000e+01,5.400000000000000355e-01,2.481142300000000000e+09
5.800000000000000000e+01,6.400000000000000000e+01,8.900000000000000000e+01,9.400000000000000000e+01,7.000000000000000000e+01,3.800000000000000000e+01,2.900000000000000000e+01,2.800000000000000000e+01,5.400000000000000355e-01,2.498934300000000000e+09
5.900000000000000000e+01,7.100000000000000000e+01,1.780000000000000000e+02,1.840000000000000000e+02,6.900000000000000000e+01,3.800000000000000000e+01,2.900000000000000000e+01,3.100000000000000000e+01,5.400000000000000355e-01,2.516091100000000000e+09
8.700000000000000000e+01,9.100000000000000000e+01,1.840000000000000000e+02,1.970000000000000000e+02,4.700000000000000000e+01,3.000000000000000000e+01,2.700000000000000000e+01,3.000000000000000000e+01,5.500000000000000444e-01,2.532850000000000000e+09
1.120000000000000000e+02,1.180000000000000000e+02,1.840000000000000000e+02,2.070000000000000000e+02,4.500000000000000000e+01,3.400000000000000000e+01,2.900000000000000000e+01,3.700000000000000000e+01,5.500000000000000444e-01,2.550614700000000000e+09
1.480000000000000000e+02,1.480000000000000000e+02,1.830000000000000000e+02,2.130000000000000000e+02,4.200000000000000000e+01,3.400000000000000000e+01,3.100000000000000000e+01,4.000000000000000000e+01,5.600000000000000533e-01,2.568472400000000000e+09
1.910000000000000000e+02,1.840000000000000000e+02,1.870000000000000000e+02,2.150000000000000000e+02,4.500000000000000000e+01,3.500000000000000000e+01,3.700000000000000000e+01,4.800000000000000000e+01,5.699999999999999512e-01,2.587059200000000000e+09
1.910000000000000000e+02,1.860000000000000000e+02,1.190000000000000000e+02,1.480000000000000000e+02,4.100000000000000000e+01,3.500000000000000000e+01,3.900000000000000000e+01,4.600000000000000000e+01,5.699999999999999512e-01,2.604194000000000000e+09
1.840000000000000000e+02,1.790000000000000000e+02,1.130000000000000000e+02,1.200000000000000000e+02,4.600000000000000000e+01,3.900000000000000000e+01,4.000000000000000000e+01,4.600000000000000000e+01,5.699999999999999512e-01,2.621220200000000000e+09
1.800000000000000000e+02,1.710000000000000000e+02,1.370000000000000000e+02,1.420000000000000000e+02,9.000000000000000000e+01,3.900000000000000000e+01,3.900000000000000000e+01,4.200000000000000000e+01,5.799999999999999600e-01,2.639296300000000000e+09
1.680000000000000000e+02,1.520000000000000000e+02,1.690000000000000000e+02,1.640000000000000000e+02,1.020000000000000000e+02,4.400000000000000000e+01,4.100000000000000000e+01,4.200000000000000000e+01,5.799999999999999600e-01,2.657544100000000000e+09
1.340000000000000000e+02,1.470000000000000000e+02,2.090000000000000000e+02,1.830000000000000000e+02,1.070000000000000000e+02,5.200000000000000000e+01,3.500000000000000000e+01,3.600000000000000000e+01,5.799999999999999600e-01,2.676389000000000000e+09
1.380000000000000000e+02,1.470000000000000000e+02,2.090000000000000000e+02,1.900000000000000000e+02,1.110000000000000000e+02,5.000000000000000000e+01,3.600000000000000000e+01,3.800000000000000000e+01,5.799999999999999600e-01,2.695288800000000000e+09
1.330000000000000000e+02,1.520000000000000000e+02,2.180000000000000000e+02,2.130000000000000000e+02,1.110000000000000000e+02,4.700000000000000000e+01,3.500000000000000000e+01,3.700000000000000000e+01,5.899999999999999689e-01,2.712853600000000000e+09
1.200000000000000000e+02,1.430000000000000000e+02,2.030000000000000000e+02,1.900000000000000000e+02,9.100000000000000000e+01,4.800000000000000000e+01,3.500000000000000000e+01,3.600000000000000000e+01,5.899999999999999689e-01,2.730196300000000000e+09
9.300000000000000000e+01,1.350000000000000000e+02,1.860000000000000000e+02,1.710000000000000000e+02,9.300000000000000000e+01,4.700000000000000000e+01,3.300000000000000000e+01,3.400000000000000000e+01,5.899999999999999689e-01,2.747032400000000000e+09
6.700000000000000000e+01,8.700000000000000000e+01,1.390000000000000000e+02,1.730000000000000000e+02,1.140000000000000000e+02,4.400000000000000000e+01,3.300000000000000000e+01,2.900000000000000000e+01,5.899999999999999689e-01,2.764123400000000000e+09
5.100000000000000000e+01,7.800000000000000000e+01,1.330000000000000000e+02,1.860000000000000000e+02,1.160000000000000000e+02,5.000000000000000000e+01,3.100000000000000000e+01,2.900000000000000000e+01,5.799999999999999600e-01,2.781991400000000000e+09
4.700000000000000000e+01,6.600000000000000000e+01,1.320000000000000000e+02,2.270000000000000000e+02,1.220000000000000000e+02,5.200000000000000000e+01,3.100000000000000000e+01,2.800000000000000000e+01,5.799999999999999600e-01,2.798958400000000000e+09
4.700000000000000000e+01,6.000000000000000000e+01,1.270000000000000000e+02,2.340000000000000000e+02,1.230000000000000000e+02,5.000000000000000000e+01,3.200000000000000000e+01,2.600000000000000000e+01,5.799999999999999600e-01,2.816072400000000000e+09
4.800000000000000000e+01,6.900000000000000000e+01,1.190000000000000000e+02,2.420000000000000000e+02,1.170000000000000000e+02,4.600000000000000000e+01,3.200000000000000000e+01,2.600000000000000000e+01,5.799999999999999600e-01,2.833686200000000000e+09
4.900000000000000000e+01,6.900000000000000000e+01,1.180000000000000000e+02,2.420000000000000000e+02,1.140000000000000000e+02,4.900000000000000000e+01,3.000000000000000000e+01,2.900000000000000000e+01,5.799999999999999600e-01,2.852877200000000000e+09
5.700000000000000000e+01,6.800000000000000000e+01,1.140000000000000000e+02,2.340000000000000000e+02,1.200000000000000000e+02,5.200000000000000000e+01,3.100000000000000000e+01,2.700000000000000000e+01,5.799999999999999600e-01,2.870364500000000000e+09
6.000000000000000000e+01,6.900000000000000000e+01,8.900000000000000000e+01,1.810000000000000000e+02,1.230000000000000000e+02,5.100000000000000000e+01,3.000000000000000000e+01,2.900000000000000000e+01,5.799999999999999600e-01,2.887597000000000000e+09
5.900000000000000000e+01,6.800000000000000000e+01,9.700000000000000000e+01,1.830000000000000000e+02,1.290000000000000000e+02,5.400000000000000000e+01,3.200000000000000000e+01,2.800000000000000000e+01,5.799999999999999600e-01,2.905601700000000000e+09
6.100000000000000000e+01,5.900000000000000000e+01,9.100000000000000000e+01,1.850000000000000000e+02,1.360000000000000000e+02,6.100000000000000000e+01,3.300000000000000000e+01,2.800000000000000000e+01,5.699999999999999512e-01,2.922338800000000000e+09
6.300000000000000000e+01,6.000000000000000000e+01,8.600000000000000000e+01,1.990000000000000000e+02,1.600000000000000000e+02,6.100000000000000000e+01,3.400000000000000000e+01,2.500000000000000000e+01,5.699999999999999512e-01,2.938986900000000000e+09
6.000000000000000000e+01,5.900000000000000000e+01,9.100000000000000000e+01,2.330000000000000000e+02,2.100000000000000000e+02,6.200000000000000000e+01,3.500000000000000000e+01,2.900000000000000000e+01,5.600000000000000533e-01,2.956534900000000000e+09
6.300000000000000000e+01,5.800000000000000000e+01,8.700000000000000000e+01,2.450000000000000000e+02,2.270000000000000000e+02,7.200000000000000000e+01,3.500000000000000000e+01,3.000000000000000000e+01,5.600000000000000533e-01,2.974145400000000000e+09
7.100000000000000000e+01,8.000000000000000000e+01,8.100000000000000000e+01,2.520000000000000000e+02,2.270000000000000000e+02,6.900000000000000000e+01,3.700000000000000000e+01,3.200000000000000000e+01,5.500000000000000444e-01,2.991670400000000000e+09
8.300000000000000000e+01,1.060000000000000000e+02,1.110000000000000000e+02,2.530000000000000000e+02,2.330000000000000000e+02,7.000000000000000000e+01,3.600000000000000000e+01,3.300000000000000000e+01,5.400000000000000355e-01,3.011649600000000000e+09
8.900000000000000000e+01,1.050000000000000000e+02,1.120000000000000000e+02,2.460000000000000000e+02,2.220000000000000000e+02,7.700000000000000000e+01,3.800000000000000000e+01,3.300000000000000000e+01,5.300000000000000266e-01,3.029962500000000000e+09
9.300000000000000000e+01,1.130000000000000000e+02,1.270000000000000000e+02,2.170000000000000000e+02,1.860000000000000000e+02,7.500000000000000000e+01,3.800000000000000000e+01,3.300000000000000000e+01,5.200000000000000178e-01,3.047007700000000000e+09
9.300000000000000000e+01,1.130000000000000000e+02,1.290000000000000000e+02,1.990000000000000000e+02,1.660000000000000000e+02,7.200000000000000000e+01,3.900000000000000000e+01,3.300000000000000000e+01,5.200000000000000178e-01,3.064965500000000000e+09
9.300000000000000000e+01,1.200000000000000000e+02,1.410000000000000000e+02,2.000000000000000000e+02,1.640000000000000000e+02,7.600000000000000000e+01,3.800000000000000000e+01,3.200000000000000000e+01,5.200000000000000178e-01,3.082894400000000000e+09
8.500000000000000000e+01,1.080000000000000000e+02,1.290000000000000000e+02,1.980000000000000000e+02,1.570000000000000000e+02,7.000000000000000000e+01,3.900000000000000000e+01,3.300000000000000000e+01,5.100000000000000089e-01,3.100448500000000000e+09
8.000000000000000000e+01,1.110000000000000000e+02,1.350000000000000000e+02,2.010000000000000000e+02,1.540000000000000000e+02,6.100000000000000000e+01,3.700000000000000000e+01,3.600000000000000000e+01,5.100000000000000089e-01,3.117747900000000000e+09
7.200000000000000000e+01,1.060000000000000000e+02,1.250000000000000000e+02,2.460000000000000000e+02,1.360000000000000000e+02,6.400000000000000000e+01,3.700000000000000000e+01,3.400000000000000000e+01,5.100000000000000089e-01,3.135918300000000000e+09
7.300000000000000000e+01,1.080000000000000000e+02,1.280000000000000000e+02,2.720000000000000000e+02,1.600000000000000000e+02,6.200000000000000000e+01,3.600000000000000000e+01,3.300000000000000000e+01,5.000000000000000000e-01,3.154162700000000000e+09
7.000000000000000000e+01,8.500000000000000000e+01,1.230000000000000000e+02,3.050000000000000000e+02,1.730000000000000000e+02,5.900000000000000000e+01,3.400000000000000000e+01,3.100000000000000000e+01,5.000000000000000000e-01,3.171870600000000000e+09
8.000000000000000000e+01,8.800000000000000000e+01,1.680000000000000000e+02,3.220000000000000000e+02,1.700000000000000000e+02,6.700000000000000000e+01,3.600000000000000000e+01,3.100000000000000000e+01,5.000000000000000000e-01,3.189944200000000000e+09
8.200000000000000000e+01,8.100000000000000000e+01,1.670000000000000000e+02,3.110000000000000000e+02,1.570000000000000000e+02,6.700000000000000000e+01,3.700000000000000000e+01,2.700000000000000000e+01,5.100000000000000089e-01,3.207848900000000000e+09
8.300000000000000000e+01,7.800000000000000000e+01,1.690000000000000000e+02,2.900000000000000000e+02,1.560000000000000000e+02,6.200000000000000000e+01,3.800000000000000000e+01,2.500000000000000000e+01,5.100000000000000089e-01,3.225488600000000000e+09
8.900000000000000000e+01,7.300000000000000000e+01,1.710000000000000000e+02,2.710000000000000000e+02,1.270000000000000000e+02,5.700000000000000000e+01,3.900000000000000000e+01,2.900000000000000000e+01,5.200000000000000178e-01,3.243293100000000000e+09
9.200000000000000000e+01,7.700000000000000000e+01,1.730000000000000000e+02,2.610000000000000000e+02,1.010000000000000000e+02,5.800000000000000000e+01,3.800000000000000000e+01,3.700000000000000000e+01,5.300000000000000266e-01,3.260955200000000000e+09
9.600000000000000000e+01,6.800000000000000000e+01,1.300000000000000000e+02,2.490000000000000000e+02,9.300000000000000000e+01,5.900000000000000000e+01,3.600000000000000000e+01,6.000000000000000000e+01,5.300000000000000266e-01,3.278346100000000000e+09
9.600000000000000000e+01,7.600000000000000000e+01,1.300000000000000000e+02,2.540000000000000000e+02,8.600000000000000000e+01,5.800000000000000000e+01,4.100000000000000000e+01,6.900000000000000000e+01,5.400000000000000355e-01,3.296633200000000000e+09
9.800000000000000000e+01,7.800000000000000000e+01,1.360000000000000000e+02,2.380000000000000000e+02,8.600000000000000000e+01,5.800000000000000000e+01,4.100000000000000000e+01,7.200000000000000000e+01,5.400000000000000355e-01,3.313845400000000000e+09
1.020000000000000000e+02,7.900000000000000000e+01,1.530000000000000000e+02,2.430000000000000000e+02,8.300000000000000000e+01,7.000000000000000000e+01,7.900000000000000000e+01,8.900000000000000000e+01,5.500000000000000444e-01,3.331865900000000000e+09
1.130000000000000000e+02,8.000000000000000000e+01,1.530000000000000000e+02,2.180000000000000000e+02,8.000000000000000000e+01,9.000000000000000000e+01,9.800000000000000000e+01,1.220000000000000000e+02,5.500000000000000444e-01,3.349390000000000000e+09
1.030000000000000000e+02,8.700000000000000000e+01,1.970000000000000000e+02,2.260000000000000000e+02,7.400000000000000000e+01,1.090000000000000000e+02,1.020000000000000000e+02,1.230000000000000000e+02,5.600000000000000533e-01,3.366731500000000000e+09
1.070000000000000000e+02,9.100000000000000000e+01,2.260000000000000000e+02,2.170000000000000000e+02,7.700000000000000000e+01,1.220000000000000000e+02,1.020000000000000000e+02,1.210000000000000000e+02,5.699999999999999512e-01,3.383840800000000000e+09
1.280000000000000000e+02,1.380000000000000000e+02,2.610000000000000000e+02,2.300000000000000000e+02,8.200000000000000000e+01,1.350000000000000000e+02,1.170000000000000000e+02,1.240000000000000000e+02,5.799999999999999600e-01,3.400576700000000000e+09
1.480000000000000000e+02,1.610000000000000000e+02,2.830000000000000000e+02,2.480000000000000000e+02,7.700000000000000000e+01,1.390000000000000000e+02,1.350000000000000000e+02,1.270000000000000000e+02,5.899999999999999689e-01,3.418522500000000000e+09
1.680000000000000000e+02,2.600000000000000000e+02,2.810000000000000000e+02,2.300000000000000000e+02,7.400000000000000000e+01,1.370000000000000000e+02,1.340000000000000000e+02,1.170000000000000000e+02,5.899999999999999689e-01,3.438788100000000000e+09
1.740000000000000000e+02,2.680000000000000000e+02,2.570000000000000000e+02,2.230000000000000000e+02,8.300000000000000000e+01,1.290000000000000000e+02,1.320000000000000000e+02,1.170000000000000000e+02,5.999999999999999778e-01,3.457258900000000000e+09
1.900000000000000000e+02,2.790000000000000000e+02,2.310000000000000000e+02,2.190000000000000000e+02,8.000000000000000000e+01,1.190000000000000000e+02,1.430000000000000000e+02,1.230000000000000000e+02,5.999999999999999778e-01,3.474949200000000000e+09
1.800000000000000000e+02,2.710000000000000000e+02,1.860000000000000000e+02,1.970000000000000000e+02,7.300000000000000000e+01,1.070000000000000000e+02,1.780000000000000000e+02,1.250000000000000000e+02,5.999999999999999778e-01,3.491941600000000000e+09
1.640000000000000000e+02,2.840000000000000000e+02,1.360000000000000000e+02,1.530000000000000000e+02,7.400000000000000000e+01,9.700000000000000000e+01,1.610000000000000000e+02,1.150000000000000000e+02,5.999999999999999778e-01,3.508748500000000000e+09
1.390000000000000000e+02,2.120000000000000000e+02,1.550000000000000000e+02,1.660000000000000000e+02,7.500000000000000000e+01,7.800000000000000000e+01,1.540000000000000000e+02,9.400000000000000000e+01,6.099999999999999867e-01,3.526640800000000000e+09
1.550000000000000000e+02,2.040000000000000000e+02,1.440000000000000000e+02,1.390000000000000000e+02,6.400000000000000000e+01,6.000000000000000000e+01,1.570000000000000000e+02,9.300000000000000000e+01,6.099999999999999867e-01,3.543971400000000000e+09
1.350000000000000000e+02,1.960000000000000000e+02,1.530000000000000000e+02,1.530000000000000000e+02,6.300000000000000000e+01,5.300000000000000000e+01,1.620000000000000000e+02,8.800000000000000000e+01,6.099999999999999867e-01,3.561369500000000000e+09
1.390000000000000000e+02,1.950000000000000000e+02,1.520000000000000000e+02,1.640000000000000000e+02,6.000000000000000000e+01,4.400000000000000000e+01,1.150000000000000000e+02,8.000000000000000000e+01,6.099999999999999867e-01,3.578788200000000000e+09
1.280000000000000000e+02,1.800000000000000000e+02,1.630000000000000000e+02,1.550000000000000000e+02,5.900000000000000000e+01,4.300000000000000000e+01,1.070000000000000000e+02,7.500000000000000000e+01,6.099999999999999867e-01,3.595572300000000000e+09
1.330000000000000000e+02,1.830000000000000000e+02,1.400000000000000000e+02,1.390000000000000000e+02,5.500000000000000000e+01,4.500000000000000000e+01,1.210000000000000000e+02,7.300000000000000000e+01,6.199999999999999956e-01,3.615225000000000000e+09
1.040000000000000000e+02,1.880000000000000000e+02,1.360000000000000000e+02,1.380000000000000000e+02,6.000000000000000000e+01,4.500000000000000000e+01,1.150000000000000000e+02,5.900000000000000000e+01,6.199999999999999956e-01,3.632597700000000000e+09
1.200000000000000000e+02,2.520000000000000000e+02,1.500000000000000000e+02,1.210000000000000000e+02,6.100000000000000000e+01,4.600000000000000000e+01,9.700000000000000000e+01,6.600000000000000000e+01,6.199999999999999956e-01,3.649678300000000000e+09
1.280000000000000000e+02,2.540000000000000000e+02,1.450000000000000000e+02,1.120000000000000000e+02,7.700000000000000000e+01,5.600000000000000000e+01,9.200000000000000000e+01,6.900000000000000000e+01,6.099999999999999867e-01,3.666162900000000000e+09
1.480000000000000000e+02,2.850000000000000000e+02,1.510000000000000000e+02,1.310000000000000000e+02,1.010000000000000000e+02,6.300000000000000000e+01,1.060000000000000000e+02,8.500000000000000000e+01,6.099999999999999867e-01,3.684677300000000000e+09
1.390000000000000000e+02,2.760000000000000000e+02,1.770000000000000000e+02,1.400000000000000000e+02,1.050000000000000000e+02,7.100000000000000000e+01,1.110000000000000000e+02,9.100000000000000000e+01,6.099999999999999867e-01,3.703562400000000000e+09
1.380000000000000000e+02,2.770000000000000000e+02,1.790000000000000000e+02,1.350000000000000000e+02,1.060000000000000000e+02,7.700000000000000000e+01,1.300000000000000000e+02,1.030000000000000000e+02,5.999999999999999778e-01,3.720881300000000000e+09
1.170000000000000000e+02,2.350000000000000000e+02,1.600000000000000000e+02,1.340000000000000000e+02,1.300000000000000000e+02,9.100000000000000000e+01,1.520000000000000000e+02,1.230000000000000000e+02,5.999999999999999778e-01,3.738241500000000000e+09
1.050000000000000000e+02,2.260000000000000000e+02,1.820000000000000000e+02,1.460000000000000000e+02,1.280000000000000000e+02,9.000000000000000000e+01,1.600000000000000000e+02,1.510000000000000000e+02,5.899999999999999689e-01,3.755276200000000000e+09
7.700000000000000000e+01,1.700000000000000000e+02,1.850000000000000000e+02,1.550000000000000000e+02,1.120000000000000000e+02,8.600000000000000000e+01,1.470000000000000000e+02,1.870000000000000000e+02,5.899999999999999689e-01,3.772918100000000000e+09
7.600000000000000000e+01,1.640000000000000000e+02,1.700000000000000000e+02,1.490000000000000000e+02,1.220000000000000000e+02,8.100000000000000000e+01,1.510000000000000000e+02,2.310000000000000000e+02,5.799999999999999600e-01,3.791100000000000000e+09
8.800000000000000000e+01,2.060000000000000000e+02,2.250000000000000000e+02,1.610000000000000000e+02,1.250000000000000000e+02,7.900000000000000000e+01,1.420000000000000000e+02,2.310000000000000000e+02,5.699999999999999512e-01,3.808142900000000000e+09
9.800000000000000000e+01,1.970000000000000000e+02,2.370000000000000000e+02,1.700000000000000000e+02,1.150000000000000000e+02,7.100000000000000000e+01,1.540000000000000000e+02,2.240000000000000000e+02,5.699999999999999512e-01,3.825589700000000000e+09
9.100000000000000000e+01,1.970000000000000000e+02,2.240000000000000000e+02,1.530000000000000000e+02,1.190000000000000000e+02,7.300000000000000000e+01,1.600000000000000000e+02,2.090000000000000000e+02,5.600000000000000533e-01,3.843393500000000000e+09
9.300000000000000000e+01,2.000000000000000000e+02,2.130000000000000000e+02,1.270000000000000000e+02,1.220000000000000000e+02,7.600000000000000000e+01,1.640000000000000000e+02,1.770000000000000000e+02,5.500000000000000444e-01,3.860699300000000000e+09
1.090000000000000000e+02,2.510000000000000000e+02,2.270000000000000000e+02,1.360000000000000000e+02,1.120000000000000000e+02,7.300000000000000000e+01,1.460000000000000000e+02,1.140000000000000000e+02,5.500000000000000444e-01,3.878479700000000000e+09
1.070000000000000000e+02,2.290000000000000000e+02,1.860000000000000000e+02,1.440000000000000000e+02,1.150000000000000000e+02,8.000000000000000000e+01,1.450000000000000000e+02,1.280000000000000000e+02,5.400000000000000355e-01,3.896478300000000000e+09
1.170000000000000000e+02,2.330000000000000000e+02,1.750000000000000000e+02,1.340000000000000000e+02,1.040000000000000000e+02,8.100000000000000000e+01,1.050000000000000000e+02,1.320000000000000000e+02,5.400000000000000355e-01,3.914464900000000000e+09
1.220000000000000000e+02,2.390000000000000000e+02,1.960000000000000000e+02,1.480000000000000000e+02,1.000000000000000000e+02,8.800000000000000000e+01,9.100000000000000000e+01,1.740000000000000000e+02,5.400000000000000355e-01,3.931846600000000000e+09
1.190000000000000000e+02,2.400000000000000000e+02,2.130000000000000000e+02,1.530000000000000000e+02,1.010000000000000000e+02,9.500000000000000000e+01,9.000000000000000000e+01,2.230000000000000000e+02,5.300000000000000266e-01,3.949874600000000000e+09
1.040000000000000000e+02,1.960000000000000000e+02,2.030000000000000000e+02,1.610000000000000000e+02,1.050000000000000000e+02,1.010000000000000000e+02,1.340000000000000000e+02,2.270000000000000000e+02,5.300000000000000266e-01,3.967831500000000000e+09
1.020000000000000000e+02,1.860000000000000000e+02,1.930000000000000000e+02,1.540000000000000000e+02,9.500000000000000000e+01,9.300000000000000000e+01,1.340000000000000000e+02,2.200000000000000000e+02,5.300000000000000266e-01,3.985642800000000000e+09
8.300000000000000000e+01,1.730000000000000000e+02,1.880000000000000000e+02,1.480000000000000000e+02,1.010000000000000000e+02,9.000000000000000000e+01,1.350000000000000000e+02,2.470000000000000000e+02,5.200000000000000178e-01,4.003721100000000000e+09
1.240000000000000000e+02,1.680000000000000000e+02,1.680000000000000000e+02,1.440000000000000000e+02,9.600000000000000000e+01,8.500000000000000000e+01,1.780000000000000000e+02,2.380000000000000000e+02,5.200000000000000178e-01,4.022626300000000000e+09
1.270000000000000000e+02,1.700000000000000000e+02,1.660000000000000000e+02,1.470000000000000000e+02,9.400000000000000000e+01,7.300000000000000000e+01,1.790000000000000000e+02,2.060000000000000000e+02,5.200000000000000178e-01,4.040844300000000000e+09
1.390000000000000000e+02,2.080000000000000000e+02,1.670000000000000000e+02,1.350000000000000000e+02,9.700000000000000000e+01,7.000000000000000000e+01,1.490000000000000000e+02,2.160000000000000000e+02,5.200000000000000178e-01,4.059103700000000000e+09
1.390000000000000000e+02,1.970000000000000000e+02,1.810000000000000000e+02,1.250000000000000000e+02,1.190000000000000000e+02,8.200000000000000000e+01,1.540000000000000000e+02,2.280000000000000000e+02,5.200000000000000178e-01,4.077064000000000000e+09
1.420000000000000000e+02,1.940000000000000000e+02,1.800000000000000000e+02,1.300000000000000000e+02,1.230000000000000000e+02,9.800000000000000000e+01,1.540000000000000000e+02,2.350000000000000000e+02,5.100000000000000089e-01,4.095044100000000000e+09
1.010000000000000000e+02,1.920000000000000000e+02,1.770000000000000000e+02,1.570000000000000000e+02,1.250000000000000000e+02,9.200000000000000000e+01,9.600000000000000000e+01,2.200000000000000000e+02,5.100000000000000089e-01,4.113455400000000000e+09
1.000000000000000000e+02,2.100000000000000000e+02,1.640000000000000000e+02,1.560000000000000000e+02,1.340000000000000000e+02,9.800000000000000000e+01,1.080000000000000000e+02,2.220000000000000000e+02,5.100000000000000089e-01,4.133370400000000000e+09
8.200000000000000000e+01,2.140000000000000000e+02,1.560000000000000000e+02,1.490000000000000000e+02,1.360000000000000000e+02,1.030000000000000000e+02,1.130000000000000000e+02,2.220000000000000000e+02,5.100000000000000089e-01,4.156675200000000000e+09
9.900000000000000000e+01,2.480000000000000000e+02,1.510000000000000000e+02,1.510000000000000000e+02,1.230000000000000000e+02,9.200000000000000000e+01,1.000000000000000000e+02,2.110000000000000000e+02,5.000000000000000000e-01,4.174719300000000000e+09
9.400000000000000000e+01,2.520000000000000000e+02,1.500000000000000000e+02,1.480000000000000000e+02,1.330000000000000000e+02,8.000000000000000000e+01,1.000000000000000000e+02,1.780000000000000000e+02,5.000000000000000000e-01,4.193423000000000000e+09
1.040000000000000000e+02,2.620000000000000000e+02,1.520000000000000000e+02,1.160000000000000000e+02,1.320000000000000000e+02,7.900000000000000000e+01,9.400000000000000000e+01,1.840000000000000000e+02,5.000000000000000000e-01,4.212168300000000000e+09
1.140000000000000000e+02,2.510000000000000000e+02,1.630000000000000000e+02,1.110000000000000000e+02,1.270000000000000000e+02,7.200000000000000000e+01,7.200000000000000000e+01,1.620000000000000000e+02,5.000000000000000000e-01,4.230539600000000000e+09
1.170000000000000000e+02,2.100000000000000000e+02,1.540000000000000000e+02,1.090000000000000000e+02,1.180000000000000000e+02,6.300000000000000000e+01,6.000000000000000000e+01,1.500000000000000000e+02,5.000000000000000000e-01,4.248957800000000000e+09
1.220000000000000000e+02,1.740000000000000000e+02,1.470000000000000000e+02,1.120000000000000000e+02,1.130000000000000000e+02,6.700000000000000000e+01,6.100000000000000000e+01,1.510000000000000000e+02,4.899999999999999911e-01,4.268591300000000000e+09
1.320000000000000000e+02,1.640000000000000000e+02,1.540000000000000000e+02,1.190000000000000000e+02,8.100000000000000000e+01,5.300000000000000000e+01,5.900000000000000000e+01,1.720000000000000000e+02,4.899999999999999911e-01,4.286833100000000000e+09
1.290000000000000000e+02,1.320000000000000000e+02,1.510000000000000000e+02,1.210000000000000000e+02,8.300000000000000000e+01,5.500000000000000000e+01,7.300000000000000000e+01,1.790000000000000000e+02,4.899999999999999911e-01,4.306253500000000000e+09
1.180000000000000000e+02,1.510000000000000000e+02,1.260000000000000000e+02,1.200000000000000000e+02,6.800000000000000000e+01,5.200000000000000000e+01,7.200000000000000000e+01,1.820000000000000000e+02,5.000000000000000000e-01,4.324643400000000000e+09
1.130000000000000000e+02,1.480000000000000000e+02,1.490000000000000000e+02,1.210000000000000000e+02,6.800000000000000000e+01,4.900000000000000000e+01,7.200000000000000000e+01,1.780000000000000000e+02,5.000000000000000000e-01,4.343023100000000000e+09
8.600000000000000000e+01,1.390000000000000000e+02,1.400000000000000000e+02,1.160000000000000000e+02,6.500000000000000000e+01,4.600000000000000000e+01,9.100000000000000000e+01,2.030000000000000000e+02,5.000000000000000000e-01,4.362331000000000000e+09
9.300000000000000000e+01,1.550000000000000000e+02,1.490000000000000000e+02,1.270000000000000000e+02,1.140000000000000000e+02,4.900000000000000000e+01,1.210000000000000000e+02,1.830000000000000000e+02,4.899999999999999911e-01,4.381344400000000000e+09
8.900000000000000000e+01,1.760000000000000000e+02,1.490000000000000000e+02,1.270000000000000000e+02,1.210000000000000000e+02,5.100000000000000000e+01,1.180000000000000000e+02,1.670000000000000000e+02,4.899999999999999911e-01,4.400338200000000000e+09
9.000000000000000000e+01,1.850000000000000000e+02,1.440000000000000000e+02,1.190000000000000000e+02,1.220000000000000000e+02,5.200000000000000000e+01,1.210000000000000000e+02,1.620000000000000000e+02,4.899999999999999911e-01,4.418143900000000000e+09
9.800000000000000000e+01,2.330000000000000000e+02,1.490000000000000000e+02,1.190000000000000000e+02,1.220000000000000000e+02,5.200000000000000000e+01,1.200000000000000000e+02,1.640000000000000000e+02,4.899999999999999911e-01,4.436963500000000000e+09
9.700000000000000000e+01,2.370000000000000000e+02,1.480000000000000000e+02,1.100000000000000000e+02,1.240000000000000000e+02,5.100000000000000000e+01,1.040000000000000000e+02,1.190000000000000000e+02,4.899999999999999911e-01,4.455339700000000000e+09
7.700000000000000000e+01,2.260000000000000000e+02,1.290000000000000000e+02,8.600000000000000000e+01,9.300000000000000000e+01,5.500000000000000000e+01,6.100000000000000000e+01,1.010000000000000000e+02,4.899999999999999911e-01,4.474804500000000000e+09
7.500000000000000000e+01,2.120000000000000000e+02,1.220000000000000000e+02,7.000000000000000000e+01,8.200000000000000000e+01,5.500000000000000000e+01,4.700000000000000000e+01,9.500000000000000000e+01,4.899999999999999911e-01,4.493859600000000000e+09
7.700000000000000000e+01,1.760000000000000000e+02,1.240000000000000000e+02,6.600000000000000000e+01,7.800000000000000000e+01,5.500000000000000000e+01,4.100000000000000000e+01,1.260000000000000000e+02,4.899999999999999911e-01,4.515238500000000000e+09
7.400000000000000000e+01,1.090000000000000000e+02,8.200000000000000000e+01,5.900000000000000000e+01,7.400000000000000000e+01,5.500000000000000000e+01,4.200000000000000000e+01,1.270000000000000000e+02,4.899999999999999911e-01,4.533516000000000000e+09
7.600000000000000000e+01,1.090000000000000000e+02,8.400000000000000000e+01,5.500000000000000000e+01,6.800000000000000000e+01,5.100000000000000000e+01,4.700000000000000000e+01,1.410000000000000000e+02,4.899999999999999911e-01,4.551974800000000000e+09
6.900000000000000000e+01,1.020000000000000000e+02,9.500000000000000000e+01,7.000000000000000000e+01,5.000000000000000000e+01,4.200000000000000000e+01,4.700000000000000000e+01,1.400000000000000000e+02,4.799999999999999822e-01,4.572474100000000000e+09
6.700000000000000000e+01,9.600000000000000000e+01,1.080000000000000000e+02,8.400000000000000000e+01,3.900000000000000000e+01,3.400000000000000000e+01,4.700000000000000000e+01,1.450000000000000000e+02,4.899999999999999911e-01,4.590715000000000000e+09
6.700000000000000000e+01,1.100000000000000000e+02,1.310000000000000000e+02,1.010000000000000000e+02,4.200000000000000000e+01,3.100000000000000000e+01,4.600000000000000000e+01,1.270000000000000000e+02,4.899999999999999911e-01,4.612877700000000000e+09
5.700000000000000000e+01,1.080000000000000000e+02,1.610000000000000000e+02,1.100000000000000000e+02,4.200000000000000000e+01,3.400000000000000000e+01,4.400000000000000000e+01,1.230000000000000000e+02,4.899999999999999911e-01,4.632793700000000000e+09
6.000000000000000000e+01,1.380000000000000000e+02,1.690000000000000000e+02,1.210000000000000000e+02,4.200000000000000000e+01,3.400000000000000000e+01,4.000000000000000000e+01,1.170000000000000000e+02,5.000000000000000000e-01,4.652222200000000000e+09
5.900000000000000000e+01,1.510000000000000000e+02,1.780000000000000000e+02,1.130000000000000000e+02,4.100000000000000000e+01,3.500000000000000000e+01,4.000000000000000000e+01,1.190000000000000000e+02,5.000000000000000000e-01,4.671722500000000000e+09
6.700000000000000000e+01,1.650000000000000000e+02,1.920000000000000000e+02,1.070000000000000000e+02,4.300000000000000000e+01,3.600000000000000000e+01,4.400000000000000000e+01,1.180000000000000000e+02,5.000000000000000000e-01,4.694408800000000000e+09
6.900000000000000000e+01,1.600000000000000000e+02,1.890000000000000000e+02,1.050000000000000000e+02,4.000000000000000000e+01,3.600000000000000000e+01,4.100000000000000000e+01,1.170000000000000000e+02,5.100000000000000089e-01,4.713701300000000000e+09
6.900000000000000000e+01,1.550000000000000000e+02,1.670000000000000000e+02,9.900000000000000000e+01,4.300000000000000000e+01,3.400000000000000000e+01,4.000000000000000000e+01,1.200000000000000000e+02,5.100000000000000089e-01,4.732507800000000000e+09
6.300000000000000000e+01,1.190000000000000000e+02,1.590000000000000000e+02,9.700000000000000000e+01,4.900000000000000000e+01,3.600000000000000000e+01,4.000000000000000000e+01,1.300000000000000000e+02,5.200000000000000178e-01,4.750460500000000000e+09
6.900000000000000000e+01,1.110000000000000000e+02,1.450000000000000000e+02,9.400000000000000000e+01,4.800000000000000000e+01,3.600000000000000000e+01,5.800000000000000000e+01,1.460000000000000000e+02,5.200000000000000178e-01,4.769951000000000000e+09
6.700000000000000000e+01,1.030000000000000000e+02,1.390000000000000000e+02,1.000000000000000000e+02,6.000000000000000000e+01,3.900000000000000000e+01,5.800000000000000000e+01,1.860000000000000000e+02,5.200000000000000178e-01,4.790383000000000000e+09
6.400000000000000000e+01,1.130000000000000000e+02,1.350000000000000000e+02,9.400000000000000000e+01,7.700000000000000000e+01,4.400000000000000000e+01,6.300000000000000000e+01,2.110000000000000000e+02,5.300000000000000266e-01,4.812725900000000000e+09
6.800000000000000000e+01,1.160000000000000000e+02,1.440000000000000000e+02,1.040000000000000000e+02,9.600000000000000000e+01,6.700000000000000000e+01,7.700000000000000000e+01,2.360000000000000000e+02,5.200000000000000178e-01,4.831194000000000000e+09
6.800000000000000000e+01,1.190000000000000000e+02,1.490000000000000000e+02,1.040000000000000000e+02,1.010000000000000000e+02,7.400000000000000000e+01,9.100000000000000000e+01,2.530000000000000000e+02,5.200000000000000178e-01,4.858251100000000000e+09
7.100000000000000000e+01,1.140000000000000000e+02,1.470000000000000000e+02,1.090000000000000000e+02,1.060000000000000000e+02,7.300000000000000000e+01,8.900000000000000000e+01,2.800000000000000000e+02,5.100000000000000089e-01,4.877870700000000000e+09
6.700000000000000000e+01,1.190000000000000000e+02,1.260000000000000000e+02,1.070000000000000000e+02,1.060000000000000000e+02,8.600000000000000000e+01,1.100000000000000000e+02,2.670000000000000000e+02,5.100000000000000089e-01,4.896245300000000000e+09
7.400000000000000000e+01,1.190000000000000000e+02,1.150000000000000000e+02,1.050000000000000000e+02,1.030000000000000000e+02,9.100000000000000000e+01,1.260000000000000000e+02,2.990000000000000000e+02,5.000000000000000000e-01,4.914471000000000000e+09
6.900000000000000000e+01,1.170000000000000000e+02,9.900000000000000000e+01,9.400000000000000000e+01,8.800000000000000000e+01,9.000000000000000000e+01,1.250000000000000000e+02,3.180000000000000000e+02,4.899999999999999911e-01,4.932831200000000000e+09
7.200000000000000000e+01,1.290000000000000000e+02,9.000000000000000000e+01,9.400000000000000000e+01,8.000000000000000000e+01,1.090000000000000000e+02,1.180000000000000000e+02,3.060000000000000000e+02,4.799999999999999822e-01,4.953210200000000000e+09
8.700000000000000000e+01,1.340000000000000000e+02,1.140000000000000000e+02,1.140000000000000000e+02,7.500000000000000000e+01,1.380000000000000000e+02,1.260000000000000000e+02,2.860000000000000000e+02,4.799999999999999822e-01,4.973135800000000000e+09
9.500000000000000000e+01,1.290000000000000000e+02,1.150000000000000000e+02,1.100000000000000000e+02,6.500000000000000000e+01,1.380000000000000000e+02,1.280000000000000000e+02,2.930000000000000000e+02,4.699999999999999734e-01,4.991839800000000000e+09
9.200000000000000000e+01,1.230000000000000000e+02,1.110000000000000000e+02,1.070000000000000000e+02,5.000000000000000000e+01,1.450000000000000000e+02,1.360000000000000000e+02,2.510000000000000000e+02,4.699999999999999734e-01,5.012739900000000000e+09
9.200000000000000000e+01,1.250000000000000000e+02,1.080000000000000000e+02,1.080000000000000000e+02,4.700000000000000000e+01,1.370000000000000000e+02,1.350000000000000000e+02,2.070000000000000000e+02,4.600000000000000200e-01,5.031285700000000000e+09
9.100000000000000000e+01,1.110000000000000000e+02,1.050000000000000000e+02,9.900000000000000000e+01,5.100000000000000000e+01,1.250000000000000000e+02,1.540000000000000000e+02,2.120000000000000000e+02,4.600000000000000200e-01,5.050787800000000000e+09
9.200000000000000000e+01,1.390000000000000000e+02,8.300000000000000000e+01,6.700000000000000000e+01,5.600000000000000000e+01,9.700000000000000000e+01,1.630000000000000000e+02,1.910000000000000000e+02,4.600000000000000200e-01,5.070296000000000000e+09
8.700000000000000000e+01,1.360000000000000000e+02,8.000000000000000000e+01,6.000000000000000000e+01,6.500000000000000000e+01,9.400000000000000000e+01,1.670000000000000000e+02,2.000000000000000000e+02,4.600000000000000200e-01,5.090304500000000000e+09
8.500000000000000000e+01,1.380000000000000000e+02,8.000000000000000000e+01,5.600000000000000000e+01,7.300000000000000000e+01,8.300000000000000000e+01,1.560000000000000000e+02,1.980000000000000000e+02,4.600000000000000200e-01,5.112766500000000000e+09
8.800000000000000000e+01,1.430000000000000000e+02,8.700000000000000000e+01,6.100000000000000000e+01,8.300000000000000000e+01,8.500000000000000000e+01,1.550000000000000000e+02,2.100000000000000000e+02,4.600000000000000200e-01,5.132412000000000000e+09
8.800000000000000000e+01,1.440000000000000000e+02,1.150000000000000000e+02,1.000000000000000000e+02,8.400000000000000000e+01,7.800000000000000000e+01,1.380000000000000000e+02,2.180000000000000000e+02,4.600000000000000200e-01,5.152007300000000000e+09
6.400000000000000000e+01,1.130000000000000000e+02,1.160000000000000000e+02,1.070000000000000000e+02,8.900000000000000000e+01,7.500000000000000000e+01,1.250000000000000000e+02,2.380000000000000000e+02,4.600000000000000200e-01,5.170305700000000000e+09
6.700000000000000000e+01,1.190000000000000000e+02,1.420000000000000000e+02,1.130000000000000000e+02,1.120000000000000000e+02,7.800000000000000000e+01,1.010000000000000000e+02,2.040000000000000000e+02,4.600000000000000200e-01,5.190740900000000000e+09
6.500000000000000000e+01,1.120000000000000000e+02,1.500000000000000000e+02,1.230000000000000000e+02,1.230000000000000000e+02,7.700000000000000000e+01,9.600000000000000000e+01,1.900000000000000000e+02,4.600000000000000200e-01,5.212705300000000000e+09
6.200000000000000000e+01,1.100000000000000000e+02,1.480000000000000000e+02,1.210000000000000000e+02,1.380000000000000000e+02,8.100000000000000000e+01,1.310000000000000000e+02,1.700000000000000000e+02,4.600000000000000200e-01,5.231593300000000000e+09
6.900000000000000000e+01,1.140000000000000000e+02,1.290000000000000000e+02,9.700000000000000000e+01,1.580000000000000000e+02,9.200000000000000000e+01,1.360000000000000000e+02,1.930000000000000000e+02,4.500000000000000111e-01,5.252112800000000000e+09
7.000000000000000000e+01,1.140000000000000000e+02,1.260000000000000000e+02,9.400000000000000000e+01,1.560000000000000000e+02,9.300000000000000000e+01,1.350000000000000000e+02,1.770000000000000000e+02,4.500000000000000111e-01,5.273577700000000000e+09
7.100000000000000000e+01,1.070000000000000000e+02,1.020000000000000000e+02,9.400000000000000000e+01,1.470000000000000000e+02,9.800000000000000000e+01,1.600000000000000000e+02,1.850000000000000000e+02,4.500000000000000111e-01,5.293340900000000000e+09
8.000000000000000000e+01,1.080000000000000000e+02,9.900000000000000000e+01,9.400000000000000000e+01,1.550000000000000000e+02,1.060000000000000000e+02,1.740000000000000000e+02,2.350000000000000000e+02,4.400000000000000022e-01,5.314577800000000000e+09
8.900000000000000000e+01,1.290000000000000000e+02,1.230000000000000000e+02,1.040000000000000000e+02,1.570000000000000000e+02,1.150000000000000000e+02,1.500000000000000000e+02,2.340000000000000000e+02,4.400000000000000022e-01,5.334176600000000000e+09
8.100000000000000000e+01,1.260000000000000000e+02,1.220000000000000000e+02,1.050000000000000000e+02,1.450000000000000000e+02,1.110000000000000000e+02,1.520000000000000000e+02,1.940000000000000000e+02,4.400000000000000022e-01,5.355778500000000000e+09
1.070000000000000000e+02,1.410000000000000000e+02,1.240000000000000000e+02,1.020000000000000000e+02,1.810000000000000000e+02,1.240000000000000000e+02,1.610000000000000000e+02,2.880000000000000000e+02,4.299999999999999933e-01,5.374663900000000000e+09
1.070000000000000000e+02,1.360000000000000000e+02,1.200000000000000000e+02,9.500000000000000000e+01,1.770000000000000000e+02,1.170000000000000000e+02,1.350000000000000000e+02,2.870000000000000000e+02,4.299999999999999933e-01,5.392763800000000000e+09
9.900000000000000000e+01,1.330000000000000000e+02,1.250000000000000000e+02,8.700000000000000000e+01,1.620000000000000000e+02,1.280000000000000000e+02,1.290000000000000000e+02,2.480000000000000000e+02,4.199999999999999845e-01,5.411603400000000000e+09
9.100000000000000000e+01,1.030000000000000000e+02,1.150000000000000000e+02,7.000000000000000000e+01,1.440000000000000000e+02,1.730000000000000000e+02,1.240000000000000000e+02,2.460000000000000000e+02,4.199999999999999845e-01,5.430846400000000000e+09
9.000000000000000000e+01,1.030000000000000000e+02,1.120000000000000000e+02,6.000000000000000000e+01,1.360000000000000000e+02,1.790000000000000000e+02,1.210000000000000000e+02,2.400000000000000000e+02,4.099999999999999756e-01,5.450311100000000000e+09
8.800000000000000000e+01,7.900000000000000000e+01,1.430000000000000000e+02,8.700000000000000000e+01,8.700000000000000000e+01,1.720000000000000000e+02,1.050000000000000000e+02,9.400000000000000000e+01,4.099999999999999756e-01,5.469589600000000000e+09
8.800000000000000000e+01,8.000000000000000000e+01,1.440000000000000000e+02,8.900000000000000000e+01,8.200000000000000000e+01,1.720000000000000000e+02,1.150000000000000000e+02,9.200000000000000000e+01,4.099999999999999756e-01,5.490120000000000000e+09
1.040000000000000000e+02,8.600000000000000000e+01,1.340000000000000000e+02,9.800000000000000000e+01,1.040000000000000000e+02,1.630000000000000000e+02,1.020000000000000000e+02,1.190000000000000000e+02,4.099999999999999756e-01,5.512427100000000000e+09
1.100000000000000000e+02,1.030000000000000000e+02,1.240000000000000000e+02,1.030000000000000000e+02,1.080000000000000000e+02,1.090000000000000000e+02,1.050000000000000000e+02,1.340000000000000000e+02,4.099999999999999756e-01,5.531303600000000000e+09
1.130000000000000000e+02,1.030000000000000000e+02,1.290000000000000000e+02,1.100000000000000000e+02,1.180000000000000000e+02,1.000000000000000000e+02,9.400000000000000000e+01,1.360000000000000000e+02,4.199999999999999845e-01,5.551092100000000000e+09
9.400000000000000000e+01,1.050000000000000000e+02,9.600000000000000000e+01,9.800000000000000000e+01,1.350000000000000000e+02,1.110000000000000000e+02,1.030000000000000000e+02,1.590000000000000000e+02,4.199999999999999845e-01,5.570649500000000000e+09
9.900000000000000000e+01,1.110000000000000000e+02,1.030000000000000000e+02,9.800000000000000000e+01,1.610000000000000000e+02,1.190000000000000000e+02,1.060000000000000000e+02,1.750000000000000000e+02,4.099999999999999756e-01,5.590141900000000000e+09
8.600000000000000000e+01,1.080000000000000000e+02,1.020000000000000000e+02,8.700000000000000000e+01,1.500000000000000000e+02,1.130000000000000000e+02,1.100000000000000000e+02,1.860000000000000000e+02,4.199999999999999845e-01,5.612433000000000000e+09
7.600000000000000000e+01,9.600000000000000000e+01,1.020000000000000000e+02,8.200000000000000000e+01,1.470000000000000000e+02,1.090000000000000000e+02,1.150000000000000000e+02,1.880000000000000000e+02,4.199999999999999845e-01,5.630821200000000000e+09
8.700000000000000000e+01,1.100000000000000000e+02,1.190000000000000000e+02,9.500000000000000000e+01,1.910000000000000000e+02,1.390000000000000000e+02,1.290000000000000000e+02,1.990000000000000000e+02,4.199999999999999845e-01,5.649858300000000000e+09
8.700000000000000000e+01,1.180000000000000000e+02,1.280000000000000000e+02,9.000000000000000000e+01,1.800000000000000000e+02,1.290000000000000000e+02,1.270000000000000000e+02,1.940000000000000000e+02,4.199999999999999845e-01,5.668978500000000000e+09
7.700000000000000000e+01,1.100000000000000000e+02,1.200000000000000000e+02,9.100000000000000000e+01,1.590000000000000000e+02,1.190000000000000000e+02,1.220000000000000000e+02,2.000000000000000000e+02,4.199999999999999845e-01,5.690208000000000000e+09
7.800000000000000000e+01,1.060000000000000000e+02,1.300000000000000000e+02,1.060000000000000000e+02,1.680000000000000000e+02,1.210000000000000000e+02,1.160000000000000000e+02,1.820000000000000000e+02,4.199999999999999845e-01,5.712503100000000000e+09
8.700000000000000000e+01,1.090000000000000000e+02,1.380000000000000000e+02,1.220000000000000000e+02,1.880000000000000000e+02,1.290000000000000000e+02,1.110000000000000000e+02,1.840000000000000000e+02,4.099999999999999756e-01,5.731561600000000000e+09
8.700000000000000000e+01,1.150000000000000000e+02,1.370000000000000000e+02,1.290000000000000000e+02,1.600000000000000000e+02,9.600000000000000000e+01,1.090000000000000000e+02,1.750000000000000000e+02,4.099999999999999756e-01,5.750256100000000000e+09
9.600000000000000000e+01,1.210000000000000000e+02,1.420000000000000000e+02,1.390000000000000000e+02,1.860000000000000000e+02,1.090000000000000000e+02,1.150000000000000000e+02,1.710000000000000000e+02,4.099999999999999756e-01,5.769775800000000000e+09
9.500000000000000000e+01,1.220000000000000000e+02,1.410000000000000000e+02,1.440000000000000000e+02,1.970000000000000000e+02,1.140000000000000000e+02,1.090000000000000000e+02,1.550000000000000000e+02,4.099999999999999756e-01,5.790064700000000000e+09
1.000000000000000000e+02,1.280000000000000000e+02,1.590000000000000000e+02,1.530000000000000000e+02,2.270000000000000000e+02,1.490000000000000000e+02,1.380000000000000000e+02,1.730000000000000000e+02,4.000000000000000222e-01,5.812411500000000000e+09
9.700000000000000000e+01,1.270000000000000000e+02,1.560000000000000000e+02,1.540000000000000000e+02,2.150000000000000000e+02,1.470000000000000000e+02,1.490000000000000000e+02,1.760000000000000000e+02,4.000000000000000222e-01,5.832695200000000000e+09
8.600000000000000000e+01,1.070000000000000000e+02,1.420000000000000000e+02,1.420000000000000000e+02,1.960000000000000000e+02,1.440000000000000000e+02,1.680000000000000000e+02,1.880000000000000000e+02,4.000000000000000222e-01,5.851864300000000000e+09
7.400000000000000000e+01,9.100000000000000000e+01,1.690000000000000000e+02,1.640000000000000000e+02,1.870000000000000000e+02,1.350000000000000000e+02,1.760000000000000000e+02,2.340000000000000000e+02,4.000000000000000222e-01,5.871374600000000000e+09
7.800000000000000000e+01,1.080000000000000000e+02,1.810000000000000000e+02,1.720000000000000000e+02,1.820000000000000000e+02,1.340000000000000000e+02,2.020000000000000000e+02,2.550000000000000000e+02,4.000000000000000222e-01,5.890915700000000000e+09
6.500000000000000000e+01,1.030000000000000000e+02,1.640000000000000000e+02,1.650000000000000000e+02,1.380000000000000000e+02,9.100000000000000000e+01,1.830000000000000000e+02,2.490000000000000000e+02,4.099999999999999756e-01,5.913208700000000000e+09
6.600000000000000000e+01,1.170000000000000000e+02,1.590000000000000000e+02,1.610000000000000000e+02,1.360000000000000000e+02,8.900000000000000000e+01,1.890000000000000000e+02,2.400000000000000000e+02,4.099999999999999756e-01,5.931797200000000000e+09
6.600000000000000000e+01,1.150000000000000000e+02,1.660000000000000000e+02,1.650000000000000000e+02,1.390000000000000000e+02,8.400000000000000000e+01,1.680000000000000000e+02,2.370000000000000000e+02,4.099999999999999756e-01,5.951589600000000000e+09
7.600000000000000000e+01,1.280000000000000000e+02,1.610000000000000000e+02,1.700000000000000000e+02,1.140000000000000000e+02,8.200000000000000000e+01,1.700000000000000000e+02,2.990000000000000000e+02,4.099999999999999756e-01,5.970309700000000000e+09
9.400000000000000000e+01,1.410000000000000000e+02,1.920000000000000000e+02,1.880000000000000000e+02,1.190000000000000000e+02,9.300000000000000000e+01,1.670000000000000000e+02,3.260000000000000000e+02,4.099999999999999756e-01,5.990699200000000000e+09
1.040000000000000000e+02,1.420000000000000000e+02,2.090000000000000000e+02,1.900000000000000000e+02,1.240000000000000000e+02,1.040000000000000000e+02,1.760000000000000000e+02,3.980000000000000000e+02,4.099999999999999756e-01,6.012919200000000000e+09
1.270000000000000000e+02,1.320000000000000000e+02,3.000000000000000000e+02,2.500000000000000000e+02,1.280000000000000000e+02,1.050000000000000000e+02,1.710000000000000000e+02,4.890000000000000000e+02,4.099999999999999756e-01,6.031531500000000000e+09
1.430000000000000000e+02,1.380000000000000000e+02,3.170000000000000000e+02,2.550000000000000000e+02,1.270000000000000000e+02,1.060000000000000000e+02,1.920000000000000000e+02,5.360000000000000000e+02,4.099999999999999756e-01,6.053521600000000000e+09
1.530000000000000000e+02,1.600000000000000000e+02,3.460000000000000000e+02,2.450000000000000000e+02,1.390000000000000000e+02,1.100000000000000000e+02,1.930000000000000000e+02,5.000000000000000000e+02,4.000000000000000222e-01,6.074446500000000000e+09
1.400000000000000000e+02,1.430000000000000000e+02,3.800000000000000000e+02,2.250000000000000000e+02,1.460000000000000000e+02,1.040000000000000000e+02,1.840000000000000000e+02,4.880000000000000000e+02,4.000000000000000222e-01,6.093971200000000000e+09
1.440000000000000000e+02,1.470000000000000000e+02,3.910000000000000000e+02,2.490000000000000000e+02,1.370000000000000000e+02,9.100000000000000000e+01,1.810000000000000000e+02,4.380000000000000000e+02,3.900000000000000133e-01,6.113557100000000000e+09
1.210000000000000000e+02,1.510000000000000000e+02,4.080000000000000000e+02,2.180000000000000000e+02,1.250000000000000000e+02,8.200000000000000000e+01,1.890000000000000000e+02,3.460000000000000000e+02,3.900000000000000133e-01,6.133083100000000000e+09
1.100000000000000000e+02,1.810000000000000000e+02,4.510000000000000000e+02,2.410000000000000000e+02,1.220000000000000000e+02,8.100000000000000000e+01,1.860000000000000000e+02,3.170000000000000000e+02,3.900000000000000133e-01,6.153753000000000000e+09
1.210000000000000000e+02,1.830000000000000000e+02,4.310000000000000000e+02,2.420000000000000000e+02,1.120000000000000000e+02,7.800000000000000000e+01,1.770000000000000000e+02,3.610000000000000000e+02,3.900000000000000133e-01,6.172912400000000000e+09
1.360000000000000000e+02,1.890000000000000000e+02,4.020000000000000000e+02,2.630000000000000000e+02,1.060000000000000000e+02,8.800000000000000000e+01,1.890000000000000000e+02,3.540000000000000000e+02,3.900000000000000133e-01,6.192487200000000000e+09
1.330000000000000000e+02,1.930000000000000000e+02,4.060000000000000000e+02,2.600000000000000000e+02,1.480000000000000000e+02,9.900000000000000000e+01,2.010000000000000000e+02,3.440000000000000000e+02,3.900000000000000133e-01,6.212275100000000000e+09
1.370000000000000000e+02,1.940000000000000000e+02,3.330000000000000000e+02,2.380000000000000000e+02,1.650000000000000000e+02,1.110000000000000000e+02,2.020000000000000000e+02,3.360000000000000000e+02,3.800000000000000044e-01,6.231306000000000000e+09
1.460000000000000000e+02,1.700000000000000000e+02,2.650000000000000000e+02,2.170000000000000000e+02,1.660000000000000000e+02,1.220000000000000000e+02,2.140000000000000000e+02,3.210000000000000000e+02,3.800000000000000044e-01,6.251908300000000000e+09
1.270000000000000000e+02,1.400000000000000000e+02,2.600000000000000000e+02,2.360000000000000000e+02,1.710000000000000000e+02,1.250000000000000000e+02,2.240000000000000000e+02,2.540000000000000000e+02,3.800000000000000044e-01,6.271624000000000000e+09
1.160000000000000000e+02,1.350000000000000000e+02,2.330000000000000000e+02,2.170000000000000000e+02,1.660000000000000000e+02,1.130000000000000000e+02,2.130000000000000000e+02,2.400000000000000000e+02,3.900000000000000133e-01,6.290256900000000000e+09
1.120000000000000000e+02,1.350000000000000000e+02,1.940000000000000000e+02,1.890000000000000000e+02,1.350000000000000000e+02,1.080000000000000000e+02,1.990000000000000000e+02,2.950000000000000000e+02,3.900000000000000133e-01,6.312424800000000000e+09
1.110000000000000000e+02,1.270000000000000000e+02,1.780000000000000000e+02,1.910000000000000000e+02,1.380000000000000000e+02,9.900000000000000000e+01,2.040000000000000000e+02,3.060000000000000000e+02,4.000000000000000222e-01,6.331013800000000000e+09
1.050000000000000000e+02,1.210000000000000000e+02,1.770000000000000000e+02,1.990000000000000000e+02,1.440000000000000000e+02,8.600000000000000000e+01,2.160000000000000000e+02,2.900000000000000000e+02,4.000000000000000222e-01,6.351623100000000000e+09
1.070000000000000000e+02,1.160000000000000000e+02,1.690000000000000000e+02,1.690000000000000000e+02,1.360000000000000000e+02,9.000000000000000000e+01,2.390000000000000000e+02,2.880000000000000000e+02,4.099999999999999756e-01,6.370410400000000000e+09
1.070000000000000000e+02,1.250000000000000000e+02,1.770000000000000000e+02,1.850000000000000000e+02,1.300000000000000000e+02,9.300000000000000000e+01,2.810000000000000000e+02,3.150000000000000000e+02,4.099999999999999756e-01,6.390032700000000000e+09
1.170000000000000000e+02,1.170000000000000000e+02,1.850000000000000000e+02,1.950000000000000000e+02,1.400000000000000000e+02,8.800000000000000000e+01,2.870000000000000000e+02,2.830000000000000000e+02,4.099999999999999756e-01,6.410733700000000000e+09
1.230000000000000000e+02,1.160000000000000000e+02,1.890000000000000000e+02,2.060000000000000000e+02,1.270000000000000000e+02,8.600000000000000000e+01,2.800000000000000000e+02,3.140000000000000000e+02,4.099999999999999756e-01,6.431350100000000000e+09
1.120000000000000000e+02,1.380000000000000000e+02,1.840000000000000000e+02,2.260000000000000000e+02,1.320000000000000000e+02,1.010000000000000000e+02,2.760000000000000000e+02,3.500000000000000000e+02,4.099999999999999756e-01,6.451868400000000000e+09
1.150000000000000000e+02,1.370000000000000000e+02,2.140000000000000000e+02,2.430000000000000000e+02,1.450000000000000000e+02,1.080000000000000000e+02,2.590000000000000000e+02,3.630000000000000000e+02,4.199999999999999845e-01,6.471985700000000000e+09
1.170000000000000000e+02,1.300000000000000000e+02,2.140000000000000000e+02,2.320000000000000000e+02,1.770000000000000000e+02,1.190000000000000000e+02,2.390000000000000000e+02,3.610000000000000000e+02,4.199999999999999845e-01,6.492403700000000000e+09
1.230000000000000000e+02,1.340000000000000000e+02,2.040000000000000000e+02,2.380000000000000000e+02,1.870000000000000000e+02,1.330000000000000000e+02,2.350000000000000000e+02,3.500000000000000000e+02,4.199999999999999845e-01,6.512544500000000000e+09
1.130000000000000000e+02,1.350000000000000000e+02,2.020000000000000000e+02,2.270000000000000000e+02,1.840000000000000000e+02,1.400000000000000000e+02,2.250000000000000000e+02,3.240000000000000000e+02,4.199999999999999845e-01,6.530792400000000000e+09
1.160000000000000000e+02,1.130000000000000000e+02,2.000000000000000000e+02,2.020000000000000000e+02,1.780000000000000000e+02,1.300000000000000000e+02,1.880000000000000000e+02,3.070000000000000000e+02,4.099999999999999756e-01,6.550400500000000000e+09
1.070000000000000000e+02,1.120000000000000000e+02,1.780000000000000000e+02,2.070000000000000000e+02,1.990000000000000000e+02,1.310000000000000000e+02,1.730000000000000000e+02,3.010000000000000000e+02,4.099999999999999756e-01,6.568899500000000000e+09
1.120000000000000000e+02,1.090000000000000000e+02,2.340000000000000000e+02,2.450000000000000000e+02,1.770000000000000000e+02,1.320000000000000000e+02,1.440000000000000000e+02,3.070000000000000000e+02,4.099999999999999756e-01,6.591460900000000000e+09
1.040000000000000000e+02,1.040000000000000000e+02,2.460000000000000000e+02,2.360000000000000000e+02,1.570000000000000000e+02,1.220000000000000000e+02,1.980000000000000000e+02,3.510000000000000000e+02,4.000000000000000222e-01,6.613729300000000000e+09
1.090000000000000000e+02,1.010000000000000000e+02,2.620000000000000000e+02,2.550000000000000000e+02,1.620000000000000000e+02,1.140000000000000000e+02,2.070000000000000000e+02,3.400000000000000000e+02,4.000000000000000222e-01,6.634430300000000000e+09
1.290000000000000000e+02,1.000000000000000000e+02,2.700000000000000000e+02,2.990000000000000000e+02,1.730000000000000000e+02,1.240000000000000000e+02,2.400000000000000000e+02,3.420000000000000000e+02,3.900000000000000133e-01,6.652887300000000000e+09
1.300000000000000000e+02,1.030000000000000000e+02,2.740000000000000000e+02,3.310000000000000000e+02,1.450000000000000000e+02,1.150000000000000000e+02,2.360000000000000000e+02,3.290000000000000000e+02,3.900000000000000133e-01,6.672706000000000000e+09
1.300000000000000000e+02,1.150000000000000000e+02,2.260000000000000000e+02,3.130000000000000000e+02,1.460000000000000000e+02,1.010000000000000000e+02,2.210000000000000000e+02,2.880000000000000000e+02,3.900000000000000133e-01,6.693537700000000000e+09
1.440000000000000000e+02,1.220000000000000000e+02,2.140000000000000000e+02,3.180000000000000000e+02,1.500000000000000000e+02,1.050000000000000000e+02,1.870000000000000000e+02,2.330000000000000000e+02,4.000000000000000222e-01,6.712865700000000000e+09
1.440000000000000000e+02,1.230000000000000000e+02,2.060000000000000000e+02,3.140000000000000000e+02,1.580000000000000000e+02,1.450000000000000000e+02,2.600000000000000000e+02,2.390000000000000000e+02,4.000000000000000222e-01,6.731777500000000000e+09
1.280000000000000000e+02,1.300000000000000000e+02,1.810000000000000000e+02,2.670000000000000000e+02,1.540000000000000000e+02,1.460000000000000000e+02,2.540000000000000000e+02,2.230000000000000000e+02,4.099999999999999756e-01,6.751971600000000000e+09
1.270000000000000000e+02,1.280000000000000000e+02,1.510000000000000000e+02,2.150000000000000000e+02,1.610000000000000000e+02,1.440000000000000000e+02,2.670000000000000000e+02,2.340000000000000000e+02,4.099999999999999756e-01,6.770576900000000000e+09
1.340000000000000000e+02,1.180000000000000000e+02,1.690000000000000000e+02,2.340000000000000000e+02,1.540000000000000000e+02,1.420000000000000000e+02,2.730000000000000000e+02,2.350000000000000000e+02,4.099999999999999756e-01,6.790279000000000000e+09
1.130000000000000000e+02,1.160000000000000000e+02,1.910000000000000000e+02,2.310000000000000000e+02,1.630000000000000000e+02,1.360000000000000000e+02,2.620000000000000000e+02,2.340000000000000000e+02,4.199999999999999845e-01,6.811959000000000000e+09
1.220000000000000000e+02,1.170000000000000000e+02,2.150000000000000000e+02,2.560000000000000000e+02,1.690000000000000000e+02,9.700000000000000000e+01,1.840000000000000000e+02,2.290000000000000000e+02,4.199999999999999845e-01,6.831870900000000000e+09
1.360000000000000000e+02,1.220000000000000000e+02,2.550000000000000000e+02,2.910000000000000000e+02,1.620000000000000000e+02,8.400000000000000000e+01,1.570000000000000000e+02,2.050000000000000000e+02,4.299999999999999933e-01,6.851361700000000000e+09
1.360000000000000000e+02,1.270000000000000000e+02,2.620000000000000000e+02,2.850000000000000000e+02,1.920000000000000000e+02,1.020000000000000000e+02,1.360000000000000000e+02,2.400000000000000000e+02,4.299999999999999933e-01,6.870923800000000000e+09
1.530000000000000000e+02,1.280000000000000000e+02,2.630000000000000000e+02,2.980000000000000000e+02,2.060000000000000000e+02,1.160000000000000000e+02,1.300000000000000000e+02,2.710000000000000000e+02,4.299999999999999933e-01,6.889953800000000000e+09
1.640000000000000000e+02,1.290000000000000000e+02,2.580000000000000000e+02,3.050000000000000000e+02,2.210000000000000000e+02,1.400000000000000000e+02,1.560000000000000000e+02,2.980000000000000000e+02,4.199999999999999845e-01,6.911906700000000000e+09
1.760000000000000000e+02,1.800000000000000000e+02,2.370000000000000000e+02,2.780000000000000000e+02,2.180000000000000000e+02,1.470000000000000000e+02,1.790000000000000000e+02,3.820000000000000000e+02,4.199999999999999845e-01,6.931095100000000000e+09
1.780000000000000000e+02,1.810000000000000000e+02,2.020000000000000000e+02,2.590000000000000000e+02,2.390000000000000000e+02,1.580000000000000000e+02,1.990000000000000000e+02,4.070000000000000000e+02,4.000000000000000222e-01,6.950032600000000000e+09
1.790000000000000000e+02,1.770000000000000000e+02,2.750000000000000000e+02,2.760000000000000000e+02,2.170000000000000000e+02,1.490000000000000000e+02,1.990000000000000000e+02,3.850000000000000000e+02,4.000000000000000222e-01,6.969520500000000000e+09
1.650000000000000000e+02,1.780000000000000000e+02,3.090000000000000000e+02,3.110000000000000000e+02,2.000000000000000000e+02,1.450000000000000000e+02,2.050000000000000000e+02,3.840000000000000000e+02,3.900000000000000133e-01,6.989785500000000000e+09
1.600000000000000000e+02,1.770000000000000000e+02,3.060000000000000000e+02,3.010000000000000000e+02,1.770000000000000000e+02,1.270000000000000000e+02,1.980000000000000000e+02,4.240000000000000000e+02,3.800000000000000044e-01,7.012144800000000000e+09
1.390000000000000000e+02,1.260000000000000000e+02,3.160000000000000000e+02,3.120000000000000000e+02,1.660000000000000000e+02,1.320000000000000000e+02,2.170000000000000000e+02,3.580000000000000000e+02,3.699999999999999956e-01,7.031206500000000000e+09
1.690000000000000000e+02,1.100000000000000000e+02,3.140000000000000000e+02,3.040000000000000000e+02,1.490000000000000000e+02,1.250000000000000000e+02,2.150000000000000000e+02,3.630000000000000000e+02,3.599999999999999867e-01,7.052304400000000000e+09
1.750000000000000000e+02,1.240000000000000000e+02,2.530000000000000000e+02,2.800000000000000000e+02,1.430000000000000000e+02,1.250000000000000000e+02,2.240000000000000000e+02,3.720000000000000000e+02,3.599999999999999867e-01,7.071106900000000000e+09
1.770000000000000000e+02,1.170000000000000000e+02,2.020000000000000000e+02,1.860000000000000000e+02,1.650000000000000000e+02,1.230000000000000000e+02,2.230000000000000000e+02,3.610000000000000000e+02,3.599999999999999867e-01,7.090661600000000000e+09
1.720000000000000000e+02,1.110000000000000000e+02,2.120000000000000000e+02,2.260000000000000000e+02,1.620000000000000000e+02,1.180000000000000000e+02,2.160000000000000000e+02,2.810000000000000000e+02,3.599999999999999867e-01,7.113298400000000000e+09
1.770000000000000000e+02,1.140000000000000000e+02,2.080000000000000000e+02,2.230000000000000000e+02,2.180000000000000000e+02,1.310000000000000000e+02,1.690000000000000000e+02,2.650000000000000000e+02,3.599999999999999867e-01,7.132951900000000000e+09
1.340000000000000000e+02,1.230000000000000000e+02,2.140000000000000000e+02,2.280000000000000000e+02,2.180000000000000000e+02,1.310000000000000000e+02,1.490000000000000000e+02,2.010000000000000000e+02,3.599999999999999867e-01,7.152534100000000000e+09
1.190000000000000000e+02,1.110000000000000000e+02,2.050000000000000000e+02,2.340000000000000000e+02,2.180000000000000000e+02,1.300000000000000000e+02,1.410000000000000000e+02,1.800000000000000000e+02,3.599999999999999867e-01,7.173871000000000000e+09
1.360000000000000000e+02,1.140000000000000000e+02,1.900000000000000000e+02,2.420000000000000000e+02,2.030000000000000000e+02,1.260000000000000000e+02,1.340000000000000000e+02,1.790000000000000000e+02,3.599999999999999867e-01,7.194093300000000000e+09
1.500000000000000000e+02,1.150000000000000000e+02,1.750000000000000000e+02,2.130000000000000000e+02,2.470000000000000000e+02,1.530000000000000000e+02,1.510000000000000000e+02,1.920000000000000000e+02,3.699999999999999956e-01,7.214524700000000000e+09
1.520000000000000000e+02,1.210000000000000000e+02,1.580000000000000000e+02,1.990000000000000000e+02,1.990000000000000000e+02,1.300000000000000000e+02,1.600000000000000000e+02,2.040000000000000000e+02,3.699999999999999956e-01,7.233574600000000000e+09
1.560000000000000000e+02,1.160000000000000000e+02,1.430000000000000000e+02,1.920000000000000000e+02,2.120000000000000000e+02,1.390000000000000000e+02,1.780000000000000000e+02,2.020000000000000000e+02,3.800000000000000044e-01,7.254017400000000000e+09
1.660000000000000000e+02,1.180000000000000000e+02,1.340000000000000000e+02,1.830000000000000000e+02,2.200000000000000000e+02,1.540000000000000000e+02,1.730000000000000000e+02,2.050000000000000000e+02,3.800000000000000044e-01,7.278351600000000000e+09
1.430000000000000000e+02,1.170000000000000000e+02,1.460000000000000000e+02,1.780000000000000000e+02,2.290000000000000000e+02,1.680000000000000000e+02,1.770000000000000000e+02,2.250000000000000000e+02,3.800000000000000044e-01,7.297375200000000000e+09
1.410000000000000000e+02,1.320000000000000000e+02,1.370000000000000000e+02,1.600000000000000000e+02,2.370000000000000000e+02,1.830000000000000000e+02,1.860000000000000000e+02,2.170000000000000000e+02,3.800000000000000044e-01,7.317281900000000000e+09
1.330000000000000000e+02,1.250000000000000000e+02,1.340000000000000000e+02,1.530000000000000000e+02,2.680000000000000000e+02,1.890000000000000000e+02,1.890000000000000000e+02,2.190000000000000000e+02,3.800000000000000044e-01,7.336319500000000000e+09
1.290000000000000000e+02,1.250000000000000000e+02,1.380000000000000000e+02,1.390000000000000000e+02,2.740000000000000000e+02,1.810000000000000000e+02,1.950000000000000000e+02,2.520000000000000000e+02,3.800000000000000044e-01,7.355139100000000000e+09
1.240000000000000000e+02,1.210000000000000000e+02,1.470000000000000000e+02,1.450000000000000000e+02,2.740000000000000000e+02,1.840000000000000000e+02,1.940000000000000000e+02,2.330000000000000000e+02,3.699999999999999956e-01,7.375011000000000000e+09
1.190000000000000000e+02,1.170000000000000000e+02,1.350000000000000000e+02,1.460000000000000000e+02,2.840000000000000000e+02,1.850000000000000000e+02,2.000000000000000000e+02,2.020000000000000000e+02,3.699999999999999956e-01,7.393930200000000000e+09
1.040000000000000000e+02,9.800000000000000000e+01,1.270000000000000000e+02,1.510000000000000000e+02,2.470000000000000000e+02,1.510000000000000000e+02,1.840000000000000000e+02,2.110000000000000000e+02,3.699999999999999956e-01,7.413912800000000000e+09
1.000000000000000000e+02,1.080000000000000000e+02,1.250000000000000000e+02,1.380000000000000000e+02,2.140000000000000000e+02,1.440000000000000000e+02,1.790000000000000000e+02,1.920000000000000000e+02,3.800000000000000044e-01,7.433879600000000000e+09
9.500000000000000000e+01,1.030000000000000000e+02,1.170000000000000000e+02,1.310000000000000000e+02,1.890000000000000000e+02,1.500000000000000000e+02,1.830000000000000000e+02,1.870000000000000000e+02,3.800000000000000044e-01,7.462376900000000000e+09
8.500000000000000000e+01,1.080000000000000000e+02,1.230000000000000000e+02,1.200000000000000000e+02,1.790000000000000000e+02,1.390000000000000000e+02,1.950000000000000000e+02,1.920000000000000000e+02,3.699999999999999956e-01,7.492057200000000000e+09
8.000000000000000000e+01,1.100000000000000000e+02,1.550000000000000000e+02,1.150000000000000000e+02,1.470000000000000000e+02,1.190000000000000000e+02,1.800000000000000000e+02,2.110000000000000000e+02,3.699999999999999956e-01,7.512385300000000000e+09
7.600000000000000000e+01,1.050000000000000000e+02,1.600000000000000000e+02,1.060000000000000000e+02,1.280000000000000000e+02,1.200000000000000000e+02,1.760000000000000000e+02,1.910000000000000000e+02,3.800000000000000044e-01,7.531819300000000000e+09
8.700000000000000000e+01,9.000000000000000000e+01,1.640000000000000000e+02,1.040000000000000000e+02,1.540000000000000000e+02,1.220000000000000000e+02,1.990000000000000000e+02,1.980000000000000000e+02,3.699999999999999956e-01,7.553773300000000000e+09
8.100000000000000000e+01,1.150000000000000000e+02,1.630000000000000000e+02,1.140000000000000000e+02,1.520000000000000000e+02,1.170000000000000000e+02,1.820000000000000000e+02,1.930000000000000000e+02,3.800000000000000044e-01,7.572892100000000000e+09
8.700000000000000000e+01,1.130000000000000000e+02,1.470000000000000000e+02,1.090000000000000000e+02,1.480000000000000000e+02,1.110000000000000000e+02,1.780000000000000000e+02,2.110000000000000000e+02,3.800000000000000044e-01,7.590865600000000000e+09
9.900000000000000000e+01,1.210000000000000000e+02,1.130000000000000000e+02,1.050000000000000000e+02,1.540000000000000000e+02,1.150000000000000000e+02,1.900000000000000000e+02,2.330000000000000000e+02,3.800000000000000044e-01,7.610973200000000000e+09
1.100000000000000000e+02,1.570000000000000000e+02,1.720000000000000000e+02,1.140000000000000000e+02,1.610000000000000000e+02,1.070000000000000000e+02,1.860000000000000000e+02,2.570000000000000000e+02,3.900000000000000133e-01,7.629287300000000000e+09
1.030000000000000000e+02,1.630000000000000000e+02,2.230000000000000000e+02,1.330000000000000000e+02,1.310000000000000000e+02,9.900000000000000000e+01,1.550000000000000000e+02,2.530000000000000000e+02,3.900000000000000133e-01,7.648901400000000000e+09
1.100000000000000000e+02,1.730000000000000000e+02,2.580000000000000000e+02,1.290000000000000000e+02,1.260000000000000000e+02,9.300000000000000000e+01,1.630000000000000000e+02,2.430000000000000000e+02,3.900000000000000133e-01,7.667327300000000000e+09
1.140000000000000000e+02,1.870000000000000000e+02,4.100000000000000000e+02,1.650000000000000000e+02,1.240000000000000000e+02,7.800000000000000000e+01,1.690000000000000000e+02,3.140000000000000000e+02,3.900000000000000133e-01,7.687680000000000000e+09
1.150000000000000000e+02,1.830000000000000000e+02,4.270000000000000000e+02,1.670000000000000000e+02,1.140000000000000000e+02,7.700000000000000000e+01,1.650000000000000000e+02,3.080000000000000000e+02,3.900000000000000133e-01,7.707185900000000000e+09
1.120000000000000000e+02,2.350000000000000000e+02,4.180000000000000000e+02,1.680000000000000000e+02,1.010000000000000000e+02,7.800000000000000000e+01,1.630000000000000000e+02,3.310000000000000000e+02,4.000000000000000222e-01,7.725642600000000000e+09
1.500000000000000000e+02,2.610000000000000000e+02,4.460000000000000000e+02,1.850000000000000000e+02,9.300000000000000000e+01,7.800000000000000000e+01,1.970000000000000000e+02,4.570000000000000000e+02,3.900000000000000133e-01,7.744159500000000000e+09
1.810000000000000000e+02,2.660000000000000000e+02,5.220000000000000000e+02,2.110000000000000000e+02,8.600000000000000000e+01,8.700000000000000000e+01,2.210000000000000000e+02,5.230000000000000000e+02,3.900000000000000133e-01,7.762897600000000000e+09
1.840000000000000000e+02,2.640000000000000000e+02,4.590000000000000000e+02,2.430000000000000000e+02,9.600000000000000000e+01,1.030000000000000000e+02,2.290000000000000000e+02,5.940000000000000000e+02,3.900000000000000133e-01,7.782178800000000000e+09
2.230000000000000000e+02,2.820000000000000000e+02,4.650000000000000000e+02,2.970000000000000000e+02,1.220000000000000000e+02,1.280000000000000000e+02,2.770000000000000000e+02,7.520000000000000000e+02,3.900000000000000133e-01,7.800096500000000000e+09
2.260000000000000000e+02,2.540000000000000000e+02,4.890000000000000000e+02,3.200000000000000000e+02,1.250000000000000000e+02,1.320000000000000000e+02,3.030000000000000000e+02,7.840000000000000000e+02,3.800000000000000044e-01,7.818717200000000000e+09
2.450000000000000000e+02,2.420000000000000000e+02,5.310000000000000000e+02,4.270000000000000000e+02,1.540000000000000000e+02,1.490000000000000000e+02,3.230000000000000000e+02,7.540000000000000000e+02,3.800000000000000044e-01,7.837288600000000000e+09
2.390000000000000000e+02,2.310000000000000000e+02,4.600000000000000000e+02,4.710000000000000000e+02,1.780000000000000000e+02,1.500000000000000000e+02,3.310000000000000000e+02,7.230000000000000000e+02,3.699999999999999956e-01,7.855439900000000000e+09
2.410000000000000000e+02,2.320000000000000000e+02,4.210000000000000000e+02,4.570000000000000000e+02,1.840000000000000000e+02,1.460000000000000000e+02,3.370000000000000000e+02,6.520000000000000000e+02,3.699999999999999956e-01,7.873755100000000000e+09
2.010000000000000000e+02,2.160000000000000000e+02,4.590000000000000000e+02,4.280000000000000000e+02,1.700000000000000000e+02,1.260000000000000000e+02,2.990000000000000000e+02,4.480000000000000000e+02,3.599999999999999867e-01,7.893393000000000000e+09
1.940000000000000000e+02,1.870000000000000000e+02,4.640000000000000000e+02,4.190000000000000000e+02,1.970000000000000000e+02,1.340000000000000000e+02,2.800000000000000000e+02,3.570000000000000000e+02,3.599999999999999867e-01,7.912432300000000000e+09
1.370000000000000000e+02,1.620000000000000000e+02,4.480000000000000000e+02,3.340000000000000000e+02,2.040000000000000000e+02,1.380000000000000000e+02,2.510000000000000000e+02,2.720000000000000000e+02,3.499999999999999778e-01,7.933588400000000000e+09
1.000000000000000000e+02,1.490000000000000000e+02,4.410000000000000000e+02,2.530000000000000000e+02,1.870000000000000000e+02,1.440000000000000000e+02,2.110000000000000000e+02,2.350000000000000000e+02,3.400000000000000244e-01,7.952936500000000000e+09
8.400000000000000000e+01,1.330000000000000000e+02,4.610000000000000000e+02,2.430000000000000000e+02,2.080000000000000000e+02,1.690000000000000000e+02,1.920000000000000000e+02,1.900000000000000000e+02,3.400000000000000244e-01,7.973675100000000000e+09
8.100000000000000000e+01,1.360000000000000000e+02,4.750000000000000000e+02,2.560000000000000000e+02,2.180000000000000000e+02,1.720000000000000000e+02,1.820000000000000000e+02,1.810000000000000000e+02,3.300000000000000155e-01,7.993317800000000000e+09
9.000000000000000000e+01,1.750000000000000000e+02,5.240000000000000000e+02,2.640000000000000000e+02,2.330000000000000000e+02,1.810000000000000000e+02,1.830000000000000000e+02,1.980000000000000000e+02,3.200000000000000067e-01,8.013779200000000000e+09
1.080000000000000000e+02,1.850000000000000000e+02,5.100000000000000000e+02,2.360000000000000000e+02,2.180000000000000000e+02,2.030000000000000000e+02,2.540000000000000000e+02,2.020000000000000000e+02,3.099999999999999978e-01,8.033558100000000000e+09
1.130000000000000000e+02,1.840000000000000000e+02,5.360000000000000000e+02,2.350000000000000000e+02,2.310000000000000000e+02,2.030000000000000000e+02,3.620000000000000000e+02,1.840000000000000000e+02,3.099999999999999978e-01,8.052649500000000000e+09
1.180000000000000000e+02,1.900000000000000000e+02,5.730000000000000000e+02,2.760000000000000000e+02,2.310000000000000000e+02,1.810000000000000000e+02,3.620000000000000000e+02,1.450000000000000000e+02,2.999999999999999889e-01,8.071915500000000000e+09
1.180000000000000000e+02,1.960000000000000000e+02,6.160000000000000000e+02,2.970000000000000000e+02,2.280000000000000000e+02,1.810000000000000000e+02,3.720000000000000000e+02,1.350000000000000000e+02,2.999999999999999889e-01,8.091168500000000000e+09
1.170000000000000000e+02,1.590000000000000000e+02,5.670000000000000000e+02,3.070000000000000000e+02,2.110000000000000000e+02,1.740000000000000000e+02,4.030000000000000000e+02,1.070000000000000000e+02,2.999999999999999889e-01,8.111284500000000000e+09
1.060000000000000000e+02,1.700000000000000000e+02,5.590000000000000000e+02,3.140000000000000000e+02,2.130000000000000000e+02,1.500000000000000000e+02,3.720000000000000000e+02,9.000000000000000000e+01,2.899999999999999800e-01,8.133404100000000000e+09
1.080000000000000000e+02,1.700000000000000000e+02,5.840000000000000000e+02,3.330000000000000000e+02,2.110000000000000000e+02,1.590000000000000000e+02,2.920000000000000000e+02,9.000000000000000000e+01,2.899999999999999800e-01,8.152305200000000000e+09
1.160000000000000000e+02,1.750000000000000000e+02,5.460000000000000000e+02,2.990000000000000000e+02,1.980000000000000000e+02,1.720000000000000000e+02,2.940000000000000000e+02,9.200000000000000000e+01,2.899999999999999800e-01,8.171720700000000000e+09
1.200000000000000000e+02,1.710000000000000000e+02,4.600000000000000000e+02,2.620000000000000000e+02,1.950000000000000000e+02,1.830000000000000000e+02,3.510000000000000000e+02,9.100000000000000000e+01,2.899999999999999800e-01,8.193555400000000000e+09
1.290000000000000000e+02,1.600000000000000000e+02,4.400000000000000000e+02,2.240000000000000000e+02,1.800000000000000000e+02,1.780000000000000000e+02,3.180000000000000000e+02,1.000000000000000000e+02,2.999999999999999889e-01,8.213281000000000000e+09
1.280000000000000000e+02,1.450000000000000000e+02,3.940000000000000000e+02,2.100000000000000000e+02,1.840000000000000000e+02,1.750000000000000000e+02,3.230000000000000000e+02,1.140000000000000000e+02,2.999999999999999889e-01,8.233608300000000000e+09
1.300000000000000000e+02,1.510000000000000000e+02,3.070000000000000000e+02,1.780000000000000000e+02,1.750000000000000000e+02,1.570000000000000000e+02,3.470000000000000000e+02,1.620000000000000000e+02,3.099999999999999978e-01,8.253793800000000000e+09
1.310000000000000000e+02,1.410000000000000000e+02,2.970000000000000000e+02,1.820000000000000000e+02,1.820000000000000000e+02,1.510000000000000000e+02,3.550000000000000000e+02,1.800000000000000000e+02,3.200000000000000067e-01,8.272754800000000000e+09
1.240000000000000000e+02,1.270000000000000000e+02,2.490000000000000000e+02,1.770000000000000000e+02,1.880000000000000000e+02,1.320000000000000000e+02,3.030000000000000000e+02,1.930000000000000000e+02,3.300000000000000155e-01,8.292038400000000000e+09
1.130000000000000000e+02,1.340000000000000000e+02,2.360000000000000000e+02,1.810000000000000000e+02,1.810000000000000000e+02,1.270000000000000000e+02,3.100000000000000000e+02,2.210000000000000000e+02,3.400000000000000244e-01,8.312219200000000000e+09
1.260000000000000000e+02,1.280000000000000000e+02,2.550000000000000000e+02,1.680000000000000000e+02,1.750000000000000000e+02,1.220000000000000000e+02,2.970000000000000000e+02,2.460000000000000000e+02,3.400000000000000244e-01,8.332719400000000000e+09
1.260000000000000000e+02,1.190000000000000000e+02,2.400000000000000000e+02,1.610000000000000000e+02,1.730000000000000000e+02,1.170000000000000000e+02,2.540000000000000000e+02,2.300000000000000000e+02,3.499999999999999778e-01,8.351976900000000000e+09
1.190000000000000000e+02,1.250000000000000000e+02,2.320000000000000000e+02,1.520000000000000000e+02,1.710000000000000000e+02,1.090000000000000000e+02,2.480000000000000000e+02,2.190000000000000000e+02,3.599999999999999867e-01,8.370066400000000000e+09
1.250000000000000000e+02,1.160000000000000000e+02,2.330000000000000000e+02,1.520000000000000000e+02,1.750000000000000000e+02,1.110000000000000000e+02,2.350000000000000000e+02,2.100000000000000000e+02,3.599999999999999867e-01,8.389226500000000000e+09
1.310000000000000000e+02,1.430000000000000000e+02,2.620000000000000000e+02,1.640000000000000000e+02,1.820000000000000000e+02,1.250000000000000000e+02,2.240000000000000000e+02,1.730000000000000000e+02,3.699999999999999956e-01,8.411334000000000000e+09
1.240000000000000000e+02,1.390000000000000000e+02,2.280000000000000000e+02,1.660000000000000000e+02,1.880000000000000000e+02,1.230000000000000000e+02,2.260000000000000000e+02,1.380000000000000000e+02,3.800000000000000044e-01,8.433609100000000000e+09
1.220000000000000000e+02,1.420000000000000000e+02,2.420000000000000000e+02,1.760000000000000000e+02,1.830000000000000000e+02,1.260000000000000000e+02,2.380000000000000000e+02,1.390000000000000000e+02,3.800000000000000044e-01,8.452983500000000000e+09
1.140000000000000000e+02,1.330000000000000000e+02,2.250000000000000000e+02,1.700000000000000000e+02,1.590000000000000000e+02,1.180000000000000000e+02,2.290000000000000000e+02,1.520000000000000000e+02,3.900000000000000133e-01,8.472495800000000000e+09
1.090000000000000000e+02,1.350000000000000000e+02,2.150000000000000000e+02,1.770000000000000000e+02,1.650000000000000000e+02,1.190000000000000000e+02,2.260000000000000000e+02,1.730000000000000000e+02,3.900000000000000133e-01,8.491487300000000000e+09
9.800000000000000000e+01,1.020000000000000000e+02,1.830000000000000000e+02,1.810000000000000000e+02,1.640000000000000000e+02,1.060000000000000000e+02,2.240000000000000000e+02,2.080000000000000000e+02,4.000000000000000222e-01,8.511364100000000000e+09
8.900000000000000000e+01,9.700000000000000000e+01,1.730000000000000000e+02,1.880000000000000000e+02,1.540000000000000000e+02,9.700000000000000000e+01,2.010000000000000000e+02,2.130000000000000000e+02,4.000000000000000222e-01,8.533544700000000000e+09
1.020000000000000000e+02,1.120000000000000000e+02,1.630000000000000000e+02,1.920000000000000000e+02,1.780000000000000000e+02,1.100000000000000000e+02,1.780000000000000000e+02,2.010000000000000000e+02,4.099999999999999756e-01,8.553621600000000000e+09
1.190000000000000000e+02,1.210000000000000000e+02,1.750000000000000000e+02,2.050000000000000000e+02,1.920000000000000000e+02,1.110000000000000000e+02,2.140000000000000000e+02,1.940000000000000000e+02,4.099999999999999756e-01,8.573935200000000000e+09
1.240000000000000000e+02,1.290000000000000000e+02,1.850000000000000000e+02,2.380000000000000000e+02,1.910000000000000000e+02,1.190000000000000000e+02,2.900000000000000000e+02,1.770000000000000000e+02,4.199999999999999845e-01,8.592897600000000000e+09
1.320000000000000000e+02,1.390000000000000000e+02,1.860000000000000000e+02,2.390000000000000000e+02,1.840000000000000000e+02,1.130000000000000000e+02,3.000000000000000000e+02,1.560000000000000000e+02,4.199999999999999845e-01,8.612472900000000000e+09
1.470000000000000000e+02,1.470000000000000000e+02,1.760000000000000000e+02,2.290000000000000000e+02,1.900000000000000000e+02,1.240000000000000000e+02,3.060000000000000000e+02,1.770000000000000000e+02,4.199999999999999845e-01,8.633229100000000000e+09
1.310000000000000000e+02,1.310000000000000000e+02,1.660000000000000000e+02,2.130000000000000000e+02,1.690000000000000000e+02,1.240000000000000000e+02,3.090000000000000000e+02,2.070000000000000000e+02,4.299999999999999933e-01,8.651775200000000000e+09
1.190000000000000000e+02,1.190000000000000000e+02,1.670000000000000000e+02,1.950000000000000000e+02,1.540000000000000000e+02,1.210000000000000000e+02,3.070000000000000000e+02,2.040000000000000000e+02,4.299999999999999933e-01,8.672127400000000000e+09
1.250000000000000000e+02,1.100000000000000000e+02,1.600000000000000000e+02,1.510000000000000000e+02,1.380000000000000000e+02,1.660000000000000000e+02,2.890000000000000000e+02,2.280000000000000000e+02,4.400000000000000022e-01,8.693203400000000000e+09
1.180000000000000000e+02,1.040000000000000000e+02,1.500000000000000000e+02,1.390000000000000000e+02,1.660000000000000000e+02,1.870000000000000000e+02,2.830000000000000000e+02,2.210000000000000000e+02,4.400000000000000022e-01,8.712459400000000000e+09
1.070000000000000000e+02,9.900000000000000000e+01,1.670000000000000000e+02,1.570000000000000000e+02,1.590000000000000000e+02,1.860000000000000000e+02,3.110000000000000000e+02,1.940000000000000000e+02,4.400000000000000022e-01,8.733224000000000000e+09
1.180000000000000000e+02,1.270000000000000000e+02,1.800000000000000000e+02,1.740000000000000000e+02,1.830000000000000000e+02,1.890000000000000000e+02,3.230000000000000000e+02,1.870000000000000000e+02,4.400000000000000022e-01,8.752425500000000000e+09
1.210000000000000000e+02,1.360000000000000000e+02,1.740000000000000000e+02,2.000000000000000000e+02,2.050000000000000000e+02,2.160000000000000000e+02,3.500000000000000000e+02,2.110000000000000000e+02,4.400000000000000022e-01,8.771752400000000000e+09
1.130000000000000000e+02,1.390000000000000000e+02,1.690000000000000000e+02,2.000000000000000000e+02,2.040000000000000000e+02,1.780000000000000000e+02,3.160000000000000000e+02,1.850000000000000000e+02,4.400000000000000022e-01,8.791732000000000000e+09
1.060000000000000000e+02,1.250000000000000000e+02,1.900000000000000000e+02,1.940000000000000000e+02,1.920000000000000000e+02,1.750000000000000000e+02,3.290000000000000000e+02,1.790000000000000000e+02,4.500000000000000111e-01,8.812298500000000000e+09
9.900000000000000000e+01,1.230000000000000000e+02,1.830000000000000000e+02,1.740000000000000000e+02,1.920000000000000000e+02,1.780000000000000000e+02,3.040000000000000000e+02,1.940000000000000000e+02,4.500000000000000111e-01,8.833244000000000000e+09
8.800000000000000000e+01,1.230000000000000000e+02,1.780000000000000000e+02,1.610000000000000000e+02,1.740000000000000000e+02,1.790000000000000000e+02,3.080000000000000000e+02,1.830000000000000000e+02,4.500000000000000111e-01,8.852753800000000000e+09
9.600000000000000000e+01,1.280000000000000000e+02,1.690000000000000000e+02,1.240000000000000000e+02,1.650000000000000000e+02,1.550000000000000000e+02,2.660000000000000000e+02,1.590000000000000000e+02,4.500000000000000111e-01,8.872518500000000000e+09
9.800000000000000000e+01,1.260000000000000000e+02,1.790000000000000000e+02,1.410000000000000000e+02,1.640000000000000000e+02,1.640000000000000000e+02,2.640000000000000000e+02,1.550000000000000000e+02,4.500000000000000111e-01,8.893108800000000000e+09
1.110000000000000000e+02,1.330000000000000000e+02,1.970000000000000000e+02,1.990000000000000000e+02,2.110000000000000000e+02,1.560000000000000000e+02,2.560000000000000000e+02,1.800000000000000000e+02,4.500000000000000111e-01,8.912337000000000000e+09
1.160000000000000000e+02,1.370000000000000000e+02,2.050000000000000000e+02,2.050000000000000000e+02,2.150000000000000000e+02,1.490000000000000000e+02,2.920000000000000000e+02,1.900000000000000000e+02,4.500000000000000111e-01,8.933036700000000000e+09
1.160000000000000000e+02,1.250000000000000000e+02,2.020000000000000000e+02,2.090000000000000000e+02,2.400000000000000000e+02,1.480000000000000000e+02,2.720000000000000000e+02,1.830000000000000000e+02,4.500000000000000111e-01,8.952067300000000000e+09
1.050000000000000000e+02,1.200000000000000000e+02,2.160000000000000000e+02,2.260000000000000000e+02,2.400000000000000000e+02,1.440000000000000000e+02,2.550000000000000000e+02,1.820000000000000000e+02,4.500000000000000111e-01,8.971018500000000000e+09
9.700000000000000000e+01,1.200000000000000000e+02,2.150000000000000000e+02,2.210000000000000000e+02,2.450000000000000000e+02,1.430000000000000000e+02,2.520000000000000000e+02,1.940000000000000000e+02,4.400000000000000022e-01,8.992518400000000000e+09
9.000000000000000000e+01,1.160000000000000000e+02,1.680000000000000000e+02,1.620000000000000000e+02,2.090000000000000000e+02,1.360000000000000000e+02,2.390000000000000000e+02,1.870000000000000000e+02,4.400000000000000022e-01,9.011722800000000000e+09
8.700000000000000000e+01,1.230000000000000000e+02,1.490000000000000000e+02,1.550000000000000000e+02,2.220000000000000000e+02,1.470000000000000000e+02,2.740000000000000000e+02,1.890000000000000000e+02,4.400000000000000022e-01,9.033144400000000000e+09
9.400000000000000000e+01,1.170000000000000000e+02,1.420000000000000000e+02,1.500000000000000000e+02,1.930000000000000000e+02,1.410000000000000000e+02,3.080000000000000000e+02,1.850000000000000000e+02,4.400000000000000022e-01,9.052560300000000000e+09
1.120000000000000000e+02,1.320000000000000000e+02,1.200000000000000000e+02,1.290000000000000000e+02,1.890000000000000000e+02,1.410000000000000000e+02,3.130000000000000000e+02,1.910000000000000000e+02,4.400000000000000022e-01,9.071366600000000000e+09
1.150000000000000000e+02,1.340000000000000000e+02,1.030000000000000000e+02,1.150000000000000000e+02,1.860000000000000000e+02,1.310000000000000000e+02,3.110000000000000000e+02,2.030000000000000000e+02,4.400000000000000022e-01,9.090087700000000000e+09
1.120000000000000000e+02,1.350000000000000000e+02,1.110000000000000000e+02,1.390000000000000000e+02,1.950000000000000000e+02,1.670000000000000000e+02,3.230000000000000000e+02,1.970000000000000000e+02,4.299999999999999933e-01,9.112656300000000000e+09
1.170000000000000000e+02,1.260000000000000000e+02,1.210000000000000000e+02,1.580000000000000000e+02,2.130000000000000000e+02,1.720000000000000000e+02,2.720000000000000000e+02,2.060000000000000000e+02,4.299999999999999933e-01,9.131933600000000000e+09
1.130000000000000000e+02,1.250000000000000000e+02,1.280000000000000000e+02,1.610000000000000000e+02,2.160000000000000000e+02,1.720000000000000000e+02,2.630000000000000000e+02,2.160000000000000000e+02,4.299999999999999933e-01,9.151455600000000000e+09
9.900000000000000000e+01,1.050000000000000000e+02,1.350000000000000000e+02,1.700000000000000000e+02,2.320000000000000000e+02,1.750000000000000000e+02,2.650000000000000000e+02,2.110000000000000000e+02,4.299999999999999933e-01,9.171214300000000000e+09
1.030000000000000000e+02,1.000000000000000000e+02,1.510000000000000000e+02,1.860000000000000000e+02,2.560000000000000000e+02,1.980000000000000000e+02,2.770000000000000000e+02,1.860000000000000000e+02,4.199999999999999845e-01,9.190331600000000000e+09
1.050000000000000000e+02,1.030000000000000000e+02,1.590000000000000000e+02,1.820000000000000000e+02,2.450000000000000000e+02,1.700000000000000000e+02,2.530000000000000000e+02,1.800000000000000000e+02,4.199999999999999845e-01,9.212363700000000000e+09
9.700000000000000000e+01,1.010000000000000000e+02,1.550000000000000000e+02,1.660000000000000000e+02,2.090000000000000000e+02,1.550000000000000000e+02,2.400000000000000000e+02,1.540000000000000000e+02,4.199999999999999845e-01,9.231378500000000000e+09
9.900000000000000000e+01,1.060000000000000000e+02,1.660000000000000000e+02,1.820000000000000000e+02,2.640000000000000000e+02,1.740000000000000000e+02,2.070000000000000000e+02,1.360000000000000000e+02,4.199999999999999845e-01,9.251495500000000000e+09
1.020000000000000000e+02,1.100000000000000000e+02,1.690000000000000000e+02,1.740000000000000000e+02,2.890000000000000000e+02,1.910000000000000000e+02,2.160000000000000000e+02,1.500000000000000000e+02,4.199999999999999845e-01,9.270093400000000000e+09
1.070000000000000000e+02,1.240000000000000000e+02,1.500000000000000000e+02,1.760000000000000000e+02,2.850000000000000000e+02,2.160000000000000000e+02,2.500000000000000000e+02,1.760000000000000000e+02,4.199999999999999845e-01,9.289957500000000000e+09
1.240000000000000000e+02,1.280000000000000000e+02,1.510000000000000000e+02,1.770000000000000000e+02,2.910000000000000000e+02,2.220000000000000000e+02,2.680000000000000000e+02,1.720000000000000000e+02,4.099999999999999756e-01,9.312436600000000000e+09
1.220000000000000000e+02,1.260000000000000000e+02,1.550000000000000000e+02,1.740000000000000000e+02,2.920000000000000000e+02,2.180000000000000000e+02,2.560000000000000000e+02,1.670000000000000000e+02,4.099999999999999756e-01,9.331462400000000000e+09
1.160000000000000000e+02,1.200000000000000000e+02,1.450000000000000000e+02,1.580000000000000000e+02,2.390000000000000000e+02,1.980000000000000000e+02,2.510000000000000000e+02,1.700000000000000000e+02,4.099999999999999756e-01,9.350710600000000000e+09
1.160000000000000000e+02,1.350000000000000000e+02,1.500000000000000000e+02,1.630000000000000000e+02,1.760000000000000000e+02,1.800000000000000000e+02,2.480000000000000000e+02,1.800000000000000000e+02,4.099999999999999756e-01,9.370936900000000000e+09
1.150000000000000000e+02,1.270000000000000000e+02,1.680000000000000000e+02,1.640000000000000000e+02,1.710000000000000000e+02,1.270000000000000000e+02,1.940000000000000000e+02,1.530000000000000000e+02,4.199999999999999845e-01,9.390149100000000000e+09
1.090000000000000000e+02,1.210000000000000000e+02,1.720000000000000000e+02,1.650000000000000000e+02,1.520000000000000000e+02,1.210000000000000000e+02,2.510000000000000000e+02,1.560000000000000000e+02,4.199999999999999845e-01,9.412357800000000000e+09
1.130000000000000000e+02,1.250000000000000000e+02,1.610000000000000000e+02,1.740000000000000000e+02,1.510000000000000000e+02,1.270000000000000000e+02,2.720000000000000000e+02,1.890000000000000000e+02,4.199999999999999845e-01,9.432370500000000000e+09
1.110000000000000000e+02,1.230000000000000000e+02,1.600000000000000000e+02,1.690000000000000000e+02,1.410000000000000000e+02,1.350000000000000000e+02,3.100000000000000000e+02,1.900000000000000000e+02,4.299999999999999933e-01,9.452111400000000000e+09
1.170000000000000000e+02,1.130000000000000000e+02,1.500000000000000000e+02,1.730000000000000000e+02,2.210000000000000000e+02,1.630000000000000000e+02,3.150000000000000000e+02,1.740000000000000000e+02,4.299999999999999933e-01,9.473288400000000000e+09
1.160000000000000000e+02,1.240000000000000000e+02,1.440000000000000000e+02,1.640000000000000000e+02,2.280000000000000000e+02,1.740000000000000000e+02,3.230000000000000000e+02,1.750000000000000000e+02,4.299999999999999933e-01,9.493303200000000000e+09
9.700000000000000000e+01,1.210000000000000000e+02,1.270000000000000000e+02,1.530000000000000000e+02,2.630000000000000000e+02,1.760000000000000000e+02,2.640000000000000000e+02,1.870000000000000000e+02,4.299999999999999933e-01,9.513110800000000000e+09
1.050000000000000000e+02,1.220000000000000000e+02,1.380000000000000000e+02,1.710000000000000000e+02,2.980000000000000000e+02,1.970000000000000000e+02,2.480000000000000000e+02,1.490000000000000000e+02,4.299999999999999933e-01,9.533624300000000000e+09
1.110000000000000000e+02,1.190000000000000000e+02,1.520000000000000000e+02,1.740000000000000000e+02,2.980000000000000000e+02,2.020000000000000000e+02,1.970000000000000000e+02,1.810000000000000000e+02,4.299999999999999933e-01,9.553205600000000000e+09
1.050000000000000000e+02,1.180000000000000000e+02,1.590000000000000000e+02,1.630000000000000000e+02,2.640000000000000000e+02,1.920000000000000000e+02,2.070000000000000000e+02,1.950000000000000000e+02,4.299999999999999933e-01,9.573129000000000000e+09
9.900000000000000000e+01,1.060000000000000000e+02,1.530000000000000000e+02,1.610000000000000000e+02,2.470000000000000000e+02,1.830000000000000000e+02,1.940000000000000000e+02,2.020000000000000000e+02,4.299999999999999933e-01,9.592518400000000000e+09
9.800000000000000000e+01,1.060000000000000000e+02,1.620000000000000000e+02,1.830000000000000000e+02,2.060000000000000000e+02,1.770000000000000000e+02,2.020000000000000000e+02,2.000000000000000000e+02,4.299999999999999933e-01,9.612404900000000000e+09
1.010000000000000000e+02,1.060000000000000000e+02,1.700000000000000000e+02,1.610000000000000000e+02,1.550000000000000000e+02,1.560000000000000000e+02,2.260000000000000000e+02,2.060000000000000000e+02,4.299999999999999933e-01,9.633652200000000000e+09
1.070000000000000000e+02,1.100000000000000000e+02,1.580000000000000000e+02,1.610000000000000000e+02,1.930000000000000000e+02,1.520000000000000000e+02,2.510000000000000000e+02,2.090000000000000000e+02,4.299999999999999933e-01,9.652648200000000000e+09
1.010000000000000000e+02,9.000000000000000000e+01,1.570000000000000000e+02,1.720000000000000000e+02,1.950000000000000000e+02,1.310000000000000000e+02,2.140000000000000000e+02,1.900000000000000000e+02,4.199999999999999845e-01,9.672896600000000000e+09
9.900000000000000000e+01,8.700000000000000000e+01,1.510000000000000000e+02,1.690000000000000000e+02,1.990000000000000000e+02,1.270000000000000000e+02,2.350000000000000000e+02,1.830000000000000000e+02,4.199999999999999845e-01,9.697917300000000000e+09
1.220000000000000000e+02,9.300000000000000000e+01,1.410000000000000000e+02,1.430000000000000000e+02,2.060000000000000000e+02,1.260000000000000000e+02,2.320000000000000000e+02,2.320000000000000000e+02,4.199999999999999845e-01,9.718517700000000000e+09
1.220000000000000000e+02,8.500000000000000000e+01,1.490000000000000000e+02,1.580000000000000000e+02,2.070000000000000000e+02,1.360000000000000000e+02,2.310000000000000000e+02,2.320000000000000000e+02,4.099999999999999756e-01,9.736633800000000000e+09
1.240000000000000000e+02,9.000000000000000000e+01,1.510000000000000000e+02,1.600000000000000000e+02,1.740000000000000000e+02,1.300000000000000000e+02,2.690000000000000000e+02,2.090000000000000000e+02,4.199999999999999845e-01,9.758325800000000000e+09
1.320000000000000000e+02,9.400000000000000000e+01,1.510000000000000000e+02,1.440000000000000000e+02,1.530000000000000000e+02,1.240000000000000000e+02,2.790000000000000000e+02,2.110000000000000000e+02,4.199999999999999845e-01,9.778491300000000000e+09
1.350000000000000000e+02,8.500000000000000000e+01,1.490000000000000000e+02,1.330000000000000000e+02,1.490000000000000000e+02,1.220000000000000000e+02,2.770000000000000000e+02,2.120000000000000000e+02,4.199999999999999845e-01,9.797319300000000000e+09
1.180000000000000000e+02,9.200000000000000000e+01,1.700000000000000000e+02,1.450000000000000000e+02,1.360000000000000000e+02,1.160000000000000000e+02,2.730000000000000000e+02,1.430000000000000000e+02,4.299999999999999933e-01,9.816486400000000000e+09
1.020000000000000000e+02,9.800000000000000000e+01,1.440000000000000000e+02,1.210000000000000000e+02,1.460000000000000000e+02,1.050000000000000000e+02,2.610000000000000000e+02,1.280000000000000000e+02,4.299999999999999933e-01,9.836007800000000000e+09
9.900000000000000000e+01,8.700000000000000000e+01,1.510000000000000000e+02,1.290000000000000000e+02,1.740000000000000000e+02,1.350000000000000000e+02,2.320000000000000000e+02,1.100000000000000000e+02,4.299999999999999933e-01,9.855552600000000000e+09
8.900000000000000000e+01,8.500000000000000000e+01,1.590000000000000000e+02,1.480000000000000000e+02,1.680000000000000000e+02,1.400000000000000000e+02,2.650000000000000000e+02,1.090000000000000000e+02,4.299999999999999933e-01,9.873804400000000000e+09
8.400000000000000000e+01,8.900000000000000000e+01,1.650000000000000000e+02,1.520000000000000000e+02,1.520000000000000000e+02,1.340000000000000000e+02,2.510000000000000000e+02,1.010000000000000000e+02,4.400000000000000022e-01,9.892330600000000000e+09
7.700000000000000000e+01,7.200000000000000000e+01,1.380000000000000000e+02,1.390000000000000000e+02,1.510000000000000000e+02,1.350000000000000000e+02,2.780000000000000000e+02,1.000000000000000000e+02,4.400000000000000022e-01,9.912154400000000000e+09
7.800000000000000000e+01,6.600000000000000000e+01,1.490000000000000000e+02,1.400000000000000000e+02,1.360000000000000000e+02,1.310000000000000000e+02,2.670000000000000000e+02,8.400000000000000000e+01,4.400000000000000022e-01,9.932902600000000000e+09
6.100000000000000000e+01,7.000000000000000000e+01,1.330000000000000000e+02,1.250000000000000000e+02,1.020000000000000000e+02,9.400000000000000000e+01,2.250000000000000000e+02,7.800000000000000000e+01,4.500000000000000111e-01,9.951495400000000000e+09
6.400000000000000000e+01,7.800000000000000000e+01,1.070000000000000000e+02,1.020000000000000000e+02,8.600000000000000000e+01,8.500000000000000000e+01,1.700000000000000000e+02,6.800000000000000000e+01,4.600000000000000200e-01,9.972230900000000000e+09
6.600000000000000000e+01,8.400000000000000000e+01,1.150000000000000000e+02,1.050000000000000000e+02,1.080000000000000000e+02,9.600000000000000000e+01,1.570000000000000000e+02,7.000000000000000000e+01,4.600000000000000200e-01,9.992305300000000000e+09
6.700000000000000000e+01,9.200000000000000000e+01,1.130000000000000000e+02,9.600000000000000000e+01,1.070000000000000000e+02,9.000000000000000000e+01,1.300000000000000000e+02,6.800000000000000000e+01,4.600000000000000200e-01,1.001137310000000000e+10
7.500000000000000000e+01,9.600000000000000000e+01,1.100000000000000000e+02,1.010000000000000000e+02,9.800000000000000000e+01,8.000000000000000000e+01,1.380000000000000000e+02,6.700000000000000000e+01,4.699999999999999734e-01,1.003301350000000000e+10
8.500000000000000000e+01,9.400000000000000000e+01,1.100000000000000000e+02,9.800000000000000000e+01,8.800000000000000000e+01,7.700000000000000000e+01,1.400000000000000000e+02,7.000000000000000000e+01,4.699999999999999734e-01,1.005227620000000000e+10
8.300000000000000000e+01,8.900000000000000000e+01,1.160000000000000000e+02,9.300000000000000000e+01,8.700000000000000000e+01,7.400000000000000000e+01,1.410000000000000000e+02,7.100000000000000000e+01,4.699999999999999734e-01,1.007163990000000000e+10
8.200000000000000000e+01,9.400000000000000000e+01,1.060000000000000000e+02,8.300000000000000000e+01,7.000000000000000000e+01,5.900000000000000000e+01,1.450000000000000000e+02,9.000000000000000000e+01,4.799999999999999822e-01,1.009025650000000000e+10
8.400000000000000000e+01,9.500000000000000000e+01,1.190000000000000000e+02,9.700000000000000000e+01,7.000000000000000000e+01,6.100000000000000000e+01,1.270000000000000000e+02,9.500000000000000000e+01,4.799999999999999822e-01,1.011043830000000000e+10
7.600000000000000000e+01,9.000000000000000000e+01,1.070000000000000000e+02,8.800000000000000000e+01,7.800000000000000000e+01,5.900000000000000000e+01,1.230000000000000000e+02,9.800000000000000000e+01,4.799999999999999822e-01,1.013281090000000000e+10
6.700000000000000000e+01,9.500000000000000000e+01,1.060000000000000000e+02,8.500000000000000000e+01,8.400000000000000000e+01,5.800000000000000000e+01,1.290000000000000000e+02,9.800000000000000000e+01,4.799999999999999822e-01,1.015174250000000000e+10
6.100000000000000000e+01,9.400000000000000000e+01,1.060000000000000000e+02,9.200000000000000000e+01,9.200000000000000000e+01,5.700000000000000000e+01,1.260000000000000000e+02,1.130000000000000000e+02,4.799999999999999822e-01,1.017070070000000000e+10
6.200000000000000000e+01,8.600000000000000000e+01,1.350000000000000000e+02,1.010000000000000000e+02,7.900000000000000000e+01,5.200000000000000000e+01,1.240000000000000000e+02,9.700000000000000000e+01,4.799999999999999822e-01,1.019009990000000000e+10
6.100000000000000000e+01,8.100000000000000000e+01,1.320000000000000000e+02,9.200000000000000000e+01,7.800000000000000000e+01,5.500000000000000000e+01,1.210000000000000000e+02,7.900000000000000000e+01,4.799999999999999822e-01,1.021049850000000000e+10
6.600000000000000000e+01,8.500000000000000000e+01,1.390000000000000000e+02,9.600000000000000000e+01,7.300000000000000000e+01,6.500000000000000000e+01,1.600000000000000000e+02,8.200000000000000000e+01,4.799999999999999822e-01,1.023266250000000000e+10
7.200000000000000000e+01,8.700000000000000000e+01,1.530000000000000000e+02,1.020000000000000000e+02,8.300000000000000000e+01,6.800000000000000000e+01,1.580000000000000000e+02,1.150000000000000000e+02,4.799999999999999822e-01,1.025166280000000000e+10
8.100000000000000000e+01,1.050000000000000000e+02,1.660000000000000000e+02,1.040000000000000000e+02,8.900000000000000000e+01,7.900000000000000000e+01,1.900000000000000000e+02,1.300000000000000000e+02,4.799999999999999822e-01,1.027122830000000000e+10
9.000000000000000000e+01,1.030000000000000000e+02,1.430000000000000000e+02,9.300000000000000000e+01,9.000000000000000000e+01,1.260000000000000000e+02,2.720000000000000000e+02,1.430000000000000000e+02,4.899999999999999911e-01,1.029122150000000000e+10
8.900000000000000000e+01,1.080000000000000000e+02,1.320000000000000000e+02,8.500000000000000000e+01,9.000000000000000000e+01,1.280000000000000000e+02,2.820000000000000000e+02,1.570000000000000000e+02,4.899999999999999911e-01,1.031119740000000000e+10
8.500000000000000000e+01,1.170000000000000000e+02,1.290000000000000000e+02,7.800000000000000000e+01,8.800000000000000000e+01,1.220000000000000000e+02,2.580000000000000000e+02,1.560000000000000000e+02,4.899999999999999911e-01,1.033395620000000000e+10
7.800000000000000000e+01,1.080000000000000000e+02,1.250000000000000000e+02,7.400000000000000000e+01,8.300000000000000000e+01,1.210000000000000000e+02,2.570000000000000000e+02,1.340000000000000000e+02,4.799999999999999822e-01,1.035329790000000000e+10
7.400000000000000000e+01,8.800000000000000000e+01,1.190000000000000000e+02,8.200000000000000000e+01,8.900000000000000000e+01,1.280000000000000000e+02,2.650000000000000000e+02,1.060000000000000000e+02,4.799999999999999822e-01,1.037352640000000000e+10
6.700000000000000000e+01,9.200000000000000000e+01,1.270000000000000000e+02,1.070000000000000000e+02,1.010000000000000000e+02,1.150000000000000000e+02,2.780000000000000000e+02,1.230000000000000000e+02,4.899999999999999911e-01,1.039473620000000000e+10
7.500000000000000000e+01,9.400000000000000000e+01,1.380000000000000000e+02,1.130000000000000000e+02,1.140000000000000000e+02,1.210000000000000000e+02,2.950000000000000000e+02,1.150000000000000000e+02,4.899999999999999911e-01,1.041418670000000000e+10
7.300000000000000000e+01,7.800000000000000000e+01,1.530000000000000000e+02,1.230000000000000000e+02,1.170000000000000000e+02,1.280000000000000000e+02,3.120000000000000000e+02,1.320000000000000000e+02,4.899999999999999911e-01,1.043421110000000000e+10
8.600000000000000000e+01,8.800000000000000000e+01,1.470000000000000000e+02,1.260000000000000000e+02,1.150000000000000000e+02,1.270000000000000000e+02,3.210000000000000000e+02,1.870000000000000000e+02,4.899999999999999911e-01,1.045425630000000000e+10
9.400000000000000000e+01,9.200000000000000000e+01,1.430000000000000000e+02,1.230000000000000000e+02,1.000000000000000000e+02,1.140000000000000000e+02,3.080000000000000000e+02,2.010000000000000000e+02,4.899999999999999911e-01,1.047370020000000000e+10
