5.300000000000000000e+01,1.330000000000000000e+02,3.840000000000000000e+02,6.400000000000000000e+01,2.700000000000000000e+01,3.000000000000000000e+01,3.300000000000000000e+01,7.200000000000000000e+01,5.200000000000000178e-01,4.657007000000000000e+08
5.300000000000000000e+01,1.530000000000000000e+02,3.420000000000000000e+02,5.700000000000000000e+01,2.700000000000000000e+01,2.800000000000000000e+01,3.500000000000000000e+01,7.800000000000000000e+01,5.200000000000000178e-01,4.954638000000000000e+08
4.800000000000000000e+01,1.510000000000000000e+02,3.050000000000000000e+02,5.100000000000000000e+01,2.600000000000000000e+01,2.800000000000000000e+01,3.600000000000000000e+01,7.500000000000000000e+01,5.200000000000000178e-01,1.282354000000000000e+09
5.300000000000000000e+01,1.580000000000000000e+02,3.120000000000000000e+02,5.100000000000000000e+01,2.600000000000000000e+01,2.400000000000000000e+01,3.800000000000000000e+01,7.600000000000000000e+01,5.200000000000000178e-01,1.301386200000000000e+09
5.200000000000000000e+01,1.610000000000000000e+02,2.910000000000000000e+02,5.700000000000000000e+01,2.600000000000000000e+01,2.700000000000000000e+01,3.600000000000000000e+01,6.800000000000000000e+01,5.200000000000000178e-01,1.322078600000000000e+09
5.000000000000000000e+01,1.450000000000000000e+02,3.220000000000000000e+02,5.800000000000000000e+01,2.900000000000000000e+01,2.800000000000000000e+01,3.600000000000000000e+01,7.200000000000000000e+01,5.200000000000000178e-01,1.343306200000000000e+09
5.200000000000000000e+01,1.330000000000000000e+02,3.260000000000000000e+02,5.700000000000000000e+01,2.900000000000000000e+01,3.100000000000000000e+01,3.700000000000000000e+01,8.700000000000000000e+01,5.200000000000000178e-01,1.362966100000000000e+09
5.300000000000000000e+01,1.320000000000000000e+02,3.810000000000000000e+02,6.600000000000000000e+01,3.000000000000000000e+01,3.200000000000000000e+01,4.100000000000000000e+01,8.900000000000000000e+01,5.200000000000000178e-01,1.382458400000000000e+09
4.000000000000000000e+01,1.230000000000000000e+02,4.090000000000000000e+02,7.000000000000000000e+01,3.000000000000000000e+01,3.200000000000000000e+01,3.700000000000000000e+01,8.700000000000000000e+01,5.200000000000000178e-01,1.403759800000000000e+09
4.000000000000000000e+01,1.190000000000000000e+02,4.210000000000000000e+02,6.400000000000000000e+01,2.800000000000000000e+01,3.000000000000000000e+01,3.800000000000000000e+01,8.600000000000000000e+01,5.200000000000000178e-01,1.421904200000000000e+09
5.100000000000000000e+01,1.270000000000000000e+02,4.270000000000000000e+02,6.800000000000000000e+01,2.700000000000000000e+01,2.700000000000000000e+01,3.700000000000000000e+01,8.000000000000000000e+01,5.200000000000000178e-01,1.440877700000000000e+09
5.500000000000000000e+01,1.160000000000000000e+02,4.720000000000000000e+02,6.800000000000000000e+01,3.000000000000000000e+01,2.400000000000000000e+01,4.300000000000000000e+01,7.500000000000000000e+01,5.200000000000000178e-01,1.459572600000000000e+09
5.600000000000000000e+01,1.310000000000000000e+02,4.400000000000000000e+02,6.000000000000000000e+01,2.900000000000000000e+01,2.200000000000000000e+01,4.100000000000000000e+01,8.000000000000000000e+01,5.200000000000000178e-01,1.477585700000000000e+09
6.600000000000000000e+01,1.340000000000000000e+02,4.140000000000000000e+02,5.500000000000000000e+01,2.900000000000000000e+01,2.300000000000000000e+01,4.100000000000000000e+01,8.600000000000000000e+01,5.200000000000000178e-01,1.495495600000000000e+09
7.600000000000000000e+01,1.440000000000000000e+02,4.060000000000000000e+02,5.800000000000000000e+01,3.100000000000000000e+01,2.300000000000000000e+01,4.100000000000000000e+01,8.700000000000000000e+01,5.200000000000000178e-01,1.514585000000000000e+09
7.000000000000000000e+01,1.370000000000000000e+02,3.730000000000000000e+02,5.000000000000000000e+01,2.700000000000000000e+01,2.700000000000000000e+01,4.000000000000000000e+01,8.600000000000000000e+01,5.300000000000000266e-01,1.533664600000000000e+09
6.500000000000000000e+01,1.260000000000000000e+02,3.080000000000000000e+02,4.800000000000000000e+01,2.300000000000000000e+01,2.800000000000000000e+01,3.100000000000000000e+01,7.200000000000000000e+01,5.300000000000000266e-01,1.551923300000000000e+09
7.100000000000000000e+01,1.280000000000000000e+02,2.940000000000000000e+02,5.200000000000000000e+01,2.800000000000000000e+01,2.900000000000000000e+01,2.800000000000000000e+01,7.200000000000000000e+01,5.300000000000000266e-01,1.570872000000000000e+09
6.200000000000000000e+01,1.230000000000000000e+02,2.760000000000000000e+02,5.000000000000000000e+01,2.600000000000000000e+01,3.000000000000000000e+01,3.300000000000000000e+01,6.600000000000000000e+01,5.300000000000000266e-01,1.622756100000000000e+09
5.100000000000000000e+01,1.110000000000000000e+02,2.750000000000000000e+02,5.300000000000000000e+01,2.600000000000000000e+01,3.200000000000000000e+01,3.100000000000000000e+01,7.300000000000000000e+01,5.300000000000000266e-01,1.641547400000000000e+09
5.300000000000000000e+01,1.000000000000000000e+02,2.270000000000000000e+02,5.100000000000000000e+01,3.000000000000000000e+01,3.100000000000000000e+01,3.000000000000000000e+01,6.900000000000000000e+01,5.200000000000000178e-01,1.660879200000000000e+09
6.400000000000000000e+01,1.070000000000000000e+02,3.070000000000000000e+02,6.000000000000000000e+01,3.100000000000000000e+01,3.300000000000000000e+01,3.700000000000000000e+01,6.500000000000000000e+01,5.200000000000000178e-01,1.680606400000000000e+09
6.000000000000000000e+01,8.300000000000000000e+01,3.370000000000000000e+02,5.600000000000000000e+01,2.900000000000000000e+01,3.300000000000000000e+01,4.100000000000000000e+01,5.700000000000000000e+01,5.200000000000000178e-01,1.699293500000000000e+09
6.200000000000000000e+01,9.100000000000000000e+01,3.390000000000000000e+02,5.700000000000000000e+01,2.900000000000000000e+01,2.900000000000000000e+01,3.900000000000000000e+01,5.500000000000000000e+01,5.200000000000000178e-01,1.718661700000000000e+09
6.600000000000000000e+01,9.300000000000000000e+01,4.100000000000000000e+02,6.800000000000000000e+01,3.000000000000000000e+01,3.100000000000000000e+01,4.300000000000000000e+01,5.000000000000000000e+01,5.200000000000000178e-01,1.738362800000000000e+09
6.600000000000000000e+01,9.300000000000000000e+01,4.110000000000000000e+02,6.700000000000000000e+01,2.600000000000000000e+01,3.000000000000000000e+01,4.400000000000000000e+01,6.200000000000000000e+01,5.200000000000000178e-01,1.758746600000000000e+09
5.500000000000000000e+01,8.500000000000000000e+01,3.460000000000000000e+02,6.300000000000000000e+01,2.500000000000000000e+01,2.800000000000000000e+01,4.200000000000000000e+01,6.900000000000000000e+01,5.200000000000000178e-01,1.780096100000000000e+09
5.500000000000000000e+01,8.500000000000000000e+01,3.310000000000000000e+02,8.400000000000000000e+01,2.700000000000000000e+01,3.100000000000000000e+01,3.800000000000000000e+01,7.100000000000000000e+01,5.200000000000000178e-01,1.800079700000000000e+09
6.300000000000000000e+01,9.400000000000000000e+01,3.400000000000000000e+02,8.500000000000000000e+01,2.600000000000000000e+01,3.200000000000000000e+01,3.800000000000000000e+01,7.700000000000000000e+01,5.200000000000000178e-01,1.819742700000000000e+09
6.600000000000000000e+01,9.700000000000000000e+01,2.040000000000000000e+02,7.100000000000000000e+01,2.400000000000000000e+01,3.100000000000000000e+01,3.500000000000000000e+01,7.300000000000000000e+01,5.300000000000000266e-01,1.839205500000000000e+09
6.700000000000000000e+01,9.700000000000000000e+01,2.170000000000000000e+02,7.300000000000000000e+01,2.500000000000000000e+01,3.100000000000000000e+01,3.800000000000000000e+01,8.700000000000000000e+01,5.300000000000000266e-01,1.857988500000000000e+09
6.900000000000000000e+01,9.800000000000000000e+01,2.440000000000000000e+02,7.500000000000000000e+01,2.800000000000000000e+01,3.300000000000000000e+01,3.800000000000000000e+01,9.000000000000000000e+01,5.300000000000000266e-01,1.876709500000000000e+09
7.200000000000000000e+01,9.400000000000000000e+01,2.440000000000000000e+02,5.800000000000000000e+01,2.600000000000000000e+01,3.000000000000000000e+01,3.700000000000000000e+01,9.000000000000000000e+01,5.300000000000000266e-01,1.896293300000000000e+09
6.800000000000000000e+01,9.900000000000000000e+01,2.970000000000000000e+02,6.400000000000000000e+01,3.000000000000000000e+01,3.100000000000000000e+01,3.400000000000000000e+01,8.700000000000000000e+01,5.300000000000000266e-01,1.916263400000000000e+09
5.900000000000000000e+01,9.500000000000000000e+01,3.140000000000000000e+02,6.500000000000000000e+01,2.900000000000000000e+01,3.100000000000000000e+01,3.500000000000000000e+01,9.200000000000000000e+01,5.300000000000000266e-01,1.935033300000000000e+09
5.300000000000000000e+01,1.050000000000000000e+02,3.040000000000000000e+02,6.700000000000000000e+01,3.000000000000000000e+01,2.900000000000000000e+01,3.500000000000000000e+01,8.500000000000000000e+01,5.300000000000000266e-01,1.956290400000000000e+09
5.100000000000000000e+01,1.030000000000000000e+02,3.230000000000000000e+02,6.900000000000000000e+01,2.700000000000000000e+01,2.900000000000000000e+01,3.100000000000000000e+01,7.600000000000000000e+01,5.300000000000000266e-01,1.975902400000000000e+09
4.300000000000000000e+01,1.050000000000000000e+02,3.040000000000000000e+02,6.500000000000000000e+01,2.800000000000000000e+01,3.000000000000000000e+01,3.100000000000000000e+01,8.000000000000000000e+01,5.200000000000000178e-01,1.993829900000000000e+09
4.800000000000000000e+01,9.500000000000000000e+01,2.600000000000000000e+02,5.700000000000000000e+01,2.500000000000000000e+01,2.800000000000000000e+01,3.100000000000000000e+01,9.000000000000000000e+01,5.200000000000000178e-01,2.012121900000000000e+09
5.500000000000000000e+01,9.400000000000000000e+01,2.450000000000000000e+02,6.300000000000000000e+01,2.700000000000000000e+01,2.600000000000000000e+01,3.300000000000000000e+01,9.100000000000000000e+01,5.200000000000000178e-01,2.029965600000000000e+09
5.800000000000000000e+01,8.300000000000000000e+01,2.610000000000000000e+02,6.600000000000000000e+01,3.300000000000000000e+01,2.800000000000000000e+01,3.300000000000000000e+01,7.400000000000000000e+01,5.200000000000000178e-01,2.047845000000000000e+09
6.200000000000000000e+01,9.000000000000000000e+01,2.160000000000000000e+02,6.100000000000000000e+01,3.300000000000000000e+01,2.900000000000000000e+01,3.300000000000000000e+01,7.300000000000000000e+01,5.100000000000000089e-01,2.066414100000000000e+09
6.800000000000000000e+01,9.800000000000000000e+01,2.210000000000000000e+02,6.000000000000000000e+01,3.400000000000000000e+01,3.000000000000000000e+01,3.500000000000000000e+01,7.700000000000000000e+01,5.100000000000000089e-01,2.084321800000000000e+09
5.800000000000000000e+01,8.900000000000000000e+01,2.430000000000000000e+02,7.000000000000000000e+01,3.500000000000000000e+01,3.000000000000000000e+01,3.800000000000000000e+01,8.400000000000000000e+01,5.100000000000000089e-01,2.103042900000000000e+09
5.800000000000000000e+01,8.700000000000000000e+01,2.490000000000000000e+02,6.700000000000000000e+01,3.500000000000000000e+01,3.100000000000000000e+01,3.700000000000000000e+01,8.300000000000000000e+01,5.100000000000000089e-01,2.119850800000000000e+09
5.800000000000000000e+01,9.700000000000000000e+01,2.750000000000000000e+02,6.700000000000000000e+01,3.200000000000000000e+01,2.700000000000000000e+01,4.200000000000000000e+01,1.010000000000000000e+02,5.100000000000000089e-01,2.136982100000000000e+09
6.000000000000000000e+01,9.200000000000000000e+01,3.410000000000000000e+02,6.800000000000000000e+01,3.200000000000000000e+01,2.700000000000000000e+01,4.200000000000000000e+01,1.000000000000000000e+02,5.100000000000000089e-01,2.153913300000000000e+09
5.700000000000000000e+01,8.100000000000000000e+01,3.370000000000000000e+02,6.900000000000000000e+01,3.100000000000000000e+01,2.600000000000000000e+01,4.800000000000000000e+01,1.200000000000000000e+02,5.100000000000000089e-01,2.171478200000000000e+09
6.300000000000000000e+01,8.200000000000000000e+01,3.410000000000000000e+02,6.500000000000000000e+01,3.000000000000000000e+01,2.700000000000000000e+01,4.600000000000000000e+01,1.160000000000000000e+02,5.100000000000000089e-01,2.188015200000000000e+09
6.200000000000000000e+01,8.300000000000000000e+01,3.720000000000000000e+02,6.300000000000000000e+01,3.000000000000000000e+01,2.600000000000000000e+01,4.500000000000000000e+01,1.170000000000000000e+02,5.100000000000000089e-01,2.204822300000000000e+09
6.000000000000000000e+01,8.000000000000000000e+01,3.680000000000000000e+02,6.200000000000000000e+01,2.800000000000000000e+01,3.000000000000000000e+01,3.800000000000000000e+01,1.030000000000000000e+02,5.100000000000000089e-01,2.222085300000000000e+09
5.300000000000000000e+01,8.000000000000000000e+01,3.220000000000000000e+02,5.900000000000000000e+01,2.900000000000000000e+01,2.900000000000000000e+01,3.900000000000000000e+01,1.100000000000000000e+02,5.000000000000000000e-01,2.240703900000000000e+09
5.400000000000000000e+01,8.500000000000000000e+01,3.360000000000000000e+02,5.900000000000000000e+01,3.000000000000000000e+01,2.900000000000000000e+01,3.200000000000000000e+01,9.000000000000000000e+01,5.000000000000000000e-01,2.260641500000000000e+09
4.700000000000000000e+01,8.600000000000000000e+01,2.990000000000000000e+02,5.200000000000000000e+01,2.800000000000000000e+01,2.800000000000000000e+01,2.900000000000000000e+01,8.200000000000000000e+01,5.000000000000000000e-01,2.284433700000000000e+09
5.300000000000000000e+01,1.000000000000000000e+02,3.600000000000000000e+02,5.900000000000000000e+01,2.700000000000000000e+01,2.800000000000000000e+01,3.100000000000000000e+01,8.100000000000000000e+01,5.000000000000000000e-01,2.301778600000000000e+09
6.100000000000000000e+01,9.100000000000000000e+01,3.400000000000000000e+02,5.200000000000000000e+01,2.600000000000000000e+01,2.500000000000000000e+01,2.800000000000000000e+01,8.200000000000000000e+01,5.000000000000000000e-01,2.325402700000000000e+09
6.600000000000000000e+01,9.500000000000000000e+01,3.480000000000000000e+02,5.500000000000000000e+01,2.800000000000000000e+01,2.600000000000000000e+01,4.000000000000000000e+01,8.700000000000000000e+01,5.000000000000000000e-01,2.342779500000000000e+09
6.300000000000000000e+01,1.070000000000000000e+02,3.870000000000000000e+02,7.000000000000000000e+01,2.800000000000000000e+01,2.700000000000000000e+01,4.100000000000000000e+01,8.300000000000000000e+01,5.100000000000000089e-01,2.359369200000000000e+09
7.100000000000000000e+01,1.240000000000000000e+02,4.180000000000000000e+02,7.200000000000000000e+01,3.100000000000000000e+01,2.700000000000000000e+01,4.400000000000000000e+01,8.600000000000000000e+01,5.100000000000000089e-01,2.377065600000000000e+09
7.100000000000000000e+01,1.230000000000000000e+02,3.510000000000000000e+02,6.800000000000000000e+01,3.100000000000000000e+01,2.900000000000000000e+01,4.400000000000000000e+01,8.500000000000000000e+01,5.100000000000000089e-01,2.394325700000000000e+09
6.700000000000000000e+01,1.290000000000000000e+02,3.730000000000000000e+02,7.600000000000000000e+01,3.300000000000000000e+01,2.900000000000000000e+01,4.500000000000000000e+01,9.100000000000000000e+01,5.100000000000000089e-01,2.411960600000000000e+09
6.300000000000000000e+01,1.300000000000000000e+02,4.060000000000000000e+02,8.100000000000000000e+01,3.000000000000000000e+01,3.500000000000000000e+01,3.400000000000000000e+01,7.900000000000000000e+01,5.200000000000000178e-01,2.429864900000000000e+09
7.500000000000000000e+01,1.170000000000000000e+02,4.260000000000000000e+02,7.300000000000000000e+01,3.200000000000000000e+01,3.500000000000000000e+01,3.100000000000000000e+01,7.900000000000000000e+01,5.200000000000000178e-01,2.448024500000000000e+09
7.100000000000000000e+01,1.030000000000000000e+02,4.060000000000000000e+02,7.700000000000000000e+01,3.100000000000000000e+01,3.600000000000000000e+01,3.100000000000000000e+01,6.900000000000000000e+01,5.300000000000000266e-01,2.465428300000000000e+09
6.400000000000000000e+01,9.400000000000000000e+01,3.940000000000000000e+02,7.500000000000000000e+01,3.100000000000000000e+01,3.600000000000000000e+01,2.900000000000000000e+01,6.600000000000000000e+01,5.300000000000000266e-01,2.482652100000000000e+09
6.500000000000000000e+01,9.700000000000000000e+01,3.780000000000000000e+02,7.400000000000000000e+01,3.400000000000000000e+01,3.600000000000000000e+01,3.100000000000000000e+01,7.600000000000000000e+01,5.400000000000000355e-01,2.501271600000000000e+09
7.000000000000000000e+01,1.030000000000000000e+02,3.330000000000000000e+02,6.700000000000000000e+01,3.600000000000000000e+01,2.900000000000000000e+01,3.200000000000000000e+01,7.900000000000000000e+01,5.400000000000000355e-01,2.519960600000000000e+09
6.300000000000000000e+01,1.180000000000000000e+02,2.670000000000000000e+02,6.600000000000000000e+01,3.500000000000000000e+01,2.900000000000000000e+01,3.600000000000000000e+01,7.700000000000000000e+01,5.400000000000000355e-01,2.537546000000000000e+09
5.900000000000000000e+01,1.240000000000000000e+02,3.020000000000000000e+02,6.500000000000000000e+01,3.500000000000000000e+01,2.900000000000000000e+01,3.300000000000000000e+01,8.300000000000000000e+01,5.400000000000000355e-01,2.554533600000000000e+09
6.100000000000000000e+01,1.250000000000000000e+02,3.080000000000000000e+02,6.700000000000000000e+01,3.500000000000000000e+01,3.000000000000000000e+01,3.300000000000000000e+01,8.600000000000000000e+01,5.400000000000000355e-01,2.572253900000000000e+09
7.100000000000000000e+01,1.280000000000000000e+02,3.240000000000000000e+02,6.600000000000000000e+01,3.200000000000000000e+01,2.900000000000000000e+01,3.100000000000000000e+01,6.900000000000000000e+01,5.400000000000000355e-01,2.589769200000000000e+09
7.700000000000000000e+01,1.170000000000000000e+02,3.370000000000000000e+02,6.600000000000000000e+01,2.900000000000000000e+01,3.000000000000000000e+01,3.100000000000000000e+01,7.000000000000000000e+01,5.400000000000000355e-01,2.606654000000000000e+09
7.600000000000000000e+01,1.120000000000000000e+02,3.170000000000000000e+02,6.400000000000000000e+01,2.900000000000000000e+01,3.200000000000000000e+01,3.100000000000000000e+01,6.600000000000000000e+01,5.400000000000000355e-01,2.624256400000000000e+09
7.800000000000000000e+01,1.080000000000000000e+02,3.120000000000000000e+02,6.300000000000000000e+01,3.000000000000000000e+01,3.100000000000000000e+01,3.500000000000000000e+01,6.600000000000000000e+01,5.300000000000000266e-01,2.642335400000000000e+09
7.500000000000000000e+01,1.070000000000000000e+02,3.130000000000000000e+02,6.700000000000000000e+01,2.800000000000000000e+01,3.200000000000000000e+01,3.500000000000000000e+01,8.400000000000000000e+01,5.300000000000000266e-01,2.660399900000000000e+09
7.000000000000000000e+01,1.110000000000000000e+02,3.310000000000000000e+02,6.100000000000000000e+01,2.900000000000000000e+01,3.400000000000000000e+01,3.300000000000000000e+01,8.700000000000000000e+01,5.300000000000000266e-01,2.677615700000000000e+09
5.500000000000000000e+01,1.140000000000000000e+02,3.270000000000000000e+02,6.100000000000000000e+01,3.000000000000000000e+01,3.400000000000000000e+01,3.600000000000000000e+01,8.100000000000000000e+01,5.200000000000000178e-01,2.694045200000000000e+09
5.400000000000000000e+01,1.060000000000000000e+02,3.500000000000000000e+02,5.800000000000000000e+01,2.900000000000000000e+01,3.300000000000000000e+01,3.600000000000000000e+01,9.300000000000000000e+01,5.200000000000000178e-01,2.710979100000000000e+09
8.600000000000000000e+01,1.110000000000000000e+02,3.370000000000000000e+02,5.400000000000000000e+01,3.000000000000000000e+01,3.600000000000000000e+01,3.500000000000000000e+01,9.100000000000000000e+01,5.200000000000000178e-01,2.729070800000000000e+09
9.300000000000000000e+01,1.180000000000000000e+02,3.540000000000000000e+02,4.700000000000000000e+01,3.000000000000000000e+01,3.200000000000000000e+01,3.900000000000000000e+01,6.900000000000000000e+01,5.200000000000000178e-01,2.746530500000000000e+09
8.500000000000000000e+01,1.020000000000000000e+02,3.580000000000000000e+02,5.000000000000000000e+01,2.900000000000000000e+01,2.900000000000000000e+01,3.900000000000000000e+01,7.200000000000000000e+01,5.200000000000000178e-01,2.764494900000000000e+09
9.200000000000000000e+01,1.000000000000000000e+02,3.520000000000000000e+02,4.900000000000000000e+01,2.900000000000000000e+01,2.900000000000000000e+01,3.800000000000000000e+01,9.500000000000000000e+01,5.200000000000000178e-01,2.781600600000000000e+09
9.000000000000000000e+01,9.500000000000000000e+01,3.470000000000000000e+02,5.400000000000000000e+01,2.800000000000000000e+01,2.800000000000000000e+01,3.500000000000000000e+01,9.000000000000000000e+01,5.200000000000000178e-01,2.798787400000000000e+09
6.400000000000000000e+01,8.900000000000000000e+01,3.510000000000000000e+02,5.100000000000000000e+01,2.500000000000000000e+01,2.700000000000000000e+01,3.700000000000000000e+01,8.900000000000000000e+01,5.200000000000000178e-01,2.815854800000000000e+09
5.500000000000000000e+01,8.600000000000000000e+01,3.800000000000000000e+02,4.800000000000000000e+01,2.600000000000000000e+01,2.700000000000000000e+01,3.100000000000000000e+01,9.300000000000000000e+01,5.200000000000000178e-01,2.833476700000000000e+09
5.800000000000000000e+01,8.800000000000000000e+01,3.700000000000000000e+02,5.200000000000000000e+01,2.500000000000000000e+01,2.700000000000000000e+01,3.000000000000000000e+01,9.900000000000000000e+01,5.200000000000000178e-01,2.851119900000000000e+09
4.800000000000000000e+01,8.700000000000000000e+01,3.670000000000000000e+02,5.200000000000000000e+01,2.400000000000000000e+01,2.500000000000000000e+01,3.300000000000000000e+01,8.300000000000000000e+01,5.200000000000000178e-01,2.868284900000000000e+09
5.000000000000000000e+01,9.800000000000000000e+01,3.500000000000000000e+02,4.800000000000000000e+01,2.400000000000000000e+01,2.900000000000000000e+01,3.500000000000000000e+01,7.900000000000000000e+01,5.200000000000000178e-01,2.885805900000000000e+09
4.100000000000000000e+01,9.200000000000000000e+01,3.670000000000000000e+02,5.000000000000000000e+01,2.500000000000000000e+01,2.600000000000000000e+01,3.100000000000000000e+01,7.900000000000000000e+01,5.200000000000000178e-01,2.902265400000000000e+09
4.100000000000000000e+01,8.300000000000000000e+01,3.110000000000000000e+02,5.300000000000000000e+01,2.500000000000000000e+01,2.600000000000000000e+01,3.200000000000000000e+01,7.500000000000000000e+01,5.200000000000000178e-01,2.919369900000000000e+09
3.900000000000000000e+01,9.400000000000000000e+01,2.820000000000000000e+02,5.400000000000000000e+01,2.400000000000000000e+01,2.900000000000000000e+01,3.500000000000000000e+01,7.700000000000000000e+01,5.200000000000000178e-01,2.936901800000000000e+09
4.000000000000000000e+01,1.000000000000000000e+02,3.020000000000000000e+02,5.600000000000000000e+01,2.300000000000000000e+01,3.000000000000000000e+01,3.200000000000000000e+01,7.300000000000000000e+01,5.200000000000000178e-01,2.956239200000000000e+09
4.900000000000000000e+01,1.020000000000000000e+02,3.230000000000000000e+02,6.000000000000000000e+01,2.300000000000000000e+01,2.700000000000000000e+01,3.000000000000000000e+01,7.100000000000000000e+01,5.200000000000000178e-01,2.974823300000000000e+09
5.000000000000000000e+01,1.030000000000000000e+02,2.720000000000000000e+02,6.000000000000000000e+01,2.400000000000000000e+01,2.800000000000000000e+01,3.300000000000000000e+01,7.200000000000000000e+01,5.100000000000000089e-01,2.991590400000000000e+09
4.800000000000000000e+01,1.030000000000000000e+02,2.950000000000000000e+02,6.000000000000000000e+01,2.300000000000000000e+01,3.000000000000000000e+01,3.800000000000000000e+01,7.900000000000000000e+01,5.100000000000000089e-01,3.008414600000000000e+09
5.000000000000000000e+01,9.200000000000000000e+01,3.140000000000000000e+02,6.500000000000000000e+01,2.400000000000000000e+01,2.700000000000000000e+01,4.200000000000000000e+01,6.200000000000000000e+01,5.100000000000000089e-01,3.026269900000000000e+09
5.100000000000000000e+01,9.000000000000000000e+01,3.120000000000000000e+02,6.500000000000000000e+01,2.400000000000000000e+01,2.800000000000000000e+01,4.000000000000000000e+01,7.300000000000000000e+01,5.100000000000000089e-01,3.043779200000000000e+09
4.700000000000000000e+01,8.600000000000000000e+01,2.960000000000000000e+02,6.000000000000000000e+01,2.500000000000000000e+01,2.900000000000000000e+01,4.000000000000000000e+01,7.900000000000000000e+01,5.100000000000000089e-01,3.061796600000000000e+09
4.600000000000000000e+01,7.800000000000000000e+01,3.260000000000000000e+02,6.700000000000000000e+01,2.700000000000000000e+01,2.800000000000000000e+01,3.900000000000000000e+01,8.300000000000000000e+01,5.100000000000000089e-01,3.079693900000000000e+09
4.900000000000000000e+01,7.700000000000000000e+01,3.080000000000000000e+02,6.500000000000000000e+01,2.800000000000000000e+01,2.900000000000000000e+01,3.700000000000000000e+01,8.500000000000000000e+01,5.100000000000000089e-01,3.097211100000000000e+09
5.000000000000000000e+01,7.300000000000000000e+01,2.780000000000000000e+02,5.300000000000000000e+01,2.900000000000000000e+01,3.000000000000000000e+01,3.200000000000000000e+01,8.900000000000000000e+01,5.000000000000000000e-01,3.114772700000000000e+09
4.900000000000000000e+01,8.600000000000000000e+01,3.040000000000000000e+02,5.700000000000000000e+01,3.000000000000000000e+01,3.000000000000000000e+01,3.200000000000000000e+01,7.600000000000000000e+01,5.000000000000000000e-01,3.133552400000000000e+09
4.500000000000000000e+01,8.300000000000000000e+01,2.970000000000000000e+02,5.800000000000000000e+01,2.900000000000000000e+01,3.100000000000000000e+01,3.400000000000000000e+01,7.100000000000000000e+01,5.000000000000000000e-01,3.151012800000000000e+09
5.200000000000000000e+01,9.500000000000000000e+01,3.380000000000000000e+02,5.300000000000000000e+01,2.800000000000000000e+01,2.900000000000000000e+01,3.300000000000000000e+01,7.000000000000000000e+01,5.000000000000000000e-01,3.168393100000000000e+09
5.300000000000000000e+01,1.050000000000000000e+02,4.060000000000000000e+02,6.700000000000000000e+01,2.900000000000000000e+01,2.800000000000000000e+01,3.100000000000000000e+01,6.000000000000000000e+01,5.000000000000000000e-01,3.186972900000000000e+09
4.700000000000000000e+01,1.050000000000000000e+02,4.090000000000000000e+02,7.200000000000000000e+01,2.600000000000000000e+01,2.800000000000000000e+01,3.100000000000000000e+01,5.900000000000000000e+01,5.000000000000000000e-01,3.204246500000000000e+09
4.900000000000000000e+01,9.500000000000000000e+01,3.830000000000000000e+02,6.900000000000000000e+01,2.800000000000000000e+01,2.800000000000000000e+01,3.300000000000000000e+01,7.500000000000000000e+01,5.000000000000000000e-01,3.221406200000000000e+09
5.000000000000000000e+01,8.800000000000000000e+01,3.970000000000000000e+02,7.400000000000000000e+01,2.900000000000000000e+01,3.300000000000000000e+01,2.900000000000000000e+01,7.200000000000000000e+01,5.100000000000000089e-01,3.238924400000000000e+09
4.300000000000000000e+01,9.100000000000000000e+01,3.500000000000000000e+02,7.200000000000000000e+01,3.000000000000000000e+01,3.400000000000000000e+01,3.000000000000000000e+01,6.900000000000000000e+01,5.100000000000000089e-01,3.256891100000000000e+09
4.100000000000000000e+01,8.400000000000000000e+01,2.600000000000000000e+02,5.900000000000000000e+01,3.000000000000000000e+01,3.300000000000000000e+01,3.000000000000000000e+01,7.300000000000000000e+01,5.100000000000000089e-01,3.274862500000000000e+09
4.500000000000000000e+01,9.100000000000000000e+01,2.770000000000000000e+02,5.300000000000000000e+01,3.200000000000000000e+01,3.400000000000000000e+01,3.100000000000000000e+01,7.000000000000000000e+01,5.100000000000000089e-01,3.292675100000000000e+09
4.300000000000000000e+01,8.600000000000000000e+01,2.800000000000000000e+02,5.000000000000000000e+01,2.800000000000000000e+01,3.400000000000000000e+01,3.300000000000000000e+01,7.800000000000000000e+01,5.100000000000000089e-01,3.310501400000000000e+09
4.000000000000000000e+01,9.100000000000000000e+01,2.680000000000000000e+02,4.800000000000000000e+01,3.000000000000000000e+01,2.700000000000000000e+01,3.400000000000000000e+01,8.600000000000000000e+01,5.100000000000000089e-01,3.328363000000000000e+09
5.000000000000000000e+01,8.000000000000000000e+01,2.690000000000000000e+02,5.000000000000000000e+01,2.700000000000000000e+01,2.900000000000000000e+01,3.300000000000000000e+01,8.700000000000000000e+01,5.100000000000000089e-01,3.346950000000000000e+09
5.400000000000000000e+01,7.400000000000000000e+01,3.020000000000000000e+02,5.000000000000000000e+01,2.700000000000000000e+01,2.900000000000000000e+01,3.300000000000000000e+01,9.000000000000000000e+01,5.100000000000000089e-01,3.364287000000000000e+09
5.300000000000000000e+01,7.100000000000000000e+01,2.840000000000000000e+02,4.900000000000000000e+01,2.700000000000000000e+01,3.000000000000000000e+01,3.400000000000000000e+01,9.200000000000000000e+01,5.100000000000000089e-01,3.381258400000000000e+09
5.200000000000000000e+01,8.200000000000000000e+01,3.030000000000000000e+02,5.400000000000000000e+01,2.800000000000000000e+01,3.100000000000000000e+01,3.500000000000000000e+01,8.700000000000000000e+01,5.100000000000000089e-01,3.398570900000000000e+09
5.500000000000000000e+01,8.400000000000000000e+01,3.160000000000000000e+02,5.000000000000000000e+01,2.400000000000000000e+01,3.400000000000000000e+01,3.400000000000000000e+01,8.200000000000000000e+01,5.000000000000000000e-01,3.417782100000000000e+09
5.100000000000000000e+01,8.100000000000000000e+01,3.010000000000000000e+02,4.500000000000000000e+01,2.500000000000000000e+01,3.200000000000000000e+01,3.400000000000000000e+01,8.400000000000000000e+01,5.000000000000000000e-01,3.435204500000000000e+09
4.700000000000000000e+01,8.000000000000000000e+01,2.630000000000000000e+02,4.500000000000000000e+01,2.300000000000000000e+01,3.200000000000000000e+01,3.500000000000000000e+01,7.900000000000000000e+01,5.000000000000000000e-01,3.453516100000000000e+09
4.800000000000000000e+01,8.300000000000000000e+01,2.960000000000000000e+02,4.500000000000000000e+01,2.500000000000000000e+01,2.900000000000000000e+01,3.100000000000000000e+01,9.000000000000000000e+01,4.899999999999999911e-01,3.471642800000000000e+09
4.700000000000000000e+01,7.900000000000000000e+01,3.440000000000000000e+02,4.700000000000000000e+01,2.400000000000000000e+01,2.700000000000000000e+01,2.600000000000000000e+01,8.000000000000000000e+01,4.899999999999999911e-01,3.489279600000000000e+09
4.700000000000000000e+01,8.300000000000000000e+01,3.340000000000000000e+02,4.900000000000000000e+01,2.300000000000000000e+01,2.200000000000000000e+01,3.000000000000000000e+01,7.800000000000000000e+01,4.899999999999999911e-01,3.506833500000000000e+09
5.300000000000000000e+01,1.250000000000000000e+02,3.980000000000000000e+02,5.400000000000000000e+01,2.800000000000000000e+01,2.700000000000000000e+01,3.500000000000000000e+01,8.700000000000000000e+01,5.000000000000000000e-01,3.523905000000000000e+09
5.800000000000000000e+01,1.320000000000000000e+02,3.950000000000000000e+02,5.800000000000000000e+01,3.000000000000000000e+01,2.900000000000000000e+01,3.500000000000000000e+01,8.800000000000000000e+01,5.000000000000000000e-01,3.541505300000000000e+09
5.500000000000000000e+01,1.300000000000000000e+02,4.260000000000000000e+02,5.800000000000000000e+01,2.900000000000000000e+01,3.100000000000000000e+01,3.800000000000000000e+01,8.700000000000000000e+01,5.000000000000000000e-01,3.560133900000000000e+09
6.300000000000000000e+01,1.380000000000000000e+02,3.940000000000000000e+02,5.900000000000000000e+01,3.100000000000000000e+01,3.000000000000000000e+01,4.000000000000000000e+01,8.900000000000000000e+01,5.000000000000000000e-01,3.577163600000000000e+09
6.100000000000000000e+01,1.330000000000000000e+02,3.960000000000000000e+02,5.600000000000000000e+01,3.200000000000000000e+01,3.200000000000000000e+01,4.000000000000000000e+01,8.900000000000000000e+01,5.000000000000000000e-01,3.594629800000000000e+09
4.900000000000000000e+01,1.090000000000000000e+02,3.410000000000000000e+02,5.100000000000000000e+01,2.900000000000000000e+01,2.500000000000000000e+01,4.200000000000000000e+01,9.200000000000000000e+01,5.000000000000000000e-01,3.611598500000000000e+09
5.100000000000000000e+01,1.250000000000000000e+02,4.350000000000000000e+02,5.800000000000000000e+01,3.000000000000000000e+01,2.400000000000000000e+01,4.000000000000000000e+01,9.100000000000000000e+01,5.100000000000000089e-01,3.628407500000000000e+09
5.700000000000000000e+01,1.220000000000000000e+02,3.950000000000000000e+02,5.700000000000000000e+01,2.800000000000000000e+01,2.200000000000000000e+01,3.800000000000000000e+01,8.400000000000000000e+01,5.100000000000000089e-01,3.645869900000000000e+09
5.600000000000000000e+01,1.180000000000000000e+02,3.920000000000000000e+02,5.200000000000000000e+01,3.000000000000000000e+01,2.400000000000000000e+01,4.000000000000000000e+01,8.200000000000000000e+01,5.100000000000000089e-01,3.664740100000000000e+09
5.500000000000000000e+01,1.190000000000000000e+02,4.280000000000000000e+02,6.000000000000000000e+01,2.900000000000000000e+01,2.200000000000000000e+01,3.800000000000000000e+01,8.300000000000000000e+01,5.100000000000000089e-01,3.681863000000000000e+09
5.800000000000000000e+01,1.090000000000000000e+02,4.340000000000000000e+02,6.300000000000000000e+01,3.000000000000000000e+01,2.300000000000000000e+01,3.200000000000000000e+01,7.400000000000000000e+01,5.200000000000000178e-01,3.698839700000000000e+09
5.900000000000000000e+01,8.400000000000000000e+01,3.590000000000000000e+02,5.900000000000000000e+01,2.800000000000000000e+01,2.400000000000000000e+01,3.800000000000000000e+01,7.000000000000000000e+01,5.200000000000000178e-01,3.715845800000000000e+09
5.600000000000000000e+01,9.000000000000000000e+01,3.480000000000000000e+02,6.600000000000000000e+01,2.900000000000000000e+01,2.400000000000000000e+01,3.600000000000000000e+01,7.100000000000000000e+01,5.200000000000000178e-01,3.732580400000000000e+09
5.400000000000000000e+01,1.000000000000000000e+02,3.680000000000000000e+02,7.200000000000000000e+01,2.400000000000000000e+01,2.700000000000000000e+01,3.400000000000000000e+01,6.800000000000000000e+01,5.200000000000000178e-01,3.751033800000000000e+09
5.400000000000000000e+01,1.130000000000000000e+02,3.260000000000000000e+02,6.700000000000000000e+01,2.400000000000000000e+01,3.000000000000000000e+01,3.600000000000000000e+01,7.500000000000000000e+01,5.200000000000000178e-01,3.768476200000000000e+09
5.800000000000000000e+01,1.130000000000000000e+02,3.360000000000000000e+02,6.400000000000000000e+01,2.300000000000000000e+01,3.000000000000000000e+01,3.500000000000000000e+01,6.300000000000000000e+01,5.200000000000000178e-01,3.786069400000000000e+09
5.100000000000000000e+01,1.190000000000000000e+02,3.400000000000000000e+02,6.100000000000000000e+01,2.200000000000000000e+01,3.000000000000000000e+01,3.200000000000000000e+01,6.300000000000000000e+01,5.200000000000000178e-01,3.803887500000000000e+09
5.300000000000000000e+01,1.280000000000000000e+02,3.630000000000000000e+02,5.500000000000000000e+01,2.200000000000000000e+01,3.000000000000000000e+01,3.200000000000000000e+01,6.400000000000000000e+01,5.200000000000000178e-01,3.821371100000000000e+09
4.900000000000000000e+01,1.190000000000000000e+02,3.170000000000000000e+02,5.300000000000000000e+01,2.500000000000000000e+01,2.500000000000000000e+01,2.900000000000000000e+01,6.300000000000000000e+01,5.200000000000000178e-01,3.838857800000000000e+09
4.900000000000000000e+01,1.140000000000000000e+02,3.240000000000000000e+02,5.400000000000000000e+01,2.500000000000000000e+01,2.300000000000000000e+01,2.900000000000000000e+01,6.300000000000000000e+01,5.200000000000000178e-01,3.856840800000000000e+09
5.000000000000000000e+01,1.180000000000000000e+02,3.220000000000000000e+02,5.500000000000000000e+01,2.700000000000000000e+01,2.300000000000000000e+01,3.200000000000000000e+01,8.100000000000000000e+01,5.200000000000000178e-01,3.873620500000000000e+09
4.800000000000000000e+01,1.090000000000000000e+02,3.250000000000000000e+02,5.800000000000000000e+01,2.600000000000000000e+01,2.100000000000000000e+01,3.200000000000000000e+01,8.200000000000000000e+01,5.200000000000000178e-01,3.890428600000000000e+09
5.000000000000000000e+01,9.500000000000000000e+01,3.630000000000000000e+02,6.600000000000000000e+01,2.600000000000000000e+01,2.400000000000000000e+01,3.200000000000000000e+01,8.100000000000000000e+01,5.200000000000000178e-01,3.908372800000000000e+09
5.200000000000000000e+01,9.400000000000000000e+01,3.640000000000000000e+02,6.200000000000000000e+01,2.400000000000000000e+01,2.500000000000000000e+01,3.200000000000000000e+01,7.900000000000000000e+01,5.200000000000000178e-01,3.926075100000000000e+09
5.100000000000000000e+01,8.400000000000000000e+01,3.590000000000000000e+02,6.100000000000000000e+01,2.600000000000000000e+01,2.500000000000000000e+01,3.400000000000000000e+01,7.100000000000000000e+01,5.200000000000000178e-01,3.943289200000000000e+09
5.400000000000000000e+01,8.900000000000000000e+01,3.590000000000000000e+02,6.000000000000000000e+01,2.500000000000000000e+01,3.100000000000000000e+01,3.600000000000000000e+01,7.400000000000000000e+01,5.200000000000000178e-01,3.961791900000000000e+09
5.500000000000000000e+01,9.200000000000000000e+01,3.450000000000000000e+02,5.700000000000000000e+01,2.600000000000000000e+01,3.200000000000000000e+01,3.400000000000000000e+01,7.400000000000000000e+01,5.200000000000000178e-01,3.979283600000000000e+09
5.300000000000000000e+01,1.030000000000000000e+02,2.880000000000000000e+02,4.900000000000000000e+01,2.900000000000000000e+01,3.100000000000000000e+01,3.500000000000000000e+01,6.800000000000000000e+01,5.200000000000000178e-01,3.996412000000000000e+09
5.400000000000000000e+01,9.900000000000000000e+01,2.790000000000000000e+02,4.700000000000000000e+01,2.800000000000000000e+01,3.100000000000000000e+01,3.900000000000000000e+01,6.800000000000000000e+01,5.200000000000000178e-01,4.012928500000000000e+09
5.900000000000000000e+01,1.000000000000000000e+02,3.250000000000000000e+02,4.900000000000000000e+01,2.800000000000000000e+01,3.300000000000000000e+01,3.400000000000000000e+01,6.800000000000000000e+01,5.200000000000000178e-01,4.030185300000000000e+09
5.000000000000000000e+01,1.020000000000000000e+02,3.140000000000000000e+02,4.900000000000000000e+01,2.700000000000000000e+01,2.700000000000000000e+01,3.200000000000000000e+01,5.100000000000000000e+01,5.200000000000000178e-01,4.047500600000000000e+09
5.400000000000000000e+01,1.050000000000000000e+02,3.200000000000000000e+02,5.000000000000000000e+01,2.800000000000000000e+01,2.800000000000000000e+01,3.300000000000000000e+01,6.300000000000000000e+01,5.200000000000000178e-01,4.064601900000000000e+09
4.800000000000000000e+01,9.000000000000000000e+01,3.030000000000000000e+02,4.800000000000000000e+01,2.500000000000000000e+01,2.800000000000000000e+01,3.400000000000000000e+01,6.800000000000000000e+01,5.100000000000000089e-01,4.082074900000000000e+09
4.300000000000000000e+01,8.600000000000000000e+01,3.020000000000000000e+02,4.900000000000000000e+01,2.400000000000000000e+01,2.800000000000000000e+01,3.600000000000000000e+01,6.700000000000000000e+01,5.100000000000000089e-01,4.100027300000000000e+09
5.700000000000000000e+01,9.400000000000000000e+01,2.770000000000000000e+02,4.900000000000000000e+01,2.500000000000000000e+01,3.000000000000000000e+01,3.700000000000000000e+01,6.800000000000000000e+01,5.100000000000000089e-01,4.118155000000000000e+09
5.600000000000000000e+01,9.400000000000000000e+01,2.760000000000000000e+02,5.200000000000000000e+01,2.400000000000000000e+01,3.000000000000000000e+01,3.500000000000000000e+01,6.700000000000000000e+01,5.100000000000000089e-01,4.135527700000000000e+09
5.200000000000000000e+01,9.100000000000000000e+01,2.770000000000000000e+02,5.100000000000000000e+01,2.500000000000000000e+01,2.800000000000000000e+01,3.500000000000000000e+01,7.400000000000000000e+01,5.100000000000000089e-01,4.153304800000000000e+09
5.200000000000000000e+01,1.010000000000000000e+02,2.790000000000000000e+02,5.000000000000000000e+01,2.600000000000000000e+01,2.600000000000000000e+01,3.500000000000000000e+01,7.200000000000000000e+01,5.100000000000000089e-01,4.170828800000000000e+09
5.900000000000000000e+01,1.040000000000000000e+02,2.840000000000000000e+02,5.000000000000000000e+01,2.800000000000000000e+01,3.000000000000000000e+01,3.000000000000000000e+01,7.400000000000000000e+01,5.000000000000000000e-01,4.188068700000000000e+09
5.000000000000000000e+01,1.030000000000000000e+02,2.910000000000000000e+02,5.800000000000000000e+01,2.900000000000000000e+01,3.200000000000000000e+01,2.800000000000000000e+01,7.500000000000000000e+01,5.000000000000000000e-01,4.206398000000000000e+09
4.800000000000000000e+01,9.800000000000000000e+01,2.870000000000000000e+02,5.600000000000000000e+01,3.000000000000000000e+01,3.200000000000000000e+01,2.800000000000000000e+01,7.300000000000000000e+01,5.000000000000000000e-01,4.224258300000000000e+09
4.900000000000000000e+01,1.000000000000000000e+02,2.780000000000000000e+02,5.900000000000000000e+01,2.800000000000000000e+01,3.100000000000000000e+01,2.900000000000000000e+01,7.400000000000000000e+01,5.000000000000000000e-01,4.242076700000000000e+09
5.600000000000000000e+01,1.140000000000000000e+02,3.490000000000000000e+02,8.200000000000000000e+01,3.000000000000000000e+01,3.600000000000000000e+01,3.200000000000000000e+01,7.500000000000000000e+01,5.000000000000000000e-01,4.260793500000000000e+09
4.900000000000000000e+01,1.130000000000000000e+02,3.420000000000000000e+02,8.200000000000000000e+01,3.100000000000000000e+01,3.500000000000000000e+01,3.300000000000000000e+01,7.300000000000000000e+01,5.100000000000000089e-01,4.279202100000000000e+09
4.700000000000000000e+01,1.030000000000000000e+02,2.980000000000000000e+02,7.600000000000000000e+01,3.000000000000000000e+01,3.000000000000000000e+01,3.500000000000000000e+01,7.100000000000000000e+01,5.100000000000000089e-01,4.296803000000000000e+09
5.300000000000000000e+01,1.040000000000000000e+02,3.550000000000000000e+02,8.000000000000000000e+01,3.200000000000000000e+01,3.000000000000000000e+01,3.700000000000000000e+01,9.800000000000000000e+01,5.100000000000000089e-01,4.314100000000000000e+09
5.500000000000000000e+01,1.080000000000000000e+02,3.720000000000000000e+02,7.900000000000000000e+01,3.300000000000000000e+01,3.200000000000000000e+01,3.600000000000000000e+01,9.600000000000000000e+01,5.200000000000000178e-01,4.331707800000000000e+09
4.800000000000000000e+01,8.800000000000000000e+01,3.090000000000000000e+02,5.600000000000000000e+01,3.000000000000000000e+01,2.700000000000000000e+01,3.700000000000000000e+01,9.400000000000000000e+01,5.200000000000000178e-01,4.349215600000000000e+09
5.100000000000000000e+01,9.500000000000000000e+01,3.700000000000000000e+02,6.300000000000000000e+01,3.000000000000000000e+01,2.400000000000000000e+01,3.500000000000000000e+01,9.600000000000000000e+01,5.200000000000000178e-01,4.367553300000000000e+09
4.900000000000000000e+01,1.010000000000000000e+02,3.810000000000000000e+02,6.500000000000000000e+01,3.100000000000000000e+01,2.500000000000000000e+01,3.800000000000000000e+01,9.800000000000000000e+01,5.200000000000000178e-01,4.385666000000000000e+09
4.900000000000000000e+01,9.200000000000000000e+01,3.380000000000000000e+02,5.700000000000000000e+01,2.800000000000000000e+01,2.400000000000000000e+01,3.600000000000000000e+01,7.700000000000000000e+01,5.200000000000000178e-01,4.403529100000000000e+09
5.000000000000000000e+01,8.400000000000000000e+01,3.210000000000000000e+02,5.700000000000000000e+01,3.000000000000000000e+01,2.500000000000000000e+01,3.600000000000000000e+01,6.400000000000000000e+01,5.200000000000000178e-01,4.426467700000000000e+09
5.500000000000000000e+01,8.300000000000000000e+01,3.450000000000000000e+02,6.400000000000000000e+01,3.200000000000000000e+01,2.400000000000000000e+01,3.700000000000000000e+01,6.700000000000000000e+01,5.200000000000000178e-01,4.446666500000000000e+09
5.400000000000000000e+01,7.200000000000000000e+01,2.740000000000000000e+02,5.500000000000000000e+01,3.200000000000000000e+01,2.400000000000000000e+01,3.700000000000000000e+01,6.400000000000000000e+01,5.300000000000000266e-01,4.466558000000000000e+09
5.000000000000000000e+01,7.100000000000000000e+01,2.650000000000000000e+02,5.400000000000000000e+01,3.000000000000000000e+01,2.600000000000000000e+01,3.400000000000000000e+01,6.000000000000000000e+01,5.200000000000000178e-01,4.484515300000000000e+09
4.800000000000000000e+01,9.000000000000000000e+01,2.750000000000000000e+02,6.600000000000000000e+01,3.400000000000000000e+01,2.700000000000000000e+01,3.800000000000000000e+01,5.200000000000000000e+01,5.200000000000000178e-01,4.506155600000000000e+09
4.500000000000000000e+01,9.100000000000000000e+01,2.760000000000000000e+02,6.900000000000000000e+01,3.300000000000000000e+01,2.400000000000000000e+01,3.900000000000000000e+01,6.000000000000000000e+01,5.200000000000000178e-01,4.525799100000000000e+09
4.000000000000000000e+01,1.020000000000000000e+02,2.440000000000000000e+02,6.000000000000000000e+01,3.200000000000000000e+01,3.000000000000000000e+01,3.400000000000000000e+01,5.900000000000000000e+01,5.200000000000000178e-01,4.544094600000000000e+09
4.900000000000000000e+01,1.040000000000000000e+02,2.690000000000000000e+02,6.800000000000000000e+01,3.200000000000000000e+01,3.100000000000000000e+01,3.600000000000000000e+01,6.500000000000000000e+01,5.100000000000000089e-01,4.563399200000000000e+09
4.700000000000000000e+01,1.010000000000000000e+02,2.630000000000000000e+02,6.700000000000000000e+01,3.200000000000000000e+01,3.100000000000000000e+01,3.500000000000000000e+01,6.500000000000000000e+01,5.100000000000000089e-01,4.583659100000000000e+09
4.700000000000000000e+01,8.400000000000000000e+01,2.320000000000000000e+02,5.400000000000000000e+01,3.000000000000000000e+01,3.400000000000000000e+01,3.100000000000000000e+01,7.600000000000000000e+01,5.100000000000000089e-01,4.603591300000000000e+09
5.200000000000000000e+01,1.170000000000000000e+02,3.130000000000000000e+02,5.600000000000000000e+01,3.000000000000000000e+01,3.500000000000000000e+01,2.800000000000000000e+01,7.600000000000000000e+01,5.100000000000000089e-01,4.625676000000000000e+09
5.200000000000000000e+01,1.050000000000000000e+02,3.190000000000000000e+02,5.800000000000000000e+01,2.900000000000000000e+01,3.100000000000000000e+01,2.800000000000000000e+01,7.100000000000000000e+01,5.100000000000000089e-01,4.643698100000000000e+09
4.900000000000000000e+01,1.160000000000000000e+02,3.420000000000000000e+02,5.600000000000000000e+01,2.900000000000000000e+01,3.200000000000000000e+01,2.600000000000000000e+01,6.700000000000000000e+01,5.100000000000000089e-01,4.662604100000000000e+09
5.000000000000000000e+01,1.190000000000000000e+02,3.620000000000000000e+02,6.200000000000000000e+01,3.100000000000000000e+01,3.100000000000000000e+01,2.500000000000000000e+01,6.900000000000000000e+01,5.100000000000000089e-01,4.683048600000000000e+09
4.800000000000000000e+01,1.220000000000000000e+02,3.570000000000000000e+02,6.500000000000000000e+01,2.800000000000000000e+01,2.700000000000000000e+01,2.700000000000000000e+01,5.700000000000000000e+01,5.100000000000000089e-01,4.703484100000000000e+09
4.600000000000000000e+01,1.070000000000000000e+02,2.940000000000000000e+02,6.100000000000000000e+01,2.800000000000000000e+01,2.500000000000000000e+01,2.900000000000000000e+01,6.900000000000000000e+01,5.100000000000000089e-01,4.725520800000000000e+09
5.200000000000000000e+01,1.070000000000000000e+02,3.100000000000000000e+02,6.000000000000000000e+01,2.800000000000000000e+01,3.000000000000000000e+01,3.200000000000000000e+01,7.200000000000000000e+01,5.100000000000000089e-01,4.744279700000000000e+09
4.700000000000000000e+01,9.800000000000000000e+01,2.600000000000000000e+02,5.400000000000000000e+01,2.400000000000000000e+01,2.700000000000000000e+01,3.200000000000000000e+01,7.200000000000000000e+01,5.100000000000000089e-01,4.762636600000000000e+09
4.900000000000000000e+01,9.900000000000000000e+01,2.520000000000000000e+02,5.200000000000000000e+01,2.400000000000000000e+01,2.600000000000000000e+01,3.100000000000000000e+01,7.100000000000000000e+01,5.100000000000000089e-01,4.781285800000000000e+09
5.600000000000000000e+01,1.170000000000000000e+02,2.820000000000000000e+02,5.400000000000000000e+01,2.600000000000000000e+01,3.200000000000000000e+01,3.300000000000000000e+01,6.900000000000000000e+01,5.100000000000000089e-01,4.803313200000000000e+09
5.500000000000000000e+01,1.100000000000000000e+02,2.850000000000000000e+02,5.200000000000000000e+01,2.600000000000000000e+01,3.300000000000000000e+01,3.300000000000000000e+01,6.300000000000000000e+01,5.100000000000000089e-01,4.825530500000000000e+09
5.000000000000000000e+01,1.150000000000000000e+02,2.540000000000000000e+02,5.300000000000000000e+01,2.700000000000000000e+01,3.100000000000000000e+01,3.000000000000000000e+01,6.000000000000000000e+01,5.100000000000000089e-01,4.844063900000000000e+09
5.200000000000000000e+01,1.160000000000000000e+02,3.030000000000000000e+02,6.100000000000000000e+01,3.100000000000000000e+01,3.200000000000000000e+01,3.100000000000000000e+01,6.400000000000000000e+01,5.100000000000000089e-01,4.863496500000000000e+09
5.100000000000000000e+01,1.150000000000000000e+02,2.940000000000000000e+02,5.700000000000000000e+01,2.900000000000000000e+01,3.500000000000000000e+01,3.100000000000000000e+01,6.300000000000000000e+01,5.100000000000000089e-01,4.881615400000000000e+09
4.700000000000000000e+01,9.500000000000000000e+01,2.640000000000000000e+02,5.100000000000000000e+01,2.700000000000000000e+01,2.800000000000000000e+01,3.100000000000000000e+01,6.600000000000000000e+01,5.100000000000000089e-01,4.903395900000000000e+09
4.800000000000000000e+01,8.500000000000000000e+01,2.410000000000000000e+02,5.900000000000000000e+01,2.700000000000000000e+01,2.800000000000000000e+01,3.200000000000000000e+01,5.800000000000000000e+01,5.100000000000000089e-01,4.926034100000000000e+09
4.800000000000000000e+01,8.500000000000000000e+01,2.910000000000000000e+02,6.100000000000000000e+01,2.800000000000000000e+01,2.600000000000000000e+01,3.400000000000000000e+01,7.600000000000000000e+01,5.100000000000000089e-01,4.944847300000000000e+09
5.100000000000000000e+01,8.200000000000000000e+01,2.610000000000000000e+02,5.400000000000000000e+01,2.500000000000000000e+01,2.800000000000000000e+01,3.500000000000000000e+01,7.800000000000000000e+01,5.100000000000000089e-01,4.963771300000000000e+09
4.900000000000000000e+01,7.700000000000000000e+01,2.560000000000000000e+02,5.600000000000000000e+01,2.700000000000000000e+01,2.300000000000000000e+01,3.500000000000000000e+01,8.700000000000000000e+01,5.000000000000000000e-01,4.983195500000000000e+09
5.400000000000000000e+01,1.050000000000000000e+02,4.500000000000000000e+02,6.800000000000000000e+01,2.600000000000000000e+01,2.800000000000000000e+01,3.700000000000000000e+01,8.400000000000000000e+01,5.100000000000000089e-01,5.005948000000000000e+09
5.500000000000000000e+01,1.030000000000000000e+02,4.830000000000000000e+02,6.300000000000000000e+01,2.500000000000000000e+01,3.000000000000000000e+01,3.300000000000000000e+01,7.800000000000000000e+01,5.100000000000000089e-01,5.024254100000000000e+09
5.900000000000000000e+01,1.190000000000000000e+02,4.750000000000000000e+02,6.400000000000000000e+01,2.500000000000000000e+01,3.200000000000000000e+01,3.200000000000000000e+01,7.000000000000000000e+01,5.100000000000000089e-01,5.045261300000000000e+09
5.400000000000000000e+01,1.230000000000000000e+02,4.890000000000000000e+02,6.400000000000000000e+01,2.400000000000000000e+01,2.900000000000000000e+01,3.500000000000000000e+01,6.800000000000000000e+01,5.100000000000000089e-01,5.064789900000000000e+09
6.000000000000000000e+01,1.320000000000000000e+02,5.060000000000000000e+02,6.200000000000000000e+01,2.400000000000000000e+01,3.400000000000000000e+01,3.400000000000000000e+01,6.200000000000000000e+01,5.100000000000000089e-01,5.084115700000000000e+09
5.400000000000000000e+01,1.140000000000000000e+02,3.720000000000000000e+02,5.700000000000000000e+01,2.600000000000000000e+01,3.200000000000000000e+01,3.200000000000000000e+01,6.500000000000000000e+01,5.200000000000000178e-01,5.106051100000000000e+09
5.200000000000000000e+01,1.160000000000000000e+02,3.450000000000000000e+02,5.900000000000000000e+01,2.600000000000000000e+01,3.000000000000000000e+01,3.400000000000000000e+01,6.500000000000000000e+01,5.200000000000000178e-01,5.124231500000000000e+09
4.800000000000000000e+01,1.060000000000000000e+02,3.860000000000000000e+02,6.800000000000000000e+01,2.700000000000000000e+01,2.800000000000000000e+01,3.600000000000000000e+01,6.200000000000000000e+01,5.200000000000000178e-01,5.142257300000000000e+09
5.200000000000000000e+01,1.040000000000000000e+02,3.580000000000000000e+02,6.600000000000000000e+01,2.800000000000000000e+01,2.800000000000000000e+01,3.600000000000000000e+01,7.100000000000000000e+01,5.200000000000000178e-01,5.161651900000000000e+09
4.700000000000000000e+01,9.400000000000000000e+01,3.320000000000000000e+02,6.500000000000000000e+01,2.700000000000000000e+01,2.400000000000000000e+01,3.700000000000000000e+01,7.100000000000000000e+01,5.200000000000000178e-01,5.183803400000000000e+09
4.700000000000000000e+01,9.300000000000000000e+01,3.410000000000000000e+02,6.400000000000000000e+01,2.800000000000000000e+01,2.600000000000000000e+01,3.900000000000000000e+01,7.300000000000000000e+01,5.200000000000000178e-01,5.206136000000000000e+09
4.300000000000000000e+01,9.400000000000000000e+01,3.560000000000000000e+02,6.800000000000000000e+01,2.900000000000000000e+01,2.700000000000000000e+01,3.700000000000000000e+01,8.100000000000000000e+01,5.300000000000000266e-01,5.225203000000000000e+09
4.500000000000000000e+01,1.030000000000000000e+02,2.710000000000000000e+02,5.500000000000000000e+01,2.700000000000000000e+01,2.800000000000000000e+01,3.900000000000000000e+01,1.140000000000000000e+02,5.200000000000000178e-01,5.244032100000000000e+09
4.800000000000000000e+01,1.010000000000000000e+02,2.720000000000000000e+02,5.800000000000000000e+01,2.900000000000000000e+01,2.800000000000000000e+01,3.600000000000000000e+01,1.100000000000000000e+02,5.200000000000000178e-01,5.262415300000000000e+09
4.800000000000000000e+01,1.020000000000000000e+02,3.270000000000000000e+02,6.400000000000000000e+01,2.800000000000000000e+01,2.600000000000000000e+01,3.600000000000000000e+01,1.080000000000000000e+02,5.200000000000000178e-01,5.283396100000000000e+09
5.000000000000000000e+01,1.060000000000000000e+02,2.920000000000000000e+02,6.100000000000000000e+01,3.200000000000000000e+01,2.500000000000000000e+01,3.600000000000000000e+01,1.080000000000000000e+02,5.200000000000000178e-01,5.305485400000000000e+09
5.700000000000000000e+01,1.070000000000000000e+02,2.700000000000000000e+02,5.800000000000000000e+01,3.000000000000000000e+01,2.400000000000000000e+01,3.700000000000000000e+01,1.140000000000000000e+02,5.100000000000000089e-01,5.323859400000000000e+09
6.000000000000000000e+01,9.800000000000000000e+01,2.800000000000000000e+02,5.700000000000000000e+01,2.900000000000000000e+01,2.400000000000000000e+01,3.300000000000000000e+01,8.400000000000000000e+01,5.100000000000000089e-01,5.342798900000000000e+09
5.400000000000000000e+01,1.060000000000000000e+02,3.030000000000000000e+02,6.100000000000000000e+01,2.800000000000000000e+01,2.700000000000000000e+01,3.200000000000000000e+01,7.900000000000000000e+01,5.100000000000000089e-01,5.361483800000000000e+09
5.300000000000000000e+01,1.030000000000000000e+02,2.580000000000000000e+02,6.000000000000000000e+01,3.000000000000000000e+01,2.900000000000000000e+01,3.400000000000000000e+01,7.800000000000000000e+01,5.100000000000000089e-01,5.383239000000000000e+09
5.300000000000000000e+01,1.040000000000000000e+02,2.560000000000000000e+02,5.600000000000000000e+01,2.700000000000000000e+01,2.800000000000000000e+01,3.000000000000000000e+01,7.900000000000000000e+01,5.100000000000000089e-01,5.405519700000000000e+09
5.500000000000000000e+01,1.030000000000000000e+02,2.510000000000000000e+02,5.000000000000000000e+01,2.800000000000000000e+01,2.700000000000000000e+01,2.900000000000000000e+01,6.000000000000000000e+01,5.100000000000000089e-01,5.424075200000000000e+09
5.000000000000000000e+01,1.100000000000000000e+02,2.940000000000000000e+02,5.500000000000000000e+01,3.000000000000000000e+01,2.800000000000000000e+01,3.400000000000000000e+01,8.600000000000000000e+01,5.000000000000000000e-01,5.442709500000000000e+09
5.000000000000000000e+01,1.050000000000000000e+02,2.720000000000000000e+02,5.000000000000000000e+01,3.000000000000000000e+01,2.700000000000000000e+01,3.400000000000000000e+01,9.500000000000000000e+01,5.000000000000000000e-01,5.461336900000000000e+09
4.900000000000000000e+01,1.100000000000000000e+02,2.740000000000000000e+02,5.400000000000000000e+01,2.700000000000000000e+01,2.700000000000000000e+01,3.400000000000000000e+01,9.600000000000000000e+01,5.000000000000000000e-01,5.483358200000000000e+09
6.300000000000000000e+01,1.170000000000000000e+02,3.060000000000000000e+02,5.900000000000000000e+01,2.600000000000000000e+01,2.500000000000000000e+01,3.400000000000000000e+01,9.500000000000000000e+01,5.000000000000000000e-01,5.505334100000000000e+09
5.900000000000000000e+01,1.160000000000000000e+02,2.980000000000000000e+02,5.800000000000000000e+01,2.700000000000000000e+01,2.700000000000000000e+01,3.500000000000000000e+01,9.800000000000000000e+01,5.000000000000000000e-01,5.533944800000000000e+09
5.800000000000000000e+01,1.160000000000000000e+02,3.000000000000000000e+02,6.000000000000000000e+01,2.300000000000000000e+01,2.600000000000000000e+01,3.100000000000000000e+01,6.900000000000000000e+01,5.000000000000000000e-01,5.553699400000000000e+09
5.800000000000000000e+01,1.150000000000000000e+02,3.310000000000000000e+02,6.500000000000000000e+01,2.500000000000000000e+01,2.800000000000000000e+01,2.900000000000000000e+01,6.300000000000000000e+01,5.000000000000000000e-01,5.573485700000000000e+09
6.300000000000000000e+01,1.170000000000000000e+02,3.270000000000000000e+02,5.600000000000000000e+01,2.600000000000000000e+01,2.600000000000000000e+01,2.800000000000000000e+01,6.400000000000000000e+01,5.000000000000000000e-01,5.592979400000000000e+09
5.500000000000000000e+01,1.090000000000000000e+02,3.200000000000000000e+02,5.400000000000000000e+01,2.700000000000000000e+01,2.800000000000000000e+01,3.400000000000000000e+01,6.100000000000000000e+01,5.000000000000000000e-01,5.611448100000000000e+09
5.300000000000000000e+01,1.130000000000000000e+02,3.490000000000000000e+02,5.900000000000000000e+01,2.500000000000000000e+01,2.600000000000000000e+01,3.500000000000000000e+01,5.600000000000000000e+01,5.000000000000000000e-01,5.629985400000000000e+09
5.500000000000000000e+01,1.140000000000000000e+02,3.860000000000000000e+02,6.300000000000000000e+01,2.700000000000000000e+01,2.900000000000000000e+01,3.400000000000000000e+01,7.300000000000000000e+01,5.100000000000000089e-01,5.648548600000000000e+09
6.100000000000000000e+01,1.160000000000000000e+02,3.630000000000000000e+02,6.500000000000000000e+01,2.800000000000000000e+01,2.600000000000000000e+01,3.600000000000000000e+01,7.300000000000000000e+01,5.100000000000000089e-01,5.667173700000000000e+09
5.900000000000000000e+01,1.120000000000000000e+02,3.610000000000000000e+02,6.700000000000000000e+01,2.700000000000000000e+01,2.600000000000000000e+01,3.400000000000000000e+01,7.100000000000000000e+01,5.100000000000000089e-01,5.687218400000000000e+09
5.100000000000000000e+01,1.120000000000000000e+02,3.660000000000000000e+02,6.600000000000000000e+01,2.800000000000000000e+01,2.700000000000000000e+01,3.100000000000000000e+01,7.200000000000000000e+01,5.100000000000000089e-01,5.705615900000000000e+09
6.500000000000000000e+01,1.240000000000000000e+02,3.410000000000000000e+02,6.200000000000000000e+01,2.900000000000000000e+01,2.900000000000000000e+01,3.000000000000000000e+01,7.800000000000000000e+01,5.100000000000000089e-01,5.725311500000000000e+09
6.300000000000000000e+01,1.070000000000000000e+02,2.930000000000000000e+02,5.300000000000000000e+01,2.700000000000000000e+01,2.600000000000000000e+01,3.200000000000000000e+01,6.200000000000000000e+01,5.100000000000000089e-01,5.745006000000000000e+09
6.300000000000000000e+01,1.030000000000000000e+02,3.320000000000000000e+02,5.200000000000000000e+01,2.500000000000000000e+01,2.900000000000000000e+01,3.100000000000000000e+01,7.200000000000000000e+01,5.100000000000000089e-01,5.763947800000000000e+09
6.100000000000000000e+01,1.020000000000000000e+02,3.530000000000000000e+02,5.100000000000000000e+01,2.700000000000000000e+01,3.100000000000000000e+01,3.200000000000000000e+01,7.700000000000000000e+01,5.200000000000000178e-01,5.783812400000000000e+09
6.400000000000000000e+01,1.020000000000000000e+02,3.250000000000000000e+02,5.000000000000000000e+01,2.600000000000000000e+01,2.900000000000000000e+01,3.100000000000000000e+01,7.900000000000000000e+01,5.200000000000000178e-01,5.803051000000000000e+09
4.800000000000000000e+01,8.300000000000000000e+01,3.440000000000000000e+02,5.200000000000000000e+01,2.500000000000000000e+01,2.900000000000000000e+01,3.200000000000000000e+01,7.500000000000000000e+01,5.200000000000000178e-01,5.825337300000000000e+09
5.300000000000000000e+01,9.200000000000000000e+01,3.240000000000000000e+02,5.000000000000000000e+01,2.800000000000000000e+01,3.100000000000000000e+01,2.900000000000000000e+01,9.200000000000000000e+01,5.200000000000000178e-01,5.843987400000000000e+09
4.900000000000000000e+01,1.020000000000000000e+02,3.010000000000000000e+02,4.100000000000000000e+01,2.700000000000000000e+01,2.800000000000000000e+01,3.100000000000000000e+01,7.900000000000000000e+01,5.100000000000000089e-01,5.864152800000000000e+09
6.300000000000000000e+01,1.020000000000000000e+02,2.690000000000000000e+02,4.400000000000000000e+01,2.300000000000000000e+01,2.900000000000000000e+01,3.400000000000000000e+01,7.500000000000000000e+01,5.100000000000000089e-01,5.882696800000000000e+09
6.300000000000000000e+01,9.200000000000000000e+01,3.150000000000000000e+02,4.600000000000000000e+01,2.600000000000000000e+01,3.100000000000000000e+01,3.200000000000000000e+01,7.200000000000000000e+01,5.100000000000000089e-01,5.902864800000000000e+09
6.700000000000000000e+01,1.130000000000000000e+02,3.210000000000000000e+02,4.600000000000000000e+01,2.800000000000000000e+01,2.800000000000000000e+01,3.000000000000000000e+01,7.100000000000000000e+01,5.100000000000000089e-01,5.925164900000000000e+09
6.400000000000000000e+01,1.140000000000000000e+02,3.250000000000000000e+02,4.900000000000000000e+01,2.600000000000000000e+01,2.700000000000000000e+01,3.400000000000000000e+01,4.900000000000000000e+01,5.100000000000000089e-01,5.944874700000000000e+09
6.200000000000000000e+01,1.020000000000000000e+02,3.370000000000000000e+02,5.100000000000000000e+01,2.700000000000000000e+01,3.000000000000000000e+01,3.600000000000000000e+01,5.900000000000000000e+01,5.100000000000000089e-01,5.964611800000000000e+09
4.700000000000000000e+01,1.020000000000000000e+02,3.380000000000000000e+02,5.300000000000000000e+01,2.900000000000000000e+01,2.900000000000000000e+01,3.300000000000000000e+01,6.200000000000000000e+01,5.100000000000000089e-01,5.983497900000000000e+09
6.000000000000000000e+01,1.160000000000000000e+02,3.730000000000000000e+02,5.300000000000000000e+01,2.500000000000000000e+01,3.000000000000000000e+01,3.500000000000000000e+01,6.400000000000000000e+01,5.100000000000000089e-01,6.003086800000000000e+09
6.700000000000000000e+01,1.160000000000000000e+02,3.450000000000000000e+02,5.100000000000000000e+01,2.300000000000000000e+01,3.200000000000000000e+01,3.600000000000000000e+01,6.600000000000000000e+01,5.100000000000000089e-01,6.025114100000000000e+09
6.700000000000000000e+01,1.080000000000000000e+02,3.280000000000000000e+02,4.800000000000000000e+01,2.300000000000000000e+01,3.200000000000000000e+01,3.400000000000000000e+01,6.800000000000000000e+01,5.100000000000000089e-01,6.044342300000000000e+09
6.900000000000000000e+01,1.130000000000000000e+02,3.220000000000000000e+02,4.700000000000000000e+01,2.200000000000000000e+01,2.800000000000000000e+01,2.900000000000000000e+01,7.700000000000000000e+01,5.100000000000000089e-01,6.063711700000000000e+09
7.400000000000000000e+01,1.150000000000000000e+02,3.340000000000000000e+02,4.100000000000000000e+01,2.100000000000000000e+01,3.000000000000000000e+01,3.000000000000000000e+01,7.500000000000000000e+01,5.100000000000000089e-01,6.082302500000000000e+09
6.200000000000000000e+01,1.050000000000000000e+02,2.700000000000000000e+02,4.100000000000000000e+01,2.100000000000000000e+01,2.700000000000000000e+01,3.400000000000000000e+01,7.200000000000000000e+01,5.100000000000000089e-01,6.103228200000000000e+09
5.200000000000000000e+01,9.700000000000000000e+01,2.810000000000000000e+02,4.200000000000000000e+01,2.200000000000000000e+01,2.500000000000000000e+01,3.600000000000000000e+01,7.100000000000000000e+01,5.100000000000000089e-01,6.125908800000000000e+09
6.900000000000000000e+01,9.900000000000000000e+01,2.940000000000000000e+02,5.000000000000000000e+01,2.500000000000000000e+01,2.700000000000000000e+01,3.600000000000000000e+01,7.700000000000000000e+01,5.100000000000000089e-01,6.144738300000000000e+09
6.900000000000000000e+01,9.700000000000000000e+01,2.700000000000000000e+02,4.900000000000000000e+01,2.500000000000000000e+01,3.300000000000000000e+01,3.800000000000000000e+01,8.200000000000000000e+01,5.100000000000000089e-01,6.163190700000000000e+09
6.600000000000000000e+01,9.500000000000000000e+01,2.540000000000000000e+02,4.900000000000000000e+01,2.500000000000000000e+01,3.000000000000000000e+01,3.600000000000000000e+01,7.900000000000000000e+01,5.100000000000000089e-01,6.182151600000000000e+09
6.400000000000000000e+01,9.200000000000000000e+01,2.450000000000000000e+02,5.500000000000000000e+01,2.800000000000000000e+01,3.000000000000000000e+01,3.100000000000000000e+01,8.200000000000000000e+01,5.100000000000000089e-01,6.204257500000000000e+09
6.400000000000000000e+01,7.600000000000000000e+01,2.530000000000000000e+02,5.600000000000000000e+01,2.800000000000000000e+01,2.900000000000000000e+01,3.200000000000000000e+01,8.500000000000000000e+01,5.100000000000000089e-01,6.226545900000000000e+09
6.000000000000000000e+01,8.200000000000000000e+01,2.310000000000000000e+02,4.800000000000000000e+01,2.400000000000000000e+01,2.600000000000000000e+01,3.100000000000000000e+01,8.100000000000000000e+01,5.100000000000000089e-01,6.245333400000000000e+09
5.900000000000000000e+01,8.100000000000000000e+01,2.530000000000000000e+02,5.100000000000000000e+01,2.600000000000000000e+01,2.100000000000000000e+01,2.900000000000000000e+01,7.000000000000000000e+01,5.100000000000000089e-01,6.264588300000000000e+09
5.800000000000000000e+01,1.030000000000000000e+02,3.030000000000000000e+02,5.600000000000000000e+01,2.600000000000000000e+01,2.500000000000000000e+01,3.200000000000000000e+01,7.200000000000000000e+01,5.100000000000000089e-01,6.283268200000000000e+09
6.100000000000000000e+01,1.130000000000000000e+02,2.870000000000000000e+02,4.700000000000000000e+01,2.400000000000000000e+01,2.900000000000000000e+01,3.300000000000000000e+01,7.500000000000000000e+01,5.100000000000000089e-01,6.304319700000000000e+09
6.100000000000000000e+01,1.160000000000000000e+02,2.800000000000000000e+02,4.700000000000000000e+01,2.500000000000000000e+01,2.900000000000000000e+01,2.900000000000000000e+01,7.100000000000000000e+01,5.000000000000000000e-01,6.326888800000000000e+09
6.500000000000000000e+01,1.100000000000000000e+02,2.880000000000000000e+02,4.800000000000000000e+01,2.800000000000000000e+01,3.000000000000000000e+01,2.900000000000000000e+01,7.800000000000000000e+01,5.000000000000000000e-01,6.345329700000000000e+09
6.600000000000000000e+01,1.120000000000000000e+02,2.710000000000000000e+02,5.200000000000000000e+01,2.500000000000000000e+01,3.100000000000000000e+01,3.200000000000000000e+01,7.100000000000000000e+01,5.000000000000000000e-01,6.364774400000000000e+09
7.000000000000000000e+01,1.000000000000000000e+02,2.260000000000000000e+02,4.600000000000000000e+01,2.400000000000000000e+01,2.900000000000000000e+01,3.000000000000000000e+01,7.500000000000000000e+01,5.000000000000000000e-01,6.383102900000000000e+09
7.000000000000000000e+01,1.010000000000000000e+02,2.270000000000000000e+02,4.700000000000000000e+01,2.400000000000000000e+01,2.500000000000000000e+01,3.100000000000000000e+01,7.200000000000000000e+01,5.000000000000000000e-01,6.404276400000000000e+09
7.100000000000000000e+01,9.800000000000000000e+01,2.620000000000000000e+02,4.600000000000000000e+01,2.300000000000000000e+01,2.600000000000000000e+01,3.200000000000000000e+01,8.300000000000000000e+01,5.000000000000000000e-01,6.426903300000000000e+09
6.300000000000000000e+01,1.110000000000000000e+02,3.920000000000000000e+02,4.900000000000000000e+01,2.200000000000000000e+01,2.600000000000000000e+01,3.200000000000000000e+01,7.200000000000000000e+01,5.000000000000000000e-01,6.444995400000000000e+09
6.200000000000000000e+01,1.100000000000000000e+02,3.850000000000000000e+02,4.300000000000000000e+01,2.500000000000000000e+01,2.400000000000000000e+01,2.800000000000000000e+01,7.400000000000000000e+01,5.100000000000000089e-01,6.463158400000000000e+09
6.300000000000000000e+01,1.000000000000000000e+02,3.770000000000000000e+02,4.300000000000000000e+01,2.500000000000000000e+01,2.300000000000000000e+01,2.900000000000000000e+01,6.900000000000000000e+01,5.100000000000000089e-01,6.483578800000000000e+09
6.700000000000000000e+01,1.110000000000000000e+02,4.310000000000000000e+02,4.400000000000000000e+01,2.500000000000000000e+01,2.800000000000000000e+01,3.300000000000000000e+01,8.400000000000000000e+01,5.100000000000000089e-01,6.504912700000000000e+09
6.600000000000000000e+01,1.110000000000000000e+02,4.090000000000000000e+02,4.500000000000000000e+01,2.700000000000000000e+01,2.600000000000000000e+01,3.400000000000000000e+01,7.200000000000000000e+01,5.100000000000000089e-01,6.523045300000000000e+09
5.600000000000000000e+01,1.080000000000000000e+02,2.810000000000000000e+02,4.200000000000000000e+01,2.700000000000000000e+01,2.700000000000000000e+01,3.600000000000000000e+01,8.400000000000000000e+01,5.100000000000000089e-01,6.541404000000000000e+09
6.200000000000000000e+01,1.100000000000000000e+02,2.910000000000000000e+02,4.000000000000000000e+01,2.500000000000000000e+01,2.700000000000000000e+01,3.700000000000000000e+01,8.500000000000000000e+01,5.100000000000000089e-01,6.561720000000000000e+09
7.600000000000000000e+01,1.120000000000000000e+02,3.060000000000000000e+02,4.300000000000000000e+01,2.900000000000000000e+01,2.700000000000000000e+01,3.900000000000000000e+01,9.200000000000000000e+01,5.100000000000000089e-01,6.582652700000000000e+09
7.300000000000000000e+01,9.000000000000000000e+01,2.290000000000000000e+02,4.000000000000000000e+01,2.800000000000000000e+01,2.600000000000000000e+01,3.500000000000000000e+01,7.900000000000000000e+01,5.100000000000000089e-01,6.605905600000000000e+09
7.700000000000000000e+01,9.300000000000000000e+01,2.690000000000000000e+02,4.800000000000000000e+01,2.700000000000000000e+01,2.900000000000000000e+01,3.400000000000000000e+01,8.200000000000000000e+01,5.100000000000000089e-01,6.627405900000000000e+09
7.800000000000000000e+01,8.000000000000000000e+01,2.690000000000000000e+02,4.600000000000000000e+01,2.700000000000000000e+01,2.800000000000000000e+01,3.100000000000000000e+01,7.600000000000000000e+01,5.100000000000000089e-01,6.646994500000000000e+09
7.500000000000000000e+01,8.300000000000000000e+01,2.590000000000000000e+02,5.200000000000000000e+01,2.800000000000000000e+01,2.800000000000000000e+01,3.300000000000000000e+01,8.200000000000000000e+01,5.100000000000000089e-01,6.673444700000000000e+09
6.300000000000000000e+01,9.900000000000000000e+01,2.940000000000000000e+02,6.000000000000000000e+01,2.600000000000000000e+01,2.900000000000000000e+01,2.900000000000000000e+01,7.500000000000000000e+01,5.100000000000000089e-01,6.693185900000000000e+09
6.100000000000000000e+01,1.000000000000000000e+02,2.960000000000000000e+02,6.200000000000000000e+01,2.500000000000000000e+01,2.700000000000000000e+01,2.900000000000000000e+01,8.800000000000000000e+01,5.100000000000000089e-01,6.713982600000000000e+09
5.600000000000000000e+01,1.300000000000000000e+02,3.270000000000000000e+02,6.300000000000000000e+01,2.700000000000000000e+01,2.600000000000000000e+01,3.300000000000000000e+01,8.400000000000000000e+01,5.000000000000000000e-01,6.731861500000000000e+09
5.600000000000000000e+01,1.290000000000000000e+02,3.300000000000000000e+02,6.500000000000000000e+01,2.600000000000000000e+01,2.700000000000000000e+01,3.300000000000000000e+01,8.800000000000000000e+01,5.000000000000000000e-01,6.750721400000000000e+09
5.200000000000000000e+01,1.230000000000000000e+02,3.340000000000000000e+02,6.000000000000000000e+01,2.500000000000000000e+01,2.600000000000000000e+01,3.200000000000000000e+01,8.400000000000000000e+01,5.000000000000000000e-01,6.768449500000000000e+09
5.100000000000000000e+01,1.170000000000000000e+02,3.240000000000000000e+02,5.400000000000000000e+01,2.400000000000000000e+01,3.100000000000000000e+01,3.200000000000000000e+01,8.900000000000000000e+01,5.000000000000000000e-01,6.786033400000000000e+09
6.900000000000000000e+01,1.170000000000000000e+02,3.150000000000000000e+02,5.200000000000000000e+01,2.600000000000000000e+01,2.900000000000000000e+01,3.400000000000000000e+01,7.700000000000000000e+01,5.000000000000000000e-01,6.805150300000000000e+09
6.800000000000000000e+01,8.300000000000000000e+01,2.700000000000000000e+02,4.500000000000000000e+01,2.300000000000000000e+01,3.100000000000000000e+01,3.300000000000000000e+01,8.000000000000000000e+01,5.000000000000000000e-01,6.824956000000000000e+09
6.700000000000000000e+01,9.600000000000000000e+01,2.640000000000000000e+02,4.400000000000000000e+01,2.400000000000000000e+01,3.000000000000000000e+01,3.400000000000000000e+01,7.800000000000000000e+01,5.000000000000000000e-01,6.846866100000000000e+09
6.800000000000000000e+01,1.030000000000000000e+02,3.460000000000000000e+02,4.800000000000000000e+01,2.400000000000000000e+01,3.400000000000000000e+01,3.400000000000000000e+01,8.100000000000000000e+01,5.000000000000000000e-01,6.864964900000000000e+09
7.000000000000000000e+01,1.080000000000000000e+02,3.710000000000000000e+02,5.900000000000000000e+01,2.800000000000000000e+01,2.800000000000000000e+01,3.500000000000000000e+01,7.700000000000000000e+01,5.100000000000000089e-01,6.884937300000000000e+09
7.100000000000000000e+01,1.160000000000000000e+02,3.850000000000000000e+02,6.600000000000000000e+01,2.700000000000000000e+01,2.800000000000000000e+01,3.400000000000000000e+01,7.300000000000000000e+01,5.100000000000000089e-01,6.904242700000000000e+09
7.100000000000000000e+01,1.170000000000000000e+02,3.660000000000000000e+02,6.600000000000000000e+01,2.700000000000000000e+01,2.900000000000000000e+01,3.600000000000000000e+01,8.500000000000000000e+01,5.100000000000000089e-01,6.924580100000000000e+09
7.200000000000000000e+01,1.160000000000000000e+02,3.840000000000000000e+02,7.300000000000000000e+01,2.700000000000000000e+01,3.000000000000000000e+01,3.500000000000000000e+01,7.700000000000000000e+01,5.100000000000000089e-01,6.946944600000000000e+09
7.600000000000000000e+01,1.100000000000000000e+02,3.330000000000000000e+02,7.400000000000000000e+01,2.900000000000000000e+01,3.000000000000000000e+01,3.800000000000000000e+01,8.800000000000000000e+01,5.200000000000000178e-01,6.966073600000000000e+09
7.100000000000000000e+01,9.900000000000000000e+01,2.640000000000000000e+02,6.600000000000000000e+01,2.700000000000000000e+01,3.100000000000000000e+01,4.000000000000000000e+01,8.800000000000000000e+01,5.200000000000000178e-01,6.985479900000000000e+09
5.400000000000000000e+01,9.000000000000000000e+01,2.430000000000000000e+02,5.900000000000000000e+01,2.700000000000000000e+01,3.100000000000000000e+01,4.200000000000000000e+01,9.300000000000000000e+01,5.200000000000000178e-01,7.004348400000000000e+09
5.200000000000000000e+01,8.300000000000000000e+01,2.720000000000000000e+02,5.900000000000000000e+01,2.900000000000000000e+01,2.800000000000000000e+01,3.800000000000000000e+01,9.500000000000000000e+01,5.200000000000000178e-01,7.024692600000000000e+09
5.400000000000000000e+01,1.020000000000000000e+02,2.790000000000000000e+02,5.300000000000000000e+01,3.200000000000000000e+01,2.900000000000000000e+01,4.200000000000000000e+01,9.500000000000000000e+01,5.100000000000000089e-01,7.046771500000000000e+09
6.800000000000000000e+01,1.050000000000000000e+02,2.480000000000000000e+02,5.400000000000000000e+01,3.000000000000000000e+01,2.600000000000000000e+01,4.000000000000000000e+01,8.100000000000000000e+01,5.200000000000000178e-01,7.065431600000000000e+09
6.600000000000000000e+01,1.050000000000000000e+02,3.200000000000000000e+02,5.400000000000000000e+01,3.000000000000000000e+01,3.100000000000000000e+01,3.800000000000000000e+01,9.000000000000000000e+01,5.200000000000000178e-01,7.084746600000000000e+09
6.700000000000000000e+01,1.080000000000000000e+02,3.400000000000000000e+02,5.600000000000000000e+01,2.900000000000000000e+01,3.000000000000000000e+01,3.500000000000000000e+01,9.500000000000000000e+01,5.200000000000000178e-01,7.102694200000000000e+09
6.800000000000000000e+01,1.100000000000000000e+02,3.370000000000000000e+02,5.700000000000000000e+01,2.800000000000000000e+01,2.900000000000000000e+01,3.500000000000000000e+01,8.000000000000000000e+01,5.200000000000000178e-01,7.124443600000000000e+09
6.900000000000000000e+01,9.600000000000000000e+01,3.400000000000000000e+02,5.700000000000000000e+01,2.300000000000000000e+01,3.400000000000000000e+01,3.100000000000000000e+01,8.000000000000000000e+01,5.100000000000000089e-01,7.146679500000000000e+09
6.100000000000000000e+01,9.700000000000000000e+01,3.520000000000000000e+02,5.500000000000000000e+01,2.600000000000000000e+01,3.400000000000000000e+01,3.300000000000000000e+01,7.800000000000000000e+01,5.100000000000000089e-01,7.164745600000000000e+09
6.000000000000000000e+01,1.030000000000000000e+02,3.110000000000000000e+02,5.600000000000000000e+01,2.400000000000000000e+01,2.900000000000000000e+01,3.200000000000000000e+01,8.100000000000000000e+01,5.100000000000000089e-01,7.183332100000000000e+09
6.200000000000000000e+01,1.150000000000000000e+02,3.070000000000000000e+02,5.800000000000000000e+01,2.400000000000000000e+01,3.100000000000000000e+01,3.700000000000000000e+01,7.300000000000000000e+01,5.100000000000000089e-01,7.202885700000000000e+09
6.300000000000000000e+01,1.170000000000000000e+02,3.830000000000000000e+02,5.800000000000000000e+01,2.300000000000000000e+01,3.200000000000000000e+01,3.600000000000000000e+01,7.200000000000000000e+01,5.100000000000000089e-01,7.225502000000000000e+09
6.400000000000000000e+01,1.120000000000000000e+02,3.980000000000000000e+02,5.500000000000000000e+01,2.500000000000000000e+01,2.600000000000000000e+01,3.400000000000000000e+01,7.700000000000000000e+01,5.100000000000000089e-01,7.243874000000000000e+09
6.400000000000000000e+01,1.130000000000000000e+02,4.030000000000000000e+02,5.900000000000000000e+01,2.500000000000000000e+01,2.900000000000000000e+01,3.300000000000000000e+01,7.800000000000000000e+01,5.100000000000000089e-01,7.262243900000000000e+09
6.600000000000000000e+01,1.080000000000000000e+02,3.910000000000000000e+02,5.700000000000000000e+01,2.600000000000000000e+01,2.900000000000000000e+01,3.300000000000000000e+01,6.100000000000000000e+01,5.200000000000000178e-01,7.281409100000000000e+09
6.300000000000000000e+01,9.800000000000000000e+01,4.270000000000000000e+02,6.000000000000000000e+01,2.600000000000000000e+01,2.600000000000000000e+01,2.600000000000000000e+01,6.100000000000000000e+01,5.200000000000000178e-01,7.303610000000000000e+09
6.600000000000000000e+01,1.100000000000000000e+02,3.470000000000000000e+02,5.900000000000000000e+01,2.600000000000000000e+01,2.700000000000000000e+01,2.900000000000000000e+01,6.100000000000000000e+01,5.200000000000000178e-01,7.325803600000000000e+09
6.400000000000000000e+01,1.030000000000000000e+02,3.030000000000000000e+02,5.800000000000000000e+01,2.500000000000000000e+01,2.600000000000000000e+01,2.800000000000000000e+01,6.200000000000000000e+01,5.200000000000000178e-01,7.344402800000000000e+09
5.600000000000000000e+01,1.000000000000000000e+02,2.860000000000000000e+02,5.400000000000000000e+01,2.400000000000000000e+01,2.200000000000000000e+01,3.300000000000000000e+01,6.100000000000000000e+01,5.200000000000000178e-01,7.363409300000000000e+09
6.300000000000000000e+01,9.900000000000000000e+01,3.600000000000000000e+02,5.500000000000000000e+01,2.700000000000000000e+01,2.300000000000000000e+01,3.100000000000000000e+01,6.000000000000000000e+01,5.200000000000000178e-01,7.382357100000000000e+09
6.400000000000000000e+01,8.900000000000000000e+01,2.940000000000000000e+02,4.300000000000000000e+01,2.500000000000000000e+01,2.600000000000000000e+01,3.200000000000000000e+01,5.900000000000000000e+01,5.200000000000000178e-01,7.404576000000000000e+09
6.000000000000000000e+01,7.800000000000000000e+01,2.940000000000000000e+02,4.200000000000000000e+01,2.700000000000000000e+01,2.800000000000000000e+01,3.000000000000000000e+01,6.800000000000000000e+01,5.200000000000000178e-01,7.426928700000000000e+09
6.800000000000000000e+01,1.040000000000000000e+02,3.170000000000000000e+02,5.600000000000000000e+01,2.800000000000000000e+01,3.100000000000000000e+01,3.300000000000000000e+01,9.100000000000000000e+01,5.200000000000000178e-01,7.446872400000000000e+09
6.500000000000000000e+01,1.070000000000000000e+02,3.110000000000000000e+02,5.400000000000000000e+01,2.800000000000000000e+01,3.100000000000000000e+01,2.900000000000000000e+01,8.800000000000000000e+01,5.200000000000000178e-01,7.465958600000000000e+09
5.800000000000000000e+01,1.060000000000000000e+02,2.220000000000000000e+02,5.100000000000000000e+01,2.400000000000000000e+01,3.100000000000000000e+01,2.900000000000000000e+01,9.500000000000000000e+01,5.200000000000000178e-01,7.484831300000000000e+09
6.700000000000000000e+01,1.110000000000000000e+02,2.340000000000000000e+02,5.400000000000000000e+01,2.500000000000000000e+01,2.900000000000000000e+01,2.900000000000000000e+01,9.800000000000000000e+01,5.200000000000000178e-01,7.504315000000000000e+09
7.600000000000000000e+01,1.130000000000000000e+02,3.140000000000000000e+02,6.600000000000000000e+01,2.700000000000000000e+01,3.000000000000000000e+01,3.400000000000000000e+01,9.300000000000000000e+01,5.100000000000000089e-01,7.525712700000000000e+09
6.900000000000000000e+01,9.000000000000000000e+01,2.960000000000000000e+02,5.400000000000000000e+01,2.500000000000000000e+01,2.600000000000000000e+01,3.700000000000000000e+01,6.800000000000000000e+01,5.100000000000000089e-01,7.544003000000000000e+09
7.500000000000000000e+01,8.600000000000000000e+01,3.710000000000000000e+02,6.200000000000000000e+01,2.500000000000000000e+01,2.800000000000000000e+01,3.700000000000000000e+01,7.200000000000000000e+01,5.100000000000000089e-01,7.562910700000000000e+09
7.400000000000000000e+01,1.010000000000000000e+02,3.760000000000000000e+02,6.500000000000000000e+01,2.600000000000000000e+01,2.800000000000000000e+01,3.800000000000000000e+01,6.600000000000000000e+01,5.100000000000000089e-01,7.581958500000000000e+09
7.600000000000000000e+01,1.070000000000000000e+02,3.720000000000000000e+02,6.900000000000000000e+01,2.800000000000000000e+01,2.900000000000000000e+01,4.000000000000000000e+01,5.900000000000000000e+01,5.100000000000000089e-01,7.603429700000000000e+09
6.800000000000000000e+01,9.700000000000000000e+01,3.010000000000000000e+02,5.800000000000000000e+01,2.300000000000000000e+01,2.400000000000000000e+01,3.600000000000000000e+01,7.200000000000000000e+01,5.100000000000000089e-01,7.625685800000000000e+09
6.800000000000000000e+01,1.070000000000000000e+02,3.030000000000000000e+02,6.700000000000000000e+01,2.600000000000000000e+01,2.900000000000000000e+01,3.400000000000000000e+01,7.300000000000000000e+01,5.100000000000000089e-01,7.645000100000000000e+09
6.600000000000000000e+01,1.130000000000000000e+02,2.220000000000000000e+02,6.400000000000000000e+01,2.800000000000000000e+01,2.700000000000000000e+01,3.400000000000000000e+01,7.900000000000000000e+01,5.100000000000000089e-01,7.664380300000000000e+09
7.500000000000000000e+01,9.900000000000000000e+01,2.470000000000000000e+02,6.200000000000000000e+01,2.600000000000000000e+01,2.700000000000000000e+01,3.300000000000000000e+01,7.900000000000000000e+01,5.100000000000000089e-01,7.684894300000000000e+09
6.400000000000000000e+01,1.070000000000000000e+02,3.000000000000000000e+02,6.400000000000000000e+01,2.700000000000000000e+01,2.600000000000000000e+01,3.100000000000000000e+01,7.900000000000000000e+01,5.100000000000000089e-01,7.703612500000000000e+09
6.500000000000000000e+01,1.050000000000000000e+02,3.050000000000000000e+02,7.600000000000000000e+01,3.000000000000000000e+01,2.900000000000000000e+01,3.200000000000000000e+01,7.100000000000000000e+01,5.100000000000000089e-01,7.725553400000000000e+09
7.200000000000000000e+01,1.010000000000000000e+02,2.900000000000000000e+02,7.500000000000000000e+01,3.000000000000000000e+01,2.700000000000000000e+01,3.000000000000000000e+01,8.500000000000000000e+01,5.200000000000000178e-01,7.758937000000000000e+09
7.100000000000000000e+01,9.200000000000000000e+01,2.850000000000000000e+02,6.900000000000000000e+01,2.700000000000000000e+01,2.500000000000000000e+01,2.900000000000000000e+01,8.100000000000000000e+01,5.200000000000000178e-01,7.780213800000000000e+09
7.000000000000000000e+01,9.300000000000000000e+01,2.810000000000000000e+02,7.300000000000000000e+01,2.900000000000000000e+01,2.700000000000000000e+01,3.300000000000000000e+01,8.200000000000000000e+01,5.200000000000000178e-01,7.800452100000000000e+09
7.400000000000000000e+01,7.700000000000000000e+01,2.220000000000000000e+02,7.100000000000000000e+01,2.900000000000000000e+01,3.000000000000000000e+01,3.400000000000000000e+01,8.200000000000000000e+01,5.200000000000000178e-01,7.819462400000000000e+09
7.300000000000000000e+01,8.700000000000000000e+01,2.430000000000000000e+02,6.100000000000000000e+01,2.600000000000000000e+01,2.900000000000000000e+01,3.400000000000000000e+01,8.500000000000000000e+01,5.100000000000000089e-01,7.837139400000000000e+09
6.700000000000000000e+01,8.200000000000000000e+01,2.790000000000000000e+02,5.300000000000000000e+01,2.500000000000000000e+01,2.800000000000000000e+01,3.300000000000000000e+01,7.500000000000000000e+01,5.100000000000000089e-01,7.855653900000000000e+09
6.800000000000000000e+01,9.100000000000000000e+01,3.030000000000000000e+02,5.600000000000000000e+01,2.600000000000000000e+01,2.900000000000000000e+01,3.200000000000000000e+01,7.400000000000000000e+01,5.100000000000000089e-01,7.873945700000000000e+09
7.000000000000000000e+01,9.600000000000000000e+01,2.740000000000000000e+02,5.300000000000000000e+01,2.700000000000000000e+01,2.800000000000000000e+01,3.500000000000000000e+01,7.100000000000000000e+01,5.100000000000000089e-01,7.892065200000000000e+09
6.900000000000000000e+01,9.200000000000000000e+01,3.120000000000000000e+02,5.800000000000000000e+01,2.900000000000000000e+01,2.800000000000000000e+01,3.300000000000000000e+01,7.600000000000000000e+01,5.100000000000000089e-01,7.910363800000000000e+09
6.900000000000000000e+01,8.100000000000000000e+01,3.080000000000000000e+02,5.700000000000000000e+01,3.100000000000000000e+01,2.900000000000000000e+01,3.200000000000000000e+01,7.600000000000000000e+01,5.100000000000000089e-01,7.928214100000000000e+09
6.600000000000000000e+01,7.900000000000000000e+01,2.830000000000000000e+02,5.800000000000000000e+01,3.000000000000000000e+01,3.100000000000000000e+01,3.300000000000000000e+01,6.700000000000000000e+01,5.100000000000000089e-01,7.946280300000000000e+09
7.900000000000000000e+01,8.200000000000000000e+01,2.590000000000000000e+02,5.700000000000000000e+01,2.900000000000000000e+01,3.100000000000000000e+01,3.500000000000000000e+01,6.300000000000000000e+01,5.100000000000000089e-01,7.964573800000000000e+09
6.800000000000000000e+01,8.900000000000000000e+01,2.950000000000000000e+02,6.400000000000000000e+01,3.000000000000000000e+01,3.100000000000000000e+01,3.300000000000000000e+01,7.000000000000000000e+01,5.000000000000000000e-01,7.983820800000000000e+09
6.900000000000000000e+01,9.300000000000000000e+01,2.730000000000000000e+02,5.600000000000000000e+01,2.800000000000000000e+01,3.000000000000000000e+01,3.600000000000000000e+01,8.300000000000000000e+01,5.000000000000000000e-01,8.002938700000000000e+09
6.800000000000000000e+01,9.200000000000000000e+01,2.710000000000000000e+02,6.100000000000000000e+01,2.600000000000000000e+01,2.900000000000000000e+01,3.700000000000000000e+01,8.100000000000000000e+01,5.000000000000000000e-01,8.024088200000000000e+09
7.000000000000000000e+01,9.400000000000000000e+01,2.800000000000000000e+02,6.600000000000000000e+01,2.700000000000000000e+01,2.700000000000000000e+01,3.500000000000000000e+01,8.200000000000000000e+01,5.000000000000000000e-01,8.046318500000000000e+09
5.300000000000000000e+01,8.900000000000000000e+01,3.030000000000000000e+02,6.700000000000000000e+01,2.800000000000000000e+01,2.700000000000000000e+01,3.800000000000000000e+01,8.200000000000000000e+01,5.000000000000000000e-01,8.064479400000000000e+09
5.500000000000000000e+01,7.900000000000000000e+01,2.720000000000000000e+02,6.000000000000000000e+01,2.600000000000000000e+01,2.600000000000000000e+01,3.600000000000000000e+01,8.100000000000000000e+01,5.000000000000000000e-01,8.083507700000000000e+09
5.500000000000000000e+01,9.700000000000000000e+01,2.610000000000000000e+02,5.900000000000000000e+01,2.500000000000000000e+01,2.500000000000000000e+01,3.700000000000000000e+01,7.700000000000000000e+01,5.000000000000000000e-01,8.102013300000000000e+09
5.500000000000000000e+01,1.000000000000000000e+02,2.670000000000000000e+02,5.700000000000000000e+01,2.800000000000000000e+01,2.700000000000000000e+01,3.700000000000000000e+01,7.800000000000000000e+01,5.000000000000000000e-01,8.124370000000000000e+09
5.400000000000000000e+01,1.010000000000000000e+02,2.600000000000000000e+02,5.100000000000000000e+01,2.700000000000000000e+01,2.800000000000000000e+01,3.700000000000000000e+01,7.900000000000000000e+01,5.000000000000000000e-01,8.146241400000000000e+09
5.700000000000000000e+01,9.900000000000000000e+01,2.550000000000000000e+02,5.300000000000000000e+01,2.900000000000000000e+01,3.000000000000000000e+01,3.100000000000000000e+01,7.900000000000000000e+01,5.000000000000000000e-01,8.164174100000000000e+09
5.600000000000000000e+01,9.200000000000000000e+01,2.810000000000000000e+02,5.400000000000000000e+01,2.900000000000000000e+01,2.900000000000000000e+01,3.200000000000000000e+01,7.700000000000000000e+01,5.000000000000000000e-01,8.185757700000000000e+09
4.900000000000000000e+01,7.400000000000000000e+01,2.860000000000000000e+02,5.600000000000000000e+01,2.800000000000000000e+01,2.800000000000000000e+01,3.000000000000000000e+01,6.900000000000000000e+01,5.000000000000000000e-01,8.205110400000000000e+09
4.600000000000000000e+01,7.700000000000000000e+01,2.790000000000000000e+02,5.000000000000000000e+01,2.500000000000000000e+01,2.800000000000000000e+01,2.800000000000000000e+01,7.400000000000000000e+01,5.000000000000000000e-01,8.224043200000000000e+09
5.900000000000000000e+01,7.900000000000000000e+01,3.420000000000000000e+02,5.500000000000000000e+01,2.700000000000000000e+01,2.800000000000000000e+01,2.900000000000000000e+01,7.400000000000000000e+01,5.000000000000000000e-01,8.246210700000000000e+09
6.000000000000000000e+01,8.100000000000000000e+01,3.300000000000000000e+02,4.900000000000000000e+01,2.300000000000000000e+01,2.400000000000000000e+01,2.900000000000000000e+01,7.000000000000000000e+01,5.000000000000000000e-01,8.264504200000000000e+09
6.500000000000000000e+01,8.800000000000000000e+01,3.390000000000000000e+02,4.900000000000000000e+01,2.400000000000000000e+01,2.800000000000000000e+01,2.900000000000000000e+01,8.100000000000000000e+01,5.000000000000000000e-01,8.283322200000000000e+09
6.700000000000000000e+01,9.400000000000000000e+01,3.520000000000000000e+02,4.800000000000000000e+01,2.400000000000000000e+01,3.000000000000000000e+01,2.800000000000000000e+01,8.800000000000000000e+01,5.000000000000000000e-01,8.301852600000000000e+09
6.700000000000000000e+01,9.700000000000000000e+01,3.750000000000000000e+02,5.500000000000000000e+01,2.400000000000000000e+01,2.900000000000000000e+01,2.900000000000000000e+01,7.800000000000000000e+01,5.000000000000000000e-01,8.324113500000000000e+09
6.200000000000000000e+01,9.300000000000000000e+01,3.410000000000000000e+02,5.700000000000000000e+01,2.400000000000000000e+01,2.800000000000000000e+01,3.100000000000000000e+01,7.500000000000000000e+01,5.000000000000000000e-01,8.346439400000000000e+09
6.900000000000000000e+01,9.200000000000000000e+01,3.280000000000000000e+02,6.000000000000000000e+01,2.600000000000000000e+01,2.800000000000000000e+01,3.400000000000000000e+01,8.400000000000000000e+01,5.000000000000000000e-01,8.364910600000000000e+09
6.600000000000000000e+01,9.700000000000000000e+01,2.940000000000000000e+02,6.000000000000000000e+01,2.600000000000000000e+01,3.000000000000000000e+01,3.400000000000000000e+01,9.500000000000000000e+01,5.000000000000000000e-01,8.383258100000000000e+09
6.400000000000000000e+01,8.700000000000000000e+01,2.950000000000000000e+02,6.000000000000000000e+01,2.500000000000000000e+01,2.700000000000000000e+01,3.100000000000000000e+01,9.000000000000000000e+01,5.000000000000000000e-01,8.403520300000000000e+09
6.600000000000000000e+01,7.700000000000000000e+01,2.830000000000000000e+02,5.400000000000000000e+01,2.600000000000000000e+01,2.700000000000000000e+01,3.200000000000000000e+01,9.000000000000000000e+01,5.000000000000000000e-01,8.426226900000000000e+09
5.900000000000000000e+01,8.500000000000000000e+01,2.500000000000000000e+02,5.300000000000000000e+01,2.300000000000000000e+01,2.900000000000000000e+01,2.800000000000000000e+01,9.800000000000000000e+01,5.000000000000000000e-01,8.445200400000000000e+09
4.700000000000000000e+01,8.800000000000000000e+01,3.530000000000000000e+02,6.400000000000000000e+01,2.300000000000000000e+01,2.800000000000000000e+01,3.400000000000000000e+01,9.800000000000000000e+01,5.000000000000000000e-01,8.463768100000000000e+09
4.700000000000000000e+01,8.100000000000000000e+01,3.730000000000000000e+02,6.300000000000000000e+01,2.400000000000000000e+01,2.700000000000000000e+01,3.500000000000000000e+01,9.200000000000000000e+01,5.000000000000000000e-01,8.484573800000000000e+09
4.500000000000000000e+01,8.800000000000000000e+01,3.740000000000000000e+02,6.800000000000000000e+01,2.700000000000000000e+01,2.700000000000000000e+01,3.500000000000000000e+01,8.600000000000000000e+01,5.100000000000000089e-01,8.504949600000000000e+09
4.700000000000000000e+01,9.900000000000000000e+01,3.920000000000000000e+02,7.400000000000000000e+01,2.700000000000000000e+01,3.000000000000000000e+01,3.600000000000000000e+01,9.000000000000000000e+01,5.100000000000000089e-01,8.523322900000000000e+09
6.400000000000000000e+01,9.700000000000000000e+01,4.450000000000000000e+02,7.300000000000000000e+01,2.900000000000000000e+01,2.900000000000000000e+01,3.600000000000000000e+01,8.100000000000000000e+01,5.100000000000000089e-01,8.541792500000000000e+09
6.500000000000000000e+01,8.900000000000000000e+01,3.780000000000000000e+02,6.300000000000000000e+01,2.900000000000000000e+01,3.000000000000000000e+01,2.800000000000000000e+01,7.500000000000000000e+01,5.100000000000000089e-01,8.561006800000000000e+09
6.500000000000000000e+01,1.040000000000000000e+02,4.090000000000000000e+02,6.400000000000000000e+01,2.700000000000000000e+01,2.800000000000000000e+01,2.800000000000000000e+01,6.000000000000000000e+01,5.100000000000000089e-01,8.582622200000000000e+09
6.500000000000000000e+01,1.040000000000000000e+02,3.950000000000000000e+02,6.000000000000000000e+01,2.700000000000000000e+01,3.100000000000000000e+01,3.100000000000000000e+01,6.400000000000000000e+01,5.200000000000000178e-01,8.605045600000000000e+09
6.900000000000000000e+01,1.000000000000000000e+02,3.630000000000000000e+02,5.500000000000000000e+01,2.800000000000000000e+01,2.600000000000000000e+01,3.000000000000000000e+01,6.000000000000000000e+01,5.200000000000000178e-01,8.623512300000000000e+09
5.600000000000000000e+01,9.900000000000000000e+01,3.170000000000000000e+02,5.600000000000000000e+01,2.700000000000000000e+01,2.500000000000000000e+01,3.100000000000000000e+01,6.200000000000000000e+01,5.200000000000000178e-01,8.642771900000000000e+09
5.500000000000000000e+01,1.030000000000000000e+02,3.190000000000000000e+02,5.400000000000000000e+01,2.500000000000000000e+01,2.600000000000000000e+01,3.300000000000000000e+01,7.700000000000000000e+01,5.200000000000000178e-01,8.662860200000000000e+09
5.300000000000000000e+01,1.080000000000000000e+02,2.950000000000000000e+02,5.500000000000000000e+01,2.500000000000000000e+01,2.600000000000000000e+01,3.200000000000000000e+01,8.500000000000000000e+01,5.200000000000000178e-01,8.682759800000000000e+09
6.100000000000000000e+01,1.050000000000000000e+02,3.160000000000000000e+02,6.000000000000000000e+01,2.600000000000000000e+01,2.600000000000000000e+01,3.100000000000000000e+01,8.600000000000000000e+01,5.200000000000000178e-01,8.704934500000000000e+09
6.800000000000000000e+01,1.160000000000000000e+02,3.350000000000000000e+02,6.000000000000000000e+01,2.400000000000000000e+01,2.800000000000000000e+01,3.700000000000000000e+01,1.210000000000000000e+02,5.200000000000000178e-01,8.726718400000000000e+09
6.900000000000000000e+01,1.160000000000000000e+02,3.200000000000000000e+02,5.800000000000000000e+01,2.900000000000000000e+01,3.100000000000000000e+01,4.900000000000000000e+01,1.290000000000000000e+02,5.200000000000000178e-01,8.745409200000000000e+09
7.300000000000000000e+01,1.420000000000000000e+02,3.790000000000000000e+02,6.300000000000000000e+01,3.000000000000000000e+01,3.100000000000000000e+01,5.000000000000000000e+01,1.280000000000000000e+02,5.200000000000000178e-01,8.763173700000000000e+09
8.100000000000000000e+01,1.390000000000000000e+02,3.550000000000000000e+02,5.900000000000000000e+01,2.900000000000000000e+01,3.200000000000000000e+01,5.200000000000000000e+01,1.240000000000000000e+02,5.200000000000000178e-01,8.783539400000000000e+09
7.400000000000000000e+01,1.400000000000000000e+02,3.720000000000000000e+02,6.000000000000000000e+01,3.100000000000000000e+01,3.100000000000000000e+01,5.200000000000000000e+01,1.260000000000000000e+02,5.200000000000000178e-01,8.804379400000000000e+09
6.400000000000000000e+01,1.300000000000000000e+02,3.500000000000000000e+02,5.900000000000000000e+01,3.000000000000000000e+01,3.200000000000000000e+01,5.000000000000000000e+01,1.010000000000000000e+02,5.200000000000000178e-01,8.826857900000000000e+09
7.100000000000000000e+01,1.500000000000000000e+02,3.510000000000000000e+02,6.300000000000000000e+01,2.900000000000000000e+01,3.100000000000000000e+01,4.000000000000000000e+01,1.000000000000000000e+02,5.200000000000000178e-01,8.845380400000000000e+09
6.500000000000000000e+01,1.270000000000000000e+02,2.850000000000000000e+02,6.000000000000000000e+01,2.900000000000000000e+01,2.900000000000000000e+01,3.600000000000000000e+01,9.200000000000000000e+01,5.200000000000000178e-01,8.865522300000000000e+09
6.100000000000000000e+01,1.180000000000000000e+02,3.200000000000000000e+02,6.300000000000000000e+01,3.100000000000000000e+01,2.700000000000000000e+01,3.300000000000000000e+01,9.200000000000000000e+01,5.200000000000000178e-01,8.894537200000000000e+09
6.200000000000000000e+01,1.170000000000000000e+02,2.910000000000000000e+02,6.100000000000000000e+01,2.900000000000000000e+01,3.100000000000000000e+01,3.400000000000000000e+01,8.900000000000000000e+01,5.100000000000000089e-01,8.913838200000000000e+09
6.600000000000000000e+01,1.250000000000000000e+02,2.990000000000000000e+02,6.400000000000000000e+01,3.200000000000000000e+01,2.900000000000000000e+01,4.900000000000000000e+01,1.020000000000000000e+02,5.100000000000000089e-01,8.931610400000000000e+09
5.600000000000000000e+01,9.800000000000000000e+01,3.040000000000000000e+02,5.900000000000000000e+01,2.800000000000000000e+01,2.600000000000000000e+01,4.800000000000000000e+01,9.200000000000000000e+01,5.100000000000000089e-01,8.949804700000000000e+09
5.500000000000000000e+01,1.010000000000000000e+02,3.020000000000000000e+02,5.600000000000000000e+01,2.700000000000000000e+01,2.800000000000000000e+01,5.000000000000000000e+01,9.100000000000000000e+01,5.100000000000000089e-01,8.967451700000000000e+09
6.100000000000000000e+01,1.000000000000000000e+02,2.520000000000000000e+02,5.200000000000000000e+01,2.600000000000000000e+01,2.800000000000000000e+01,5.100000000000000000e+01,9.600000000000000000e+01,5.100000000000000089e-01,8.986028300000000000e+09
6.700000000000000000e+01,1.150000000000000000e+02,2.740000000000000000e+02,5.500000000000000000e+01,2.600000000000000000e+01,2.300000000000000000e+01,5.200000000000000000e+01,1.000000000000000000e+02,5.100000000000000089e-01,9.005716000000000000e+09
6.300000000000000000e+01,1.100000000000000000e+02,3.160000000000000000e+02,5.600000000000000000e+01,2.600000000000000000e+01,2.400000000000000000e+01,3.400000000000000000e+01,7.700000000000000000e+01,5.100000000000000089e-01,9.023989400000000000e+09
6.000000000000000000e+01,1.180000000000000000e+02,3.190000000000000000e+02,5.600000000000000000e+01,2.500000000000000000e+01,2.400000000000000000e+01,3.400000000000000000e+01,9.100000000000000000e+01,5.100000000000000089e-01,9.045920200000000000e+09
6.500000000000000000e+01,1.170000000000000000e+02,3.540000000000000000e+02,6.200000000000000000e+01,2.800000000000000000e+01,2.500000000000000000e+01,3.200000000000000000e+01,1.060000000000000000e+02,5.100000000000000089e-01,9.063877900000000000e+09
5.800000000000000000e+01,1.130000000000000000e+02,3.880000000000000000e+02,6.300000000000000000e+01,2.900000000000000000e+01,2.900000000000000000e+01,3.600000000000000000e+01,1.040000000000000000e+02,5.100000000000000089e-01,9.082009700000000000e+09
5.300000000000000000e+01,1.030000000000000000e+02,3.540000000000000000e+02,5.600000000000000000e+01,2.700000000000000000e+01,3.200000000000000000e+01,3.400000000000000000e+01,9.900000000000000000e+01,5.100000000000000089e-01,9.101362300000000000e+09
5.200000000000000000e+01,9.800000000000000000e+01,3.500000000000000000e+02,6.100000000000000000e+01,2.800000000000000000e+01,3.300000000000000000e+01,3.800000000000000000e+01,1.010000000000000000e+02,5.100000000000000089e-01,9.123607300000000000e+09
5.100000000000000000e+01,9.800000000000000000e+01,3.630000000000000000e+02,6.300000000000000000e+01,3.000000000000000000e+01,3.500000000000000000e+01,4.000000000000000000e+01,9.500000000000000000e+01,5.100000000000000089e-01,9.145937300000000000e+09
4.800000000000000000e+01,1.080000000000000000e+02,3.450000000000000000e+02,5.800000000000000000e+01,2.800000000000000000e+01,3.500000000000000000e+01,4.000000000000000000e+01,8.000000000000000000e+01,5.100000000000000089e-01,9.164647500000000000e+09
4.900000000000000000e+01,1.040000000000000000e+02,2.990000000000000000e+02,5.700000000000000000e+01,2.600000000000000000e+01,3.200000000000000000e+01,3.700000000000000000e+01,6.800000000000000000e+01,5.100000000000000089e-01,9.183213800000000000e+09
4.900000000000000000e+01,1.110000000000000000e+02,3.010000000000000000e+02,5.700000000000000000e+01,2.600000000000000000e+01,3.100000000000000000e+01,3.800000000000000000e+01,8.200000000000000000e+01,5.100000000000000089e-01,9.201452000000000000e+09
4.600000000000000000e+01,1.270000000000000000e+02,2.860000000000000000e+02,5.400000000000000000e+01,2.700000000000000000e+01,2.900000000000000000e+01,3.800000000000000000e+01,8.700000000000000000e+01,5.100000000000000089e-01,9.223689400000000000e+09
4.900000000000000000e+01,1.420000000000000000e+02,2.580000000000000000e+02,5.600000000000000000e+01,2.700000000000000000e+01,2.600000000000000000e+01,3.500000000000000000e+01,8.000000000000000000e+01,5.100000000000000089e-01,9.245993000000000000e+09
4.900000000000000000e+01,1.320000000000000000e+02,2.530000000000000000e+02,6.000000000000000000e+01,2.700000000000000000e+01,2.800000000000000000e+01,3.500000000000000000e+01,8.700000000000000000e+01,5.100000000000000089e-01,9.264216200000000000e+09
5.000000000000000000e+01,1.340000000000000000e+02,2.920000000000000000e+02,6.100000000000000000e+01,2.600000000000000000e+01,2.800000000000000000e+01,3.300000000000000000e+01,8.900000000000000000e+01,5.100000000000000089e-01,9.283724700000000000e+09
6.300000000000000000e+01,1.320000000000000000e+02,3.190000000000000000e+02,6.400000000000000000e+01,2.800000000000000000e+01,2.900000000000000000e+01,3.200000000000000000e+01,9.400000000000000000e+01,5.100000000000000089e-01,9.303285800000000000e+09
6.400000000000000000e+01,1.440000000000000000e+02,3.140000000000000000e+02,6.200000000000000000e+01,2.800000000000000000e+01,3.100000000000000000e+01,2.800000000000000000e+01,8.700000000000000000e+01,5.100000000000000089e-01,9.323608500000000000e+09
6.100000000000000000e+01,1.250000000000000000e+02,3.100000000000000000e+02,6.400000000000000000e+01,2.800000000000000000e+01,3.200000000000000000e+01,2.800000000000000000e+01,8.900000000000000000e+01,5.100000000000000089e-01,9.345822700000000000e+09
7.100000000000000000e+01,1.260000000000000000e+02,2.870000000000000000e+02,5.900000000000000000e+01,2.800000000000000000e+01,2.900000000000000000e+01,2.800000000000000000e+01,8.200000000000000000e+01,5.000000000000000000e-01,9.364678100000000000e+09
7.500000000000000000e+01,1.320000000000000000e+02,2.640000000000000000e+02,6.100000000000000000e+01,2.800000000000000000e+01,2.700000000000000000e+01,3.400000000000000000e+01,8.800000000000000000e+01,5.000000000000000000e-01,9.383361700000000000e+09
6.700000000000000000e+01,1.330000000000000000e+02,2.340000000000000000e+02,5.600000000000000000e+01,2.600000000000000000e+01,2.600000000000000000e+01,3.300000000000000000e+01,8.000000000000000000e+01,5.000000000000000000e-01,9.401573500000000000e+09
6.800000000000000000e+01,1.010000000000000000e+02,2.140000000000000000e+02,5.800000000000000000e+01,2.700000000000000000e+01,2.500000000000000000e+01,3.900000000000000000e+01,7.700000000000000000e+01,5.000000000000000000e-01,9.423591800000000000e+09
7.000000000000000000e+01,9.700000000000000000e+01,2.090000000000000000e+02,5.200000000000000000e+01,2.600000000000000000e+01,2.400000000000000000e+01,3.900000000000000000e+01,7.500000000000000000e+01,5.100000000000000089e-01,9.445659000000000000e+09
6.600000000000000000e+01,9.600000000000000000e+01,2.100000000000000000e+02,5.100000000000000000e+01,2.400000000000000000e+01,2.500000000000000000e+01,4.600000000000000000e+01,8.300000000000000000e+01,5.100000000000000089e-01,9.464371000000000000e+09
5.800000000000000000e+01,1.110000000000000000e+02,2.640000000000000000e+02,5.500000000000000000e+01,2.600000000000000000e+01,2.500000000000000000e+01,4.100000000000000000e+01,7.600000000000000000e+01,5.100000000000000089e-01,9.483063800000000000e+09
8.400000000000000000e+01,9.800000000000000000e+01,3.070000000000000000e+02,5.700000000000000000e+01,2.800000000000000000e+01,2.500000000000000000e+01,4.300000000000000000e+01,6.600000000000000000e+01,5.100000000000000089e-01,9.501889600000000000e+09
9.700000000000000000e+01,1.080000000000000000e+02,3.410000000000000000e+02,5.600000000000000000e+01,2.500000000000000000e+01,2.500000000000000000e+01,3.800000000000000000e+01,7.300000000000000000e+01,5.100000000000000089e-01,9.525567300000000000e+09
9.900000000000000000e+01,1.140000000000000000e+02,3.430000000000000000e+02,5.500000000000000000e+01,2.600000000000000000e+01,2.900000000000000000e+01,4.000000000000000000e+01,7.700000000000000000e+01,5.100000000000000089e-01,9.544110900000000000e+09
1.010000000000000000e+02,1.300000000000000000e+02,3.870000000000000000e+02,5.800000000000000000e+01,2.500000000000000000e+01,3.000000000000000000e+01,2.900000000000000000e+01,6.800000000000000000e+01,5.100000000000000089e-01,9.563295000000000000e+09
1.050000000000000000e+02,1.210000000000000000e+02,3.410000000000000000e+02,5.200000000000000000e+01,2.700000000000000000e+01,3.000000000000000000e+01,3.100000000000000000e+01,6.400000000000000000e+01,5.100000000000000089e-01,9.582192800000000000e+09
8.600000000000000000e+01,1.250000000000000000e+02,3.070000000000000000e+02,4.900000000000000000e+01,2.400000000000000000e+01,2.900000000000000000e+01,3.100000000000000000e+01,6.300000000000000000e+01,5.100000000000000089e-01,9.604051500000000000e+09
7.100000000000000000e+01,1.170000000000000000e+02,2.550000000000000000e+02,4.200000000000000000e+01,2.700000000000000000e+01,2.800000000000000000e+01,3.300000000000000000e+01,5.900000000000000000e+01,5.100000000000000089e-01,9.626214600000000000e+09
6.700000000000000000e+01,1.170000000000000000e+02,3.030000000000000000e+02,4.500000000000000000e+01,2.900000000000000000e+01,2.600000000000000000e+01,3.200000000000000000e+01,6.300000000000000000e+01,5.100000000000000089e-01,9.644997700000000000e+09
7.300000000000000000e+01,1.030000000000000000e+02,2.560000000000000000e+02,4.400000000000000000e+01,2.900000000000000000e+01,2.700000000000000000e+01,3.700000000000000000e+01,6.500000000000000000e+01,5.100000000000000089e-01,9.664180200000000000e+09
7.000000000000000000e+01,9.300000000000000000e+01,2.610000000000000000e+02,4.200000000000000000e+01,2.900000000000000000e+01,2.600000000000000000e+01,3.700000000000000000e+01,6.700000000000000000e+01,5.100000000000000089e-01,9.684331500000000000e+09
7.000000000000000000e+01,1.000000000000000000e+02,2.590000000000000000e+02,4.100000000000000000e+01,3.100000000000000000e+01,2.900000000000000000e+01,3.500000000000000000e+01,6.400000000000000000e+01,5.100000000000000089e-01,9.704103000000000000e+09
7.300000000000000000e+01,1.180000000000000000e+02,2.860000000000000000e+02,4.900000000000000000e+01,3.000000000000000000e+01,2.700000000000000000e+01,3.600000000000000000e+01,7.000000000000000000e+01,5.100000000000000089e-01,9.726147300000000000e+09
7.400000000000000000e+01,1.140000000000000000e+02,2.260000000000000000e+02,4.400000000000000000e+01,2.700000000000000000e+01,2.600000000000000000e+01,3.500000000000000000e+01,8.100000000000000000e+01,5.100000000000000089e-01,9.745523300000000000e+09
7.000000000000000000e+01,1.320000000000000000e+02,2.320000000000000000e+02,4.300000000000000000e+01,2.900000000000000000e+01,2.600000000000000000e+01,3.700000000000000000e+01,8.400000000000000000e+01,5.100000000000000089e-01,9.765067100000000000e+09
7.000000000000000000e+01,1.390000000000000000e+02,2.320000000000000000e+02,4.300000000000000000e+01,2.700000000000000000e+01,2.600000000000000000e+01,3.700000000000000000e+01,8.100000000000000000e+01,5.100000000000000089e-01,9.785022900000000000e+09
6.700000000000000000e+01,1.320000000000000000e+02,2.290000000000000000e+02,4.900000000000000000e+01,2.400000000000000000e+01,2.100000000000000000e+01,3.800000000000000000e+01,8.700000000000000000e+01,5.100000000000000089e-01,9.803607400000000000e+09
6.500000000000000000e+01,1.270000000000000000e+02,2.180000000000000000e+02,4.300000000000000000e+01,2.400000000000000000e+01,2.700000000000000000e+01,3.500000000000000000e+01,8.100000000000000000e+01,5.100000000000000089e-01,9.824790100000000000e+09
6.300000000000000000e+01,1.340000000000000000e+02,2.420000000000000000e+02,4.900000000000000000e+01,2.500000000000000000e+01,2.800000000000000000e+01,3.500000000000000000e+01,6.600000000000000000e+01,5.100000000000000089e-01,9.843297200000000000e+09
7.200000000000000000e+01,1.430000000000000000e+02,2.420000000000000000e+02,4.900000000000000000e+01,2.300000000000000000e+01,2.900000000000000000e+01,2.900000000000000000e+01,6.600000000000000000e+01,5.100000000000000089e-01,9.862982200000000000e+09
6.900000000000000000e+01,1.340000000000000000e+02,2.420000000000000000e+02,5.400000000000000000e+01,2.500000000000000000e+01,3.200000000000000000e+01,2.900000000000000000e+01,7.400000000000000000e+01,5.100000000000000089e-01,9.881893900000000000e+09
6.900000000000000000e+01,1.440000000000000000e+02,2.350000000000000000e+02,5.000000000000000000e+01,2.700000000000000000e+01,3.400000000000000000e+01,2.800000000000000000e+01,6.900000000000000000e+01,5.100000000000000089e-01,9.902690800000000000e+09
8.000000000000000000e+01,1.420000000000000000e+02,2.580000000000000000e+02,5.200000000000000000e+01,2.500000000000000000e+01,3.200000000000000000e+01,3.000000000000000000e+01,6.900000000000000000e+01,5.100000000000000089e-01,9.924795400000000000e+09
8.500000000000000000e+01,1.420000000000000000e+02,2.570000000000000000e+02,4.800000000000000000e+01,2.600000000000000000e+01,3.500000000000000000e+01,3.500000000000000000e+01,8.500000000000000000e+01,5.100000000000000089e-01,9.944528200000000000e+09
6.900000000000000000e+01,1.110000000000000000e+02,2.690000000000000000e+02,5.000000000000000000e+01,2.600000000000000000e+01,3.300000000000000000e+01,3.700000000000000000e+01,7.800000000000000000e+01,5.100000000000000089e-01,9.965415800000000000e+09
7.300000000000000000e+01,1.260000000000000000e+02,2.890000000000000000e+02,5.100000000000000000e+01,2.500000000000000000e+01,3.300000000000000000e+01,3.700000000000000000e+01,7.600000000000000000e+01,5.100000000000000089e-01,9.984022100000000000e+09
7.600000000000000000e+01,1.280000000000000000e+02,2.960000000000000000e+02,5.300000000000000000e+01,2.500000000000000000e+01,3.200000000000000000e+01,4.000000000000000000e+01,7.600000000000000000e+01,5.100000000000000089e-01,1.000398540000000000e+10
6.400000000000000000e+01,1.360000000000000000e+02,2.570000000000000000e+02,5.200000000000000000e+01,2.500000000000000000e+01,3.200000000000000000e+01,4.200000000000000000e+01,8.900000000000000000e+01,5.100000000000000089e-01,1.002481050000000000e+10
6.300000000000000000e+01,1.420000000000000000e+02,2.730000000000000000e+02,6.200000000000000000e+01,2.600000000000000000e+01,2.900000000000000000e+01,3.700000000000000000e+01,7.700000000000000000e+01,5.100000000000000089e-01,1.004683750000000000e+10
6.500000000000000000e+01,1.540000000000000000e+02,2.630000000000000000e+02,6.000000000000000000e+01,2.700000000000000000e+01,2.800000000000000000e+01,3.400000000000000000e+01,8.200000000000000000e+01,5.100000000000000089e-01,1.006522770000000000e+10
6.600000000000000000e+01,1.460000000000000000e+02,2.610000000000000000e+02,5.700000000000000000e+01,2.600000000000000000e+01,2.700000000000000000e+01,3.400000000000000000e+01,8.800000000000000000e+01,5.100000000000000089e-01,1.008534870000000000e+10
5.900000000000000000e+01,1.340000000000000000e+02,3.150000000000000000e+02,5.800000000000000000e+01,2.700000000000000000e+01,2.800000000000000000e+01,3.100000000000000000e+01,1.050000000000000000e+02,5.100000000000000089e-01,1.010565770000000000e+10
6.900000000000000000e+01,1.230000000000000000e+02,3.190000000000000000e+02,6.100000000000000000e+01,2.600000000000000000e+01,2.700000000000000000e+01,2.600000000000000000e+01,9.600000000000000000e+01,5.100000000000000089e-01,1.012676620000000000e+10
6.300000000000000000e+01,1.130000000000000000e+02,3.700000000000000000e+02,5.600000000000000000e+01,2.500000000000000000e+01,2.500000000000000000e+01,2.600000000000000000e+01,9.100000000000000000e+01,5.100000000000000089e-01,1.014684190000000000e+10
7.600000000000000000e+01,9.500000000000000000e+01,3.800000000000000000e+02,5.600000000000000000e+01,2.500000000000000000e+01,2.600000000000000000e+01,2.800000000000000000e+01,1.000000000000000000e+02,5.100000000000000089e-01,1.016569380000000000e+10
7.000000000000000000e+01,9.300000000000000000e+01,3.800000000000000000e+02,5.700000000000000000e+01,2.700000000000000000e+01,2.500000000000000000e+01,3.000000000000000000e+01,9.300000000000000000e+01,5.100000000000000089e-01,1.018518510000000000e+10
7.300000000000000000e+01,9.400000000000000000e+01,3.390000000000000000e+02,5.400000000000000000e+01,2.600000000000000000e+01,2.400000000000000000e+01,3.100000000000000000e+01,7.200000000000000000e+01,5.200000000000000178e-01,1.020541760000000000e+10
6.700000000000000000e+01,9.800000000000000000e+01,3.720000000000000000e+02,6.000000000000000000e+01,2.700000000000000000e+01,2.400000000000000000e+01,3.300000000000000000e+01,7.800000000000000000e+01,5.200000000000000178e-01,1.022460770000000000e+10
6.800000000000000000e+01,1.180000000000000000e+02,3.730000000000000000e+02,6.600000000000000000e+01,2.600000000000000000e+01,2.500000000000000000e+01,3.300000000000000000e+01,8.300000000000000000e+01,5.200000000000000178e-01,1.024677340000000000e+10
6.900000000000000000e+01,1.400000000000000000e+02,3.890000000000000000e+02,6.700000000000000000e+01,2.600000000000000000e+01,2.800000000000000000e+01,3.400000000000000000e+01,7.200000000000000000e+01,5.200000000000000178e-01,1.026667670000000000e+10
7.100000000000000000e+01,1.440000000000000000e+02,3.740000000000000000e+02,6.700000000000000000e+01,2.400000000000000000e+01,3.000000000000000000e+01,3.300000000000000000e+01,7.800000000000000000e+01,5.200000000000000178e-01,1.028630790000000000e+10
7.300000000000000000e+01,1.480000000000000000e+02,3.800000000000000000e+02,7.100000000000000000e+01,2.400000000000000000e+01,2.900000000000000000e+01,3.100000000000000000e+01,7.800000000000000000e+01,5.200000000000000178e-01,1.030598630000000000e+10
6.800000000000000000e+01,1.440000000000000000e+02,3.850000000000000000e+02,6.500000000000000000e+01,2.200000000000000000e+01,3.000000000000000000e+01,3.600000000000000000e+01,8.100000000000000000e+01,5.300000000000000266e-01,1.032591350000000000e+10
7.800000000000000000e+01,1.240000000000000000e+02,3.180000000000000000e+02,5.400000000000000000e+01,2.200000000000000000e+01,3.200000000000000000e+01,4.000000000000000000e+01,7.600000000000000000e+01,5.300000000000000266e-01,1.034539020000000000e+10
6.300000000000000000e+01,9.900000000000000000e+01,2.770000000000000000e+02,5.000000000000000000e+01,2.100000000000000000e+01,3.000000000000000000e+01,3.800000000000000000e+01,7.100000000000000000e+01,5.300000000000000266e-01,1.036417500000000000e+10
7.000000000000000000e+01,8.800000000000000000e+01,2.880000000000000000e+02,5.000000000000000000e+01,2.000000000000000000e+01,2.700000000000000000e+01,3.600000000000000000e+01,7.200000000000000000e+01,5.300000000000000266e-01,1.038349360000000000e+10
7.000000000000000000e+01,1.020000000000000000e+02,3.260000000000000000e+02,4.700000000000000000e+01,2.100000000000000000e+01,2.900000000000000000e+01,3.900000000000000000e+01,7.500000000000000000e+01,5.300000000000000266e-01,1.040686140000000000e+10
8.400000000000000000e+01,1.110000000000000000e+02,2.910000000000000000e+02,5.200000000000000000e+01,2.600000000000000000e+01,3.000000000000000000e+01,3.700000000000000000e+01,7.600000000000000000e+01,5.300000000000000266e-01,1.042645630000000000e+10
8.200000000000000000e+01,1.200000000000000000e+02,2.970000000000000000e+02,5.800000000000000000e+01,2.800000000000000000e+01,2.900000000000000000e+01,3.300000000000000000e+01,7.600000000000000000e+01,5.300000000000000266e-01,1.044618970000000000e+10
8.200000000000000000e+01,1.190000000000000000e+02,2.910000000000000000e+02,5.900000000000000000e+01,2.800000000000000000e+01,2.600000000000000000e+01,3.400000000000000000e+01,8.100000000000000000e+01,5.200000000000000178e-01,1.046462640000000000e+10
7.900000000000000000e+01,1.300000000000000000e+02,2.760000000000000000e+02,6.300000000000000000e+01,3.000000000000000000e+01,2.600000000000000000e+01,5.100000000000000000e+01,1.000000000000000000e+02,5.200000000000000178e-01,1.048433470000000000e+10
7.700000000000000000e+01,1.270000000000000000e+02,2.920000000000000000e+02,7.000000000000000000e+01,3.100000000000000000e+01,3.100000000000000000e+01,4.900000000000000000e+01,1.010000000000000000e+02,5.200000000000000178e-01,1.050236000000000000e+10
7.700000000000000000e+01,1.140000000000000000e+02,2.870000000000000000e+02,6.500000000000000000e+01,2.800000000000000000e+01,3.100000000000000000e+01,4.700000000000000000e+01,9.100000000000000000e+01,5.200000000000000178e-01,1.052301840000000000e+10
