2.800000000000000000e+02,4.700000000000000000e+01,3.300000000000000000e+01,2.500000000000000000e+01,2.400000000000000000e+01,2.600000000000000000e+01,4.200000000000000000e+01,1.130000000000000000e+02,4.199999999999999845e-01,4.703265000000000000e+08
2.460000000000000000e+02,4.200000000000000000e+01,3.100000000000000000e+01,2.500000000000000000e+01,2.300000000000000000e+01,2.500000000000000000e+01,4.200000000000000000e+01,1.170000000000000000e+02,4.099999999999999756e-01,4.994481000000000000e+08
2.390000000000000000e+02,3.900000000000000000e+01,3.000000000000000000e+01,2.400000000000000000e+01,2.300000000000000000e+01,2.700000000000000000e+01,4.400000000000000000e+01,1.210000000000000000e+02,4.099999999999999756e-01,1.125564800000000000e+09
2.530000000000000000e+02,4.400000000000000000e+01,2.800000000000000000e+01,2.600000000000000000e+01,2.600000000000000000e+01,2.700000000000000000e+01,4.500000000000000000e+01,1.220000000000000000e+02,4.099999999999999756e-01,1.144606300000000000e+09
2.790000000000000000e+02,5.900000000000000000e+01,2.900000000000000000e+01,2.500000000000000000e+01,2.600000000000000000e+01,2.700000000000000000e+01,4.400000000000000000e+01,1.470000000000000000e+02,4.099999999999999756e-01,1.164276900000000000e+09
2.300000000000000000e+02,5.800000000000000000e+01,2.800000000000000000e+01,2.200000000000000000e+01,2.400000000000000000e+01,2.900000000000000000e+01,4.200000000000000000e+01,1.440000000000000000e+02,4.099999999999999756e-01,1.181961700000000000e+09
2.180000000000000000e+02,5.700000000000000000e+01,2.600000000000000000e+01,2.500000000000000000e+01,2.400000000000000000e+01,2.900000000000000000e+01,4.300000000000000000e+01,1.420000000000000000e+02,4.099999999999999756e-01,1.199032200000000000e+09
2.280000000000000000e+02,5.700000000000000000e+01,2.700000000000000000e+01,2.500000000000000000e+01,2.500000000000000000e+01,2.900000000000000000e+01,4.500000000000000000e+01,1.470000000000000000e+02,4.099999999999999756e-01,1.216658000000000000e+09
2.530000000000000000e+02,5.500000000000000000e+01,3.000000000000000000e+01,2.400000000000000000e+01,2.200000000000000000e+01,2.900000000000000000e+01,4.300000000000000000e+01,1.480000000000000000e+02,4.099999999999999756e-01,1.234424500000000000e+09
2.330000000000000000e+02,4.500000000000000000e+01,2.900000000000000000e+01,2.500000000000000000e+01,2.400000000000000000e+01,2.900000000000000000e+01,4.300000000000000000e+01,1.150000000000000000e+02,4.099999999999999756e-01,1.251710600000000000e+09
2.170000000000000000e+02,5.100000000000000000e+01,2.900000000000000000e+01,2.500000000000000000e+01,2.400000000000000000e+01,2.800000000000000000e+01,3.800000000000000000e+01,1.050000000000000000e+02,4.099999999999999756e-01,1.269287800000000000e+09
2.330000000000000000e+02,5.600000000000000000e+01,3.200000000000000000e+01,2.300000000000000000e+01,2.500000000000000000e+01,3.300000000000000000e+01,3.900000000000000000e+01,1.080000000000000000e+02,4.099999999999999756e-01,1.286439500000000000e+09
2.320000000000000000e+02,5.700000000000000000e+01,3.400000000000000000e+01,2.400000000000000000e+01,2.400000000000000000e+01,3.000000000000000000e+01,3.600000000000000000e+01,1.250000000000000000e+02,4.099999999999999756e-01,1.302964500000000000e+09
1.920000000000000000e+02,5.700000000000000000e+01,3.100000000000000000e+01,2.700000000000000000e+01,2.500000000000000000e+01,3.200000000000000000e+01,3.900000000000000000e+01,1.360000000000000000e+02,4.099999999999999756e-01,1.319141200000000000e+09
1.780000000000000000e+02,5.600000000000000000e+01,2.900000000000000000e+01,2.600000000000000000e+01,2.300000000000000000e+01,3.200000000000000000e+01,3.600000000000000000e+01,1.300000000000000000e+02,4.099999999999999756e-01,1.336523500000000000e+09
2.170000000000000000e+02,5.400000000000000000e+01,3.100000000000000000e+01,2.600000000000000000e+01,2.300000000000000000e+01,3.300000000000000000e+01,4.000000000000000000e+01,1.300000000000000000e+02,4.099999999999999756e-01,1.353646200000000000e+09
2.120000000000000000e+02,5.000000000000000000e+01,2.800000000000000000e+01,2.800000000000000000e+01,2.200000000000000000e+01,3.000000000000000000e+01,4.100000000000000000e+01,1.380000000000000000e+02,4.099999999999999756e-01,1.370796700000000000e+09
2.010000000000000000e+02,4.900000000000000000e+01,2.600000000000000000e+01,2.800000000000000000e+01,2.200000000000000000e+01,3.000000000000000000e+01,4.100000000000000000e+01,1.210000000000000000e+02,4.099999999999999756e-01,1.387922000000000000e+09
2.050000000000000000e+02,5.400000000000000000e+01,2.600000000000000000e+01,2.400000000000000000e+01,2.200000000000000000e+01,3.500000000000000000e+01,4.900000000000000000e+01,1.100000000000000000e+02,4.099999999999999756e-01,1.438295500000000000e+09
2.170000000000000000e+02,5.300000000000000000e+01,2.800000000000000000e+01,2.200000000000000000e+01,2.100000000000000000e+01,3.500000000000000000e+01,5.100000000000000000e+01,1.180000000000000000e+02,4.199999999999999845e-01,1.456778400000000000e+09
1.890000000000000000e+02,4.800000000000000000e+01,2.500000000000000000e+01,2.200000000000000000e+01,2.500000000000000000e+01,3.400000000000000000e+01,5.000000000000000000e+01,1.170000000000000000e+02,4.199999999999999845e-01,1.474024600000000000e+09
1.930000000000000000e+02,5.600000000000000000e+01,2.700000000000000000e+01,2.100000000000000000e+01,2.600000000000000000e+01,3.300000000000000000e+01,4.700000000000000000e+01,1.120000000000000000e+02,4.199999999999999845e-01,1.491059800000000000e+09
2.260000000000000000e+02,5.600000000000000000e+01,2.700000000000000000e+01,2.200000000000000000e+01,2.700000000000000000e+01,3.500000000000000000e+01,4.800000000000000000e+01,1.290000000000000000e+02,4.199999999999999845e-01,1.507879100000000000e+09
2.290000000000000000e+02,5.300000000000000000e+01,2.500000000000000000e+01,2.600000000000000000e+01,2.700000000000000000e+01,2.900000000000000000e+01,3.900000000000000000e+01,1.340000000000000000e+02,4.199999999999999845e-01,1.524642500000000000e+09
2.310000000000000000e+02,4.900000000000000000e+01,2.300000000000000000e+01,2.600000000000000000e+01,2.600000000000000000e+01,2.900000000000000000e+01,3.600000000000000000e+01,1.350000000000000000e+02,4.199999999999999845e-01,1.541346300000000000e+09
2.200000000000000000e+02,4.900000000000000000e+01,2.500000000000000000e+01,2.600000000000000000e+01,2.100000000000000000e+01,3.000000000000000000e+01,3.600000000000000000e+01,1.430000000000000000e+02,4.199999999999999845e-01,1.558133600000000000e+09
2.530000000000000000e+02,4.000000000000000000e+01,2.500000000000000000e+01,2.700000000000000000e+01,2.000000000000000000e+01,3.000000000000000000e+01,4.600000000000000000e+01,1.480000000000000000e+02,4.199999999999999845e-01,1.576794100000000000e+09
2.210000000000000000e+02,3.800000000000000000e+01,2.500000000000000000e+01,2.700000000000000000e+01,2.000000000000000000e+01,2.800000000000000000e+01,4.500000000000000000e+01,1.310000000000000000e+02,4.199999999999999845e-01,1.594535000000000000e+09
2.350000000000000000e+02,3.800000000000000000e+01,2.600000000000000000e+01,2.300000000000000000e+01,1.900000000000000000e+01,3.100000000000000000e+01,4.800000000000000000e+01,1.420000000000000000e+02,4.199999999999999845e-01,1.613020900000000000e+09
2.550000000000000000e+02,4.600000000000000000e+01,2.800000000000000000e+01,2.400000000000000000e+01,2.300000000000000000e+01,3.300000000000000000e+01,4.900000000000000000e+01,1.340000000000000000e+02,4.199999999999999845e-01,1.631193300000000000e+09
2.640000000000000000e+02,4.700000000000000000e+01,3.000000000000000000e+01,2.500000000000000000e+01,2.500000000000000000e+01,3.200000000000000000e+01,4.900000000000000000e+01,1.250000000000000000e+02,4.199999999999999845e-01,1.649799900000000000e+09
2.250000000000000000e+02,4.500000000000000000e+01,2.800000000000000000e+01,2.500000000000000000e+01,2.500000000000000000e+01,3.200000000000000000e+01,4.200000000000000000e+01,1.220000000000000000e+02,4.199999999999999845e-01,1.667022200000000000e+09
2.440000000000000000e+02,4.900000000000000000e+01,2.800000000000000000e+01,2.600000000000000000e+01,2.500000000000000000e+01,3.400000000000000000e+01,4.400000000000000000e+01,1.530000000000000000e+02,4.199999999999999845e-01,1.683710700000000000e+09
2.880000000000000000e+02,5.300000000000000000e+01,3.000000000000000000e+01,2.800000000000000000e+01,2.500000000000000000e+01,3.200000000000000000e+01,4.200000000000000000e+01,1.510000000000000000e+02,4.199999999999999845e-01,1.700536000000000000e+09
2.600000000000000000e+02,5.600000000000000000e+01,3.300000000000000000e+01,2.700000000000000000e+01,2.400000000000000000e+01,2.800000000000000000e+01,4.000000000000000000e+01,1.460000000000000000e+02,4.199999999999999845e-01,1.723291600000000000e+09
2.500000000000000000e+02,5.400000000000000000e+01,2.900000000000000000e+01,2.600000000000000000e+01,2.300000000000000000e+01,2.800000000000000000e+01,4.000000000000000000e+01,1.560000000000000000e+02,4.199999999999999845e-01,1.743068200000000000e+09
2.560000000000000000e+02,5.700000000000000000e+01,3.000000000000000000e+01,2.700000000000000000e+01,2.400000000000000000e+01,3.000000000000000000e+01,4.100000000000000000e+01,1.570000000000000000e+02,4.199999999999999845e-01,1.760320700000000000e+09
2.470000000000000000e+02,6.300000000000000000e+01,3.300000000000000000e+01,2.700000000000000000e+01,2.400000000000000000e+01,2.700000000000000000e+01,3.700000000000000000e+01,1.310000000000000000e+02,4.199999999999999845e-01,1.778356100000000000e+09
1.710000000000000000e+02,6.800000000000000000e+01,3.200000000000000000e+01,2.600000000000000000e+01,2.500000000000000000e+01,2.600000000000000000e+01,3.400000000000000000e+01,1.280000000000000000e+02,4.199999999999999845e-01,1.797685500000000000e+09
2.520000000000000000e+02,7.400000000000000000e+01,3.300000000000000000e+01,2.500000000000000000e+01,2.400000000000000000e+01,2.600000000000000000e+01,3.600000000000000000e+01,1.290000000000000000e+02,4.199999999999999845e-01,1.815681000000000000e+09
2.530000000000000000e+02,7.700000000000000000e+01,3.600000000000000000e+01,2.600000000000000000e+01,2.400000000000000000e+01,2.600000000000000000e+01,3.400000000000000000e+01,1.220000000000000000e+02,4.199999999999999845e-01,1.833556100000000000e+09
2.410000000000000000e+02,8.400000000000000000e+01,3.600000000000000000e+01,2.400000000000000000e+01,2.400000000000000000e+01,2.700000000000000000e+01,3.700000000000000000e+01,1.190000000000000000e+02,4.199999999999999845e-01,1.851367800000000000e+09
2.550000000000000000e+02,8.000000000000000000e+01,3.500000000000000000e+01,2.400000000000000000e+01,2.400000000000000000e+01,3.100000000000000000e+01,4.100000000000000000e+01,1.130000000000000000e+02,4.199999999999999845e-01,1.869448100000000000e+09
2.940000000000000000e+02,7.700000000000000000e+01,3.400000000000000000e+01,2.400000000000000000e+01,2.400000000000000000e+01,3.100000000000000000e+01,4.100000000000000000e+01,1.040000000000000000e+02,4.199999999999999845e-01,1.887093000000000000e+09
2.460000000000000000e+02,6.500000000000000000e+01,3.200000000000000000e+01,2.500000000000000000e+01,2.500000000000000000e+01,3.100000000000000000e+01,3.900000000000000000e+01,1.000000000000000000e+02,4.199999999999999845e-01,1.904497500000000000e+09
2.440000000000000000e+02,6.800000000000000000e+01,3.300000000000000000e+01,2.700000000000000000e+01,2.600000000000000000e+01,3.100000000000000000e+01,3.900000000000000000e+01,1.420000000000000000e+02,4.199999999999999845e-01,1.924647100000000000e+09
2.490000000000000000e+02,5.800000000000000000e+01,3.100000000000000000e+01,2.600000000000000000e+01,2.800000000000000000e+01,2.900000000000000000e+01,3.800000000000000000e+01,1.350000000000000000e+02,4.199999999999999845e-01,1.978332400000000000e+09
2.500000000000000000e+02,5.600000000000000000e+01,3.200000000000000000e+01,2.400000000000000000e+01,2.800000000000000000e+01,2.500000000000000000e+01,3.900000000000000000e+01,1.330000000000000000e+02,4.199999999999999845e-01,2.042189400000000000e+09
1.990000000000000000e+02,5.100000000000000000e+01,3.300000000000000000e+01,2.400000000000000000e+01,2.800000000000000000e+01,2.700000000000000000e+01,4.000000000000000000e+01,1.370000000000000000e+02,4.199999999999999845e-01,2.079634400000000000e+09
1.810000000000000000e+02,5.100000000000000000e+01,3.200000000000000000e+01,2.500000000000000000e+01,2.700000000000000000e+01,2.800000000000000000e+01,4.000000000000000000e+01,1.370000000000000000e+02,4.199999999999999845e-01,2.105065000000000000e+09
2.360000000000000000e+02,5.100000000000000000e+01,3.200000000000000000e+01,2.200000000000000000e+01,2.700000000000000000e+01,3.200000000000000000e+01,4.600000000000000000e+01,9.400000000000000000e+01,4.199999999999999845e-01,2.126953900000000000e+09
2.320000000000000000e+02,5.200000000000000000e+01,3.500000000000000000e+01,2.400000000000000000e+01,2.600000000000000000e+01,3.400000000000000000e+01,4.500000000000000000e+01,1.120000000000000000e+02,4.199999999999999845e-01,2.146766900000000000e+09
2.170000000000000000e+02,6.100000000000000000e+01,3.600000000000000000e+01,2.500000000000000000e+01,2.500000000000000000e+01,3.400000000000000000e+01,4.400000000000000000e+01,1.270000000000000000e+02,4.199999999999999845e-01,2.168714100000000000e+09
2.380000000000000000e+02,6.200000000000000000e+01,3.500000000000000000e+01,2.400000000000000000e+01,2.500000000000000000e+01,3.400000000000000000e+01,4.300000000000000000e+01,1.160000000000000000e+02,4.199999999999999845e-01,2.190580700000000000e+09
2.550000000000000000e+02,7.200000000000000000e+01,3.500000000000000000e+01,2.500000000000000000e+01,2.500000000000000000e+01,3.400000000000000000e+01,4.900000000000000000e+01,1.420000000000000000e+02,4.199999999999999845e-01,2.213203600000000000e+09
2.150000000000000000e+02,6.900000000000000000e+01,3.700000000000000000e+01,2.500000000000000000e+01,2.400000000000000000e+01,3.100000000000000000e+01,4.400000000000000000e+01,1.780000000000000000e+02,4.199999999999999845e-01,2.235038000000000000e+09
2.110000000000000000e+02,6.800000000000000000e+01,3.600000000000000000e+01,2.300000000000000000e+01,2.400000000000000000e+01,2.700000000000000000e+01,4.200000000000000000e+01,1.710000000000000000e+02,4.099999999999999756e-01,2.255564600000000000e+09
2.490000000000000000e+02,6.100000000000000000e+01,3.500000000000000000e+01,2.300000000000000000e+01,2.500000000000000000e+01,2.600000000000000000e+01,3.800000000000000000e+01,1.690000000000000000e+02,4.099999999999999756e-01,2.274929100000000000e+09
2.370000000000000000e+02,6.000000000000000000e+01,3.500000000000000000e+01,2.600000000000000000e+01,2.200000000000000000e+01,2.800000000000000000e+01,4.400000000000000000e+01,1.810000000000000000e+02,4.099999999999999756e-01,2.294641000000000000e+09
2.160000000000000000e+02,5.300000000000000000e+01,3.600000000000000000e+01,2.700000000000000000e+01,2.300000000000000000e+01,2.800000000000000000e+01,3.700000000000000000e+01,1.630000000000000000e+02,4.099999999999999756e-01,2.313579200000000000e+09
2.260000000000000000e+02,5.700000000000000000e+01,3.200000000000000000e+01,2.800000000000000000e+01,2.300000000000000000e+01,3.000000000000000000e+01,3.900000000000000000e+01,1.240000000000000000e+02,4.099999999999999756e-01,2.331410900000000000e+09
3.080000000000000000e+02,5.400000000000000000e+01,3.000000000000000000e+01,2.700000000000000000e+01,2.500000000000000000e+01,3.000000000000000000e+01,3.900000000000000000e+01,1.390000000000000000e+02,4.099999999999999756e-01,2.350976700000000000e+09
2.820000000000000000e+02,5.300000000000000000e+01,2.900000000000000000e+01,2.800000000000000000e+01,2.300000000000000000e+01,3.000000000000000000e+01,4.100000000000000000e+01,1.310000000000000000e+02,4.099999999999999756e-01,2.371347300000000000e+09
2.880000000000000000e+02,5.400000000000000000e+01,2.800000000000000000e+01,2.500000000000000000e+01,2.500000000000000000e+01,2.900000000000000000e+01,4.300000000000000000e+01,1.400000000000000000e+02,4.099999999999999756e-01,2.390837300000000000e+09
3.290000000000000000e+02,4.800000000000000000e+01,3.000000000000000000e+01,2.400000000000000000e+01,2.600000000000000000e+01,3.100000000000000000e+01,4.900000000000000000e+01,1.700000000000000000e+02,4.099999999999999756e-01,2.410697200000000000e+09
3.250000000000000000e+02,4.100000000000000000e+01,3.000000000000000000e+01,2.500000000000000000e+01,2.500000000000000000e+01,2.800000000000000000e+01,4.800000000000000000e+01,1.770000000000000000e+02,4.099999999999999756e-01,2.431664700000000000e+09
2.610000000000000000e+02,5.100000000000000000e+01,3.000000000000000000e+01,2.800000000000000000e+01,2.500000000000000000e+01,3.100000000000000000e+01,5.200000000000000000e+01,1.930000000000000000e+02,4.099999999999999756e-01,2.450821000000000000e+09
2.570000000000000000e+02,5.500000000000000000e+01,2.900000000000000000e+01,2.700000000000000000e+01,2.600000000000000000e+01,3.100000000000000000e+01,5.300000000000000000e+01,1.980000000000000000e+02,4.099999999999999756e-01,2.470210000000000000e+09
2.780000000000000000e+02,5.500000000000000000e+01,3.100000000000000000e+01,2.900000000000000000e+01,2.500000000000000000e+01,3.200000000000000000e+01,5.300000000000000000e+01,1.970000000000000000e+02,4.099999999999999756e-01,2.488771300000000000e+09
2.350000000000000000e+02,5.400000000000000000e+01,2.900000000000000000e+01,2.900000000000000000e+01,2.200000000000000000e+01,3.000000000000000000e+01,5.200000000000000000e+01,1.690000000000000000e+02,4.099999999999999756e-01,2.507095600000000000e+09
2.400000000000000000e+02,5.700000000000000000e+01,2.900000000000000000e+01,2.700000000000000000e+01,2.400000000000000000e+01,3.100000000000000000e+01,5.700000000000000000e+01,1.700000000000000000e+02,4.099999999999999756e-01,2.526207300000000000e+09
2.630000000000000000e+02,4.700000000000000000e+01,2.700000000000000000e+01,2.400000000000000000e+01,2.400000000000000000e+01,3.200000000000000000e+01,5.900000000000000000e+01,1.460000000000000000e+02,4.099999999999999756e-01,2.545478200000000000e+09
2.600000000000000000e+02,4.200000000000000000e+01,2.900000000000000000e+01,2.600000000000000000e+01,2.400000000000000000e+01,3.300000000000000000e+01,6.600000000000000000e+01,1.390000000000000000e+02,4.099999999999999756e-01,2.564432700000000000e+09
2.180000000000000000e+02,4.100000000000000000e+01,2.700000000000000000e+01,2.500000000000000000e+01,2.400000000000000000e+01,3.600000000000000000e+01,6.600000000000000000e+01,1.460000000000000000e+02,4.099999999999999756e-01,2.583726000000000000e+09
2.430000000000000000e+02,4.500000000000000000e+01,2.500000000000000000e+01,2.300000000000000000e+01,2.500000000000000000e+01,4.000000000000000000e+01,7.800000000000000000e+01,1.830000000000000000e+02,4.099999999999999756e-01,2.602551300000000000e+09
2.470000000000000000e+02,4.900000000000000000e+01,2.500000000000000000e+01,2.500000000000000000e+01,2.500000000000000000e+01,4.200000000000000000e+01,8.700000000000000000e+01,1.710000000000000000e+02,4.099999999999999756e-01,2.620910100000000000e+09
2.180000000000000000e+02,5.500000000000000000e+01,2.500000000000000000e+01,2.600000000000000000e+01,2.400000000000000000e+01,4.100000000000000000e+01,8.700000000000000000e+01,1.630000000000000000e+02,4.199999999999999845e-01,2.640287900000000000e+09
2.090000000000000000e+02,5.600000000000000000e+01,2.700000000000000000e+01,2.400000000000000000e+01,2.400000000000000000e+01,4.100000000000000000e+01,8.700000000000000000e+01,1.830000000000000000e+02,4.199999999999999845e-01,2.659071900000000000e+09
2.400000000000000000e+02,5.700000000000000000e+01,2.800000000000000000e+01,2.300000000000000000e+01,2.400000000000000000e+01,3.600000000000000000e+01,8.500000000000000000e+01,1.700000000000000000e+02,4.199999999999999845e-01,2.678359200000000000e+09
2.120000000000000000e+02,5.800000000000000000e+01,2.900000000000000000e+01,2.300000000000000000e+01,2.300000000000000000e+01,3.400000000000000000e+01,8.000000000000000000e+01,1.360000000000000000e+02,4.199999999999999845e-01,2.697218400000000000e+09
1.890000000000000000e+02,5.300000000000000000e+01,2.900000000000000000e+01,2.400000000000000000e+01,2.200000000000000000e+01,3.100000000000000000e+01,7.200000000000000000e+01,1.400000000000000000e+02,4.199999999999999845e-01,2.715919700000000000e+09
1.950000000000000000e+02,4.900000000000000000e+01,2.800000000000000000e+01,2.500000000000000000e+01,2.200000000000000000e+01,3.200000000000000000e+01,7.800000000000000000e+01,1.330000000000000000e+02,4.199999999999999845e-01,2.735056800000000000e+09
2.250000000000000000e+02,4.800000000000000000e+01,2.800000000000000000e+01,2.500000000000000000e+01,2.200000000000000000e+01,3.200000000000000000e+01,7.100000000000000000e+01,1.300000000000000000e+02,4.199999999999999845e-01,2.753875800000000000e+09
1.940000000000000000e+02,5.000000000000000000e+01,2.900000000000000000e+01,2.600000000000000000e+01,2.400000000000000000e+01,3.400000000000000000e+01,7.400000000000000000e+01,1.400000000000000000e+02,4.199999999999999845e-01,2.771712600000000000e+09
1.830000000000000000e+02,5.500000000000000000e+01,2.900000000000000000e+01,2.600000000000000000e+01,2.500000000000000000e+01,3.100000000000000000e+01,7.000000000000000000e+01,1.410000000000000000e+02,4.199999999999999845e-01,2.790073400000000000e+09
2.350000000000000000e+02,6.000000000000000000e+01,3.400000000000000000e+01,2.500000000000000000e+01,2.300000000000000000e+01,3.600000000000000000e+01,6.900000000000000000e+01,1.450000000000000000e+02,4.199999999999999845e-01,2.807604400000000000e+09
2.300000000000000000e+02,6.000000000000000000e+01,3.300000000000000000e+01,2.200000000000000000e+01,2.400000000000000000e+01,3.400000000000000000e+01,5.700000000000000000e+01,1.560000000000000000e+02,4.299999999999999933e-01,2.827331400000000000e+09
2.010000000000000000e+02,6.200000000000000000e+01,3.300000000000000000e+01,2.600000000000000000e+01,2.400000000000000000e+01,3.300000000000000000e+01,6.100000000000000000e+01,1.530000000000000000e+02,4.299999999999999933e-01,2.845267600000000000e+09
2.030000000000000000e+02,6.000000000000000000e+01,3.100000000000000000e+01,2.600000000000000000e+01,2.400000000000000000e+01,3.200000000000000000e+01,5.600000000000000000e+01,1.340000000000000000e+02,4.299999999999999933e-01,2.865263700000000000e+09
2.560000000000000000e+02,5.000000000000000000e+01,3.000000000000000000e+01,2.600000000000000000e+01,2.300000000000000000e+01,3.100000000000000000e+01,5.500000000000000000e+01,1.380000000000000000e+02,4.299999999999999933e-01,2.883987100000000000e+09
2.170000000000000000e+02,5.400000000000000000e+01,2.600000000000000000e+01,2.700000000000000000e+01,2.600000000000000000e+01,2.700000000000000000e+01,5.100000000000000000e+01,1.400000000000000000e+02,4.299999999999999933e-01,2.902809200000000000e+09
2.100000000000000000e+02,5.600000000000000000e+01,2.900000000000000000e+01,2.800000000000000000e+01,2.500000000000000000e+01,2.700000000000000000e+01,5.300000000000000000e+01,1.370000000000000000e+02,4.299999999999999933e-01,2.920753600000000000e+09
2.720000000000000000e+02,5.400000000000000000e+01,2.800000000000000000e+01,2.600000000000000000e+01,2.700000000000000000e+01,2.800000000000000000e+01,4.900000000000000000e+01,1.260000000000000000e+02,4.299999999999999933e-01,2.938285900000000000e+09
2.780000000000000000e+02,5.300000000000000000e+01,3.000000000000000000e+01,2.700000000000000000e+01,2.500000000000000000e+01,2.600000000000000000e+01,4.800000000000000000e+01,1.250000000000000000e+02,4.299999999999999933e-01,2.957452900000000000e+09
2.350000000000000000e+02,5.700000000000000000e+01,3.000000000000000000e+01,2.800000000000000000e+01,2.700000000000000000e+01,3.200000000000000000e+01,4.900000000000000000e+01,1.240000000000000000e+02,4.299999999999999933e-01,2.975709000000000000e+09
2.290000000000000000e+02,5.800000000000000000e+01,3.000000000000000000e+01,2.600000000000000000e+01,2.600000000000000000e+01,3.200000000000000000e+01,5.800000000000000000e+01,1.140000000000000000e+02,4.299999999999999933e-01,2.993785300000000000e+09
2.880000000000000000e+02,5.600000000000000000e+01,3.300000000000000000e+01,2.400000000000000000e+01,2.600000000000000000e+01,3.400000000000000000e+01,6.200000000000000000e+01,1.120000000000000000e+02,4.299999999999999933e-01,3.011816600000000000e+09
2.450000000000000000e+02,6.000000000000000000e+01,3.200000000000000000e+01,2.300000000000000000e+01,2.300000000000000000e+01,3.600000000000000000e+01,6.800000000000000000e+01,1.070000000000000000e+02,4.299999999999999933e-01,3.030593900000000000e+09
2.360000000000000000e+02,6.200000000000000000e+01,3.300000000000000000e+01,2.400000000000000000e+01,2.500000000000000000e+01,3.700000000000000000e+01,6.700000000000000000e+01,1.120000000000000000e+02,4.299999999999999933e-01,3.050156900000000000e+09
2.350000000000000000e+02,6.800000000000000000e+01,3.500000000000000000e+01,2.300000000000000000e+01,2.100000000000000000e+01,3.100000000000000000e+01,6.500000000000000000e+01,1.020000000000000000e+02,4.299999999999999933e-01,3.068249500000000000e+09
2.750000000000000000e+02,6.200000000000000000e+01,3.600000000000000000e+01,2.300000000000000000e+01,2.000000000000000000e+01,3.100000000000000000e+01,5.500000000000000000e+01,1.060000000000000000e+02,4.299999999999999933e-01,3.091546300000000000e+09
2.280000000000000000e+02,6.400000000000000000e+01,3.100000000000000000e+01,2.300000000000000000e+01,2.000000000000000000e+01,3.300000000000000000e+01,5.000000000000000000e+01,1.300000000000000000e+02,4.299999999999999933e-01,3.110274900000000000e+09
2.230000000000000000e+02,5.900000000000000000e+01,3.100000000000000000e+01,2.200000000000000000e+01,2.200000000000000000e+01,3.100000000000000000e+01,4.800000000000000000e+01,1.250000000000000000e+02,4.299999999999999933e-01,3.129139800000000000e+09
2.230000000000000000e+02,6.000000000000000000e+01,3.200000000000000000e+01,1.900000000000000000e+01,1.900000000000000000e+01,3.200000000000000000e+01,5.400000000000000000e+01,1.210000000000000000e+02,4.299999999999999933e-01,3.148989900000000000e+09
2.580000000000000000e+02,6.500000000000000000e+01,3.200000000000000000e+01,2.100000000000000000e+01,2.200000000000000000e+01,3.600000000000000000e+01,5.200000000000000000e+01,1.360000000000000000e+02,4.299999999999999933e-01,3.167912000000000000e+09
2.360000000000000000e+02,6.400000000000000000e+01,2.900000000000000000e+01,2.200000000000000000e+01,2.300000000000000000e+01,3.700000000000000000e+01,5.500000000000000000e+01,1.360000000000000000e+02,4.299999999999999933e-01,3.185903500000000000e+09
2.230000000000000000e+02,6.400000000000000000e+01,3.000000000000000000e+01,2.400000000000000000e+01,2.300000000000000000e+01,3.900000000000000000e+01,6.100000000000000000e+01,1.260000000000000000e+02,4.299999999999999933e-01,3.203692400000000000e+09
2.980000000000000000e+02,6.600000000000000000e+01,3.200000000000000000e+01,2.500000000000000000e+01,2.200000000000000000e+01,4.000000000000000000e+01,6.000000000000000000e+01,1.420000000000000000e+02,4.299999999999999933e-01,3.221955300000000000e+09
3.050000000000000000e+02,7.400000000000000000e+01,3.000000000000000000e+01,2.500000000000000000e+01,2.300000000000000000e+01,4.500000000000000000e+01,6.400000000000000000e+01,1.470000000000000000e+02,4.299999999999999933e-01,3.239624300000000000e+09
2.850000000000000000e+02,7.000000000000000000e+01,3.400000000000000000e+01,2.300000000000000000e+01,2.100000000000000000e+01,4.300000000000000000e+01,6.400000000000000000e+01,1.300000000000000000e+02,4.299999999999999933e-01,3.257853400000000000e+09
2.760000000000000000e+02,6.700000000000000000e+01,3.300000000000000000e+01,2.600000000000000000e+01,2.200000000000000000e+01,4.600000000000000000e+01,6.300000000000000000e+01,1.340000000000000000e+02,4.299999999999999933e-01,3.276432600000000000e+09
3.000000000000000000e+02,6.500000000000000000e+01,3.300000000000000000e+01,2.400000000000000000e+01,2.200000000000000000e+01,4.100000000000000000e+01,5.900000000000000000e+01,1.330000000000000000e+02,4.299999999999999933e-01,3.295737200000000000e+09
2.170000000000000000e+02,6.400000000000000000e+01,3.300000000000000000e+01,2.200000000000000000e+01,2.100000000000000000e+01,4.400000000000000000e+01,5.800000000000000000e+01,1.180000000000000000e+02,4.299999999999999933e-01,3.313684900000000000e+09
2.100000000000000000e+02,6.100000000000000000e+01,3.300000000000000000e+01,2.200000000000000000e+01,2.200000000000000000e+01,3.700000000000000000e+01,5.400000000000000000e+01,1.170000000000000000e+02,4.299999999999999933e-01,3.332009300000000000e+09
2.190000000000000000e+02,5.100000000000000000e+01,2.900000000000000000e+01,2.500000000000000000e+01,2.500000000000000000e+01,4.100000000000000000e+01,5.900000000000000000e+01,1.200000000000000000e+02,4.299999999999999933e-01,3.349969300000000000e+09
2.340000000000000000e+02,5.200000000000000000e+01,2.900000000000000000e+01,2.100000000000000000e+01,2.500000000000000000e+01,3.900000000000000000e+01,6.200000000000000000e+01,1.120000000000000000e+02,4.299999999999999933e-01,3.368446400000000000e+09
2.070000000000000000e+02,5.500000000000000000e+01,2.900000000000000000e+01,2.000000000000000000e+01,2.500000000000000000e+01,3.900000000000000000e+01,6.100000000000000000e+01,9.900000000000000000e+01,4.299999999999999933e-01,3.386690300000000000e+09
2.110000000000000000e+02,6.900000000000000000e+01,3.000000000000000000e+01,2.100000000000000000e+01,2.500000000000000000e+01,3.500000000000000000e+01,6.100000000000000000e+01,9.800000000000000000e+01,4.299999999999999933e-01,3.405818700000000000e+09
2.490000000000000000e+02,6.500000000000000000e+01,3.300000000000000000e+01,2.100000000000000000e+01,2.400000000000000000e+01,3.700000000000000000e+01,5.900000000000000000e+01,1.030000000000000000e+02,4.299999999999999933e-01,3.424321100000000000e+09
2.470000000000000000e+02,6.300000000000000000e+01,3.100000000000000000e+01,2.000000000000000000e+01,2.300000000000000000e+01,3.200000000000000000e+01,5.500000000000000000e+01,1.000000000000000000e+02,4.299999999999999933e-01,3.442132800000000000e+09
2.190000000000000000e+02,6.300000000000000000e+01,3.100000000000000000e+01,2.100000000000000000e+01,2.400000000000000000e+01,3.400000000000000000e+01,5.000000000000000000e+01,1.050000000000000000e+02,4.299999999999999933e-01,3.460892200000000000e+09
2.180000000000000000e+02,6.000000000000000000e+01,3.000000000000000000e+01,2.400000000000000000e+01,2.400000000000000000e+01,3.800000000000000000e+01,5.400000000000000000e+01,1.040000000000000000e+02,4.299999999999999933e-01,3.478980200000000000e+09
2.550000000000000000e+02,4.600000000000000000e+01,2.800000000000000000e+01,2.600000000000000000e+01,2.400000000000000000e+01,4.000000000000000000e+01,5.100000000000000000e+01,1.120000000000000000e+02,4.299999999999999933e-01,3.497040100000000000e+09
2.120000000000000000e+02,5.400000000000000000e+01,2.500000000000000000e+01,2.700000000000000000e+01,2.500000000000000000e+01,3.800000000000000000e+01,5.000000000000000000e+01,1.090000000000000000e+02,4.299999999999999933e-01,3.514753300000000000e+09
2.030000000000000000e+02,5.400000000000000000e+01,2.600000000000000000e+01,2.700000000000000000e+01,2.400000000000000000e+01,4.500000000000000000e+01,5.400000000000000000e+01,1.170000000000000000e+02,4.299999999999999933e-01,3.531990000000000000e+09
2.470000000000000000e+02,5.600000000000000000e+01,2.800000000000000000e+01,2.700000000000000000e+01,2.300000000000000000e+01,4.500000000000000000e+01,5.300000000000000000e+01,1.380000000000000000e+02,4.299999999999999933e-01,3.548972500000000000e+09
2.640000000000000000e+02,5.700000000000000000e+01,2.800000000000000000e+01,2.600000000000000000e+01,2.300000000000000000e+01,4.300000000000000000e+01,5.400000000000000000e+01,1.350000000000000000e+02,4.299999999999999933e-01,3.565948400000000000e+09
2.450000000000000000e+02,6.700000000000000000e+01,3.200000000000000000e+01,2.600000000000000000e+01,2.400000000000000000e+01,4.100000000000000000e+01,5.700000000000000000e+01,1.410000000000000000e+02,4.299999999999999933e-01,3.582816000000000000e+09
2.490000000000000000e+02,6.700000000000000000e+01,3.200000000000000000e+01,2.500000000000000000e+01,2.100000000000000000e+01,4.000000000000000000e+01,5.900000000000000000e+01,1.420000000000000000e+02,4.299999999999999933e-01,3.599386500000000000e+09
2.370000000000000000e+02,7.100000000000000000e+01,3.200000000000000000e+01,2.500000000000000000e+01,2.300000000000000000e+01,3.200000000000000000e+01,5.300000000000000000e+01,1.350000000000000000e+02,4.299999999999999933e-01,3.616184300000000000e+09
2.280000000000000000e+02,6.800000000000000000e+01,3.000000000000000000e+01,2.600000000000000000e+01,2.400000000000000000e+01,2.900000000000000000e+01,5.100000000000000000e+01,1.050000000000000000e+02,4.299999999999999933e-01,3.632766400000000000e+09
2.260000000000000000e+02,8.000000000000000000e+01,3.100000000000000000e+01,2.500000000000000000e+01,2.200000000000000000e+01,2.800000000000000000e+01,4.500000000000000000e+01,1.100000000000000000e+02,4.299999999999999933e-01,3.650921200000000000e+09
2.060000000000000000e+02,7.100000000000000000e+01,2.700000000000000000e+01,2.600000000000000000e+01,2.200000000000000000e+01,2.700000000000000000e+01,3.700000000000000000e+01,1.130000000000000000e+02,4.299999999999999933e-01,3.668331500000000000e+09
2.070000000000000000e+02,6.700000000000000000e+01,2.800000000000000000e+01,2.400000000000000000e+01,2.300000000000000000e+01,2.600000000000000000e+01,3.500000000000000000e+01,1.050000000000000000e+02,4.299999999999999933e-01,3.685663600000000000e+09
2.130000000000000000e+02,6.800000000000000000e+01,3.100000000000000000e+01,2.600000000000000000e+01,2.400000000000000000e+01,2.600000000000000000e+01,3.200000000000000000e+01,1.030000000000000000e+02,4.299999999999999933e-01,3.701943000000000000e+09
2.550000000000000000e+02,7.200000000000000000e+01,3.100000000000000000e+01,2.400000000000000000e+01,2.600000000000000000e+01,3.000000000000000000e+01,3.500000000000000000e+01,1.090000000000000000e+02,4.299999999999999933e-01,3.720050000000000000e+09
2.380000000000000000e+02,6.200000000000000000e+01,3.200000000000000000e+01,2.600000000000000000e+01,2.600000000000000000e+01,3.000000000000000000e+01,3.500000000000000000e+01,1.090000000000000000e+02,4.299999999999999933e-01,3.739243600000000000e+09
2.450000000000000000e+02,6.300000000000000000e+01,3.200000000000000000e+01,2.400000000000000000e+01,2.500000000000000000e+01,3.000000000000000000e+01,3.700000000000000000e+01,8.500000000000000000e+01,4.299999999999999933e-01,3.756917500000000000e+09
2.440000000000000000e+02,6.100000000000000000e+01,3.300000000000000000e+01,2.500000000000000000e+01,2.600000000000000000e+01,3.200000000000000000e+01,3.900000000000000000e+01,9.000000000000000000e+01,4.299999999999999933e-01,3.774626700000000000e+09
2.540000000000000000e+02,6.000000000000000000e+01,3.100000000000000000e+01,2.900000000000000000e+01,2.700000000000000000e+01,3.500000000000000000e+01,6.200000000000000000e+01,1.000000000000000000e+02,4.299999999999999933e-01,3.791581700000000000e+09
2.320000000000000000e+02,5.800000000000000000e+01,3.200000000000000000e+01,2.900000000000000000e+01,2.500000000000000000e+01,3.600000000000000000e+01,6.500000000000000000e+01,1.130000000000000000e+02,4.299999999999999933e-01,3.810407200000000000e+09
2.410000000000000000e+02,5.700000000000000000e+01,3.100000000000000000e+01,2.700000000000000000e+01,2.600000000000000000e+01,3.400000000000000000e+01,6.500000000000000000e+01,1.220000000000000000e+02,4.299999999999999933e-01,3.829283200000000000e+09
2.310000000000000000e+02,5.300000000000000000e+01,3.100000000000000000e+01,2.700000000000000000e+01,2.600000000000000000e+01,3.400000000000000000e+01,6.700000000000000000e+01,1.220000000000000000e+02,4.199999999999999845e-01,3.846370200000000000e+09
2.280000000000000000e+02,5.200000000000000000e+01,2.800000000000000000e+01,2.700000000000000000e+01,2.400000000000000000e+01,3.300000000000000000e+01,7.200000000000000000e+01,1.170000000000000000e+02,4.299999999999999933e-01,3.863336900000000000e+09
3.000000000000000000e+02,6.400000000000000000e+01,2.700000000000000000e+01,2.100000000000000000e+01,2.300000000000000000e+01,3.200000000000000000e+01,5.600000000000000000e+01,1.160000000000000000e+02,4.199999999999999845e-01,3.880933400000000000e+09
2.570000000000000000e+02,6.600000000000000000e+01,2.700000000000000000e+01,2.000000000000000000e+01,2.000000000000000000e+01,3.200000000000000000e+01,5.300000000000000000e+01,9.900000000000000000e+01,4.299999999999999933e-01,3.898855200000000000e+09
2.400000000000000000e+02,6.400000000000000000e+01,2.600000000000000000e+01,2.200000000000000000e+01,2.100000000000000000e+01,3.500000000000000000e+01,5.300000000000000000e+01,8.900000000000000000e+01,4.299999999999999933e-01,3.917883100000000000e+09
2.440000000000000000e+02,6.300000000000000000e+01,2.600000000000000000e+01,2.200000000000000000e+01,1.900000000000000000e+01,3.500000000000000000e+01,5.100000000000000000e+01,8.400000000000000000e+01,4.299999999999999933e-01,3.935051200000000000e+09
2.480000000000000000e+02,6.600000000000000000e+01,3.000000000000000000e+01,2.400000000000000000e+01,2.100000000000000000e+01,3.500000000000000000e+01,5.000000000000000000e+01,9.300000000000000000e+01,4.299999999999999933e-01,3.952948200000000000e+09
1.980000000000000000e+02,6.200000000000000000e+01,3.000000000000000000e+01,2.400000000000000000e+01,2.500000000000000000e+01,3.400000000000000000e+01,5.200000000000000000e+01,9.000000000000000000e+01,4.299999999999999933e-01,3.970058400000000000e+09
2.090000000000000000e+02,5.600000000000000000e+01,2.900000000000000000e+01,2.300000000000000000e+01,2.800000000000000000e+01,3.000000000000000000e+01,5.300000000000000000e+01,9.700000000000000000e+01,4.299999999999999933e-01,3.987385200000000000e+09
2.120000000000000000e+02,6.100000000000000000e+01,3.700000000000000000e+01,2.400000000000000000e+01,3.200000000000000000e+01,2.900000000000000000e+01,5.500000000000000000e+01,9.000000000000000000e+01,4.299999999999999933e-01,4.004098600000000000e+09
2.070000000000000000e+02,6.500000000000000000e+01,3.900000000000000000e+01,2.400000000000000000e+01,3.400000000000000000e+01,3.200000000000000000e+01,5.100000000000000000e+01,8.800000000000000000e+01,4.299999999999999933e-01,4.020494000000000000e+09
2.020000000000000000e+02,7.700000000000000000e+01,3.800000000000000000e+01,2.200000000000000000e+01,3.600000000000000000e+01,3.400000000000000000e+01,4.700000000000000000e+01,8.900000000000000000e+01,4.299999999999999933e-01,4.038542900000000000e+09
2.290000000000000000e+02,7.100000000000000000e+01,3.700000000000000000e+01,2.100000000000000000e+01,3.400000000000000000e+01,3.400000000000000000e+01,5.000000000000000000e+01,9.300000000000000000e+01,4.299999999999999933e-01,4.055800700000000000e+09
2.320000000000000000e+02,7.400000000000000000e+01,3.900000000000000000e+01,2.300000000000000000e+01,3.400000000000000000e+01,3.700000000000000000e+01,5.600000000000000000e+01,1.090000000000000000e+02,4.299999999999999933e-01,4.073616300000000000e+09
2.310000000000000000e+02,7.000000000000000000e+01,3.100000000000000000e+01,2.400000000000000000e+01,2.900000000000000000e+01,3.500000000000000000e+01,5.200000000000000000e+01,1.250000000000000000e+02,4.299999999999999933e-01,4.091167600000000000e+09
2.340000000000000000e+02,6.900000000000000000e+01,3.000000000000000000e+01,2.500000000000000000e+01,2.600000000000000000e+01,3.200000000000000000e+01,5.300000000000000000e+01,1.270000000000000000e+02,4.299999999999999933e-01,4.108411000000000000e+09
2.300000000000000000e+02,5.500000000000000000e+01,3.000000000000000000e+01,2.400000000000000000e+01,2.800000000000000000e+01,2.900000000000000000e+01,5.300000000000000000e+01,1.310000000000000000e+02,4.299999999999999933e-01,4.125090300000000000e+09
2.040000000000000000e+02,5.600000000000000000e+01,3.200000000000000000e+01,2.600000000000000000e+01,2.500000000000000000e+01,2.900000000000000000e+01,4.900000000000000000e+01,1.430000000000000000e+02,4.299999999999999933e-01,4.141694100000000000e+09
2.030000000000000000e+02,5.200000000000000000e+01,3.000000000000000000e+01,2.500000000000000000e+01,2.300000000000000000e+01,2.600000000000000000e+01,4.200000000000000000e+01,1.250000000000000000e+02,4.299999999999999933e-01,4.158237300000000000e+09
2.040000000000000000e+02,5.200000000000000000e+01,3.000000000000000000e+01,2.300000000000000000e+01,2.500000000000000000e+01,2.500000000000000000e+01,4.300000000000000000e+01,1.060000000000000000e+02,4.299999999999999933e-01,4.174427800000000000e+09
2.050000000000000000e+02,5.400000000000000000e+01,2.900000000000000000e+01,2.200000000000000000e+01,2.500000000000000000e+01,2.600000000000000000e+01,4.500000000000000000e+01,1.080000000000000000e+02,4.299999999999999933e-01,4.194268900000000000e+09
2.040000000000000000e+02,5.700000000000000000e+01,3.000000000000000000e+01,2.300000000000000000e+01,2.100000000000000000e+01,2.600000000000000000e+01,5.000000000000000000e+01,9.700000000000000000e+01,4.299999999999999933e-01,4.213079500000000000e+09
1.870000000000000000e+02,5.400000000000000000e+01,3.100000000000000000e+01,2.200000000000000000e+01,2.300000000000000000e+01,2.600000000000000000e+01,5.000000000000000000e+01,7.000000000000000000e+01,4.299999999999999933e-01,4.231387400000000000e+09
1.780000000000000000e+02,5.700000000000000000e+01,3.000000000000000000e+01,2.300000000000000000e+01,2.200000000000000000e+01,2.500000000000000000e+01,4.900000000000000000e+01,8.100000000000000000e+01,4.299999999999999933e-01,4.248739600000000000e+09
1.750000000000000000e+02,5.600000000000000000e+01,3.200000000000000000e+01,2.200000000000000000e+01,2.000000000000000000e+01,2.500000000000000000e+01,4.900000000000000000e+01,8.100000000000000000e+01,4.299999999999999933e-01,4.265806400000000000e+09
1.700000000000000000e+02,6.000000000000000000e+01,3.100000000000000000e+01,2.300000000000000000e+01,2.100000000000000000e+01,2.400000000000000000e+01,5.100000000000000000e+01,7.700000000000000000e+01,4.299999999999999933e-01,4.284150800000000000e+09
1.730000000000000000e+02,5.800000000000000000e+01,3.100000000000000000e+01,2.300000000000000000e+01,2.300000000000000000e+01,2.500000000000000000e+01,4.200000000000000000e+01,7.900000000000000000e+01,4.299999999999999933e-01,4.301578700000000000e+09
1.210000000000000000e+02,5.800000000000000000e+01,2.800000000000000000e+01,2.400000000000000000e+01,2.100000000000000000e+01,2.400000000000000000e+01,3.600000000000000000e+01,8.900000000000000000e+01,4.299999999999999933e-01,4.319567900000000000e+09
1.750000000000000000e+02,5.600000000000000000e+01,2.800000000000000000e+01,2.500000000000000000e+01,2.400000000000000000e+01,2.500000000000000000e+01,3.400000000000000000e+01,8.100000000000000000e+01,4.299999999999999933e-01,4.339422400000000000e+09
1.770000000000000000e+02,5.500000000000000000e+01,2.900000000000000000e+01,2.400000000000000000e+01,2.400000000000000000e+01,2.600000000000000000e+01,3.200000000000000000e+01,8.000000000000000000e+01,4.299999999999999933e-01,4.356251700000000000e+09
1.790000000000000000e+02,6.000000000000000000e+01,3.300000000000000000e+01,2.500000000000000000e+01,2.400000000000000000e+01,2.600000000000000000e+01,2.900000000000000000e+01,7.900000000000000000e+01,4.299999999999999933e-01,4.372757800000000000e+09
1.900000000000000000e+02,5.600000000000000000e+01,3.400000000000000000e+01,2.400000000000000000e+01,2.300000000000000000e+01,2.500000000000000000e+01,2.900000000000000000e+01,7.400000000000000000e+01,4.299999999999999933e-01,4.389117300000000000e+09
1.840000000000000000e+02,5.700000000000000000e+01,3.300000000000000000e+01,2.400000000000000000e+01,2.400000000000000000e+01,2.300000000000000000e+01,2.800000000000000000e+01,5.300000000000000000e+01,4.299999999999999933e-01,4.405789000000000000e+09
1.200000000000000000e+02,5.800000000000000000e+01,3.400000000000000000e+01,2.300000000000000000e+01,2.400000000000000000e+01,2.300000000000000000e+01,3.000000000000000000e+01,5.100000000000000000e+01,4.299999999999999933e-01,4.423731700000000000e+09
1.040000000000000000e+02,6.500000000000000000e+01,3.400000000000000000e+01,2.300000000000000000e+01,2.400000000000000000e+01,2.400000000000000000e+01,3.000000000000000000e+01,5.100000000000000000e+01,4.299999999999999933e-01,4.440831400000000000e+09
9.800000000000000000e+01,5.300000000000000000e+01,3.100000000000000000e+01,2.200000000000000000e+01,2.300000000000000000e+01,2.500000000000000000e+01,2.800000000000000000e+01,5.400000000000000000e+01,4.299999999999999933e-01,4.457739700000000000e+09
6.200000000000000000e+01,5.000000000000000000e+01,3.700000000000000000e+01,2.500000000000000000e+01,2.400000000000000000e+01,2.400000000000000000e+01,2.600000000000000000e+01,5.000000000000000000e+01,4.299999999999999933e-01,4.474047800000000000e+09
5.600000000000000000e+01,5.900000000000000000e+01,7.200000000000000000e+01,3.000000000000000000e+01,2.800000000000000000e+01,2.500000000000000000e+01,2.600000000000000000e+01,4.900000000000000000e+01,4.299999999999999933e-01,4.491048600000000000e+09
3.900000000000000000e+01,7.300000000000000000e+01,9.700000000000000000e+01,3.500000000000000000e+01,2.700000000000000000e+01,2.600000000000000000e+01,2.600000000000000000e+01,3.800000000000000000e+01,4.400000000000000022e-01,4.507463400000000000e+09
3.800000000000000000e+01,8.200000000000000000e+01,1.380000000000000000e+02,3.700000000000000000e+01,2.800000000000000000e+01,2.500000000000000000e+01,2.400000000000000000e+01,3.300000000000000000e+01,4.400000000000000022e-01,4.525422100000000000e+09
3.500000000000000000e+01,8.400000000000000000e+01,1.410000000000000000e+02,3.600000000000000000e+01,3.000000000000000000e+01,2.300000000000000000e+01,2.300000000000000000e+01,2.800000000000000000e+01,4.400000000000000022e-01,4.542768800000000000e+09
3.000000000000000000e+01,9.200000000000000000e+01,1.470000000000000000e+02,4.100000000000000000e+01,3.200000000000000000e+01,2.400000000000000000e+01,2.400000000000000000e+01,2.600000000000000000e+01,4.500000000000000111e-01,4.560028100000000000e+09
2.900000000000000000e+01,9.100000000000000000e+01,1.830000000000000000e+02,5.400000000000000000e+01,2.900000000000000000e+01,2.500000000000000000e+01,2.500000000000000000e+01,2.400000000000000000e+01,4.500000000000000111e-01,4.577083800000000000e+09
3.100000000000000000e+01,9.100000000000000000e+01,1.780000000000000000e+02,5.700000000000000000e+01,3.100000000000000000e+01,2.300000000000000000e+01,2.200000000000000000e+01,2.300000000000000000e+01,4.600000000000000200e-01,4.593616700000000000e+09
2.800000000000000000e+01,8.300000000000000000e+01,1.540000000000000000e+02,5.700000000000000000e+01,2.900000000000000000e+01,2.200000000000000000e+01,2.400000000000000000e+01,2.300000000000000000e+01,4.600000000000000200e-01,4.611443200000000000e+09
2.800000000000000000e+01,9.500000000000000000e+01,1.630000000000000000e+02,6.000000000000000000e+01,3.000000000000000000e+01,2.300000000000000000e+01,2.300000000000000000e+01,2.100000000000000000e+01,4.699999999999999734e-01,4.629274900000000000e+09
2.700000000000000000e+01,9.300000000000000000e+01,1.700000000000000000e+02,6.100000000000000000e+01,2.700000000000000000e+01,2.400000000000000000e+01,2.300000000000000000e+01,2.100000000000000000e+01,4.699999999999999734e-01,4.646846800000000000e+09
2.600000000000000000e+01,9.100000000000000000e+01,1.710000000000000000e+02,6.000000000000000000e+01,3.000000000000000000e+01,2.600000000000000000e+01,2.300000000000000000e+01,2.000000000000000000e+01,4.799999999999999822e-01,4.664166200000000000e+09
2.700000000000000000e+01,8.500000000000000000e+01,1.840000000000000000e+02,6.000000000000000000e+01,3.200000000000000000e+01,2.800000000000000000e+01,2.600000000000000000e+01,2.100000000000000000e+01,4.899999999999999911e-01,4.681922400000000000e+09
4.100000000000000000e+01,1.130000000000000000e+02,1.960000000000000000e+02,8.000000000000000000e+01,4.500000000000000000e+01,2.800000000000000000e+01,2.500000000000000000e+01,2.400000000000000000e+01,4.899999999999999911e-01,4.698951600000000000e+09
4.200000000000000000e+01,1.100000000000000000e+02,1.910000000000000000e+02,9.300000000000000000e+01,4.600000000000000000e+01,2.600000000000000000e+01,2.800000000000000000e+01,2.300000000000000000e+01,5.000000000000000000e-01,4.716263900000000000e+09
4.200000000000000000e+01,1.140000000000000000e+02,1.860000000000000000e+02,9.000000000000000000e+01,4.900000000000000000e+01,3.000000000000000000e+01,2.600000000000000000e+01,2.300000000000000000e+01,5.000000000000000000e-01,4.733266400000000000e+09
4.400000000000000000e+01,1.230000000000000000e+02,1.670000000000000000e+02,8.300000000000000000e+01,4.600000000000000000e+01,2.700000000000000000e+01,2.600000000000000000e+01,2.200000000000000000e+01,5.100000000000000089e-01,4.752395000000000000e+09
4.600000000000000000e+01,1.210000000000000000e+02,1.690000000000000000e+02,8.400000000000000000e+01,4.700000000000000000e+01,2.700000000000000000e+01,2.400000000000000000e+01,2.500000000000000000e+01,5.200000000000000178e-01,4.770510700000000000e+09
3.400000000000000000e+01,9.800000000000000000e+01,1.550000000000000000e+02,6.700000000000000000e+01,3.600000000000000000e+01,2.700000000000000000e+01,2.400000000000000000e+01,2.200000000000000000e+01,5.200000000000000178e-01,4.787976500000000000e+09
3.300000000000000000e+01,9.400000000000000000e+01,1.510000000000000000e+02,4.300000000000000000e+01,3.500000000000000000e+01,2.900000000000000000e+01,2.100000000000000000e+01,2.300000000000000000e+01,5.200000000000000178e-01,4.805708900000000000e+09
3.300000000000000000e+01,8.400000000000000000e+01,1.450000000000000000e+02,4.000000000000000000e+01,3.000000000000000000e+01,2.500000000000000000e+01,2.200000000000000000e+01,2.100000000000000000e+01,5.200000000000000178e-01,4.823942400000000000e+09
3.100000000000000000e+01,6.900000000000000000e+01,1.110000000000000000e+02,3.800000000000000000e+01,3.000000000000000000e+01,2.600000000000000000e+01,2.200000000000000000e+01,2.400000000000000000e+01,5.200000000000000178e-01,4.841450700000000000e+09
2.500000000000000000e+01,7.400000000000000000e+01,7.100000000000000000e+01,2.800000000000000000e+01,2.600000000000000000e+01,2.400000000000000000e+01,2.300000000000000000e+01,2.000000000000000000e+01,5.200000000000000178e-01,4.858816300000000000e+09
3.200000000000000000e+01,6.900000000000000000e+01,5.900000000000000000e+01,2.200000000000000000e+01,2.500000000000000000e+01,2.400000000000000000e+01,2.400000000000000000e+01,2.200000000000000000e+01,5.200000000000000178e-01,4.875871600000000000e+09
3.000000000000000000e+01,7.300000000000000000e+01,5.500000000000000000e+01,2.600000000000000000e+01,2.400000000000000000e+01,2.100000000000000000e+01,2.300000000000000000e+01,2.200000000000000000e+01,5.200000000000000178e-01,4.893746000000000000e+09
3.300000000000000000e+01,8.100000000000000000e+01,5.000000000000000000e+01,2.600000000000000000e+01,2.500000000000000000e+01,2.200000000000000000e+01,2.300000000000000000e+01,2.500000000000000000e+01,5.200000000000000178e-01,4.910552000000000000e+09
3.600000000000000000e+01,8.000000000000000000e+01,4.500000000000000000e+01,2.400000000000000000e+01,2.600000000000000000e+01,2.200000000000000000e+01,2.300000000000000000e+01,2.300000000000000000e+01,5.100000000000000089e-01,4.928344800000000000e+09
3.500000000000000000e+01,7.800000000000000000e+01,4.300000000000000000e+01,2.300000000000000000e+01,2.600000000000000000e+01,2.300000000000000000e+01,2.200000000000000000e+01,2.400000000000000000e+01,5.100000000000000089e-01,4.945935000000000000e+09
3.300000000000000000e+01,7.600000000000000000e+01,4.200000000000000000e+01,2.500000000000000000e+01,2.500000000000000000e+01,2.500000000000000000e+01,2.300000000000000000e+01,2.300000000000000000e+01,5.100000000000000089e-01,4.963376100000000000e+09
3.500000000000000000e+01,7.300000000000000000e+01,4.200000000000000000e+01,2.000000000000000000e+01,2.600000000000000000e+01,2.700000000000000000e+01,2.400000000000000000e+01,2.300000000000000000e+01,5.000000000000000000e-01,4.981030400000000000e+09
3.400000000000000000e+01,6.700000000000000000e+01,3.800000000000000000e+01,2.400000000000000000e+01,2.900000000000000000e+01,2.700000000000000000e+01,2.500000000000000000e+01,2.200000000000000000e+01,5.000000000000000000e-01,4.998548800000000000e+09
3.300000000000000000e+01,7.500000000000000000e+01,4.000000000000000000e+01,2.600000000000000000e+01,3.000000000000000000e+01,2.900000000000000000e+01,2.500000000000000000e+01,2.300000000000000000e+01,5.000000000000000000e-01,5.017072300000000000e+09
3.500000000000000000e+01,8.200000000000000000e+01,4.100000000000000000e+01,2.600000000000000000e+01,3.000000000000000000e+01,2.800000000000000000e+01,2.500000000000000000e+01,2.300000000000000000e+01,4.899999999999999911e-01,5.035439700000000000e+09
3.400000000000000000e+01,8.600000000000000000e+01,4.300000000000000000e+01,2.600000000000000000e+01,3.000000000000000000e+01,2.800000000000000000e+01,2.300000000000000000e+01,2.300000000000000000e+01,4.899999999999999911e-01,5.053379900000000000e+09
3.200000000000000000e+01,7.900000000000000000e+01,3.900000000000000000e+01,2.700000000000000000e+01,2.900000000000000000e+01,2.600000000000000000e+01,2.500000000000000000e+01,2.200000000000000000e+01,4.899999999999999911e-01,5.072015000000000000e+09
3.500000000000000000e+01,9.400000000000000000e+01,4.600000000000000000e+01,2.400000000000000000e+01,2.600000000000000000e+01,2.700000000000000000e+01,2.500000000000000000e+01,2.300000000000000000e+01,4.899999999999999911e-01,5.089934000000000000e+09
3.200000000000000000e+01,9.200000000000000000e+01,4.500000000000000000e+01,2.400000000000000000e+01,2.600000000000000000e+01,3.100000000000000000e+01,2.400000000000000000e+01,2.200000000000000000e+01,4.899999999999999911e-01,5.110237400000000000e+09
2.900000000000000000e+01,8.000000000000000000e+01,4.200000000000000000e+01,2.300000000000000000e+01,2.600000000000000000e+01,3.100000000000000000e+01,2.400000000000000000e+01,2.200000000000000000e+01,4.899999999999999911e-01,5.128665800000000000e+09
2.900000000000000000e+01,7.800000000000000000e+01,4.700000000000000000e+01,2.300000000000000000e+01,2.700000000000000000e+01,3.000000000000000000e+01,2.500000000000000000e+01,2.200000000000000000e+01,4.799999999999999822e-01,5.146254800000000000e+09
3.000000000000000000e+01,8.000000000000000000e+01,5.000000000000000000e+01,2.100000000000000000e+01,2.600000000000000000e+01,3.200000000000000000e+01,2.300000000000000000e+01,2.200000000000000000e+01,4.799999999999999822e-01,5.166076600000000000e+09
2.700000000000000000e+01,7.100000000000000000e+01,7.400000000000000000e+01,2.600000000000000000e+01,2.600000000000000000e+01,3.000000000000000000e+01,2.400000000000000000e+01,2.100000000000000000e+01,4.799999999999999822e-01,5.184351900000000000e+09
2.700000000000000000e+01,8.400000000000000000e+01,7.700000000000000000e+01,2.400000000000000000e+01,2.700000000000000000e+01,3.000000000000000000e+01,2.400000000000000000e+01,2.100000000000000000e+01,4.799999999999999822e-01,5.203196900000000000e+09
2.800000000000000000e+01,8.300000000000000000e+01,9.600000000000000000e+01,2.800000000000000000e+01,2.900000000000000000e+01,3.000000000000000000e+01,2.500000000000000000e+01,2.200000000000000000e+01,4.799999999999999822e-01,5.221024200000000000e+09
2.500000000000000000e+01,8.100000000000000000e+01,9.500000000000000000e+01,2.800000000000000000e+01,2.700000000000000000e+01,3.000000000000000000e+01,2.500000000000000000e+01,2.100000000000000000e+01,4.799999999999999822e-01,5.242939400000000000e+09
2.500000000000000000e+01,8.800000000000000000e+01,9.500000000000000000e+01,3.000000000000000000e+01,2.700000000000000000e+01,2.800000000000000000e+01,2.500000000000000000e+01,2.000000000000000000e+01,4.799999999999999822e-01,5.260737600000000000e+09
2.300000000000000000e+01,8.500000000000000000e+01,7.700000000000000000e+01,2.800000000000000000e+01,2.800000000000000000e+01,2.900000000000000000e+01,2.400000000000000000e+01,2.000000000000000000e+01,4.799999999999999822e-01,5.279003400000000000e+09
2.200000000000000000e+01,7.400000000000000000e+01,7.400000000000000000e+01,2.700000000000000000e+01,2.700000000000000000e+01,2.300000000000000000e+01,2.300000000000000000e+01,2.100000000000000000e+01,4.799999999999999822e-01,5.299852700000000000e+09
2.100000000000000000e+01,7.500000000000000000e+01,4.900000000000000000e+01,2.400000000000000000e+01,2.500000000000000000e+01,2.200000000000000000e+01,2.200000000000000000e+01,2.200000000000000000e+01,4.799999999999999822e-01,5.321773000000000000e+09
2.400000000000000000e+01,8.300000000000000000e+01,4.600000000000000000e+01,2.300000000000000000e+01,2.500000000000000000e+01,2.000000000000000000e+01,2.200000000000000000e+01,2.200000000000000000e+01,4.799999999999999822e-01,5.340508700000000000e+09
2.400000000000000000e+01,7.400000000000000000e+01,4.300000000000000000e+01,2.200000000000000000e+01,2.400000000000000000e+01,2.000000000000000000e+01,2.100000000000000000e+01,2.300000000000000000e+01,4.799999999999999822e-01,5.360669500000000000e+09
2.800000000000000000e+01,7.700000000000000000e+01,3.900000000000000000e+01,2.100000000000000000e+01,2.400000000000000000e+01,2.000000000000000000e+01,2.000000000000000000e+01,2.600000000000000000e+01,4.799999999999999822e-01,5.379963100000000000e+09
2.800000000000000000e+01,7.000000000000000000e+01,3.500000000000000000e+01,2.300000000000000000e+01,2.200000000000000000e+01,2.100000000000000000e+01,2.200000000000000000e+01,2.500000000000000000e+01,4.799999999999999822e-01,5.399212900000000000e+09
3.100000000000000000e+01,7.800000000000000000e+01,3.100000000000000000e+01,2.100000000000000000e+01,2.200000000000000000e+01,2.500000000000000000e+01,2.000000000000000000e+01,2.300000000000000000e+01,4.799999999999999822e-01,5.420662700000000000e+09
3.100000000000000000e+01,7.100000000000000000e+01,2.800000000000000000e+01,2.300000000000000000e+01,2.200000000000000000e+01,2.600000000000000000e+01,2.200000000000000000e+01,2.400000000000000000e+01,4.799999999999999822e-01,5.442809700000000000e+09
3.300000000000000000e+01,7.800000000000000000e+01,3.500000000000000000e+01,2.200000000000000000e+01,2.100000000000000000e+01,2.500000000000000000e+01,2.400000000000000000e+01,2.500000000000000000e+01,4.799999999999999822e-01,5.460285400000000000e+09
3.200000000000000000e+01,6.900000000000000000e+01,3.400000000000000000e+01,2.300000000000000000e+01,2.100000000000000000e+01,2.500000000000000000e+01,2.500000000000000000e+01,2.200000000000000000e+01,4.799999999999999822e-01,5.478430700000000000e+09
3.200000000000000000e+01,7.000000000000000000e+01,3.600000000000000000e+01,2.100000000000000000e+01,2.300000000000000000e+01,2.500000000000000000e+01,2.500000000000000000e+01,2.100000000000000000e+01,4.799999999999999822e-01,5.498520600000000000e+09
3.000000000000000000e+01,6.000000000000000000e+01,3.700000000000000000e+01,2.400000000000000000e+01,2.600000000000000000e+01,2.300000000000000000e+01,2.500000000000000000e+01,2.100000000000000000e+01,4.799999999999999822e-01,5.520449300000000000e+09
2.900000000000000000e+01,7.100000000000000000e+01,4.100000000000000000e+01,2.400000000000000000e+01,2.800000000000000000e+01,2.300000000000000000e+01,2.500000000000000000e+01,2.500000000000000000e+01,4.799999999999999822e-01,5.539483000000000000e+09
2.700000000000000000e+01,7.500000000000000000e+01,3.600000000000000000e+01,2.400000000000000000e+01,3.000000000000000000e+01,2.200000000000000000e+01,2.200000000000000000e+01,2.300000000000000000e+01,4.799999999999999822e-01,5.558325600000000000e+09
2.500000000000000000e+01,8.000000000000000000e+01,3.800000000000000000e+01,2.200000000000000000e+01,2.900000000000000000e+01,2.200000000000000000e+01,2.300000000000000000e+01,2.600000000000000000e+01,4.799999999999999822e-01,5.576879000000000000e+09
2.400000000000000000e+01,7.900000000000000000e+01,3.700000000000000000e+01,2.500000000000000000e+01,2.700000000000000000e+01,2.100000000000000000e+01,2.300000000000000000e+01,2.600000000000000000e+01,4.799999999999999822e-01,5.598256300000000000e+09
2.300000000000000000e+01,8.100000000000000000e+01,3.900000000000000000e+01,2.200000000000000000e+01,2.400000000000000000e+01,2.000000000000000000e+01,2.400000000000000000e+01,2.700000000000000000e+01,4.799999999999999822e-01,5.621155500000000000e+09
2.300000000000000000e+01,7.800000000000000000e+01,3.700000000000000000e+01,2.300000000000000000e+01,2.000000000000000000e+01,2.100000000000000000e+01,2.300000000000000000e+01,2.400000000000000000e+01,4.799999999999999822e-01,5.639393200000000000e+09
2.200000000000000000e+01,6.900000000000000000e+01,3.700000000000000000e+01,2.300000000000000000e+01,2.200000000000000000e+01,2.400000000000000000e+01,2.500000000000000000e+01,2.400000000000000000e+01,4.699999999999999734e-01,5.658796500000000000e+09
2.300000000000000000e+01,6.300000000000000000e+01,3.500000000000000000e+01,2.400000000000000000e+01,2.200000000000000000e+01,2.500000000000000000e+01,2.300000000000000000e+01,2.200000000000000000e+01,4.699999999999999734e-01,5.676544100000000000e+09
2.300000000000000000e+01,6.800000000000000000e+01,3.600000000000000000e+01,2.100000000000000000e+01,2.300000000000000000e+01,2.500000000000000000e+01,2.200000000000000000e+01,2.400000000000000000e+01,4.699999999999999734e-01,5.698779300000000000e+09
2.400000000000000000e+01,6.600000000000000000e+01,3.600000000000000000e+01,2.100000000000000000e+01,2.300000000000000000e+01,2.600000000000000000e+01,2.500000000000000000e+01,2.200000000000000000e+01,4.699999999999999734e-01,5.721405600000000000e+09
2.700000000000000000e+01,6.300000000000000000e+01,3.600000000000000000e+01,2.100000000000000000e+01,2.400000000000000000e+01,2.500000000000000000e+01,2.600000000000000000e+01,2.300000000000000000e+01,4.699999999999999734e-01,5.740623200000000000e+09
3.200000000000000000e+01,7.500000000000000000e+01,3.900000000000000000e+01,2.200000000000000000e+01,2.200000000000000000e+01,2.500000000000000000e+01,2.400000000000000000e+01,2.300000000000000000e+01,4.699999999999999734e-01,5.759007300000000000e+09
3.200000000000000000e+01,7.800000000000000000e+01,4.000000000000000000e+01,2.200000000000000000e+01,2.400000000000000000e+01,2.400000000000000000e+01,2.600000000000000000e+01,2.300000000000000000e+01,4.699999999999999734e-01,5.778103300000000000e+09
3.400000000000000000e+01,8.000000000000000000e+01,3.800000000000000000e+01,2.200000000000000000e+01,2.400000000000000000e+01,2.400000000000000000e+01,2.500000000000000000e+01,2.200000000000000000e+01,4.699999999999999734e-01,5.800139300000000000e+09
3.400000000000000000e+01,7.900000000000000000e+01,3.400000000000000000e+01,2.400000000000000000e+01,2.500000000000000000e+01,2.500000000000000000e+01,2.300000000000000000e+01,2.300000000000000000e+01,4.699999999999999734e-01,5.822586700000000000e+09
3.200000000000000000e+01,7.800000000000000000e+01,3.300000000000000000e+01,2.500000000000000000e+01,2.500000000000000000e+01,2.700000000000000000e+01,2.400000000000000000e+01,2.200000000000000000e+01,4.699999999999999734e-01,5.840622700000000000e+09
2.700000000000000000e+01,8.100000000000000000e+01,3.500000000000000000e+01,2.500000000000000000e+01,2.600000000000000000e+01,2.700000000000000000e+01,2.400000000000000000e+01,2.400000000000000000e+01,4.699999999999999734e-01,5.858553600000000000e+09
2.800000000000000000e+01,8.300000000000000000e+01,4.000000000000000000e+01,2.400000000000000000e+01,2.600000000000000000e+01,2.600000000000000000e+01,2.500000000000000000e+01,2.400000000000000000e+01,4.699999999999999734e-01,5.877777600000000000e+09
2.500000000000000000e+01,8.100000000000000000e+01,5.300000000000000000e+01,2.600000000000000000e+01,2.500000000000000000e+01,2.800000000000000000e+01,2.600000000000000000e+01,2.300000000000000000e+01,4.699999999999999734e-01,5.900099000000000000e+09
2.500000000000000000e+01,8.200000000000000000e+01,6.600000000000000000e+01,2.600000000000000000e+01,2.600000000000000000e+01,2.900000000000000000e+01,2.700000000000000000e+01,2.200000000000000000e+01,4.699999999999999734e-01,5.922559300000000000e+09
2.900000000000000000e+01,1.030000000000000000e+02,9.500000000000000000e+01,4.500000000000000000e+01,3.300000000000000000e+01,2.700000000000000000e+01,2.700000000000000000e+01,2.200000000000000000e+01,4.799999999999999822e-01,5.940585700000000000e+09
3.000000000000000000e+01,9.500000000000000000e+01,9.900000000000000000e+01,6.000000000000000000e+01,4.100000000000000000e+01,2.700000000000000000e+01,2.700000000000000000e+01,2.100000000000000000e+01,4.799999999999999822e-01,5.960066300000000000e+09
2.700000000000000000e+01,9.400000000000000000e+01,9.900000000000000000e+01,6.300000000000000000e+01,4.200000000000000000e+01,2.700000000000000000e+01,2.500000000000000000e+01,2.200000000000000000e+01,4.799999999999999822e-01,5.979122900000000000e+09
3.000000000000000000e+01,9.600000000000000000e+01,9.600000000000000000e+01,6.400000000000000000e+01,4.400000000000000000e+01,2.700000000000000000e+01,2.600000000000000000e+01,2.400000000000000000e+01,4.799999999999999822e-01,6.000902200000000000e+09
2.900000000000000000e+01,1.100000000000000000e+02,1.710000000000000000e+02,7.000000000000000000e+01,4.500000000000000000e+01,2.600000000000000000e+01,2.300000000000000000e+01,2.300000000000000000e+01,4.899999999999999911e-01,6.019530200000000000e+09
2.700000000000000000e+01,9.100000000000000000e+01,2.640000000000000000e+02,6.700000000000000000e+01,4.300000000000000000e+01,2.800000000000000000e+01,2.500000000000000000e+01,2.500000000000000000e+01,4.899999999999999911e-01,6.038066100000000000e+09
2.600000000000000000e+01,9.000000000000000000e+01,2.780000000000000000e+02,5.900000000000000000e+01,3.500000000000000000e+01,2.600000000000000000e+01,2.600000000000000000e+01,2.500000000000000000e+01,4.899999999999999911e-01,6.057531700000000000e+09
3.000000000000000000e+01,9.000000000000000000e+01,2.800000000000000000e+02,5.700000000000000000e+01,3.400000000000000000e+01,2.900000000000000000e+01,2.500000000000000000e+01,2.500000000000000000e+01,4.899999999999999911e-01,6.078758200000000000e+09
2.900000000000000000e+01,1.000000000000000000e+02,2.860000000000000000e+02,5.900000000000000000e+01,3.000000000000000000e+01,2.900000000000000000e+01,2.600000000000000000e+01,2.500000000000000000e+01,5.000000000000000000e-01,6.100941700000000000e+09
2.800000000000000000e+01,8.300000000000000000e+01,2.660000000000000000e+02,5.400000000000000000e+01,2.900000000000000000e+01,2.800000000000000000e+01,2.600000000000000000e+01,2.600000000000000000e+01,5.000000000000000000e-01,6.119518700000000000e+09
2.800000000000000000e+01,8.300000000000000000e+01,1.990000000000000000e+02,5.800000000000000000e+01,3.200000000000000000e+01,2.600000000000000000e+01,2.300000000000000000e+01,2.400000000000000000e+01,5.000000000000000000e-01,6.138602000000000000e+09
2.900000000000000000e+01,8.200000000000000000e+01,1.940000000000000000e+02,5.700000000000000000e+01,3.800000000000000000e+01,3.000000000000000000e+01,2.400000000000000000e+01,2.500000000000000000e+01,5.100000000000000089e-01,6.157687800000000000e+09
4.100000000000000000e+01,1.650000000000000000e+02,2.110000000000000000e+02,6.200000000000000000e+01,4.100000000000000000e+01,2.800000000000000000e+01,2.600000000000000000e+01,2.500000000000000000e+01,5.100000000000000089e-01,6.178314100000000000e+09
4.600000000000000000e+01,1.780000000000000000e+02,2.130000000000000000e+02,6.000000000000000000e+01,4.200000000000000000e+01,2.700000000000000000e+01,2.500000000000000000e+01,2.600000000000000000e+01,5.100000000000000089e-01,6.200455700000000000e+09
4.700000000000000000e+01,1.810000000000000000e+02,1.930000000000000000e+02,5.800000000000000000e+01,4.100000000000000000e+01,2.600000000000000000e+01,2.700000000000000000e+01,2.600000000000000000e+01,5.100000000000000089e-01,6.222706300000000000e+09
4.800000000000000000e+01,1.900000000000000000e+02,1.680000000000000000e+02,4.900000000000000000e+01,3.500000000000000000e+01,2.600000000000000000e+01,2.600000000000000000e+01,2.300000000000000000e+01,5.200000000000000178e-01,6.241453600000000000e+09
5.600000000000000000e+01,2.170000000000000000e+02,1.680000000000000000e+02,4.700000000000000000e+01,3.300000000000000000e+01,2.600000000000000000e+01,2.600000000000000000e+01,2.200000000000000000e+01,5.200000000000000178e-01,6.260160500000000000e+09
4.800000000000000000e+01,1.660000000000000000e+02,1.630000000000000000e+02,4.600000000000000000e+01,2.800000000000000000e+01,2.400000000000000000e+01,2.400000000000000000e+01,2.200000000000000000e+01,5.200000000000000178e-01,6.278617600000000000e+09
4.400000000000000000e+01,1.540000000000000000e+02,1.840000000000000000e+02,6.000000000000000000e+01,3.700000000000000000e+01,2.500000000000000000e+01,2.200000000000000000e+01,2.000000000000000000e+01,5.200000000000000178e-01,6.300449300000000000e+09
4.400000000000000000e+01,1.570000000000000000e+02,1.910000000000000000e+02,6.900000000000000000e+01,4.000000000000000000e+01,2.800000000000000000e+01,2.100000000000000000e+01,2.000000000000000000e+01,5.200000000000000178e-01,6.322796100000000000e+09
4.700000000000000000e+01,1.670000000000000000e+02,2.070000000000000000e+02,7.000000000000000000e+01,4.200000000000000000e+01,2.800000000000000000e+01,2.600000000000000000e+01,2.300000000000000000e+01,5.300000000000000266e-01,6.341060700000000000e+09
3.800000000000000000e+01,1.350000000000000000e+02,2.070000000000000000e+02,7.300000000000000000e+01,4.000000000000000000e+01,2.600000000000000000e+01,2.400000000000000000e+01,2.200000000000000000e+01,5.300000000000000266e-01,6.359747800000000000e+09
3.800000000000000000e+01,1.430000000000000000e+02,2.010000000000000000e+02,7.700000000000000000e+01,4.100000000000000000e+01,2.700000000000000000e+01,2.400000000000000000e+01,2.400000000000000000e+01,5.300000000000000266e-01,6.378700200000000000e+09
3.700000000000000000e+01,1.470000000000000000e+02,2.190000000000000000e+02,7.800000000000000000e+01,3.500000000000000000e+01,2.900000000000000000e+01,2.500000000000000000e+01,2.600000000000000000e+01,5.400000000000000355e-01,6.401020500000000000e+09
3.600000000000000000e+01,1.460000000000000000e+02,2.270000000000000000e+02,7.100000000000000000e+01,3.400000000000000000e+01,2.600000000000000000e+01,2.600000000000000000e+01,2.800000000000000000e+01,5.400000000000000355e-01,6.422640200000000000e+09
4.400000000000000000e+01,1.590000000000000000e+02,2.050000000000000000e+02,6.900000000000000000e+01,3.000000000000000000e+01,2.800000000000000000e+01,2.100000000000000000e+01,2.900000000000000000e+01,5.400000000000000355e-01,6.441864900000000000e+09
4.700000000000000000e+01,1.670000000000000000e+02,1.960000000000000000e+02,6.800000000000000000e+01,2.900000000000000000e+01,2.700000000000000000e+01,2.200000000000000000e+01,2.700000000000000000e+01,5.400000000000000355e-01,6.462441400000000000e+09
4.900000000000000000e+01,1.680000000000000000e+02,1.990000000000000000e+02,7.700000000000000000e+01,3.500000000000000000e+01,2.800000000000000000e+01,2.500000000000000000e+01,2.700000000000000000e+01,5.400000000000000355e-01,6.480538500000000000e+09
4.900000000000000000e+01,1.590000000000000000e+02,1.790000000000000000e+02,8.300000000000000000e+01,4.200000000000000000e+01,2.700000000000000000e+01,2.400000000000000000e+01,2.700000000000000000e+01,5.500000000000000444e-01,6.499030100000000000e+09
5.500000000000000000e+01,1.890000000000000000e+02,1.780000000000000000e+02,8.500000000000000000e+01,4.300000000000000000e+01,2.700000000000000000e+01,2.400000000000000000e+01,2.700000000000000000e+01,5.500000000000000444e-01,6.521110900000000000e+09
4.500000000000000000e+01,1.620000000000000000e+02,1.980000000000000000e+02,8.500000000000000000e+01,4.400000000000000000e+01,2.600000000000000000e+01,2.500000000000000000e+01,2.600000000000000000e+01,5.500000000000000444e-01,6.539607100000000000e+09
4.500000000000000000e+01,1.530000000000000000e+02,2.040000000000000000e+02,8.200000000000000000e+01,4.500000000000000000e+01,2.800000000000000000e+01,2.500000000000000000e+01,2.800000000000000000e+01,5.600000000000000533e-01,6.559412600000000000e+09
4.200000000000000000e+01,1.470000000000000000e+02,2.130000000000000000e+02,6.500000000000000000e+01,4.200000000000000000e+01,2.900000000000000000e+01,2.400000000000000000e+01,2.800000000000000000e+01,5.600000000000000533e-01,6.579121900000000000e+09
4.900000000000000000e+01,1.760000000000000000e+02,2.130000000000000000e+02,4.500000000000000000e+01,3.400000000000000000e+01,2.700000000000000000e+01,2.400000000000000000e+01,2.900000000000000000e+01,5.600000000000000533e-01,6.598660100000000000e+09
4.800000000000000000e+01,1.560000000000000000e+02,2.060000000000000000e+02,5.700000000000000000e+01,3.100000000000000000e+01,2.800000000000000000e+01,2.500000000000000000e+01,3.000000000000000000e+01,5.600000000000000533e-01,6.620839800000000000e+09
4.700000000000000000e+01,1.590000000000000000e+02,1.960000000000000000e+02,6.200000000000000000e+01,3.200000000000000000e+01,2.600000000000000000e+01,2.500000000000000000e+01,2.900000000000000000e+01,5.600000000000000533e-01,6.640309800000000000e+09
4.700000000000000000e+01,1.680000000000000000e+02,2.270000000000000000e+02,6.700000000000000000e+01,3.600000000000000000e+01,2.800000000000000000e+01,2.700000000000000000e+01,3.000000000000000000e+01,5.600000000000000533e-01,6.658843800000000000e+09
5.400000000000000000e+01,1.800000000000000000e+02,2.160000000000000000e+02,7.000000000000000000e+01,3.500000000000000000e+01,2.600000000000000000e+01,2.600000000000000000e+01,2.800000000000000000e+01,5.600000000000000533e-01,6.677683100000000000e+09
5.100000000000000000e+01,1.630000000000000000e+02,1.950000000000000000e+02,6.900000000000000000e+01,3.400000000000000000e+01,2.700000000000000000e+01,2.600000000000000000e+01,2.700000000000000000e+01,5.600000000000000533e-01,6.698546200000000000e+09
4.600000000000000000e+01,1.530000000000000000e+02,1.900000000000000000e+02,6.300000000000000000e+01,3.600000000000000000e+01,2.700000000000000000e+01,2.500000000000000000e+01,2.500000000000000000e+01,5.600000000000000533e-01,6.720929600000000000e+09
5.700000000000000000e+01,1.860000000000000000e+02,2.080000000000000000e+02,6.100000000000000000e+01,4.100000000000000000e+01,3.600000000000000000e+01,2.600000000000000000e+01,3.100000000000000000e+01,5.500000000000000444e-01,6.738876900000000000e+09
5.700000000000000000e+01,1.790000000000000000e+02,1.670000000000000000e+02,5.500000000000000000e+01,3.600000000000000000e+01,3.300000000000000000e+01,2.300000000000000000e+01,3.000000000000000000e+01,5.500000000000000444e-01,6.757609800000000000e+09
5.000000000000000000e+01,1.680000000000000000e+02,1.580000000000000000e+02,5.500000000000000000e+01,3.500000000000000000e+01,3.400000000000000000e+01,2.400000000000000000e+01,3.000000000000000000e+01,5.500000000000000444e-01,6.778738800000000000e+09
4.500000000000000000e+01,1.640000000000000000e+02,1.530000000000000000e+02,5.700000000000000000e+01,3.500000000000000000e+01,3.300000000000000000e+01,2.500000000000000000e+01,2.900000000000000000e+01,5.500000000000000444e-01,6.799508600000000000e+09
5.200000000000000000e+01,1.740000000000000000e+02,1.720000000000000000e+02,5.700000000000000000e+01,3.400000000000000000e+01,3.300000000000000000e+01,2.400000000000000000e+01,2.900000000000000000e+01,5.500000000000000444e-01,6.821274800000000000e+09
4.500000000000000000e+01,1.600000000000000000e+02,1.680000000000000000e+02,6.200000000000000000e+01,2.900000000000000000e+01,2.500000000000000000e+01,2.300000000000000000e+01,2.500000000000000000e+01,5.500000000000000444e-01,6.839564700000000000e+09
4.600000000000000000e+01,1.560000000000000000e+02,1.670000000000000000e+02,6.200000000000000000e+01,2.900000000000000000e+01,2.500000000000000000e+01,2.300000000000000000e+01,2.300000000000000000e+01,5.500000000000000444e-01,6.858247900000000000e+09
4.500000000000000000e+01,1.550000000000000000e+02,1.690000000000000000e+02,5.900000000000000000e+01,3.200000000000000000e+01,2.500000000000000000e+01,2.100000000000000000e+01,2.400000000000000000e+01,5.500000000000000444e-01,6.877837800000000000e+09
5.600000000000000000e+01,1.880000000000000000e+02,1.660000000000000000e+02,5.800000000000000000e+01,3.300000000000000000e+01,2.300000000000000000e+01,2.300000000000000000e+01,2.300000000000000000e+01,5.500000000000000444e-01,6.900185700000000000e+09
5.600000000000000000e+01,1.860000000000000000e+02,1.430000000000000000e+02,5.900000000000000000e+01,3.800000000000000000e+01,2.500000000000000000e+01,2.100000000000000000e+01,2.800000000000000000e+01,5.500000000000000444e-01,6.922209500000000000e+09
5.200000000000000000e+01,1.640000000000000000e+02,1.060000000000000000e+02,6.400000000000000000e+01,3.900000000000000000e+01,2.400000000000000000e+01,2.100000000000000000e+01,2.700000000000000000e+01,5.500000000000000444e-01,6.940185800000000000e+09
5.800000000000000000e+01,1.900000000000000000e+02,1.440000000000000000e+02,7.300000000000000000e+01,4.500000000000000000e+01,2.500000000000000000e+01,2.300000000000000000e+01,2.800000000000000000e+01,5.500000000000000444e-01,6.958443400000000000e+09
6.000000000000000000e+01,1.990000000000000000e+02,1.420000000000000000e+02,7.700000000000000000e+01,4.400000000000000000e+01,2.500000000000000000e+01,2.400000000000000000e+01,2.800000000000000000e+01,5.500000000000000444e-01,6.977815000000000000e+09
5.100000000000000000e+01,1.600000000000000000e+02,1.490000000000000000e+02,7.800000000000000000e+01,4.400000000000000000e+01,2.700000000000000000e+01,2.200000000000000000e+01,3.000000000000000000e+01,5.500000000000000444e-01,7.000235400000000000e+09
4.800000000000000000e+01,1.610000000000000000e+02,1.750000000000000000e+02,7.500000000000000000e+01,3.900000000000000000e+01,2.400000000000000000e+01,2.600000000000000000e+01,2.700000000000000000e+01,5.500000000000000444e-01,7.022514800000000000e+09
5.000000000000000000e+01,1.900000000000000000e+02,1.720000000000000000e+02,6.200000000000000000e+01,3.600000000000000000e+01,2.700000000000000000e+01,2.500000000000000000e+01,2.600000000000000000e+01,5.500000000000000444e-01,7.040763300000000000e+09
4.100000000000000000e+01,1.760000000000000000e+02,1.470000000000000000e+02,5.700000000000000000e+01,3.000000000000000000e+01,2.700000000000000000e+01,2.400000000000000000e+01,2.600000000000000000e+01,5.500000000000000444e-01,7.059496200000000000e+09
3.800000000000000000e+01,1.720000000000000000e+02,1.610000000000000000e+02,5.700000000000000000e+01,3.300000000000000000e+01,2.800000000000000000e+01,2.400000000000000000e+01,2.600000000000000000e+01,5.500000000000000444e-01,7.078911200000000000e+09
3.800000000000000000e+01,1.720000000000000000e+02,1.590000000000000000e+02,5.500000000000000000e+01,3.800000000000000000e+01,2.800000000000000000e+01,2.300000000000000000e+01,2.500000000000000000e+01,5.500000000000000444e-01,7.101115300000000000e+09
4.300000000000000000e+01,1.750000000000000000e+02,1.310000000000000000e+02,5.100000000000000000e+01,4.100000000000000000e+01,3.000000000000000000e+01,2.100000000000000000e+01,2.500000000000000000e+01,5.600000000000000533e-01,7.119102000000000000e+09
4.300000000000000000e+01,1.540000000000000000e+02,1.480000000000000000e+02,8.100000000000000000e+01,4.400000000000000000e+01,3.100000000000000000e+01,2.200000000000000000e+01,2.600000000000000000e+01,5.600000000000000533e-01,7.138488900000000000e+09
4.800000000000000000e+01,1.610000000000000000e+02,1.570000000000000000e+02,9.600000000000000000e+01,4.800000000000000000e+01,3.100000000000000000e+01,2.300000000000000000e+01,2.600000000000000000e+01,5.600000000000000533e-01,7.156950500000000000e+09
4.700000000000000000e+01,1.540000000000000000e+02,1.690000000000000000e+02,1.100000000000000000e+02,4.400000000000000000e+01,3.000000000000000000e+01,2.200000000000000000e+01,2.500000000000000000e+01,5.600000000000000533e-01,7.178836400000000000e+09
4.600000000000000000e+01,1.530000000000000000e+02,1.890000000000000000e+02,1.160000000000000000e+02,4.200000000000000000e+01,3.300000000000000000e+01,2.500000000000000000e+01,2.500000000000000000e+01,5.699999999999999512e-01,7.201162300000000000e+09
4.600000000000000000e+01,1.580000000000000000e+02,1.900000000000000000e+02,1.170000000000000000e+02,4.000000000000000000e+01,3.100000000000000000e+01,2.500000000000000000e+01,2.600000000000000000e+01,5.699999999999999512e-01,7.219494500000000000e+09
4.600000000000000000e+01,1.530000000000000000e+02,2.160000000000000000e+02,1.040000000000000000e+02,3.900000000000000000e+01,3.000000000000000000e+01,2.500000000000000000e+01,2.600000000000000000e+01,5.699999999999999512e-01,7.239373200000000000e+09
4.400000000000000000e+01,1.320000000000000000e+02,2.050000000000000000e+02,9.000000000000000000e+01,3.700000000000000000e+01,3.100000000000000000e+01,2.400000000000000000e+01,2.300000000000000000e+01,5.699999999999999512e-01,7.257599300000000000e+09
4.400000000000000000e+01,1.290000000000000000e+02,2.160000000000000000e+02,7.200000000000000000e+01,4.000000000000000000e+01,3.200000000000000000e+01,2.400000000000000000e+01,2.500000000000000000e+01,5.699999999999999512e-01,7.278668000000000000e+09
4.300000000000000000e+01,1.270000000000000000e+02,2.040000000000000000e+02,7.400000000000000000e+01,3.900000000000000000e+01,2.800000000000000000e+01,2.300000000000000000e+01,2.500000000000000000e+01,5.699999999999999512e-01,7.300635000000000000e+09
3.700000000000000000e+01,1.000000000000000000e+02,2.000000000000000000e+02,7.500000000000000000e+01,4.100000000000000000e+01,3.000000000000000000e+01,2.400000000000000000e+01,2.400000000000000000e+01,5.699999999999999512e-01,7.318214400000000000e+09
4.900000000000000000e+01,1.440000000000000000e+02,1.670000000000000000e+02,6.900000000000000000e+01,4.000000000000000000e+01,2.800000000000000000e+01,2.200000000000000000e+01,2.400000000000000000e+01,5.699999999999999512e-01,7.337434200000000000e+09
4.600000000000000000e+01,1.470000000000000000e+02,2.140000000000000000e+02,8.200000000000000000e+01,4.100000000000000000e+01,2.700000000000000000e+01,2.300000000000000000e+01,2.500000000000000000e+01,5.799999999999999600e-01,7.356579300000000000e+09
4.700000000000000000e+01,1.530000000000000000e+02,1.990000000000000000e+02,8.100000000000000000e+01,3.900000000000000000e+01,2.800000000000000000e+01,2.500000000000000000e+01,2.500000000000000000e+01,5.799999999999999600e-01,7.378306200000000000e+09
4.700000000000000000e+01,1.550000000000000000e+02,1.900000000000000000e+02,6.800000000000000000e+01,3.600000000000000000e+01,2.700000000000000000e+01,2.500000000000000000e+01,2.400000000000000000e+01,5.699999999999999512e-01,7.400635000000000000e+09
4.600000000000000000e+01,1.490000000000000000e+02,1.970000000000000000e+02,6.600000000000000000e+01,3.300000000000000000e+01,2.600000000000000000e+01,2.500000000000000000e+01,2.300000000000000000e+01,5.699999999999999512e-01,7.422722900000000000e+09
2.700000000000000000e+01,1.010000000000000000e+02,1.990000000000000000e+02,7.100000000000000000e+01,3.300000000000000000e+01,3.000000000000000000e+01,2.700000000000000000e+01,2.300000000000000000e+01,5.699999999999999512e-01,7.440838000000000000e+09
4.600000000000000000e+01,1.420000000000000000e+02,1.840000000000000000e+02,6.000000000000000000e+01,2.800000000000000000e+01,2.900000000000000000e+01,2.700000000000000000e+01,2.300000000000000000e+01,5.699999999999999512e-01,7.459462000000000000e+09
4.500000000000000000e+01,1.370000000000000000e+02,1.720000000000000000e+02,7.400000000000000000e+01,3.800000000000000000e+01,2.800000000000000000e+01,2.800000000000000000e+01,2.300000000000000000e+01,5.600000000000000533e-01,7.481533300000000000e+09
4.500000000000000000e+01,1.370000000000000000e+02,1.740000000000000000e+02,7.600000000000000000e+01,3.700000000000000000e+01,2.700000000000000000e+01,2.800000000000000000e+01,2.300000000000000000e+01,5.600000000000000533e-01,7.503768700000000000e+09
4.600000000000000000e+01,1.450000000000000000e+02,1.670000000000000000e+02,7.700000000000000000e+01,3.800000000000000000e+01,2.900000000000000000e+01,2.700000000000000000e+01,2.400000000000000000e+01,5.600000000000000533e-01,7.523979200000000000e+09
4.900000000000000000e+01,1.440000000000000000e+02,1.640000000000000000e+02,7.100000000000000000e+01,3.700000000000000000e+01,2.600000000000000000e+01,2.700000000000000000e+01,2.500000000000000000e+01,5.600000000000000533e-01,7.544523100000000000e+09
4.200000000000000000e+01,1.440000000000000000e+02,1.760000000000000000e+02,7.500000000000000000e+01,3.800000000000000000e+01,2.600000000000000000e+01,2.700000000000000000e+01,2.400000000000000000e+01,5.600000000000000533e-01,7.562427300000000000e+09
4.100000000000000000e+01,1.370000000000000000e+02,1.820000000000000000e+02,6.300000000000000000e+01,2.900000000000000000e+01,2.700000000000000000e+01,2.400000000000000000e+01,2.300000000000000000e+01,5.600000000000000533e-01,7.580901500000000000e+09
4.400000000000000000e+01,1.430000000000000000e+02,1.800000000000000000e+02,5.900000000000000000e+01,3.400000000000000000e+01,2.800000000000000000e+01,2.400000000000000000e+01,2.400000000000000000e+01,5.600000000000000533e-01,7.598991200000000000e+09
4.200000000000000000e+01,1.360000000000000000e+02,1.790000000000000000e+02,6.000000000000000000e+01,3.300000000000000000e+01,2.600000000000000000e+01,3.200000000000000000e+01,2.400000000000000000e+01,5.600000000000000533e-01,7.619579300000000000e+09
4.700000000000000000e+01,1.630000000000000000e+02,1.700000000000000000e+02,5.800000000000000000e+01,3.300000000000000000e+01,2.300000000000000000e+01,3.000000000000000000e+01,2.400000000000000000e+01,5.600000000000000533e-01,7.641859100000000000e+09
4.100000000000000000e+01,1.290000000000000000e+02,1.290000000000000000e+02,4.900000000000000000e+01,3.300000000000000000e+01,2.400000000000000000e+01,2.800000000000000000e+01,2.300000000000000000e+01,5.600000000000000533e-01,7.659945300000000000e+09
4.400000000000000000e+01,1.340000000000000000e+02,1.530000000000000000e+02,4.500000000000000000e+01,3.300000000000000000e+01,2.500000000000000000e+01,3.200000000000000000e+01,2.500000000000000000e+01,5.500000000000000444e-01,7.679816400000000000e+09
4.100000000000000000e+01,1.270000000000000000e+02,1.990000000000000000e+02,5.400000000000000000e+01,3.200000000000000000e+01,2.500000000000000000e+01,3.300000000000000000e+01,2.300000000000000000e+01,5.500000000000000444e-01,7.697934300000000000e+09
4.200000000000000000e+01,1.390000000000000000e+02,1.980000000000000000e+02,5.600000000000000000e+01,3.200000000000000000e+01,2.500000000000000000e+01,2.500000000000000000e+01,2.500000000000000000e+01,5.500000000000000444e-01,7.719502900000000000e+09
3.400000000000000000e+01,1.140000000000000000e+02,2.110000000000000000e+02,7.200000000000000000e+01,3.600000000000000000e+01,2.700000000000000000e+01,2.700000000000000000e+01,2.300000000000000000e+01,5.500000000000000444e-01,7.741804100000000000e+09
3.400000000000000000e+01,1.170000000000000000e+02,2.140000000000000000e+02,7.300000000000000000e+01,3.500000000000000000e+01,2.800000000000000000e+01,2.700000000000000000e+01,2.500000000000000000e+01,5.500000000000000444e-01,7.760088700000000000e+09
3.200000000000000000e+01,1.140000000000000000e+02,1.820000000000000000e+02,7.500000000000000000e+01,3.500000000000000000e+01,2.800000000000000000e+01,2.400000000000000000e+01,2.300000000000000000e+01,5.500000000000000444e-01,7.778711700000000000e+09
3.200000000000000000e+01,1.100000000000000000e+02,1.310000000000000000e+02,8.200000000000000000e+01,3.300000000000000000e+01,2.900000000000000000e+01,2.400000000000000000e+01,2.300000000000000000e+01,5.500000000000000444e-01,7.799364200000000000e+09
2.900000000000000000e+01,9.400000000000000000e+01,1.350000000000000000e+02,8.400000000000000000e+01,3.500000000000000000e+01,2.900000000000000000e+01,2.500000000000000000e+01,2.200000000000000000e+01,5.500000000000000444e-01,7.820133400000000000e+09
2.900000000000000000e+01,8.600000000000000000e+01,1.240000000000000000e+02,7.400000000000000000e+01,3.200000000000000000e+01,2.700000000000000000e+01,2.200000000000000000e+01,2.300000000000000000e+01,5.500000000000000444e-01,7.842043700000000000e+09
4.700000000000000000e+01,1.630000000000000000e+02,2.010000000000000000e+02,8.100000000000000000e+01,3.200000000000000000e+01,2.900000000000000000e+01,2.600000000000000000e+01,2.500000000000000000e+01,5.500000000000000444e-01,7.860658700000000000e+09
4.800000000000000000e+01,1.690000000000000000e+02,2.100000000000000000e+02,8.500000000000000000e+01,3.200000000000000000e+01,2.600000000000000000e+01,2.600000000000000000e+01,2.500000000000000000e+01,5.500000000000000444e-01,7.880586400000000000e+09
4.900000000000000000e+01,1.730000000000000000e+02,2.190000000000000000e+02,8.700000000000000000e+01,3.700000000000000000e+01,2.600000000000000000e+01,2.600000000000000000e+01,2.700000000000000000e+01,5.500000000000000444e-01,7.900867300000000000e+09
5.200000000000000000e+01,1.770000000000000000e+02,2.180000000000000000e+02,8.600000000000000000e+01,3.700000000000000000e+01,2.800000000000000000e+01,2.600000000000000000e+01,2.600000000000000000e+01,5.600000000000000533e-01,7.919810700000000000e+09
5.000000000000000000e+01,1.740000000000000000e+02,2.160000000000000000e+02,8.400000000000000000e+01,3.600000000000000000e+01,2.700000000000000000e+01,2.800000000000000000e+01,2.600000000000000000e+01,5.600000000000000533e-01,7.942155300000000000e+09
3.100000000000000000e+01,9.500000000000000000e+01,1.960000000000000000e+02,7.600000000000000000e+01,3.600000000000000000e+01,2.700000000000000000e+01,2.400000000000000000e+01,2.300000000000000000e+01,5.600000000000000533e-01,7.960525800000000000e+09
2.800000000000000000e+01,7.800000000000000000e+01,1.960000000000000000e+02,8.400000000000000000e+01,4.500000000000000000e+01,2.800000000000000000e+01,2.500000000000000000e+01,2.300000000000000000e+01,5.600000000000000533e-01,7.980102400000000000e+09
2.700000000000000000e+01,7.800000000000000000e+01,1.950000000000000000e+02,8.300000000000000000e+01,4.500000000000000000e+01,3.500000000000000000e+01,2.400000000000000000e+01,2.200000000000000000e+01,5.600000000000000533e-01,7.997937300000000000e+09
2.500000000000000000e+01,7.000000000000000000e+01,1.960000000000000000e+02,9.400000000000000000e+01,4.800000000000000000e+01,3.300000000000000000e+01,2.300000000000000000e+01,2.300000000000000000e+01,5.699999999999999512e-01,8.020138500000000000e+09
2.700000000000000000e+01,6.900000000000000000e+01,1.930000000000000000e+02,1.000000000000000000e+02,4.800000000000000000e+01,3.300000000000000000e+01,2.200000000000000000e+01,2.300000000000000000e+01,5.699999999999999512e-01,8.042804900000000000e+09
2.500000000000000000e+01,6.800000000000000000e+01,1.210000000000000000e+02,1.040000000000000000e+02,5.100000000000000000e+01,3.300000000000000000e+01,2.200000000000000000e+01,2.100000000000000000e+01,5.699999999999999512e-01,8.061151400000000000e+09
2.600000000000000000e+01,7.300000000000000000e+01,1.220000000000000000e+02,1.040000000000000000e+02,4.300000000000000000e+01,3.500000000000000000e+01,2.400000000000000000e+01,2.200000000000000000e+01,5.699999999999999512e-01,8.080476700000000000e+09
2.700000000000000000e+01,6.100000000000000000e+01,1.050000000000000000e+02,9.300000000000000000e+01,3.700000000000000000e+01,3.000000000000000000e+01,2.300000000000000000e+01,2.000000000000000000e+01,5.699999999999999512e-01,8.098828400000000000e+09
2.300000000000000000e+01,5.800000000000000000e+01,1.050000000000000000e+02,7.900000000000000000e+01,3.400000000000000000e+01,3.500000000000000000e+01,2.500000000000000000e+01,2.000000000000000000e+01,5.699999999999999512e-01,8.120523000000000000e+09
2.600000000000000000e+01,5.800000000000000000e+01,1.010000000000000000e+02,6.900000000000000000e+01,3.400000000000000000e+01,3.600000000000000000e+01,2.700000000000000000e+01,1.900000000000000000e+01,5.699999999999999512e-01,8.142619000000000000e+09
2.500000000000000000e+01,5.600000000000000000e+01,1.130000000000000000e+02,6.000000000000000000e+01,3.000000000000000000e+01,3.600000000000000000e+01,2.700000000000000000e+01,2.000000000000000000e+01,5.600000000000000533e-01,8.160969700000000000e+09
2.600000000000000000e+01,5.300000000000000000e+01,1.210000000000000000e+02,4.100000000000000000e+01,2.800000000000000000e+01,3.700000000000000000e+01,2.400000000000000000e+01,1.900000000000000000e+01,5.600000000000000533e-01,8.178751600000000000e+09
2.600000000000000000e+01,5.300000000000000000e+01,1.230000000000000000e+02,5.700000000000000000e+01,3.300000000000000000e+01,3.500000000000000000e+01,2.500000000000000000e+01,2.000000000000000000e+01,5.600000000000000533e-01,8.198188100000000000e+09
2.600000000000000000e+01,5.700000000000000000e+01,1.240000000000000000e+02,7.500000000000000000e+01,3.700000000000000000e+01,3.100000000000000000e+01,2.300000000000000000e+01,1.900000000000000000e+01,5.500000000000000444e-01,8.223897300000000000e+09
2.400000000000000000e+01,6.400000000000000000e+01,1.260000000000000000e+02,9.000000000000000000e+01,3.900000000000000000e+01,3.000000000000000000e+01,2.300000000000000000e+01,1.900000000000000000e+01,5.500000000000000444e-01,8.242181200000000000e+09
2.400000000000000000e+01,6.900000000000000000e+01,1.150000000000000000e+02,9.400000000000000000e+01,3.900000000000000000e+01,2.900000000000000000e+01,2.200000000000000000e+01,2.000000000000000000e+01,5.500000000000000444e-01,8.260845100000000000e+09
2.300000000000000000e+01,8.600000000000000000e+01,1.010000000000000000e+02,9.500000000000000000e+01,3.900000000000000000e+01,2.600000000000000000e+01,2.400000000000000000e+01,2.100000000000000000e+01,5.500000000000000444e-01,8.279771900000000000e+09
2.400000000000000000e+01,1.000000000000000000e+02,1.260000000000000000e+02,8.800000000000000000e+01,3.900000000000000000e+01,2.700000000000000000e+01,2.500000000000000000e+01,2.100000000000000000e+01,5.500000000000000444e-01,8.298580500000000000e+09
3.200000000000000000e+01,1.030000000000000000e+02,1.590000000000000000e+02,8.000000000000000000e+01,3.500000000000000000e+01,2.700000000000000000e+01,2.600000000000000000e+01,2.400000000000000000e+01,5.500000000000000444e-01,8.319643100000000000e+09
3.300000000000000000e+01,1.070000000000000000e+02,1.770000000000000000e+02,6.700000000000000000e+01,3.300000000000000000e+01,2.700000000000000000e+01,2.300000000000000000e+01,2.400000000000000000e+01,5.500000000000000444e-01,8.341585700000000000e+09
3.400000000000000000e+01,1.170000000000000000e+02,1.810000000000000000e+02,6.400000000000000000e+01,3.800000000000000000e+01,2.800000000000000000e+01,2.400000000000000000e+01,2.400000000000000000e+01,5.500000000000000444e-01,8.361039700000000000e+09
3.400000000000000000e+01,1.030000000000000000e+02,1.730000000000000000e+02,6.200000000000000000e+01,3.800000000000000000e+01,2.700000000000000000e+01,2.500000000000000000e+01,2.400000000000000000e+01,5.500000000000000444e-01,8.380614400000000000e+09
3.400000000000000000e+01,9.000000000000000000e+01,1.560000000000000000e+02,8.000000000000000000e+01,3.900000000000000000e+01,2.700000000000000000e+01,2.400000000000000000e+01,2.400000000000000000e+01,5.500000000000000444e-01,8.399567900000000000e+09
3.200000000000000000e+01,9.800000000000000000e+01,1.620000000000000000e+02,8.600000000000000000e+01,4.000000000000000000e+01,2.900000000000000000e+01,2.400000000000000000e+01,2.400000000000000000e+01,5.500000000000000444e-01,8.419258600000000000e+09
3.000000000000000000e+01,9.400000000000000000e+01,1.440000000000000000e+02,8.500000000000000000e+01,4.000000000000000000e+01,2.700000000000000000e+01,2.600000000000000000e+01,2.300000000000000000e+01,5.500000000000000444e-01,8.441563800000000000e+09
2.900000000000000000e+01,8.700000000000000000e+01,1.390000000000000000e+02,8.300000000000000000e+01,3.500000000000000000e+01,2.500000000000000000e+01,2.900000000000000000e+01,2.300000000000000000e+01,5.500000000000000444e-01,8.461446800000000000e+09
3.000000000000000000e+01,9.000000000000000000e+01,1.390000000000000000e+02,8.200000000000000000e+01,3.500000000000000000e+01,2.500000000000000000e+01,2.700000000000000000e+01,2.400000000000000000e+01,5.500000000000000444e-01,8.480639100000000000e+09
3.000000000000000000e+01,9.100000000000000000e+01,1.370000000000000000e+02,6.300000000000000000e+01,2.900000000000000000e+01,2.600000000000000000e+01,2.700000000000000000e+01,2.400000000000000000e+01,5.500000000000000444e-01,8.498870500000000000e+09
2.700000000000000000e+01,8.600000000000000000e+01,1.380000000000000000e+02,5.200000000000000000e+01,3.000000000000000000e+01,2.300000000000000000e+01,2.700000000000000000e+01,2.300000000000000000e+01,5.500000000000000444e-01,8.519243500000000000e+09
2.700000000000000000e+01,8.200000000000000000e+01,1.440000000000000000e+02,5.500000000000000000e+01,3.000000000000000000e+01,2.300000000000000000e+01,2.600000000000000000e+01,2.400000000000000000e+01,5.500000000000000444e-01,8.541388700000000000e+09
2.800000000000000000e+01,7.200000000000000000e+01,1.430000000000000000e+02,5.300000000000000000e+01,3.000000000000000000e+01,2.300000000000000000e+01,2.200000000000000000e+01,2.300000000000000000e+01,5.500000000000000444e-01,8.560764300000000000e+09
3.000000000000000000e+01,8.800000000000000000e+01,1.470000000000000000e+02,5.500000000000000000e+01,3.000000000000000000e+01,2.500000000000000000e+01,2.400000000000000000e+01,2.400000000000000000e+01,5.500000000000000444e-01,8.581752300000000000e+09
2.900000000000000000e+01,8.800000000000000000e+01,1.480000000000000000e+02,5.400000000000000000e+01,3.200000000000000000e+01,2.500000000000000000e+01,2.300000000000000000e+01,2.200000000000000000e+01,5.500000000000000444e-01,8.602415100000000000e+09
3.000000000000000000e+01,8.500000000000000000e+01,1.080000000000000000e+02,4.900000000000000000e+01,3.000000000000000000e+01,2.500000000000000000e+01,2.200000000000000000e+01,2.200000000000000000e+01,5.400000000000000355e-01,8.621275000000000000e+09
3.400000000000000000e+01,1.050000000000000000e+02,1.020000000000000000e+02,4.700000000000000000e+01,3.200000000000000000e+01,2.800000000000000000e+01,2.500000000000000000e+01,2.400000000000000000e+01,5.400000000000000355e-01,8.640739600000000000e+09
3.400000000000000000e+01,1.040000000000000000e+02,1.390000000000000000e+02,5.700000000000000000e+01,3.200000000000000000e+01,2.800000000000000000e+01,2.400000000000000000e+01,2.500000000000000000e+01,5.400000000000000355e-01,8.659802200000000000e+09
3.200000000000000000e+01,1.000000000000000000e+02,1.410000000000000000e+02,6.400000000000000000e+01,3.600000000000000000e+01,2.900000000000000000e+01,2.300000000000000000e+01,2.300000000000000000e+01,5.400000000000000355e-01,8.679364500000000000e+09
3.300000000000000000e+01,9.800000000000000000e+01,1.410000000000000000e+02,6.200000000000000000e+01,3.600000000000000000e+01,3.000000000000000000e+01,2.200000000000000000e+01,2.400000000000000000e+01,5.400000000000000355e-01,8.697457400000000000e+09
3.200000000000000000e+01,9.300000000000000000e+01,1.810000000000000000e+02,6.200000000000000000e+01,3.700000000000000000e+01,3.200000000000000000e+01,2.200000000000000000e+01,2.500000000000000000e+01,5.300000000000000266e-01,8.719129100000000000e+09
2.800000000000000000e+01,7.200000000000000000e+01,1.830000000000000000e+02,6.600000000000000000e+01,3.400000000000000000e+01,2.900000000000000000e+01,1.900000000000000000e+01,2.300000000000000000e+01,5.300000000000000266e-01,8.741303100000000000e+09
2.900000000000000000e+01,8.300000000000000000e+01,1.770000000000000000e+02,6.500000000000000000e+01,3.400000000000000000e+01,2.900000000000000000e+01,2.500000000000000000e+01,2.500000000000000000e+01,5.300000000000000266e-01,8.762606000000000000e+09
2.700000000000000000e+01,8.100000000000000000e+01,1.770000000000000000e+02,6.100000000000000000e+01,3.300000000000000000e+01,2.900000000000000000e+01,2.700000000000000000e+01,2.500000000000000000e+01,5.300000000000000266e-01,8.781229900000000000e+09
2.700000000000000000e+01,8.000000000000000000e+01,1.820000000000000000e+02,7.400000000000000000e+01,3.500000000000000000e+01,2.800000000000000000e+01,2.800000000000000000e+01,2.600000000000000000e+01,5.300000000000000266e-01,8.801192000000000000e+09
2.900000000000000000e+01,8.600000000000000000e+01,1.330000000000000000e+02,7.500000000000000000e+01,3.400000000000000000e+01,2.400000000000000000e+01,2.800000000000000000e+01,2.400000000000000000e+01,5.300000000000000266e-01,8.819666500000000000e+09
2.600000000000000000e+01,8.800000000000000000e+01,1.360000000000000000e+02,8.000000000000000000e+01,4.300000000000000000e+01,2.500000000000000000e+01,2.800000000000000000e+01,2.400000000000000000e+01,5.300000000000000266e-01,8.841313700000000000e+09
2.500000000000000000e+01,8.400000000000000000e+01,1.100000000000000000e+02,7.700000000000000000e+01,4.300000000000000000e+01,2.800000000000000000e+01,2.300000000000000000e+01,2.300000000000000000e+01,5.300000000000000266e-01,8.859408100000000000e+09
2.500000000000000000e+01,8.100000000000000000e+01,1.030000000000000000e+02,7.400000000000000000e+01,4.200000000000000000e+01,2.700000000000000000e+01,2.300000000000000000e+01,2.200000000000000000e+01,5.300000000000000266e-01,8.879506000000000000e+09
2.400000000000000000e+01,8.500000000000000000e+01,1.070000000000000000e+02,7.000000000000000000e+01,4.100000000000000000e+01,2.600000000000000000e+01,2.200000000000000000e+01,2.100000000000000000e+01,5.300000000000000266e-01,8.897408200000000000e+09
2.100000000000000000e+01,8.700000000000000000e+01,1.240000000000000000e+02,7.300000000000000000e+01,4.300000000000000000e+01,2.700000000000000000e+01,2.300000000000000000e+01,2.200000000000000000e+01,5.300000000000000266e-01,8.918942800000000000e+09
2.200000000000000000e+01,8.600000000000000000e+01,1.480000000000000000e+02,6.600000000000000000e+01,3.600000000000000000e+01,2.700000000000000000e+01,2.400000000000000000e+01,2.100000000000000000e+01,5.300000000000000266e-01,8.941608700000000000e+09
2.300000000000000000e+01,8.400000000000000000e+01,1.480000000000000000e+02,6.800000000000000000e+01,3.600000000000000000e+01,2.400000000000000000e+01,2.500000000000000000e+01,2.200000000000000000e+01,5.300000000000000266e-01,8.959863900000000000e+09
2.400000000000000000e+01,7.800000000000000000e+01,1.480000000000000000e+02,6.900000000000000000e+01,3.600000000000000000e+01,2.400000000000000000e+01,2.600000000000000000e+01,2.300000000000000000e+01,5.300000000000000266e-01,8.977994600000000000e+09
2.500000000000000000e+01,8.100000000000000000e+01,1.400000000000000000e+02,6.500000000000000000e+01,3.600000000000000000e+01,2.500000000000000000e+01,2.700000000000000000e+01,2.300000000000000000e+01,5.400000000000000355e-01,8.996783600000000000e+09
2.400000000000000000e+01,7.200000000000000000e+01,1.260000000000000000e+02,8.500000000000000000e+01,3.800000000000000000e+01,2.600000000000000000e+01,2.600000000000000000e+01,2.300000000000000000e+01,5.400000000000000355e-01,9.019147400000000000e+09
2.500000000000000000e+01,7.100000000000000000e+01,8.700000000000000000e+01,8.700000000000000000e+01,3.700000000000000000e+01,2.700000000000000000e+01,2.300000000000000000e+01,2.400000000000000000e+01,5.400000000000000355e-01,9.041144500000000000e+09
2.500000000000000000e+01,7.200000000000000000e+01,1.460000000000000000e+02,8.600000000000000000e+01,3.900000000000000000e+01,2.700000000000000000e+01,2.300000000000000000e+01,2.400000000000000000e+01,5.400000000000000355e-01,9.059143000000000000e+09
2.600000000000000000e+01,8.700000000000000000e+01,1.640000000000000000e+02,8.700000000000000000e+01,3.900000000000000000e+01,2.800000000000000000e+01,2.300000000000000000e+01,2.200000000000000000e+01,5.400000000000000355e-01,9.079008500000000000e+09
2.700000000000000000e+01,8.200000000000000000e+01,1.660000000000000000e+02,8.600000000000000000e+01,3.800000000000000000e+01,2.800000000000000000e+01,2.400000000000000000e+01,2.200000000000000000e+01,5.400000000000000355e-01,9.096806600000000000e+09
2.700000000000000000e+01,7.900000000000000000e+01,1.640000000000000000e+02,6.300000000000000000e+01,3.300000000000000000e+01,2.700000000000000000e+01,2.500000000000000000e+01,2.200000000000000000e+01,5.400000000000000355e-01,9.119286800000000000e+09
2.900000000000000000e+01,7.900000000000000000e+01,1.630000000000000000e+02,7.700000000000000000e+01,3.400000000000000000e+01,2.600000000000000000e+01,2.600000000000000000e+01,2.200000000000000000e+01,5.400000000000000355e-01,9.141945500000000000e+09
2.800000000000000000e+01,7.600000000000000000e+01,1.290000000000000000e+02,8.400000000000000000e+01,3.500000000000000000e+01,3.000000000000000000e+01,2.500000000000000000e+01,2.000000000000000000e+01,5.400000000000000355e-01,9.159727400000000000e+09
2.700000000000000000e+01,5.900000000000000000e+01,1.070000000000000000e+02,8.400000000000000000e+01,3.500000000000000000e+01,2.800000000000000000e+01,2.300000000000000000e+01,2.100000000000000000e+01,5.400000000000000355e-01,9.178040100000000000e+09
2.800000000000000000e+01,9.100000000000000000e+01,1.200000000000000000e+02,8.200000000000000000e+01,3.600000000000000000e+01,3.000000000000000000e+01,2.300000000000000000e+01,2.200000000000000000e+01,5.500000000000000444e-01,9.198701300000000000e+09
2.800000000000000000e+01,9.300000000000000000e+01,1.320000000000000000e+02,8.100000000000000000e+01,3.700000000000000000e+01,3.100000000000000000e+01,2.400000000000000000e+01,2.100000000000000000e+01,5.500000000000000444e-01,9.221126800000000000e+09
2.600000000000000000e+01,9.700000000000000000e+01,1.320000000000000000e+02,6.300000000000000000e+01,3.600000000000000000e+01,3.100000000000000000e+01,2.400000000000000000e+01,2.000000000000000000e+01,5.500000000000000444e-01,9.239489100000000000e+09
2.700000000000000000e+01,9.800000000000000000e+01,1.220000000000000000e+02,4.800000000000000000e+01,3.800000000000000000e+01,2.800000000000000000e+01,2.500000000000000000e+01,2.100000000000000000e+01,5.500000000000000444e-01,9.257892700000000000e+09
2.700000000000000000e+01,1.000000000000000000e+02,1.630000000000000000e+02,7.000000000000000000e+01,4.100000000000000000e+01,2.800000000000000000e+01,2.700000000000000000e+01,2.200000000000000000e+01,5.500000000000000444e-01,9.277438600000000000e+09
2.500000000000000000e+01,8.000000000000000000e+01,1.570000000000000000e+02,7.600000000000000000e+01,4.300000000000000000e+01,2.900000000000000000e+01,2.400000000000000000e+01,2.000000000000000000e+01,5.500000000000000444e-01,9.299477300000000000e+09
2.800000000000000000e+01,8.000000000000000000e+01,1.890000000000000000e+02,8.000000000000000000e+01,4.500000000000000000e+01,2.900000000000000000e+01,2.400000000000000000e+01,2.100000000000000000e+01,5.500000000000000444e-01,9.322015700000000000e+09
2.800000000000000000e+01,7.500000000000000000e+01,2.010000000000000000e+02,7.900000000000000000e+01,4.600000000000000000e+01,2.900000000000000000e+01,2.300000000000000000e+01,2.100000000000000000e+01,5.500000000000000444e-01,9.340809000000000000e+09
2.700000000000000000e+01,7.300000000000000000e+01,1.990000000000000000e+02,7.800000000000000000e+01,4.100000000000000000e+01,2.600000000000000000e+01,2.400000000000000000e+01,2.200000000000000000e+01,5.500000000000000444e-01,9.359177600000000000e+09
2.800000000000000000e+01,6.700000000000000000e+01,1.730000000000000000e+02,5.800000000000000000e+01,3.800000000000000000e+01,2.600000000000000000e+01,2.200000000000000000e+01,2.300000000000000000e+01,5.500000000000000444e-01,9.380511200000000000e+09
4.200000000000000000e+01,1.190000000000000000e+02,2.100000000000000000e+02,7.700000000000000000e+01,3.800000000000000000e+01,2.900000000000000000e+01,2.500000000000000000e+01,2.700000000000000000e+01,5.500000000000000444e-01,9.399503200000000000e+09
4.300000000000000000e+01,1.210000000000000000e+02,1.740000000000000000e+02,7.500000000000000000e+01,3.600000000000000000e+01,2.900000000000000000e+01,2.400000000000000000e+01,2.700000000000000000e+01,5.500000000000000444e-01,9.421645700000000000e+09
4.500000000000000000e+01,1.270000000000000000e+02,1.740000000000000000e+02,7.700000000000000000e+01,3.600000000000000000e+01,3.000000000000000000e+01,2.400000000000000000e+01,2.800000000000000000e+01,5.500000000000000444e-01,9.439755300000000000e+09
4.500000000000000000e+01,1.410000000000000000e+02,1.790000000000000000e+02,8.000000000000000000e+01,3.700000000000000000e+01,3.100000000000000000e+01,2.400000000000000000e+01,2.700000000000000000e+01,5.500000000000000444e-01,9.458041700000000000e+09
4.600000000000000000e+01,1.490000000000000000e+02,1.800000000000000000e+02,8.000000000000000000e+01,3.600000000000000000e+01,3.400000000000000000e+01,2.600000000000000000e+01,2.600000000000000000e+01,5.500000000000000444e-01,9.477234100000000000e+09
3.200000000000000000e+01,1.060000000000000000e+02,1.360000000000000000e+02,5.700000000000000000e+01,3.700000000000000000e+01,3.100000000000000000e+01,2.500000000000000000e+01,2.600000000000000000e+01,5.500000000000000444e-01,9.499490800000000000e+09
2.900000000000000000e+01,1.050000000000000000e+02,1.410000000000000000e+02,5.300000000000000000e+01,3.500000000000000000e+01,3.000000000000000000e+01,2.500000000000000000e+01,2.500000000000000000e+01,5.500000000000000444e-01,9.521619700000000000e+09
3.100000000000000000e+01,1.110000000000000000e+02,1.500000000000000000e+02,5.700000000000000000e+01,3.500000000000000000e+01,3.200000000000000000e+01,2.800000000000000000e+01,2.400000000000000000e+01,5.500000000000000444e-01,9.539531100000000000e+09
2.900000000000000000e+01,9.300000000000000000e+01,1.410000000000000000e+02,5.400000000000000000e+01,3.500000000000000000e+01,3.100000000000000000e+01,2.700000000000000000e+01,2.500000000000000000e+01,5.500000000000000444e-01,9.558604100000000000e+09
3.100000000000000000e+01,8.000000000000000000e+01,1.300000000000000000e+02,5.200000000000000000e+01,3.500000000000000000e+01,2.900000000000000000e+01,2.600000000000000000e+01,2.400000000000000000e+01,5.500000000000000444e-01,9.577200700000000000e+09
2.900000000000000000e+01,8.100000000000000000e+01,1.320000000000000000e+02,5.100000000000000000e+01,3.100000000000000000e+01,2.700000000000000000e+01,2.400000000000000000e+01,2.200000000000000000e+01,5.400000000000000355e-01,9.599446800000000000e+09
3.100000000000000000e+01,7.900000000000000000e+01,1.470000000000000000e+02,5.500000000000000000e+01,3.600000000000000000e+01,2.900000000000000000e+01,2.700000000000000000e+01,2.400000000000000000e+01,5.400000000000000355e-01,9.621656600000000000e+09
3.000000000000000000e+01,6.400000000000000000e+01,1.280000000000000000e+02,5.600000000000000000e+01,3.700000000000000000e+01,3.000000000000000000e+01,2.400000000000000000e+01,2.300000000000000000e+01,5.400000000000000355e-01,9.639588600000000000e+09
2.900000000000000000e+01,6.100000000000000000e+01,1.250000000000000000e+02,6.500000000000000000e+01,3.700000000000000000e+01,3.100000000000000000e+01,2.600000000000000000e+01,2.500000000000000000e+01,5.400000000000000355e-01,9.658700000000000000e+09
3.300000000000000000e+01,8.300000000000000000e+01,1.480000000000000000e+02,7.000000000000000000e+01,3.900000000000000000e+01,3.200000000000000000e+01,2.700000000000000000e+01,2.500000000000000000e+01,5.400000000000000355e-01,9.684388300000000000e+09
3.500000000000000000e+01,9.200000000000000000e+01,1.520000000000000000e+02,7.300000000000000000e+01,3.800000000000000000e+01,3.300000000000000000e+01,2.900000000000000000e+01,2.400000000000000000e+01,5.400000000000000355e-01,9.704465800000000000e+09
3.300000000000000000e+01,8.800000000000000000e+01,1.500000000000000000e+02,6.900000000000000000e+01,3.800000000000000000e+01,3.200000000000000000e+01,2.600000000000000000e+01,2.400000000000000000e+01,5.300000000000000266e-01,9.723049200000000000e+09
3.200000000000000000e+01,9.000000000000000000e+01,1.680000000000000000e+02,7.000000000000000000e+01,4.000000000000000000e+01,3.200000000000000000e+01,2.600000000000000000e+01,2.600000000000000000e+01,5.300000000000000266e-01,9.742073600000000000e+09
3.500000000000000000e+01,9.500000000000000000e+01,1.770000000000000000e+02,6.800000000000000000e+01,4.000000000000000000e+01,3.300000000000000000e+01,2.300000000000000000e+01,2.500000000000000000e+01,5.300000000000000266e-01,9.760058800000000000e+09
3.200000000000000000e+01,8.100000000000000000e+01,1.800000000000000000e+02,7.600000000000000000e+01,4.100000000000000000e+01,3.200000000000000000e+01,2.200000000000000000e+01,2.800000000000000000e+01,5.300000000000000266e-01,9.780014400000000000e+09
2.800000000000000000e+01,7.300000000000000000e+01,1.710000000000000000e+02,7.100000000000000000e+01,4.100000000000000000e+01,3.000000000000000000e+01,2.200000000000000000e+01,2.900000000000000000e+01,5.300000000000000266e-01,9.798256900000000000e+09
3.000000000000000000e+01,8.300000000000000000e+01,1.620000000000000000e+02,7.200000000000000000e+01,3.700000000000000000e+01,2.900000000000000000e+01,2.200000000000000000e+01,2.700000000000000000e+01,5.300000000000000266e-01,9.818918400000000000e+09
3.000000000000000000e+01,8.500000000000000000e+01,1.390000000000000000e+02,6.700000000000000000e+01,3.200000000000000000e+01,2.700000000000000000e+01,2.600000000000000000e+01,2.800000000000000000e+01,5.300000000000000266e-01,9.841383000000000000e+09
2.700000000000000000e+01,7.800000000000000000e+01,1.370000000000000000e+02,6.200000000000000000e+01,4.000000000000000000e+01,2.900000000000000000e+01,2.700000000000000000e+01,2.600000000000000000e+01,5.300000000000000266e-01,9.859988200000000000e+09
2.500000000000000000e+01,8.300000000000000000e+01,1.240000000000000000e+02,5.100000000000000000e+01,3.900000000000000000e+01,2.900000000000000000e+01,2.800000000000000000e+01,2.200000000000000000e+01,5.300000000000000266e-01,9.879199700000000000e+09
2.500000000000000000e+01,8.800000000000000000e+01,1.350000000000000000e+02,5.500000000000000000e+01,4.000000000000000000e+01,3.300000000000000000e+01,2.700000000000000000e+01,2.300000000000000000e+01,5.300000000000000266e-01,9.897498600000000000e+09
2.300000000000000000e+01,9.300000000000000000e+01,1.590000000000000000e+02,6.600000000000000000e+01,4.100000000000000000e+01,3.400000000000000000e+01,2.800000000000000000e+01,2.400000000000000000e+01,5.300000000000000266e-01,9.918706700000000000e+09
2.200000000000000000e+01,8.500000000000000000e+01,1.590000000000000000e+02,7.000000000000000000e+01,4.100000000000000000e+01,3.300000000000000000e+01,2.500000000000000000e+01,2.300000000000000000e+01,5.300000000000000266e-01,9.940661200000000000e+09
2.300000000000000000e+01,8.900000000000000000e+01,1.670000000000000000e+02,8.800000000000000000e+01,3.500000000000000000e+01,3.200000000000000000e+01,2.600000000000000000e+01,2.300000000000000000e+01,5.300000000000000266e-01,9.958645000000000000e+09
2.500000000000000000e+01,8.300000000000000000e+01,1.890000000000000000e+02,9.500000000000000000e+01,3.300000000000000000e+01,3.300000000000000000e+01,2.600000000000000000e+01,2.400000000000000000e+01,5.300000000000000266e-01,9.976927900000000000e+09
3.000000000000000000e+01,7.700000000000000000e+01,1.790000000000000000e+02,9.500000000000000000e+01,3.200000000000000000e+01,3.000000000000000000e+01,2.700000000000000000e+01,2.300000000000000000e+01,5.400000000000000355e-01,9.996428000000000000e+09
3.100000000000000000e+01,5.900000000000000000e+01,1.520000000000000000e+02,8.700000000000000000e+01,3.200000000000000000e+01,2.700000000000000000e+01,2.600000000000000000e+01,2.100000000000000000e+01,5.400000000000000355e-01,1.001856630000000000e+10
3.000000000000000000e+01,5.900000000000000000e+01,1.500000000000000000e+02,8.800000000000000000e+01,3.400000000000000000e+01,2.800000000000000000e+01,2.600000000000000000e+01,2.200000000000000000e+01,5.400000000000000355e-01,1.004080000000000000e+10
3.100000000000000000e+01,7.400000000000000000e+01,1.580000000000000000e+02,6.700000000000000000e+01,3.200000000000000000e+01,2.400000000000000000e+01,2.400000000000000000e+01,2.300000000000000000e+01,5.400000000000000355e-01,1.005990250000000000e+10
3.300000000000000000e+01,1.170000000000000000e+02,1.980000000000000000e+02,6.900000000000000000e+01,3.600000000000000000e+01,2.400000000000000000e+01,2.500000000000000000e+01,2.300000000000000000e+01,5.400000000000000355e-01,1.007774960000000000e+10
3.200000000000000000e+01,1.320000000000000000e+02,2.020000000000000000e+02,7.100000000000000000e+01,4.100000000000000000e+01,2.500000000000000000e+01,2.400000000000000000e+01,2.400000000000000000e+01,5.400000000000000355e-01,1.009612800000000000e+10
3.400000000000000000e+01,1.410000000000000000e+02,2.080000000000000000e+02,7.100000000000000000e+01,4.100000000000000000e+01,2.600000000000000000e+01,2.600000000000000000e+01,2.400000000000000000e+01,5.400000000000000355e-01,1.011873780000000000e+10
3.400000000000000000e+01,1.450000000000000000e+02,2.150000000000000000e+02,6.900000000000000000e+01,4.000000000000000000e+01,2.900000000000000000e+01,2.400000000000000000e+01,2.300000000000000000e+01,5.500000000000000444e-01,1.014132100000000000e+10
3.300000000000000000e+01,1.370000000000000000e+02,2.000000000000000000e+02,7.200000000000000000e+01,4.100000000000000000e+01,2.700000000000000000e+01,2.300000000000000000e+01,2.300000000000000000e+01,5.500000000000000444e-01,1.015922920000000000e+10
3.100000000000000000e+01,1.010000000000000000e+02,1.190000000000000000e+02,5.600000000000000000e+01,3.700000000000000000e+01,2.600000000000000000e+01,2.100000000000000000e+01,2.300000000000000000e+01,5.500000000000000444e-01,1.017833440000000000e+10
2.700000000000000000e+01,8.200000000000000000e+01,1.250000000000000000e+02,5.200000000000000000e+01,3.100000000000000000e+01,2.700000000000000000e+01,2.200000000000000000e+01,2.100000000000000000e+01,5.400000000000000355e-01,1.019813690000000000e+10
2.500000000000000000e+01,9.300000000000000000e+01,1.350000000000000000e+02,5.100000000000000000e+01,3.100000000000000000e+01,2.500000000000000000e+01,2.100000000000000000e+01,2.300000000000000000e+01,5.400000000000000355e-01,1.022032980000000000e+10
2.500000000000000000e+01,8.700000000000000000e+01,1.310000000000000000e+02,4.600000000000000000e+01,3.000000000000000000e+01,2.300000000000000000e+01,2.900000000000000000e+01,2.400000000000000000e+01,5.400000000000000355e-01,1.024305780000000000e+10
2.500000000000000000e+01,8.700000000000000000e+01,1.280000000000000000e+02,4.000000000000000000e+01,2.900000000000000000e+01,2.300000000000000000e+01,2.900000000000000000e+01,2.200000000000000000e+01,5.400000000000000355e-01,1.026125330000000000e+10
2.500000000000000000e+01,8.600000000000000000e+01,1.300000000000000000e+02,3.700000000000000000e+01,3.000000000000000000e+01,2.600000000000000000e+01,3.000000000000000000e+01,2.300000000000000000e+01,5.300000000000000266e-01,1.027965890000000000e+10
2.900000000000000000e+01,8.800000000000000000e+01,1.240000000000000000e+02,3.400000000000000000e+01,3.100000000000000000e+01,2.400000000000000000e+01,3.100000000000000000e+01,2.300000000000000000e+01,5.300000000000000266e-01,1.029888710000000000e+10
2.900000000000000000e+01,6.900000000000000000e+01,1.000000000000000000e+02,3.400000000000000000e+01,2.900000000000000000e+01,2.600000000000000000e+01,3.300000000000000000e+01,2.300000000000000000e+01,5.300000000000000266e-01,1.032142290000000000e+10
2.800000000000000000e+01,8.400000000000000000e+01,9.700000000000000000e+01,3.800000000000000000e+01,3.000000000000000000e+01,2.400000000000000000e+01,2.700000000000000000e+01,2.300000000000000000e+01,5.300000000000000266e-01,1.033957210000000000e+10
2.800000000000000000e+01,8.700000000000000000e+01,1.240000000000000000e+02,3.900000000000000000e+01,3.200000000000000000e+01,2.600000000000000000e+01,2.900000000000000000e+01,2.300000000000000000e+01,5.200000000000000178e-01,1.035841140000000000e+10
