4.000000000000000000e+01,4.800000000000000000e+01,4.300000000000000000e+01,1.980000000000000000e+02,5.000000000000000000e+01,7.900000000000000000e+01,6.500000000000000000e+01,3.500000000000000000e+01,6.500000000000000222e-01,4.839115000000000000e+08
5.100000000000000000e+01,5.600000000000000000e+01,4.400000000000000000e+01,1.940000000000000000e+02,4.900000000000000000e+01,7.400000000000000000e+01,5.700000000000000000e+01,3.900000000000000000e+01,6.500000000000000222e-01,5.134556000000000000e+08
5.800000000000000000e+01,5.800000000000000000e+01,4.300000000000000000e+01,1.870000000000000000e+02,4.800000000000000000e+01,7.700000000000000000e+01,6.500000000000000000e+01,4.400000000000000000e+01,6.500000000000000222e-01,1.240934600000000000e+09
5.900000000000000000e+01,6.100000000000000000e+01,4.400000000000000000e+01,1.720000000000000000e+02,4.600000000000000000e+01,7.300000000000000000e+01,6.200000000000000000e+01,4.500000000000000000e+01,6.500000000000000222e-01,1.259579600000000000e+09
5.700000000000000000e+01,5.700000000000000000e+01,4.200000000000000000e+01,1.540000000000000000e+02,4.300000000000000000e+01,5.800000000000000000e+01,6.300000000000000000e+01,4.800000000000000000e+01,6.600000000000000311e-01,1.278112600000000000e+09
5.600000000000000000e+01,5.600000000000000000e+01,4.300000000000000000e+01,1.530000000000000000e+02,4.000000000000000000e+01,5.800000000000000000e+01,5.500000000000000000e+01,4.500000000000000000e+01,6.500000000000000222e-01,1.295824900000000000e+09
4.700000000000000000e+01,4.500000000000000000e+01,4.200000000000000000e+01,1.500000000000000000e+02,4.100000000000000000e+01,5.900000000000000000e+01,5.400000000000000000e+01,3.900000000000000000e+01,6.500000000000000222e-01,1.314042600000000000e+09
3.600000000000000000e+01,4.000000000000000000e+01,4.200000000000000000e+01,1.530000000000000000e+02,4.300000000000000000e+01,6.000000000000000000e+01,5.600000000000000000e+01,3.500000000000000000e+01,6.500000000000000222e-01,1.331842400000000000e+09
3.900000000000000000e+01,3.700000000000000000e+01,4.200000000000000000e+01,2.010000000000000000e+02,4.500000000000000000e+01,5.800000000000000000e+01,5.600000000000000000e+01,3.800000000000000000e+01,6.500000000000000222e-01,1.350761500000000000e+09
5.700000000000000000e+01,5.300000000000000000e+01,4.100000000000000000e+01,2.010000000000000000e+02,4.400000000000000000e+01,5.500000000000000000e+01,5.700000000000000000e+01,5.100000000000000000e+01,6.500000000000000222e-01,1.369183100000000000e+09
6.200000000000000000e+01,5.300000000000000000e+01,3.700000000000000000e+01,1.820000000000000000e+02,4.400000000000000000e+01,5.700000000000000000e+01,6.300000000000000000e+01,5.100000000000000000e+01,6.500000000000000222e-01,1.388033700000000000e+09
6.200000000000000000e+01,5.400000000000000000e+01,3.600000000000000000e+01,1.680000000000000000e+02,4.300000000000000000e+01,5.700000000000000000e+01,6.200000000000000000e+01,5.300000000000000000e+01,6.500000000000000222e-01,1.406500300000000000e+09
6.600000000000000000e+01,6.000000000000000000e+01,3.800000000000000000e+01,1.660000000000000000e+02,5.100000000000000000e+01,7.000000000000000000e+01,5.300000000000000000e+01,5.200000000000000000e+01,6.400000000000000133e-01,1.426022800000000000e+09
6.400000000000000000e+01,5.900000000000000000e+01,3.300000000000000000e+01,1.170000000000000000e+02,5.100000000000000000e+01,6.900000000000000000e+01,5.500000000000000000e+01,5.100000000000000000e+01,6.400000000000000133e-01,1.444309000000000000e+09
4.600000000000000000e+01,5.000000000000000000e+01,3.800000000000000000e+01,1.250000000000000000e+02,5.400000000000000000e+01,7.300000000000000000e+01,6.300000000000000000e+01,3.700000000000000000e+01,6.400000000000000133e-01,1.464037100000000000e+09
4.600000000000000000e+01,5.400000000000000000e+01,3.900000000000000000e+01,1.310000000000000000e+02,5.500000000000000000e+01,7.100000000000000000e+01,5.900000000000000000e+01,3.700000000000000000e+01,6.300000000000000044e-01,1.482290200000000000e+09
4.500000000000000000e+01,5.400000000000000000e+01,3.900000000000000000e+01,1.370000000000000000e+02,5.700000000000000000e+01,6.900000000000000000e+01,6.100000000000000000e+01,3.600000000000000000e+01,6.300000000000000044e-01,1.500469800000000000e+09
4.200000000000000000e+01,4.600000000000000000e+01,3.600000000000000000e+01,1.510000000000000000e+02,5.300000000000000000e+01,5.200000000000000000e+01,5.800000000000000000e+01,3.800000000000000000e+01,6.300000000000000044e-01,1.519775900000000000e+09
4.800000000000000000e+01,5.600000000000000000e+01,3.700000000000000000e+01,1.430000000000000000e+02,5.000000000000000000e+01,5.600000000000000000e+01,5.500000000000000000e+01,3.800000000000000000e+01,6.300000000000000044e-01,1.560956600000000000e+09
5.400000000000000000e+01,5.600000000000000000e+01,3.100000000000000000e+01,1.330000000000000000e+02,4.800000000000000000e+01,5.300000000000000000e+01,5.400000000000000000e+01,4.300000000000000000e+01,6.300000000000000044e-01,1.580435200000000000e+09
5.100000000000000000e+01,5.800000000000000000e+01,3.100000000000000000e+01,1.410000000000000000e+02,4.700000000000000000e+01,5.000000000000000000e+01,5.100000000000000000e+01,4.200000000000000000e+01,6.199999999999999956e-01,1.598166300000000000e+09
5.200000000000000000e+01,5.900000000000000000e+01,3.000000000000000000e+01,1.420000000000000000e+02,4.700000000000000000e+01,5.200000000000000000e+01,5.100000000000000000e+01,4.200000000000000000e+01,6.199999999999999956e-01,1.616814900000000000e+09
5.300000000000000000e+01,6.000000000000000000e+01,3.200000000000000000e+01,1.610000000000000000e+02,4.800000000000000000e+01,4.900000000000000000e+01,5.100000000000000000e+01,3.900000000000000000e+01,6.199999999999999956e-01,1.634724800000000000e+09
5.400000000000000000e+01,5.300000000000000000e+01,3.400000000000000000e+01,1.600000000000000000e+02,5.200000000000000000e+01,4.700000000000000000e+01,5.700000000000000000e+01,3.900000000000000000e+01,6.199999999999999956e-01,1.653641900000000000e+09
5.100000000000000000e+01,5.000000000000000000e+01,3.500000000000000000e+01,1.620000000000000000e+02,5.200000000000000000e+01,5.800000000000000000e+01,5.200000000000000000e+01,3.300000000000000000e+01,6.099999999999999867e-01,1.671399600000000000e+09
5.000000000000000000e+01,4.400000000000000000e+01,3.200000000000000000e+01,1.530000000000000000e+02,4.900000000000000000e+01,7.000000000000000000e+01,5.300000000000000000e+01,3.100000000000000000e+01,6.199999999999999956e-01,1.689953600000000000e+09
5.000000000000000000e+01,4.800000000000000000e+01,3.200000000000000000e+01,1.520000000000000000e+02,4.700000000000000000e+01,7.400000000000000000e+01,5.100000000000000000e+01,3.000000000000000000e+01,6.199999999999999956e-01,1.708336000000000000e+09
4.900000000000000000e+01,4.700000000000000000e+01,3.200000000000000000e+01,1.170000000000000000e+02,4.400000000000000000e+01,7.900000000000000000e+01,5.900000000000000000e+01,3.400000000000000000e+01,6.199999999999999956e-01,1.726703200000000000e+09
4.300000000000000000e+01,4.800000000000000000e+01,3.000000000000000000e+01,1.240000000000000000e+02,4.000000000000000000e+01,7.700000000000000000e+01,5.900000000000000000e+01,3.900000000000000000e+01,6.099999999999999867e-01,1.745897000000000000e+09
5.100000000000000000e+01,5.100000000000000000e+01,3.200000000000000000e+01,1.390000000000000000e+02,4.100000000000000000e+01,7.400000000000000000e+01,5.500000000000000000e+01,4.200000000000000000e+01,6.099999999999999867e-01,1.765808000000000000e+09
5.100000000000000000e+01,5.500000000000000000e+01,3.300000000000000000e+01,1.470000000000000000e+02,4.300000000000000000e+01,6.600000000000000000e+01,5.700000000000000000e+01,4.500000000000000000e+01,6.099999999999999867e-01,1.785163600000000000e+09
5.200000000000000000e+01,4.900000000000000000e+01,3.500000000000000000e+01,1.670000000000000000e+02,4.300000000000000000e+01,6.000000000000000000e+01,5.900000000000000000e+01,4.900000000000000000e+01,6.099999999999999867e-01,1.804322200000000000e+09
5.200000000000000000e+01,5.000000000000000000e+01,3.400000000000000000e+01,1.690000000000000000e+02,4.000000000000000000e+01,5.700000000000000000e+01,6.400000000000000000e+01,4.800000000000000000e+01,6.199999999999999956e-01,1.822212600000000000e+09
5.100000000000000000e+01,4.900000000000000000e+01,3.300000000000000000e+01,1.690000000000000000e+02,4.100000000000000000e+01,5.400000000000000000e+01,5.400000000000000000e+01,4.200000000000000000e+01,6.199999999999999956e-01,1.840878400000000000e+09
4.400000000000000000e+01,4.400000000000000000e+01,3.300000000000000000e+01,1.600000000000000000e+02,3.800000000000000000e+01,5.400000000000000000e+01,5.500000000000000000e+01,3.800000000000000000e+01,6.199999999999999956e-01,1.860708500000000000e+09
4.100000000000000000e+01,3.800000000000000000e+01,3.900000000000000000e+01,1.520000000000000000e+02,3.700000000000000000e+01,5.100000000000000000e+01,5.500000000000000000e+01,3.700000000000000000e+01,6.199999999999999956e-01,1.881472900000000000e+09
3.600000000000000000e+01,3.800000000000000000e+01,3.900000000000000000e+01,1.240000000000000000e+02,3.800000000000000000e+01,6.000000000000000000e+01,5.500000000000000000e+01,3.400000000000000000e+01,6.199999999999999956e-01,1.900870300000000000e+09
4.100000000000000000e+01,4.200000000000000000e+01,4.200000000000000000e+01,1.190000000000000000e+02,3.800000000000000000e+01,6.000000000000000000e+01,4.600000000000000000e+01,3.500000000000000000e+01,6.199999999999999956e-01,1.920491700000000000e+09
4.100000000000000000e+01,4.000000000000000000e+01,4.700000000000000000e+01,1.190000000000000000e+02,4.300000000000000000e+01,7.000000000000000000e+01,4.600000000000000000e+01,3.600000000000000000e+01,6.099999999999999867e-01,1.941607200000000000e+09
3.500000000000000000e+01,4.300000000000000000e+01,4.900000000000000000e+01,1.150000000000000000e+02,4.600000000000000000e+01,6.700000000000000000e+01,4.600000000000000000e+01,4.000000000000000000e+01,6.099999999999999867e-01,1.960188700000000000e+09
3.600000000000000000e+01,4.100000000000000000e+01,4.600000000000000000e+01,1.170000000000000000e+02,5.000000000000000000e+01,6.700000000000000000e+01,4.200000000000000000e+01,4.200000000000000000e+01,6.099999999999999867e-01,1.979123000000000000e+09
4.300000000000000000e+01,4.900000000000000000e+01,4.400000000000000000e+01,1.320000000000000000e+02,5.400000000000000000e+01,6.700000000000000000e+01,6.300000000000000000e+01,5.200000000000000000e+01,6.099999999999999867e-01,1.998842500000000000e+09
3.800000000000000000e+01,5.000000000000000000e+01,4.400000000000000000e+01,1.340000000000000000e+02,5.500000000000000000e+01,6.900000000000000000e+01,6.000000000000000000e+01,5.300000000000000000e+01,6.099999999999999867e-01,2.016325700000000000e+09
4.000000000000000000e+01,4.800000000000000000e+01,3.900000000000000000e+01,1.260000000000000000e+02,5.300000000000000000e+01,6.100000000000000000e+01,6.000000000000000000e+01,5.200000000000000000e+01,6.099999999999999867e-01,2.034554600000000000e+09
4.000000000000000000e+01,4.700000000000000000e+01,3.400000000000000000e+01,1.260000000000000000e+02,5.700000000000000000e+01,6.500000000000000000e+01,6.000000000000000000e+01,4.900000000000000000e+01,5.999999999999999778e-01,2.052787700000000000e+09
4.500000000000000000e+01,4.700000000000000000e+01,3.500000000000000000e+01,1.300000000000000000e+02,5.500000000000000000e+01,6.400000000000000000e+01,6.100000000000000000e+01,4.900000000000000000e+01,5.999999999999999778e-01,2.071149700000000000e+09
4.000000000000000000e+01,4.000000000000000000e+01,3.200000000000000000e+01,1.170000000000000000e+02,5.200000000000000000e+01,5.800000000000000000e+01,4.100000000000000000e+01,3.800000000000000000e+01,5.999999999999999778e-01,2.089726100000000000e+09
4.100000000000000000e+01,3.500000000000000000e+01,3.800000000000000000e+01,1.340000000000000000e+02,5.700000000000000000e+01,6.000000000000000000e+01,4.700000000000000000e+01,3.500000000000000000e+01,5.999999999999999778e-01,2.108140700000000000e+09
4.000000000000000000e+01,4.100000000000000000e+01,4.100000000000000000e+01,1.350000000000000000e+02,5.700000000000000000e+01,5.900000000000000000e+01,4.800000000000000000e+01,3.500000000000000000e+01,5.999999999999999778e-01,2.125685800000000000e+09
4.400000000000000000e+01,5.000000000000000000e+01,4.500000000000000000e+01,1.310000000000000000e+02,5.100000000000000000e+01,5.900000000000000000e+01,4.700000000000000000e+01,3.400000000000000000e+01,5.999999999999999778e-01,2.146009600000000000e+09
3.900000000000000000e+01,5.200000000000000000e+01,4.700000000000000000e+01,1.290000000000000000e+02,5.400000000000000000e+01,6.300000000000000000e+01,4.900000000000000000e+01,2.800000000000000000e+01,5.999999999999999778e-01,2.165133800000000000e+09
3.900000000000000000e+01,5.400000000000000000e+01,4.900000000000000000e+01,1.340000000000000000e+02,5.400000000000000000e+01,6.900000000000000000e+01,4.600000000000000000e+01,2.700000000000000000e+01,5.999999999999999778e-01,2.183015700000000000e+09
3.600000000000000000e+01,5.300000000000000000e+01,4.200000000000000000e+01,1.190000000000000000e+02,5.000000000000000000e+01,7.000000000000000000e+01,4.000000000000000000e+01,2.600000000000000000e+01,5.999999999999999778e-01,2.200851000000000000e+09
3.500000000000000000e+01,5.200000000000000000e+01,3.900000000000000000e+01,1.430000000000000000e+02,5.100000000000000000e+01,7.400000000000000000e+01,3.700000000000000000e+01,2.400000000000000000e+01,5.999999999999999778e-01,2.219159300000000000e+09
3.300000000000000000e+01,4.700000000000000000e+01,3.600000000000000000e+01,1.570000000000000000e+02,5.500000000000000000e+01,7.600000000000000000e+01,3.800000000000000000e+01,2.400000000000000000e+01,5.999999999999999778e-01,2.237245000000000000e+09
3.200000000000000000e+01,4.700000000000000000e+01,3.200000000000000000e+01,1.660000000000000000e+02,5.100000000000000000e+01,7.600000000000000000e+01,4.800000000000000000e+01,2.900000000000000000e+01,5.999999999999999778e-01,2.255781600000000000e+09
3.600000000000000000e+01,5.200000000000000000e+01,2.900000000000000000e+01,1.800000000000000000e+02,4.900000000000000000e+01,7.300000000000000000e+01,4.900000000000000000e+01,3.400000000000000000e+01,5.999999999999999778e-01,2.274595600000000000e+09
3.800000000000000000e+01,6.400000000000000000e+01,4.000000000000000000e+01,1.830000000000000000e+02,4.800000000000000000e+01,6.900000000000000000e+01,5.300000000000000000e+01,3.700000000000000000e+01,6.099999999999999867e-01,2.292284000000000000e+09
4.300000000000000000e+01,7.900000000000000000e+01,4.000000000000000000e+01,1.730000000000000000e+02,4.700000000000000000e+01,8.200000000000000000e+01,5.200000000000000000e+01,3.600000000000000000e+01,6.099999999999999867e-01,2.310460100000000000e+09
4.600000000000000000e+01,8.800000000000000000e+01,4.100000000000000000e+01,1.830000000000000000e+02,4.300000000000000000e+01,8.200000000000000000e+01,5.800000000000000000e+01,3.900000000000000000e+01,6.099999999999999867e-01,2.328109500000000000e+09
6.100000000000000000e+01,1.590000000000000000e+02,5.900000000000000000e+01,1.920000000000000000e+02,4.500000000000000000e+01,9.400000000000000000e+01,5.700000000000000000e+01,4.500000000000000000e+01,6.199999999999999956e-01,2.345886600000000000e+09
6.200000000000000000e+01,1.930000000000000000e+02,6.700000000000000000e+01,2.030000000000000000e+02,4.800000000000000000e+01,9.200000000000000000e+01,6.500000000000000000e+01,4.400000000000000000e+01,6.199999999999999956e-01,2.364248800000000000e+09
6.700000000000000000e+01,1.950000000000000000e+02,6.300000000000000000e+01,2.090000000000000000e+02,4.500000000000000000e+01,1.090000000000000000e+02,6.300000000000000000e+01,4.300000000000000000e+01,6.300000000000000044e-01,2.382686600000000000e+09
6.900000000000000000e+01,2.170000000000000000e+02,6.800000000000000000e+01,2.290000000000000000e+02,4.500000000000000000e+01,1.090000000000000000e+02,6.500000000000000000e+01,4.600000000000000000e+01,6.400000000000000133e-01,2.402510700000000000e+09
6.900000000000000000e+01,2.130000000000000000e+02,6.800000000000000000e+01,2.180000000000000000e+02,4.600000000000000000e+01,1.090000000000000000e+02,6.300000000000000000e+01,4.600000000000000000e+01,6.400000000000000133e-01,2.421352800000000000e+09
5.600000000000000000e+01,1.680000000000000000e+02,5.600000000000000000e+01,2.160000000000000000e+02,4.800000000000000000e+01,1.000000000000000000e+02,5.600000000000000000e+01,4.000000000000000000e+01,6.500000000000000222e-01,2.440317900000000000e+09
5.300000000000000000e+01,1.270000000000000000e+02,4.700000000000000000e+01,2.070000000000000000e+02,5.000000000000000000e+01,1.020000000000000000e+02,4.600000000000000000e+01,3.800000000000000000e+01,6.500000000000000222e-01,2.458724500000000000e+09
4.700000000000000000e+01,1.210000000000000000e+02,4.500000000000000000e+01,2.070000000000000000e+02,4.800000000000000000e+01,8.500000000000000000e+01,4.800000000000000000e+01,3.700000000000000000e+01,6.600000000000000311e-01,2.476598700000000000e+09
4.000000000000000000e+01,5.600000000000000000e+01,3.800000000000000000e+01,1.860000000000000000e+02,4.600000000000000000e+01,7.300000000000000000e+01,5.400000000000000000e+01,3.800000000000000000e+01,6.600000000000000311e-01,2.494420800000000000e+09
3.700000000000000000e+01,5.900000000000000000e+01,4.000000000000000000e+01,1.940000000000000000e+02,4.500000000000000000e+01,6.700000000000000000e+01,5.200000000000000000e+01,3.800000000000000000e+01,6.600000000000000311e-01,2.512471800000000000e+09
3.800000000000000000e+01,5.200000000000000000e+01,3.700000000000000000e+01,1.810000000000000000e+02,4.900000000000000000e+01,6.300000000000000000e+01,4.800000000000000000e+01,3.400000000000000000e+01,6.700000000000000400e-01,2.530232800000000000e+09
3.600000000000000000e+01,5.600000000000000000e+01,3.800000000000000000e+01,1.750000000000000000e+02,4.300000000000000000e+01,5.900000000000000000e+01,5.000000000000000000e+01,3.600000000000000000e+01,6.700000000000000400e-01,2.548715100000000000e+09
3.700000000000000000e+01,5.200000000000000000e+01,4.000000000000000000e+01,1.650000000000000000e+02,4.600000000000000000e+01,5.900000000000000000e+01,4.400000000000000000e+01,3.500000000000000000e+01,6.700000000000000400e-01,2.567028400000000000e+09
3.300000000000000000e+01,5.600000000000000000e+01,4.000000000000000000e+01,1.760000000000000000e+02,4.500000000000000000e+01,7.000000000000000000e+01,3.600000000000000000e+01,3.300000000000000000e+01,6.700000000000000400e-01,2.586231000000000000e+09
3.600000000000000000e+01,7.800000000000000000e+01,4.000000000000000000e+01,1.730000000000000000e+02,4.500000000000000000e+01,8.200000000000000000e+01,3.200000000000000000e+01,2.800000000000000000e+01,6.700000000000000400e-01,2.604288700000000000e+09
3.600000000000000000e+01,8.000000000000000000e+01,4.100000000000000000e+01,1.700000000000000000e+02,3.700000000000000000e+01,7.900000000000000000e+01,4.000000000000000000e+01,3.200000000000000000e+01,6.600000000000000311e-01,2.622131800000000000e+09
3.900000000000000000e+01,7.800000000000000000e+01,4.200000000000000000e+01,1.670000000000000000e+02,4.500000000000000000e+01,8.100000000000000000e+01,3.900000000000000000e+01,3.000000000000000000e+01,6.600000000000000311e-01,2.641609700000000000e+09
4.000000000000000000e+01,8.800000000000000000e+01,4.300000000000000000e+01,1.610000000000000000e+02,4.400000000000000000e+01,8.300000000000000000e+01,4.000000000000000000e+01,3.200000000000000000e+01,6.600000000000000311e-01,2.659623900000000000e+09
4.200000000000000000e+01,8.500000000000000000e+01,4.100000000000000000e+01,1.470000000000000000e+02,4.700000000000000000e+01,8.200000000000000000e+01,4.200000000000000000e+01,3.000000000000000000e+01,6.500000000000000222e-01,2.679483600000000000e+09
4.200000000000000000e+01,6.400000000000000000e+01,3.900000000000000000e+01,1.550000000000000000e+02,4.800000000000000000e+01,7.400000000000000000e+01,4.500000000000000000e+01,3.400000000000000000e+01,6.500000000000000222e-01,2.697611100000000000e+09
4.300000000000000000e+01,6.500000000000000000e+01,3.800000000000000000e+01,1.660000000000000000e+02,4.800000000000000000e+01,7.400000000000000000e+01,3.700000000000000000e+01,3.200000000000000000e+01,6.500000000000000222e-01,2.715312200000000000e+09
4.200000000000000000e+01,6.800000000000000000e+01,4.000000000000000000e+01,2.090000000000000000e+02,4.700000000000000000e+01,7.500000000000000000e+01,3.700000000000000000e+01,3.500000000000000000e+01,6.500000000000000222e-01,2.733219600000000000e+09
3.900000000000000000e+01,5.700000000000000000e+01,3.900000000000000000e+01,2.230000000000000000e+02,4.900000000000000000e+01,7.300000000000000000e+01,3.700000000000000000e+01,3.200000000000000000e+01,6.500000000000000222e-01,2.751818200000000000e+09
3.800000000000000000e+01,5.700000000000000000e+01,4.000000000000000000e+01,2.150000000000000000e+02,4.800000000000000000e+01,6.400000000000000000e+01,3.300000000000000000e+01,3.300000000000000000e+01,6.500000000000000222e-01,2.770358600000000000e+09
3.700000000000000000e+01,5.200000000000000000e+01,4.000000000000000000e+01,2.010000000000000000e+02,4.500000000000000000e+01,6.100000000000000000e+01,2.800000000000000000e+01,2.800000000000000000e+01,6.500000000000000222e-01,2.789803300000000000e+09
3.800000000000000000e+01,5.500000000000000000e+01,3.900000000000000000e+01,1.870000000000000000e+02,4.700000000000000000e+01,6.300000000000000000e+01,2.800000000000000000e+01,2.800000000000000000e+01,6.500000000000000222e-01,2.807850500000000000e+09
3.500000000000000000e+01,5.000000000000000000e+01,3.300000000000000000e+01,1.300000000000000000e+02,4.300000000000000000e+01,6.000000000000000000e+01,2.600000000000000000e+01,2.400000000000000000e+01,6.500000000000000222e-01,2.826070500000000000e+09
3.800000000000000000e+01,4.800000000000000000e+01,3.600000000000000000e+01,1.230000000000000000e+02,4.300000000000000000e+01,6.000000000000000000e+01,2.800000000000000000e+01,2.400000000000000000e+01,6.500000000000000222e-01,2.843518100000000000e+09
4.100000000000000000e+01,5.600000000000000000e+01,3.800000000000000000e+01,1.240000000000000000e+02,4.400000000000000000e+01,5.700000000000000000e+01,2.800000000000000000e+01,2.600000000000000000e+01,6.400000000000000133e-01,2.862239200000000000e+09
3.800000000000000000e+01,5.900000000000000000e+01,4.200000000000000000e+01,1.270000000000000000e+02,4.500000000000000000e+01,5.500000000000000000e+01,3.000000000000000000e+01,3.000000000000000000e+01,6.400000000000000133e-01,2.879784600000000000e+09
3.500000000000000000e+01,5.500000000000000000e+01,4.400000000000000000e+01,1.630000000000000000e+02,4.700000000000000000e+01,6.200000000000000000e+01,3.000000000000000000e+01,3.000000000000000000e+01,6.400000000000000133e-01,2.896875400000000000e+09
3.600000000000000000e+01,5.900000000000000000e+01,4.400000000000000000e+01,1.650000000000000000e+02,4.500000000000000000e+01,7.400000000000000000e+01,3.100000000000000000e+01,2.900000000000000000e+01,6.400000000000000133e-01,2.913802600000000000e+09
3.400000000000000000e+01,6.100000000000000000e+01,4.300000000000000000e+01,1.520000000000000000e+02,4.300000000000000000e+01,7.900000000000000000e+01,2.800000000000000000e+01,2.800000000000000000e+01,6.400000000000000133e-01,2.931260100000000000e+09
3.100000000000000000e+01,5.300000000000000000e+01,4.300000000000000000e+01,1.510000000000000000e+02,4.300000000000000000e+01,8.100000000000000000e+01,2.900000000000000000e+01,2.600000000000000000e+01,6.400000000000000133e-01,2.948420100000000000e+09
3.100000000000000000e+01,5.000000000000000000e+01,4.200000000000000000e+01,1.430000000000000000e+02,4.100000000000000000e+01,8.900000000000000000e+01,2.700000000000000000e+01,2.200000000000000000e+01,6.400000000000000133e-01,2.964785300000000000e+09
3.300000000000000000e+01,4.800000000000000000e+01,4.100000000000000000e+01,1.150000000000000000e+02,4.000000000000000000e+01,8.900000000000000000e+01,2.600000000000000000e+01,2.100000000000000000e+01,6.300000000000000044e-01,2.981665200000000000e+09
4.700000000000000000e+01,8.200000000000000000e+01,5.100000000000000000e+01,1.410000000000000000e+02,4.400000000000000000e+01,8.200000000000000000e+01,3.600000000000000000e+01,3.200000000000000000e+01,6.300000000000000044e-01,2.998640400000000000e+09
5.200000000000000000e+01,1.460000000000000000e+02,6.400000000000000000e+01,1.740000000000000000e+02,5.300000000000000000e+01,8.400000000000000000e+01,5.000000000000000000e+01,3.800000000000000000e+01,6.300000000000000044e-01,3.016037200000000000e+09
5.200000000000000000e+01,1.640000000000000000e+02,6.600000000000000000e+01,1.770000000000000000e+02,5.200000000000000000e+01,8.200000000000000000e+01,5.600000000000000000e+01,3.900000000000000000e+01,6.300000000000000044e-01,3.033777300000000000e+09
5.200000000000000000e+01,1.660000000000000000e+02,6.500000000000000000e+01,1.790000000000000000e+02,5.500000000000000000e+01,7.300000000000000000e+01,5.600000000000000000e+01,3.800000000000000000e+01,6.300000000000000044e-01,3.051183900000000000e+09
5.200000000000000000e+01,1.770000000000000000e+02,6.600000000000000000e+01,1.880000000000000000e+02,5.500000000000000000e+01,7.000000000000000000e+01,5.600000000000000000e+01,3.700000000000000000e+01,6.400000000000000133e-01,3.071083100000000000e+09
3.900000000000000000e+01,1.680000000000000000e+02,5.900000000000000000e+01,1.670000000000000000e+02,5.400000000000000000e+01,6.300000000000000000e+01,4.900000000000000000e+01,2.800000000000000000e+01,6.400000000000000133e-01,3.088815800000000000e+09
2.900000000000000000e+01,1.190000000000000000e+02,4.300000000000000000e+01,1.310000000000000000e+02,4.600000000000000000e+01,5.500000000000000000e+01,3.600000000000000000e+01,2.000000000000000000e+01,6.400000000000000133e-01,3.106047700000000000e+09
3.000000000000000000e+01,9.400000000000000000e+01,4.100000000000000000e+01,1.260000000000000000e+02,5.100000000000000000e+01,6.100000000000000000e+01,2.600000000000000000e+01,2.000000000000000000e+01,6.400000000000000133e-01,3.123104400000000000e+09
2.900000000000000000e+01,9.400000000000000000e+01,4.600000000000000000e+01,1.360000000000000000e+02,5.400000000000000000e+01,7.000000000000000000e+01,3.000000000000000000e+01,2.200000000000000000e+01,6.400000000000000133e-01,3.139425400000000000e+09
3.100000000000000000e+01,6.900000000000000000e+01,5.100000000000000000e+01,1.380000000000000000e+02,5.300000000000000000e+01,7.400000000000000000e+01,3.300000000000000000e+01,2.600000000000000000e+01,6.400000000000000133e-01,3.156706300000000000e+09
3.500000000000000000e+01,5.600000000000000000e+01,5.100000000000000000e+01,1.740000000000000000e+02,6.100000000000000000e+01,9.200000000000000000e+01,3.800000000000000000e+01,3.000000000000000000e+01,6.400000000000000133e-01,3.174682200000000000e+09
3.700000000000000000e+01,5.100000000000000000e+01,5.100000000000000000e+01,1.820000000000000000e+02,6.300000000000000000e+01,9.600000000000000000e+01,4.000000000000000000e+01,3.100000000000000000e+01,6.400000000000000133e-01,3.191987000000000000e+09
3.900000000000000000e+01,6.000000000000000000e+01,5.900000000000000000e+01,2.140000000000000000e+02,6.100000000000000000e+01,1.040000000000000000e+02,4.100000000000000000e+01,3.000000000000000000e+01,6.500000000000000222e-01,3.209707900000000000e+09
4.900000000000000000e+01,8.900000000000000000e+01,5.900000000000000000e+01,2.440000000000000000e+02,6.700000000000000000e+01,1.150000000000000000e+02,4.300000000000000000e+01,3.300000000000000000e+01,6.500000000000000222e-01,3.227591500000000000e+09
7.100000000000000000e+01,1.710000000000000000e+02,7.700000000000000000e+01,2.590000000000000000e+02,6.800000000000000000e+01,1.230000000000000000e+02,5.700000000000000000e+01,4.900000000000000000e+01,6.500000000000000222e-01,3.245637600000000000e+09
7.400000000000000000e+01,2.380000000000000000e+02,8.900000000000000000e+01,2.650000000000000000e+02,6.900000000000000000e+01,1.170000000000000000e+02,6.400000000000000000e+01,5.100000000000000000e+01,6.500000000000000222e-01,3.264548900000000000e+09
7.700000000000000000e+01,2.440000000000000000e+02,9.100000000000000000e+01,2.640000000000000000e+02,7.200000000000000000e+01,1.350000000000000000e+02,6.600000000000000000e+01,5.100000000000000000e+01,6.600000000000000311e-01,3.282086700000000000e+09
7.900000000000000000e+01,2.560000000000000000e+02,8.500000000000000000e+01,2.480000000000000000e+02,8.000000000000000000e+01,1.500000000000000000e+02,6.700000000000000000e+01,5.100000000000000000e+01,6.600000000000000311e-01,3.298959900000000000e+09
7.900000000000000000e+01,2.510000000000000000e+02,8.600000000000000000e+01,2.180000000000000000e+02,7.300000000000000000e+01,1.450000000000000000e+02,6.500000000000000000e+01,5.300000000000000000e+01,6.600000000000000311e-01,3.317412900000000000e+09
7.700000000000000000e+01,2.510000000000000000e+02,7.900000000000000000e+01,2.040000000000000000e+02,7.400000000000000000e+01,1.770000000000000000e+02,6.800000000000000000e+01,4.400000000000000000e+01,6.700000000000000400e-01,3.334952200000000000e+09
7.300000000000000000e+01,1.890000000000000000e+02,6.600000000000000000e+01,1.740000000000000000e+02,6.800000000000000000e+01,1.830000000000000000e+02,6.100000000000000000e+01,4.200000000000000000e+01,6.700000000000000400e-01,3.353586500000000000e+09
7.100000000000000000e+01,1.950000000000000000e+02,6.500000000000000000e+01,1.730000000000000000e+02,6.400000000000000000e+01,1.670000000000000000e+02,5.800000000000000000e+01,4.100000000000000000e+01,6.700000000000000400e-01,3.371515700000000000e+09
7.000000000000000000e+01,1.890000000000000000e+02,6.700000000000000000e+01,1.730000000000000000e+02,5.200000000000000000e+01,1.530000000000000000e+02,5.700000000000000000e+01,4.000000000000000000e+01,6.800000000000000488e-01,3.389223700000000000e+09
6.500000000000000000e+01,1.830000000000000000e+02,6.200000000000000000e+01,1.710000000000000000e+02,5.300000000000000000e+01,1.510000000000000000e+02,5.600000000000000000e+01,3.600000000000000000e+01,6.800000000000000488e-01,3.406385000000000000e+09
4.500000000000000000e+01,1.180000000000000000e+02,4.500000000000000000e+01,1.690000000000000000e+02,5.500000000000000000e+01,1.260000000000000000e+02,3.700000000000000000e+01,2.800000000000000000e+01,6.800000000000000488e-01,3.423403300000000000e+09
4.300000000000000000e+01,1.160000000000000000e+02,4.300000000000000000e+01,1.640000000000000000e+02,5.600000000000000000e+01,1.200000000000000000e+02,3.500000000000000000e+01,2.600000000000000000e+01,6.800000000000000488e-01,3.440353100000000000e+09
4.700000000000000000e+01,9.000000000000000000e+01,4.000000000000000000e+01,1.890000000000000000e+02,6.200000000000000000e+01,1.290000000000000000e+02,3.600000000000000000e+01,2.800000000000000000e+01,6.800000000000000488e-01,3.457346000000000000e+09
4.500000000000000000e+01,5.700000000000000000e+01,4.300000000000000000e+01,1.980000000000000000e+02,6.300000000000000000e+01,1.240000000000000000e+02,3.300000000000000000e+01,2.900000000000000000e+01,6.800000000000000488e-01,3.474773400000000000e+09
4.600000000000000000e+01,6.000000000000000000e+01,4.400000000000000000e+01,1.990000000000000000e+02,6.800000000000000000e+01,1.260000000000000000e+02,3.600000000000000000e+01,3.000000000000000000e+01,6.800000000000000488e-01,3.493468500000000000e+09
4.200000000000000000e+01,5.100000000000000000e+01,4.600000000000000000e+01,2.180000000000000000e+02,7.100000000000000000e+01,1.040000000000000000e+02,3.400000000000000000e+01,2.900000000000000000e+01,6.700000000000000400e-01,3.510920300000000000e+09
4.500000000000000000e+01,5.300000000000000000e+01,4.600000000000000000e+01,2.330000000000000000e+02,6.800000000000000000e+01,9.800000000000000000e+01,3.400000000000000000e+01,3.000000000000000000e+01,6.700000000000000400e-01,3.528149000000000000e+09
4.100000000000000000e+01,5.500000000000000000e+01,5.100000000000000000e+01,2.130000000000000000e+02,6.200000000000000000e+01,8.800000000000000000e+01,3.300000000000000000e+01,3.100000000000000000e+01,6.700000000000000400e-01,3.544978800000000000e+09
3.900000000000000000e+01,5.900000000000000000e+01,4.600000000000000000e+01,1.980000000000000000e+02,6.700000000000000000e+01,8.800000000000000000e+01,3.600000000000000000e+01,3.000000000000000000e+01,6.700000000000000400e-01,3.561787900000000000e+09
3.600000000000000000e+01,5.600000000000000000e+01,4.500000000000000000e+01,2.010000000000000000e+02,6.000000000000000000e+01,8.900000000000000000e+01,3.300000000000000000e+01,2.800000000000000000e+01,6.700000000000000400e-01,3.579410400000000000e+09
3.900000000000000000e+01,5.300000000000000000e+01,5.000000000000000000e+01,1.660000000000000000e+02,5.500000000000000000e+01,1.030000000000000000e+02,4.400000000000000000e+01,3.200000000000000000e+01,6.700000000000000400e-01,3.596617500000000000e+09
3.800000000000000000e+01,5.200000000000000000e+01,5.100000000000000000e+01,1.680000000000000000e+02,7.300000000000000000e+01,1.250000000000000000e+02,4.900000000000000000e+01,3.300000000000000000e+01,6.600000000000000311e-01,3.613858800000000000e+09
4.200000000000000000e+01,5.600000000000000000e+01,4.600000000000000000e+01,1.680000000000000000e+02,7.500000000000000000e+01,1.250000000000000000e+02,4.800000000000000000e+01,3.000000000000000000e+01,6.600000000000000311e-01,3.630882200000000000e+09
4.700000000000000000e+01,5.300000000000000000e+01,4.800000000000000000e+01,1.910000000000000000e+02,7.900000000000000000e+01,1.340000000000000000e+02,4.900000000000000000e+01,3.000000000000000000e+01,6.600000000000000311e-01,3.647907600000000000e+09
4.800000000000000000e+01,5.200000000000000000e+01,4.700000000000000000e+01,1.840000000000000000e+02,7.700000000000000000e+01,1.290000000000000000e+02,5.000000000000000000e+01,3.000000000000000000e+01,6.500000000000000222e-01,3.664884000000000000e+09
4.600000000000000000e+01,5.300000000000000000e+01,3.900000000000000000e+01,1.870000000000000000e+02,7.700000000000000000e+01,1.170000000000000000e+02,4.100000000000000000e+01,2.600000000000000000e+01,6.500000000000000222e-01,3.683511300000000000e+09
4.600000000000000000e+01,5.600000000000000000e+01,3.700000000000000000e+01,1.750000000000000000e+02,6.100000000000000000e+01,9.500000000000000000e+01,3.500000000000000000e+01,2.600000000000000000e+01,6.500000000000000222e-01,3.700800000000000000e+09
4.300000000000000000e+01,5.200000000000000000e+01,3.900000000000000000e+01,1.720000000000000000e+02,6.400000000000000000e+01,1.030000000000000000e+02,3.800000000000000000e+01,2.900000000000000000e+01,6.400000000000000133e-01,3.718245200000000000e+09
4.000000000000000000e+01,5.300000000000000000e+01,4.200000000000000000e+01,1.500000000000000000e+02,5.600000000000000000e+01,9.300000000000000000e+01,3.700000000000000000e+01,3.000000000000000000e+01,6.400000000000000133e-01,3.735184100000000000e+09
4.000000000000000000e+01,7.000000000000000000e+01,4.500000000000000000e+01,1.490000000000000000e+02,6.800000000000000000e+01,1.030000000000000000e+02,3.900000000000000000e+01,3.400000000000000000e+01,6.400000000000000133e-01,3.753612800000000000e+09
4.200000000000000000e+01,7.400000000000000000e+01,4.900000000000000000e+01,1.430000000000000000e+02,7.600000000000000000e+01,1.110000000000000000e+02,4.500000000000000000e+01,3.600000000000000000e+01,6.300000000000000044e-01,3.771943800000000000e+09
3.900000000000000000e+01,7.100000000000000000e+01,4.900000000000000000e+01,1.270000000000000000e+02,7.800000000000000000e+01,1.190000000000000000e+02,4.500000000000000000e+01,3.400000000000000000e+01,6.300000000000000044e-01,3.790226100000000000e+09
3.900000000000000000e+01,8.300000000000000000e+01,4.700000000000000000e+01,1.380000000000000000e+02,7.400000000000000000e+01,1.100000000000000000e+02,4.200000000000000000e+01,3.100000000000000000e+01,6.199999999999999956e-01,3.808144600000000000e+09
3.800000000000000000e+01,8.200000000000000000e+01,4.700000000000000000e+01,1.310000000000000000e+02,7.800000000000000000e+01,1.090000000000000000e+02,3.800000000000000000e+01,3.200000000000000000e+01,6.199999999999999956e-01,3.825879900000000000e+09
4.100000000000000000e+01,6.900000000000000000e+01,4.600000000000000000e+01,1.470000000000000000e+02,7.200000000000000000e+01,1.090000000000000000e+02,3.900000000000000000e+01,3.000000000000000000e+01,6.199999999999999956e-01,3.844614100000000000e+09
4.100000000000000000e+01,6.500000000000000000e+01,4.500000000000000000e+01,1.780000000000000000e+02,6.400000000000000000e+01,1.050000000000000000e+02,3.200000000000000000e+01,3.100000000000000000e+01,6.199999999999999956e-01,3.863697800000000000e+09
4.300000000000000000e+01,7.300000000000000000e+01,4.600000000000000000e+01,1.800000000000000000e+02,6.100000000000000000e+01,9.200000000000000000e+01,3.200000000000000000e+01,3.300000000000000000e+01,6.199999999999999956e-01,3.882070600000000000e+09
4.300000000000000000e+01,7.100000000000000000e+01,4.700000000000000000e+01,1.730000000000000000e+02,6.100000000000000000e+01,9.200000000000000000e+01,4.200000000000000000e+01,3.400000000000000000e+01,6.199999999999999956e-01,3.899490600000000000e+09
4.300000000000000000e+01,6.900000000000000000e+01,4.100000000000000000e+01,1.850000000000000000e+02,5.400000000000000000e+01,8.700000000000000000e+01,4.300000000000000000e+01,3.300000000000000000e+01,6.199999999999999956e-01,3.919028100000000000e+09
3.900000000000000000e+01,7.700000000000000000e+01,4.500000000000000000e+01,1.730000000000000000e+02,5.000000000000000000e+01,7.700000000000000000e+01,4.300000000000000000e+01,3.400000000000000000e+01,6.199999999999999956e-01,3.938253900000000000e+09
4.400000000000000000e+01,9.000000000000000000e+01,5.000000000000000000e+01,1.500000000000000000e+02,6.800000000000000000e+01,1.050000000000000000e+02,5.100000000000000000e+01,3.600000000000000000e+01,6.199999999999999956e-01,3.956970300000000000e+09
4.600000000000000000e+01,9.800000000000000000e+01,5.100000000000000000e+01,1.650000000000000000e+02,6.900000000000000000e+01,1.210000000000000000e+02,5.200000000000000000e+01,3.600000000000000000e+01,6.199999999999999956e-01,3.975048300000000000e+09
4.700000000000000000e+01,1.110000000000000000e+02,5.100000000000000000e+01,1.740000000000000000e+02,6.700000000000000000e+01,1.240000000000000000e+02,4.800000000000000000e+01,4.100000000000000000e+01,6.199999999999999956e-01,3.993759900000000000e+09
4.800000000000000000e+01,1.180000000000000000e+02,5.200000000000000000e+01,1.830000000000000000e+02,7.200000000000000000e+01,1.240000000000000000e+02,4.800000000000000000e+01,4.100000000000000000e+01,6.199999999999999956e-01,4.011504500000000000e+09
4.700000000000000000e+01,1.140000000000000000e+02,5.000000000000000000e+01,1.810000000000000000e+02,7.200000000000000000e+01,1.220000000000000000e+02,4.700000000000000000e+01,4.000000000000000000e+01,6.199999999999999956e-01,4.030205600000000000e+09
4.300000000000000000e+01,1.060000000000000000e+02,4.200000000000000000e+01,1.730000000000000000e+02,5.600000000000000000e+01,1.040000000000000000e+02,3.900000000000000000e+01,3.900000000000000000e+01,6.300000000000000044e-01,4.049454500000000000e+09
4.000000000000000000e+01,9.300000000000000000e+01,4.300000000000000000e+01,1.600000000000000000e+02,6.200000000000000000e+01,8.800000000000000000e+01,3.900000000000000000e+01,3.900000000000000000e+01,6.300000000000000044e-01,4.068255000000000000e+09
4.000000000000000000e+01,6.900000000000000000e+01,4.300000000000000000e+01,1.470000000000000000e+02,6.300000000000000000e+01,8.500000000000000000e+01,3.700000000000000000e+01,3.300000000000000000e+01,6.300000000000000044e-01,4.086494100000000000e+09
4.200000000000000000e+01,6.200000000000000000e+01,4.600000000000000000e+01,1.560000000000000000e+02,7.000000000000000000e+01,1.030000000000000000e+02,4.000000000000000000e+01,3.500000000000000000e+01,6.300000000000000044e-01,4.106075200000000000e+09
4.400000000000000000e+01,5.700000000000000000e+01,4.600000000000000000e+01,1.560000000000000000e+02,7.100000000000000000e+01,1.140000000000000000e+02,4.100000000000000000e+01,3.600000000000000000e+01,6.199999999999999956e-01,4.123963200000000000e+09
4.500000000000000000e+01,5.300000000000000000e+01,4.800000000000000000e+01,1.520000000000000000e+02,7.100000000000000000e+01,1.040000000000000000e+02,3.900000000000000000e+01,3.300000000000000000e+01,6.199999999999999956e-01,4.141425600000000000e+09
4.500000000000000000e+01,5.500000000000000000e+01,4.800000000000000000e+01,1.860000000000000000e+02,6.600000000000000000e+01,1.070000000000000000e+02,3.900000000000000000e+01,3.200000000000000000e+01,6.199999999999999956e-01,4.161276300000000000e+09
4.600000000000000000e+01,5.600000000000000000e+01,4.600000000000000000e+01,1.860000000000000000e+02,6.800000000000000000e+01,1.140000000000000000e+02,4.300000000000000000e+01,3.300000000000000000e+01,6.199999999999999956e-01,4.179202100000000000e+09
4.400000000000000000e+01,5.200000000000000000e+01,4.200000000000000000e+01,1.620000000000000000e+02,5.700000000000000000e+01,1.000000000000000000e+02,3.900000000000000000e+01,2.900000000000000000e+01,6.199999999999999956e-01,4.197472600000000000e+09
4.500000000000000000e+01,5.800000000000000000e+01,4.300000000000000000e+01,1.960000000000000000e+02,5.600000000000000000e+01,8.700000000000000000e+01,3.800000000000000000e+01,2.900000000000000000e+01,6.199999999999999956e-01,4.215341000000000000e+09
5.500000000000000000e+01,7.000000000000000000e+01,4.600000000000000000e+01,2.140000000000000000e+02,5.800000000000000000e+01,1.030000000000000000e+02,4.000000000000000000e+01,3.000000000000000000e+01,6.300000000000000044e-01,4.233141600000000000e+09
5.500000000000000000e+01,7.400000000000000000e+01,4.600000000000000000e+01,1.920000000000000000e+02,5.800000000000000000e+01,1.110000000000000000e+02,3.700000000000000000e+01,3.100000000000000000e+01,6.300000000000000044e-01,4.251395100000000000e+09
5.500000000000000000e+01,7.500000000000000000e+01,4.900000000000000000e+01,1.990000000000000000e+02,5.600000000000000000e+01,1.040000000000000000e+02,3.400000000000000000e+01,3.300000000000000000e+01,6.300000000000000044e-01,4.268895100000000000e+09
5.500000000000000000e+01,7.900000000000000000e+01,5.000000000000000000e+01,2.090000000000000000e+02,5.800000000000000000e+01,1.030000000000000000e+02,3.700000000000000000e+01,3.200000000000000000e+01,6.300000000000000044e-01,4.287027400000000000e+09
5.500000000000000000e+01,7.300000000000000000e+01,4.900000000000000000e+01,1.920000000000000000e+02,6.400000000000000000e+01,1.150000000000000000e+02,3.700000000000000000e+01,3.200000000000000000e+01,6.300000000000000044e-01,4.305203200000000000e+09
4.100000000000000000e+01,6.300000000000000000e+01,4.800000000000000000e+01,1.810000000000000000e+02,6.100000000000000000e+01,1.070000000000000000e+02,3.800000000000000000e+01,3.000000000000000000e+01,6.400000000000000133e-01,4.324141200000000000e+09
4.100000000000000000e+01,6.100000000000000000e+01,4.600000000000000000e+01,1.830000000000000000e+02,6.200000000000000000e+01,9.900000000000000000e+01,4.100000000000000000e+01,3.000000000000000000e+01,6.400000000000000133e-01,4.342092600000000000e+09
4.000000000000000000e+01,5.500000000000000000e+01,4.500000000000000000e+01,1.940000000000000000e+02,6.800000000000000000e+01,9.800000000000000000e+01,4.000000000000000000e+01,2.800000000000000000e+01,6.400000000000000133e-01,4.359415800000000000e+09
3.700000000000000000e+01,5.000000000000000000e+01,4.500000000000000000e+01,1.820000000000000000e+02,6.300000000000000000e+01,1.000000000000000000e+02,3.800000000000000000e+01,2.900000000000000000e+01,6.400000000000000133e-01,4.376904100000000000e+09
3.700000000000000000e+01,5.300000000000000000e+01,4.400000000000000000e+01,1.720000000000000000e+02,6.500000000000000000e+01,9.700000000000000000e+01,3.700000000000000000e+01,2.800000000000000000e+01,6.400000000000000133e-01,4.394780100000000000e+09
3.800000000000000000e+01,5.300000000000000000e+01,3.800000000000000000e+01,1.680000000000000000e+02,6.900000000000000000e+01,9.500000000000000000e+01,3.600000000000000000e+01,2.800000000000000000e+01,6.400000000000000133e-01,4.414540400000000000e+09
4.200000000000000000e+01,4.900000000000000000e+01,3.900000000000000000e+01,1.680000000000000000e+02,7.100000000000000000e+01,9.900000000000000000e+01,3.500000000000000000e+01,2.600000000000000000e+01,6.400000000000000133e-01,4.432745800000000000e+09
4.200000000000000000e+01,5.600000000000000000e+01,4.000000000000000000e+01,1.510000000000000000e+02,6.500000000000000000e+01,9.600000000000000000e+01,3.600000000000000000e+01,2.700000000000000000e+01,6.400000000000000133e-01,4.450605300000000000e+09
4.200000000000000000e+01,5.800000000000000000e+01,4.000000000000000000e+01,1.740000000000000000e+02,7.100000000000000000e+01,9.500000000000000000e+01,3.600000000000000000e+01,2.900000000000000000e+01,6.400000000000000133e-01,4.468343000000000000e+09
4.400000000000000000e+01,5.600000000000000000e+01,4.000000000000000000e+01,1.700000000000000000e+02,6.800000000000000000e+01,8.800000000000000000e+01,3.500000000000000000e+01,2.900000000000000000e+01,6.300000000000000044e-01,4.487451900000000000e+09
4.500000000000000000e+01,5.400000000000000000e+01,4.000000000000000000e+01,1.690000000000000000e+02,6.800000000000000000e+01,8.600000000000000000e+01,3.500000000000000000e+01,3.100000000000000000e+01,6.300000000000000044e-01,4.505176600000000000e+09
4.300000000000000000e+01,5.100000000000000000e+01,4.000000000000000000e+01,1.500000000000000000e+02,6.400000000000000000e+01,9.300000000000000000e+01,3.400000000000000000e+01,3.000000000000000000e+01,6.300000000000000044e-01,4.525214300000000000e+09
4.100000000000000000e+01,4.500000000000000000e+01,4.400000000000000000e+01,1.390000000000000000e+02,6.600000000000000000e+01,1.000000000000000000e+02,3.600000000000000000e+01,3.000000000000000000e+01,6.300000000000000044e-01,4.546155900000000000e+09
4.200000000000000000e+01,4.300000000000000000e+01,4.100000000000000000e+01,1.070000000000000000e+02,6.200000000000000000e+01,1.130000000000000000e+02,3.500000000000000000e+01,2.800000000000000000e+01,6.199999999999999956e-01,4.568331700000000000e+09
3.800000000000000000e+01,4.700000000000000000e+01,4.800000000000000000e+01,1.110000000000000000e+02,6.100000000000000000e+01,1.190000000000000000e+02,3.600000000000000000e+01,2.900000000000000000e+01,6.199999999999999956e-01,4.586997500000000000e+09
3.800000000000000000e+01,4.500000000000000000e+01,5.100000000000000000e+01,1.120000000000000000e+02,5.800000000000000000e+01,1.200000000000000000e+02,3.300000000000000000e+01,2.600000000000000000e+01,6.199999999999999956e-01,4.606371300000000000e+09
3.700000000000000000e+01,4.900000000000000000e+01,5.500000000000000000e+01,1.460000000000000000e+02,6.200000000000000000e+01,1.110000000000000000e+02,3.700000000000000000e+01,3.000000000000000000e+01,6.199999999999999956e-01,4.624454700000000000e+09
3.800000000000000000e+01,4.800000000000000000e+01,5.000000000000000000e+01,1.590000000000000000e+02,6.000000000000000000e+01,1.090000000000000000e+02,3.400000000000000000e+01,2.800000000000000000e+01,6.199999999999999956e-01,4.642299000000000000e+09
3.800000000000000000e+01,5.300000000000000000e+01,5.000000000000000000e+01,1.750000000000000000e+02,6.000000000000000000e+01,9.700000000000000000e+01,3.500000000000000000e+01,3.000000000000000000e+01,6.199999999999999956e-01,4.659819100000000000e+09
3.900000000000000000e+01,5.400000000000000000e+01,4.500000000000000000e+01,1.790000000000000000e+02,6.100000000000000000e+01,9.000000000000000000e+01,3.600000000000000000e+01,3.200000000000000000e+01,6.199999999999999956e-01,4.677978200000000000e+09
3.700000000000000000e+01,5.400000000000000000e+01,4.300000000000000000e+01,1.800000000000000000e+02,5.900000000000000000e+01,8.500000000000000000e+01,3.700000000000000000e+01,3.200000000000000000e+01,6.199999999999999956e-01,4.696314800000000000e+09
3.600000000000000000e+01,5.400000000000000000e+01,4.600000000000000000e+01,1.600000000000000000e+02,5.300000000000000000e+01,9.800000000000000000e+01,3.100000000000000000e+01,2.900000000000000000e+01,6.199999999999999956e-01,4.714591600000000000e+09
3.700000000000000000e+01,5.500000000000000000e+01,5.000000000000000000e+01,1.540000000000000000e+02,5.100000000000000000e+01,9.700000000000000000e+01,3.100000000000000000e+01,3.000000000000000000e+01,6.199999999999999956e-01,4.734997600000000000e+09
3.700000000000000000e+01,5.100000000000000000e+01,5.100000000000000000e+01,1.270000000000000000e+02,4.900000000000000000e+01,1.040000000000000000e+02,3.200000000000000000e+01,2.900000000000000000e+01,6.199999999999999956e-01,4.753374900000000000e+09
3.700000000000000000e+01,5.300000000000000000e+01,5.500000000000000000e+01,1.260000000000000000e+02,5.700000000000000000e+01,1.180000000000000000e+02,3.600000000000000000e+01,2.800000000000000000e+01,6.199999999999999956e-01,4.773548100000000000e+09
4.000000000000000000e+01,5.600000000000000000e+01,5.500000000000000000e+01,1.190000000000000000e+02,5.700000000000000000e+01,1.240000000000000000e+02,4.100000000000000000e+01,2.800000000000000000e+01,6.199999999999999956e-01,4.791871300000000000e+09
4.000000000000000000e+01,5.300000000000000000e+01,4.800000000000000000e+01,1.240000000000000000e+02,5.800000000000000000e+01,1.160000000000000000e+02,4.300000000000000000e+01,2.900000000000000000e+01,6.199999999999999956e-01,4.812724600000000000e+09
3.800000000000000000e+01,5.200000000000000000e+01,4.900000000000000000e+01,1.270000000000000000e+02,6.800000000000000000e+01,1.240000000000000000e+02,4.500000000000000000e+01,2.900000000000000000e+01,6.199999999999999956e-01,4.834910200000000000e+09
3.800000000000000000e+01,5.200000000000000000e+01,4.700000000000000000e+01,1.320000000000000000e+02,7.500000000000000000e+01,1.290000000000000000e+02,4.600000000000000000e+01,2.800000000000000000e+01,6.199999999999999956e-01,4.857083700000000000e+09
3.900000000000000000e+01,5.000000000000000000e+01,4.400000000000000000e+01,1.240000000000000000e+02,6.500000000000000000e+01,1.120000000000000000e+02,4.300000000000000000e+01,3.300000000000000000e+01,6.199999999999999956e-01,4.876157900000000000e+09
4.100000000000000000e+01,4.800000000000000000e+01,5.300000000000000000e+01,1.410000000000000000e+02,6.300000000000000000e+01,1.100000000000000000e+02,3.800000000000000000e+01,3.200000000000000000e+01,6.199999999999999956e-01,4.896579400000000000e+09
4.200000000000000000e+01,4.800000000000000000e+01,5.400000000000000000e+01,1.400000000000000000e+02,6.600000000000000000e+01,1.090000000000000000e+02,3.800000000000000000e+01,3.200000000000000000e+01,6.099999999999999867e-01,4.915240500000000000e+09
4.100000000000000000e+01,4.700000000000000000e+01,5.600000000000000000e+01,1.330000000000000000e+02,5.500000000000000000e+01,9.600000000000000000e+01,3.700000000000000000e+01,3.400000000000000000e+01,6.099999999999999867e-01,4.934797200000000000e+09
4.000000000000000000e+01,4.700000000000000000e+01,5.900000000000000000e+01,1.350000000000000000e+02,5.100000000000000000e+01,8.000000000000000000e+01,3.500000000000000000e+01,3.300000000000000000e+01,6.099999999999999867e-01,4.957001800000000000e+09
3.900000000000000000e+01,4.300000000000000000e+01,5.700000000000000000e+01,1.300000000000000000e+02,5.100000000000000000e+01,8.600000000000000000e+01,3.200000000000000000e+01,2.700000000000000000e+01,6.099999999999999867e-01,4.974812400000000000e+09
3.300000000000000000e+01,4.300000000000000000e+01,5.100000000000000000e+01,1.670000000000000000e+02,5.700000000000000000e+01,8.800000000000000000e+01,3.200000000000000000e+01,2.600000000000000000e+01,6.099999999999999867e-01,4.992998300000000000e+09
3.100000000000000000e+01,5.200000000000000000e+01,5.200000000000000000e+01,1.860000000000000000e+02,6.200000000000000000e+01,8.900000000000000000e+01,3.300000000000000000e+01,3.000000000000000000e+01,6.099999999999999867e-01,5.012736200000000000e+09
3.500000000000000000e+01,5.500000000000000000e+01,4.800000000000000000e+01,1.980000000000000000e+02,6.300000000000000000e+01,9.100000000000000000e+01,3.200000000000000000e+01,2.900000000000000000e+01,6.099999999999999867e-01,5.034855800000000000e+09
3.500000000000000000e+01,5.600000000000000000e+01,4.600000000000000000e+01,1.980000000000000000e+02,5.700000000000000000e+01,9.200000000000000000e+01,3.300000000000000000e+01,2.800000000000000000e+01,6.199999999999999956e-01,5.056985300000000000e+09
3.200000000000000000e+01,5.600000000000000000e+01,4.300000000000000000e+01,2.100000000000000000e+02,6.100000000000000000e+01,8.900000000000000000e+01,3.600000000000000000e+01,2.800000000000000000e+01,6.199999999999999956e-01,5.077455200000000000e+09
3.300000000000000000e+01,6.400000000000000000e+01,4.800000000000000000e+01,1.700000000000000000e+02,6.100000000000000000e+01,1.070000000000000000e+02,4.200000000000000000e+01,3.300000000000000000e+01,6.199999999999999956e-01,5.097160700000000000e+09
3.300000000000000000e+01,5.600000000000000000e+01,4.800000000000000000e+01,1.410000000000000000e+02,5.400000000000000000e+01,1.020000000000000000e+02,4.100000000000000000e+01,3.000000000000000000e+01,6.199999999999999956e-01,5.116822800000000000e+09
3.500000000000000000e+01,5.700000000000000000e+01,4.900000000000000000e+01,1.360000000000000000e+02,5.700000000000000000e+01,1.010000000000000000e+02,4.100000000000000000e+01,2.800000000000000000e+01,6.199999999999999956e-01,5.134742400000000000e+09
3.400000000000000000e+01,5.600000000000000000e+01,5.300000000000000000e+01,1.680000000000000000e+02,6.500000000000000000e+01,1.230000000000000000e+02,4.500000000000000000e+01,3.200000000000000000e+01,6.300000000000000044e-01,5.154219400000000000e+09
3.900000000000000000e+01,5.700000000000000000e+01,5.500000000000000000e+01,1.640000000000000000e+02,6.700000000000000000e+01,1.280000000000000000e+02,4.700000000000000000e+01,3.400000000000000000e+01,6.300000000000000044e-01,5.173126800000000000e+09
4.000000000000000000e+01,4.800000000000000000e+01,4.800000000000000000e+01,1.620000000000000000e+02,6.100000000000000000e+01,1.100000000000000000e+02,4.100000000000000000e+01,3.200000000000000000e+01,6.300000000000000044e-01,5.192270200000000000e+09
4.300000000000000000e+01,4.800000000000000000e+01,4.600000000000000000e+01,1.640000000000000000e+02,6.400000000000000000e+01,1.170000000000000000e+02,4.600000000000000000e+01,3.400000000000000000e+01,6.300000000000000044e-01,5.213955000000000000e+09
4.000000000000000000e+01,4.700000000000000000e+01,4.400000000000000000e+01,1.650000000000000000e+02,7.100000000000000000e+01,1.190000000000000000e+02,4.300000000000000000e+01,3.400000000000000000e+01,6.300000000000000044e-01,5.235212200000000000e+09
4.300000000000000000e+01,5.300000000000000000e+01,4.400000000000000000e+01,1.260000000000000000e+02,6.700000000000000000e+01,9.500000000000000000e+01,4.200000000000000000e+01,3.400000000000000000e+01,6.300000000000000044e-01,5.254034800000000000e+09
4.300000000000000000e+01,4.900000000000000000e+01,4.200000000000000000e+01,1.470000000000000000e+02,6.300000000000000000e+01,9.100000000000000000e+01,3.700000000000000000e+01,3.200000000000000000e+01,6.300000000000000044e-01,5.277300400000000000e+09
4.200000000000000000e+01,4.700000000000000000e+01,4.000000000000000000e+01,1.470000000000000000e+02,6.300000000000000000e+01,9.100000000000000000e+01,3.900000000000000000e+01,3.100000000000000000e+01,6.199999999999999956e-01,5.295623200000000000e+09
3.900000000000000000e+01,4.900000000000000000e+01,4.300000000000000000e+01,1.440000000000000000e+02,6.100000000000000000e+01,9.100000000000000000e+01,3.500000000000000000e+01,2.900000000000000000e+01,6.199999999999999956e-01,5.314254700000000000e+09
3.700000000000000000e+01,4.700000000000000000e+01,4.500000000000000000e+01,1.500000000000000000e+02,5.400000000000000000e+01,9.400000000000000000e+01,3.700000000000000000e+01,3.100000000000000000e+01,6.199999999999999956e-01,5.335091400000000000e+09
3.600000000000000000e+01,3.800000000000000000e+01,4.100000000000000000e+01,1.500000000000000000e+02,5.100000000000000000e+01,9.200000000000000000e+01,3.600000000000000000e+01,2.900000000000000000e+01,6.199999999999999956e-01,5.353306000000000000e+09
3.500000000000000000e+01,4.000000000000000000e+01,4.300000000000000000e+01,1.380000000000000000e+02,5.500000000000000000e+01,8.900000000000000000e+01,3.700000000000000000e+01,2.800000000000000000e+01,6.199999999999999956e-01,5.373418800000000000e+09
3.300000000000000000e+01,3.900000000000000000e+01,5.100000000000000000e+01,1.550000000000000000e+02,6.100000000000000000e+01,9.300000000000000000e+01,3.700000000000000000e+01,2.900000000000000000e+01,6.199999999999999956e-01,5.391998400000000000e+09
3.200000000000000000e+01,4.200000000000000000e+01,5.000000000000000000e+01,1.560000000000000000e+02,6.900000000000000000e+01,1.040000000000000000e+02,4.500000000000000000e+01,3.100000000000000000e+01,6.199999999999999956e-01,5.412920700000000000e+09
3.600000000000000000e+01,4.200000000000000000e+01,4.600000000000000000e+01,1.440000000000000000e+02,6.600000000000000000e+01,9.700000000000000000e+01,4.400000000000000000e+01,3.100000000000000000e+01,6.199999999999999956e-01,5.435116900000000000e+09
3.500000000000000000e+01,4.400000000000000000e+01,4.800000000000000000e+01,1.600000000000000000e+02,6.800000000000000000e+01,1.000000000000000000e+02,4.600000000000000000e+01,3.000000000000000000e+01,6.199999999999999956e-01,5.453670000000000000e+09
3.200000000000000000e+01,4.000000000000000000e+01,4.700000000000000000e+01,1.840000000000000000e+02,6.400000000000000000e+01,9.600000000000000000e+01,4.500000000000000000e+01,3.000000000000000000e+01,6.199999999999999956e-01,5.472347700000000000e+09
3.600000000000000000e+01,4.400000000000000000e+01,4.000000000000000000e+01,1.680000000000000000e+02,5.900000000000000000e+01,9.200000000000000000e+01,4.300000000000000000e+01,3.300000000000000000e+01,6.199999999999999956e-01,5.491244300000000000e+09
3.600000000000000000e+01,4.000000000000000000e+01,4.700000000000000000e+01,1.820000000000000000e+02,4.500000000000000000e+01,6.800000000000000000e+01,3.300000000000000000e+01,3.100000000000000000e+01,6.199999999999999956e-01,5.513468000000000000e+09
3.200000000000000000e+01,4.100000000000000000e+01,5.000000000000000000e+01,1.820000000000000000e+02,4.600000000000000000e+01,7.000000000000000000e+01,3.500000000000000000e+01,2.900000000000000000e+01,6.199999999999999956e-01,5.535765000000000000e+09
3.600000000000000000e+01,4.500000000000000000e+01,4.700000000000000000e+01,1.740000000000000000e+02,4.800000000000000000e+01,7.800000000000000000e+01,3.400000000000000000e+01,3.000000000000000000e+01,6.199999999999999956e-01,5.554090700000000000e+09
3.600000000000000000e+01,4.600000000000000000e+01,4.800000000000000000e+01,1.390000000000000000e+02,5.000000000000000000e+01,8.800000000000000000e+01,3.500000000000000000e+01,3.100000000000000000e+01,6.199999999999999956e-01,5.572400200000000000e+09
3.300000000000000000e+01,4.800000000000000000e+01,4.700000000000000000e+01,1.480000000000000000e+02,5.300000000000000000e+01,8.200000000000000000e+01,3.600000000000000000e+01,2.800000000000000000e+01,6.199999999999999956e-01,5.591202300000000000e+09
3.600000000000000000e+01,4.800000000000000000e+01,4.000000000000000000e+01,1.330000000000000000e+02,5.900000000000000000e+01,8.200000000000000000e+01,3.600000000000000000e+01,2.700000000000000000e+01,6.199999999999999956e-01,5.613382600000000000e+09
3.800000000000000000e+01,5.000000000000000000e+01,4.100000000000000000e+01,1.460000000000000000e+02,6.000000000000000000e+01,9.500000000000000000e+01,3.700000000000000000e+01,2.700000000000000000e+01,6.199999999999999956e-01,5.635706900000000000e+09
3.700000000000000000e+01,4.800000000000000000e+01,4.300000000000000000e+01,1.510000000000000000e+02,5.700000000000000000e+01,8.400000000000000000e+01,3.400000000000000000e+01,2.700000000000000000e+01,6.199999999999999956e-01,5.653921500000000000e+09
3.900000000000000000e+01,4.500000000000000000e+01,4.100000000000000000e+01,1.430000000000000000e+02,5.400000000000000000e+01,7.500000000000000000e+01,3.500000000000000000e+01,2.800000000000000000e+01,6.199999999999999956e-01,5.673572100000000000e+09
3.900000000000000000e+01,4.100000000000000000e+01,4.300000000000000000e+01,1.340000000000000000e+02,5.200000000000000000e+01,7.700000000000000000e+01,3.400000000000000000e+01,2.900000000000000000e+01,6.199999999999999956e-01,5.692275000000000000e+09
4.100000000000000000e+01,4.200000000000000000e+01,4.700000000000000000e+01,1.460000000000000000e+02,4.700000000000000000e+01,8.200000000000000000e+01,3.400000000000000000e+01,2.900000000000000000e+01,6.199999999999999956e-01,5.714895300000000000e+09
4.300000000000000000e+01,3.900000000000000000e+01,4.600000000000000000e+01,1.350000000000000000e+02,4.800000000000000000e+01,8.400000000000000000e+01,4.000000000000000000e+01,3.000000000000000000e+01,6.199999999999999956e-01,5.733325600000000000e+09
4.100000000000000000e+01,3.700000000000000000e+01,4.500000000000000000e+01,1.370000000000000000e+02,5.000000000000000000e+01,8.700000000000000000e+01,4.300000000000000000e+01,2.900000000000000000e+01,6.199999999999999956e-01,5.751438200000000000e+09
4.000000000000000000e+01,4.100000000000000000e+01,4.500000000000000000e+01,1.540000000000000000e+02,5.000000000000000000e+01,9.200000000000000000e+01,4.100000000000000000e+01,2.900000000000000000e+01,6.199999999999999956e-01,5.772212900000000000e+09
4.200000000000000000e+01,3.900000000000000000e+01,5.100000000000000000e+01,1.550000000000000000e+02,5.500000000000000000e+01,9.400000000000000000e+01,3.900000000000000000e+01,3.200000000000000000e+01,6.199999999999999956e-01,5.793568800000000000e+09
3.600000000000000000e+01,3.600000000000000000e+01,4.800000000000000000e+01,1.410000000000000000e+02,5.500000000000000000e+01,8.900000000000000000e+01,4.000000000000000000e+01,3.300000000000000000e+01,6.199999999999999956e-01,5.815762400000000000e+09
3.200000000000000000e+01,3.800000000000000000e+01,4.600000000000000000e+01,1.420000000000000000e+02,6.000000000000000000e+01,9.800000000000000000e+01,3.700000000000000000e+01,3.300000000000000000e+01,6.199999999999999956e-01,5.833837800000000000e+09
3.600000000000000000e+01,3.900000000000000000e+01,4.800000000000000000e+01,1.520000000000000000e+02,6.000000000000000000e+01,1.070000000000000000e+02,3.700000000000000000e+01,3.300000000000000000e+01,6.199999999999999956e-01,5.851950200000000000e+09
3.700000000000000000e+01,4.200000000000000000e+01,4.900000000000000000e+01,1.400000000000000000e+02,6.300000000000000000e+01,1.050000000000000000e+02,3.900000000000000000e+01,3.500000000000000000e+01,6.199999999999999956e-01,5.871300300000000000e+09
3.500000000000000000e+01,4.700000000000000000e+01,4.400000000000000000e+01,1.850000000000000000e+02,6.200000000000000000e+01,1.060000000000000000e+02,4.200000000000000000e+01,3.100000000000000000e+01,6.199999999999999956e-01,5.893357400000000000e+09
3.900000000000000000e+01,5.100000000000000000e+01,4.900000000000000000e+01,2.000000000000000000e+02,6.500000000000000000e+01,1.130000000000000000e+02,4.400000000000000000e+01,3.300000000000000000e+01,6.199999999999999956e-01,5.915770800000000000e+09
4.200000000000000000e+01,5.400000000000000000e+01,5.300000000000000000e+01,2.020000000000000000e+02,6.600000000000000000e+01,9.400000000000000000e+01,4.400000000000000000e+01,3.300000000000000000e+01,6.199999999999999956e-01,5.934376500000000000e+09
4.000000000000000000e+01,5.900000000000000000e+01,5.100000000000000000e+01,1.930000000000000000e+02,6.800000000000000000e+01,8.400000000000000000e+01,4.400000000000000000e+01,3.400000000000000000e+01,6.199999999999999956e-01,5.953844000000000000e+09
4.300000000000000000e+01,6.000000000000000000e+01,5.700000000000000000e+01,2.090000000000000000e+02,7.200000000000000000e+01,8.500000000000000000e+01,4.400000000000000000e+01,3.200000000000000000e+01,6.199999999999999956e-01,5.972600200000000000e+09
4.200000000000000000e+01,5.700000000000000000e+01,5.600000000000000000e+01,1.770000000000000000e+02,7.800000000000000000e+01,9.100000000000000000e+01,4.400000000000000000e+01,3.400000000000000000e+01,6.199999999999999956e-01,5.992349100000000000e+09
3.900000000000000000e+01,5.400000000000000000e+01,4.900000000000000000e+01,1.600000000000000000e+02,7.800000000000000000e+01,9.000000000000000000e+01,4.200000000000000000e+01,3.700000000000000000e+01,6.199999999999999956e-01,6.014438800000000000e+09
3.900000000000000000e+01,5.500000000000000000e+01,5.300000000000000000e+01,1.610000000000000000e+02,7.200000000000000000e+01,8.900000000000000000e+01,3.800000000000000000e+01,3.500000000000000000e+01,6.199999999999999956e-01,6.036770400000000000e+09
4.200000000000000000e+01,4.900000000000000000e+01,5.800000000000000000e+01,1.520000000000000000e+02,7.100000000000000000e+01,9.200000000000000000e+01,3.900000000000000000e+01,3.700000000000000000e+01,6.199999999999999956e-01,6.054786900000000000e+09
3.900000000000000000e+01,4.700000000000000000e+01,5.200000000000000000e+01,1.460000000000000000e+02,7.700000000000000000e+01,1.050000000000000000e+02,4.100000000000000000e+01,3.600000000000000000e+01,6.199999999999999956e-01,6.074441600000000000e+09
3.900000000000000000e+01,5.000000000000000000e+01,5.200000000000000000e+01,1.370000000000000000e+02,6.900000000000000000e+01,1.080000000000000000e+02,4.000000000000000000e+01,3.700000000000000000e+01,6.199999999999999956e-01,6.093255000000000000e+09
4.200000000000000000e+01,5.100000000000000000e+01,5.200000000000000000e+01,1.340000000000000000e+02,8.000000000000000000e+01,1.270000000000000000e+02,4.800000000000000000e+01,3.300000000000000000e+01,6.099999999999999867e-01,6.114476800000000000e+09
4.200000000000000000e+01,4.400000000000000000e+01,4.800000000000000000e+01,1.250000000000000000e+02,8.400000000000000000e+01,1.320000000000000000e+02,4.600000000000000000e+01,3.300000000000000000e+01,6.099999999999999867e-01,6.136901300000000000e+09
4.200000000000000000e+01,4.900000000000000000e+01,4.800000000000000000e+01,1.370000000000000000e+02,8.400000000000000000e+01,1.280000000000000000e+02,4.400000000000000000e+01,3.200000000000000000e+01,6.099999999999999867e-01,6.155242400000000000e+09
4.300000000000000000e+01,4.800000000000000000e+01,5.600000000000000000e+01,1.210000000000000000e+02,7.900000000000000000e+01,1.220000000000000000e+02,4.300000000000000000e+01,3.400000000000000000e+01,5.999999999999999778e-01,6.175375400000000000e+09
4.400000000000000000e+01,4.700000000000000000e+01,5.900000000000000000e+01,1.360000000000000000e+02,8.700000000000000000e+01,1.210000000000000000e+02,4.800000000000000000e+01,3.600000000000000000e+01,5.999999999999999778e-01,6.195427900000000000e+09
4.400000000000000000e+01,5.000000000000000000e+01,6.000000000000000000e+01,1.420000000000000000e+02,8.100000000000000000e+01,1.120000000000000000e+02,4.500000000000000000e+01,3.600000000000000000e+01,5.999999999999999778e-01,6.214348900000000000e+09
4.400000000000000000e+01,5.200000000000000000e+01,6.100000000000000000e+01,1.430000000000000000e+02,9.700000000000000000e+01,1.330000000000000000e+02,4.900000000000000000e+01,3.800000000000000000e+01,5.899999999999999689e-01,6.236779300000000000e+09
4.100000000000000000e+01,4.700000000000000000e+01,5.500000000000000000e+01,1.330000000000000000e+02,9.800000000000000000e+01,1.400000000000000000e+02,5.100000000000000000e+01,3.700000000000000000e+01,5.899999999999999689e-01,6.255412500000000000e+09
3.900000000000000000e+01,5.200000000000000000e+01,5.000000000000000000e+01,1.320000000000000000e+02,1.000000000000000000e+02,1.390000000000000000e+02,5.500000000000000000e+01,3.600000000000000000e+01,5.899999999999999689e-01,6.273916000000000000e+09
4.000000000000000000e+01,5.200000000000000000e+01,4.700000000000000000e+01,1.210000000000000000e+02,1.030000000000000000e+02,1.440000000000000000e+02,5.900000000000000000e+01,3.300000000000000000e+01,5.799999999999999600e-01,6.293251600000000000e+09
4.300000000000000000e+01,5.200000000000000000e+01,5.200000000000000000e+01,1.640000000000000000e+02,1.050000000000000000e+02,1.390000000000000000e+02,5.900000000000000000e+01,3.400000000000000000e+01,5.799999999999999600e-01,6.315013200000000000e+09
4.700000000000000000e+01,5.200000000000000000e+01,4.900000000000000000e+01,1.650000000000000000e+02,9.600000000000000000e+01,1.340000000000000000e+02,5.900000000000000000e+01,3.600000000000000000e+01,5.799999999999999600e-01,6.339935700000000000e+09
4.900000000000000000e+01,5.600000000000000000e+01,4.800000000000000000e+01,1.620000000000000000e+02,1.000000000000000000e+02,1.430000000000000000e+02,6.200000000000000000e+01,3.700000000000000000e+01,5.799999999999999600e-01,6.357878000000000000e+09
5.000000000000000000e+01,5.600000000000000000e+01,4.800000000000000000e+01,1.740000000000000000e+02,9.600000000000000000e+01,1.550000000000000000e+02,6.300000000000000000e+01,3.800000000000000000e+01,5.799999999999999600e-01,6.378296900000000000e+09
4.800000000000000000e+01,5.400000000000000000e+01,4.600000000000000000e+01,1.800000000000000000e+02,9.400000000000000000e+01,1.510000000000000000e+02,6.000000000000000000e+01,3.800000000000000000e+01,5.799999999999999600e-01,6.397182100000000000e+09
4.500000000000000000e+01,5.100000000000000000e+01,3.500000000000000000e+01,1.430000000000000000e+02,9.500000000000000000e+01,1.470000000000000000e+02,5.800000000000000000e+01,3.800000000000000000e+01,5.799999999999999600e-01,6.415696700000000000e+09
4.400000000000000000e+01,5.300000000000000000e+01,4.200000000000000000e+01,1.390000000000000000e+02,8.700000000000000000e+01,1.310000000000000000e+02,5.500000000000000000e+01,3.900000000000000000e+01,5.799999999999999600e-01,6.434621200000000000e+09
4.300000000000000000e+01,5.000000000000000000e+01,4.600000000000000000e+01,1.390000000000000000e+02,8.700000000000000000e+01,1.150000000000000000e+02,5.600000000000000000e+01,4.000000000000000000e+01,5.799999999999999600e-01,6.456358900000000000e+09
4.400000000000000000e+01,4.600000000000000000e+01,5.000000000000000000e+01,1.190000000000000000e+02,9.500000000000000000e+01,1.210000000000000000e+02,5.700000000000000000e+01,3.900000000000000000e+01,5.799999999999999600e-01,6.474988100000000000e+09
4.400000000000000000e+01,4.900000000000000000e+01,5.000000000000000000e+01,1.130000000000000000e+02,9.300000000000000000e+01,1.220000000000000000e+02,5.200000000000000000e+01,3.700000000000000000e+01,5.699999999999999512e-01,6.494739600000000000e+09
4.500000000000000000e+01,5.600000000000000000e+01,5.500000000000000000e+01,1.150000000000000000e+02,1.120000000000000000e+02,1.460000000000000000e+02,5.500000000000000000e+01,3.700000000000000000e+01,5.699999999999999512e-01,6.513175000000000000e+09
4.200000000000000000e+01,5.500000000000000000e+01,5.700000000000000000e+01,1.280000000000000000e+02,1.130000000000000000e+02,1.460000000000000000e+02,5.500000000000000000e+01,3.400000000000000000e+01,5.699999999999999512e-01,6.534059600000000000e+09
4.300000000000000000e+01,5.800000000000000000e+01,5.700000000000000000e+01,1.340000000000000000e+02,1.170000000000000000e+02,1.540000000000000000e+02,5.000000000000000000e+01,3.300000000000000000e+01,5.699999999999999512e-01,6.556572400000000000e+09
4.100000000000000000e+01,5.700000000000000000e+01,5.600000000000000000e+01,1.370000000000000000e+02,1.130000000000000000e+02,1.450000000000000000e+02,4.300000000000000000e+01,3.400000000000000000e+01,5.699999999999999512e-01,6.574857600000000000e+09
3.900000000000000000e+01,6.100000000000000000e+01,7.300000000000000000e+01,1.290000000000000000e+02,1.210000000000000000e+02,1.580000000000000000e+02,4.500000000000000000e+01,3.600000000000000000e+01,5.699999999999999512e-01,6.594196500000000000e+09
3.700000000000000000e+01,5.200000000000000000e+01,7.100000000000000000e+01,1.160000000000000000e+02,1.010000000000000000e+02,1.420000000000000000e+02,4.300000000000000000e+01,3.400000000000000000e+01,5.600000000000000533e-01,6.615308000000000000e+09
3.800000000000000000e+01,5.300000000000000000e+01,6.500000000000000000e+01,1.430000000000000000e+02,1.080000000000000000e+02,1.610000000000000000e+02,4.800000000000000000e+01,3.500000000000000000e+01,5.600000000000000533e-01,6.634665800000000000e+09
3.800000000000000000e+01,5.200000000000000000e+01,6.700000000000000000e+01,1.610000000000000000e+02,1.020000000000000000e+02,1.640000000000000000e+02,5.100000000000000000e+01,3.900000000000000000e+01,5.600000000000000533e-01,6.656224500000000000e+09
3.600000000000000000e+01,5.100000000000000000e+01,6.900000000000000000e+01,1.600000000000000000e+02,1.010000000000000000e+02,1.550000000000000000e+02,5.000000000000000000e+01,3.800000000000000000e+01,5.600000000000000533e-01,6.674931000000000000e+09
4.200000000000000000e+01,4.700000000000000000e+01,5.000000000000000000e+01,1.760000000000000000e+02,9.300000000000000000e+01,1.400000000000000000e+02,4.900000000000000000e+01,3.600000000000000000e+01,5.600000000000000533e-01,6.693735600000000000e+09
4.400000000000000000e+01,4.900000000000000000e+01,5.000000000000000000e+01,1.950000000000000000e+02,9.900000000000000000e+01,1.520000000000000000e+02,5.000000000000000000e+01,3.800000000000000000e+01,5.600000000000000533e-01,6.712638900000000000e+09
4.000000000000000000e+01,4.700000000000000000e+01,6.000000000000000000e+01,1.700000000000000000e+02,9.300000000000000000e+01,1.380000000000000000e+02,5.100000000000000000e+01,4.100000000000000000e+01,5.600000000000000533e-01,6.734065100000000000e+09
3.800000000000000000e+01,4.700000000000000000e+01,5.800000000000000000e+01,1.540000000000000000e+02,9.900000000000000000e+01,1.270000000000000000e+02,5.200000000000000000e+01,3.800000000000000000e+01,5.699999999999999512e-01,6.756555100000000000e+09
4.300000000000000000e+01,4.600000000000000000e+01,5.400000000000000000e+01,1.530000000000000000e+02,1.050000000000000000e+02,1.370000000000000000e+02,6.200000000000000000e+01,4.200000000000000000e+01,5.699999999999999512e-01,6.774777200000000000e+09
4.000000000000000000e+01,4.400000000000000000e+01,5.300000000000000000e+01,1.370000000000000000e+02,1.050000000000000000e+02,1.340000000000000000e+02,6.100000000000000000e+01,4.100000000000000000e+01,5.699999999999999512e-01,6.793916300000000000e+09
4.000000000000000000e+01,4.500000000000000000e+01,5.600000000000000000e+01,1.170000000000000000e+02,9.800000000000000000e+01,1.160000000000000000e+02,5.900000000000000000e+01,4.300000000000000000e+01,5.600000000000000533e-01,6.813560100000000000e+09
4.100000000000000000e+01,5.000000000000000000e+01,5.800000000000000000e+01,1.450000000000000000e+02,1.280000000000000000e+02,1.280000000000000000e+02,5.500000000000000000e+01,4.200000000000000000e+01,5.600000000000000533e-01,6.834742100000000000e+09
4.300000000000000000e+01,5.000000000000000000e+01,6.100000000000000000e+01,1.510000000000000000e+02,1.310000000000000000e+02,1.400000000000000000e+02,5.500000000000000000e+01,4.200000000000000000e+01,5.600000000000000533e-01,6.857364000000000000e+09
4.000000000000000000e+01,5.000000000000000000e+01,5.900000000000000000e+01,1.550000000000000000e+02,1.260000000000000000e+02,1.330000000000000000e+02,4.200000000000000000e+01,4.000000000000000000e+01,5.600000000000000533e-01,6.875991800000000000e+09
4.100000000000000000e+01,5.200000000000000000e+01,6.700000000000000000e+01,1.620000000000000000e+02,1.300000000000000000e+02,1.510000000000000000e+02,4.800000000000000000e+01,4.300000000000000000e+01,5.600000000000000533e-01,6.895683400000000000e+09
3.900000000000000000e+01,5.400000000000000000e+01,7.600000000000000000e+01,1.740000000000000000e+02,1.300000000000000000e+02,1.470000000000000000e+02,4.700000000000000000e+01,4.400000000000000000e+01,5.600000000000000533e-01,6.914210200000000000e+09
3.900000000000000000e+01,4.800000000000000000e+01,7.200000000000000000e+01,1.780000000000000000e+02,9.900000000000000000e+01,1.340000000000000000e+02,4.900000000000000000e+01,4.200000000000000000e+01,5.600000000000000533e-01,6.936227200000000000e+09
3.800000000000000000e+01,5.300000000000000000e+01,7.300000000000000000e+01,1.710000000000000000e+02,1.080000000000000000e+02,1.380000000000000000e+02,4.700000000000000000e+01,4.300000000000000000e+01,5.600000000000000533e-01,6.954128900000000000e+09
3.600000000000000000e+01,5.300000000000000000e+01,7.600000000000000000e+01,1.900000000000000000e+02,1.090000000000000000e+02,1.440000000000000000e+02,5.100000000000000000e+01,4.300000000000000000e+01,5.600000000000000533e-01,6.972221200000000000e+09
3.600000000000000000e+01,5.200000000000000000e+01,7.500000000000000000e+01,1.890000000000000000e+02,1.010000000000000000e+02,1.230000000000000000e+02,4.900000000000000000e+01,4.000000000000000000e+01,5.600000000000000533e-01,6.992138400000000000e+09
4.200000000000000000e+01,5.300000000000000000e+01,7.000000000000000000e+01,1.730000000000000000e+02,1.060000000000000000e+02,1.280000000000000000e+02,5.200000000000000000e+01,3.700000000000000000e+01,5.600000000000000533e-01,7.014021800000000000e+09
4.500000000000000000e+01,6.500000000000000000e+01,7.800000000000000000e+01,1.420000000000000000e+02,1.150000000000000000e+02,1.420000000000000000e+02,5.200000000000000000e+01,4.100000000000000000e+01,5.600000000000000533e-01,7.036503600000000000e+09
4.700000000000000000e+01,6.000000000000000000e+01,8.500000000000000000e+01,1.340000000000000000e+02,9.100000000000000000e+01,1.230000000000000000e+02,5.100000000000000000e+01,4.400000000000000000e+01,5.600000000000000533e-01,7.054761700000000000e+09
5.000000000000000000e+01,7.700000000000000000e+01,9.200000000000000000e+01,9.500000000000000000e+01,8.800000000000000000e+01,1.140000000000000000e+02,5.100000000000000000e+01,4.300000000000000000e+01,5.600000000000000533e-01,7.074210100000000000e+09
5.100000000000000000e+01,9.900000000000000000e+01,1.200000000000000000e+02,9.500000000000000000e+01,8.700000000000000000e+01,1.100000000000000000e+02,4.800000000000000000e+01,4.600000000000000000e+01,5.600000000000000533e-01,7.093080900000000000e+09
4.700000000000000000e+01,1.450000000000000000e+02,1.490000000000000000e+02,9.400000000000000000e+01,8.000000000000000000e+01,1.040000000000000000e+02,4.400000000000000000e+01,4.600000000000000000e+01,5.600000000000000533e-01,7.114323200000000000e+09
7.700000000000000000e+01,2.160000000000000000e+02,2.240000000000000000e+02,1.150000000000000000e+02,6.500000000000000000e+01,8.800000000000000000e+01,4.900000000000000000e+01,7.300000000000000000e+01,5.600000000000000533e-01,7.136522100000000000e+09
8.100000000000000000e+01,2.580000000000000000e+02,2.700000000000000000e+02,1.180000000000000000e+02,6.000000000000000000e+01,9.800000000000000000e+01,5.100000000000000000e+01,8.100000000000000000e+01,5.600000000000000533e-01,7.155030100000000000e+09
8.600000000000000000e+01,2.660000000000000000e+02,3.020000000000000000e+02,1.400000000000000000e+02,5.700000000000000000e+01,1.190000000000000000e+02,5.400000000000000000e+01,8.600000000000000000e+01,5.600000000000000533e-01,7.173759400000000000e+09
1.000000000000000000e+02,2.700000000000000000e+02,3.090000000000000000e+02,1.470000000000000000e+02,5.400000000000000000e+01,1.480000000000000000e+02,5.900000000000000000e+01,9.500000000000000000e+01,5.699999999999999512e-01,7.192326000000000000e+09
1.030000000000000000e+02,2.510000000000000000e+02,3.140000000000000000e+02,1.580000000000000000e+02,4.600000000000000000e+01,1.550000000000000000e+02,5.800000000000000000e+01,9.700000000000000000e+01,5.699999999999999512e-01,7.214462000000000000e+09
8.500000000000000000e+01,2.010000000000000000e+02,2.780000000000000000e+02,1.840000000000000000e+02,5.100000000000000000e+01,1.810000000000000000e+02,5.000000000000000000e+01,7.900000000000000000e+01,5.699999999999999512e-01,7.236777000000000000e+09
8.900000000000000000e+01,1.530000000000000000e+02,2.530000000000000000e+02,2.020000000000000000e+02,5.900000000000000000e+01,2.060000000000000000e+02,5.400000000000000000e+01,9.200000000000000000e+01,5.799999999999999600e-01,7.254651900000000000e+09
8.800000000000000000e+01,1.610000000000000000e+02,2.410000000000000000e+02,1.910000000000000000e+02,5.900000000000000000e+01,2.130000000000000000e+02,5.200000000000000000e+01,1.080000000000000000e+02,5.799999999999999600e-01,7.272716000000000000e+09
7.100000000000000000e+01,1.710000000000000000e+02,2.360000000000000000e+02,1.800000000000000000e+02,5.300000000000000000e+01,2.140000000000000000e+02,4.500000000000000000e+01,1.040000000000000000e+02,5.899999999999999689e-01,7.292299100000000000e+09
6.700000000000000000e+01,1.720000000000000000e+02,2.280000000000000000e+02,2.430000000000000000e+02,6.200000000000000000e+01,2.210000000000000000e+02,4.800000000000000000e+01,1.030000000000000000e+02,5.999999999999999778e-01,7.314738000000000000e+09
6.600000000000000000e+01,1.610000000000000000e+02,2.290000000000000000e+02,2.660000000000000000e+02,6.000000000000000000e+01,2.000000000000000000e+02,4.700000000000000000e+01,1.060000000000000000e+02,6.099999999999999867e-01,7.336656400000000000e+09
5.900000000000000000e+01,1.560000000000000000e+02,2.070000000000000000e+02,2.550000000000000000e+02,5.700000000000000000e+01,1.660000000000000000e+02,4.100000000000000000e+01,8.800000000000000000e+01,6.199999999999999956e-01,7.355230900000000000e+09
5.000000000000000000e+01,1.270000000000000000e+02,1.780000000000000000e+02,2.570000000000000000e+02,6.000000000000000000e+01,1.410000000000000000e+02,3.500000000000000000e+01,6.200000000000000000e+01,6.300000000000000044e-01,7.374936000000000000e+09
5.500000000000000000e+01,9.300000000000000000e+01,1.640000000000000000e+02,2.820000000000000000e+02,6.900000000000000000e+01,1.180000000000000000e+02,4.200000000000000000e+01,6.000000000000000000e+01,6.400000000000000133e-01,7.393810100000000000e+09
5.900000000000000000e+01,1.070000000000000000e+02,2.000000000000000000e+02,2.440000000000000000e+02,6.400000000000000000e+01,9.600000000000000000e+01,4.100000000000000000e+01,6.100000000000000000e+01,6.500000000000000222e-01,7.414703800000000000e+09
6.400000000000000000e+01,1.130000000000000000e+02,2.070000000000000000e+02,2.130000000000000000e+02,6.000000000000000000e+01,1.130000000000000000e+02,4.300000000000000000e+01,6.300000000000000000e+01,6.500000000000000222e-01,7.436555700000000000e+09
1.270000000000000000e+02,1.090000000000000000e+02,2.160000000000000000e+02,2.220000000000000000e+02,5.500000000000000000e+01,1.250000000000000000e+02,4.200000000000000000e+01,6.100000000000000000e+01,6.600000000000000311e-01,7.456932700000000000e+09
1.370000000000000000e+02,3.020000000000000000e+02,2.160000000000000000e+02,2.190000000000000000e+02,5.100000000000000000e+01,1.220000000000000000e+02,4.300000000000000000e+01,6.000000000000000000e+01,6.600000000000000311e-01,7.477886000000000000e+09
1.450000000000000000e+02,5.730000000000000000e+02,2.290000000000000000e+02,2.050000000000000000e+02,4.500000000000000000e+01,1.360000000000000000e+02,3.500000000000000000e+01,6.400000000000000000e+01,6.600000000000000311e-01,7.496629500000000000e+09
2.000000000000000000e+02,6.270000000000000000e+02,2.110000000000000000e+02,1.880000000000000000e+02,4.400000000000000000e+01,1.650000000000000000e+02,3.500000000000000000e+01,6.400000000000000000e+01,6.700000000000000400e-01,7.515265700000000000e+09
2.170000000000000000e+02,6.490000000000000000e+02,2.060000000000000000e+02,1.660000000000000000e+02,4.600000000000000000e+01,1.730000000000000000e+02,3.600000000000000000e+01,6.300000000000000000e+01,6.700000000000000400e-01,7.533886300000000000e+09
2.170000000000000000e+02,6.840000000000000000e+02,2.080000000000000000e+02,1.620000000000000000e+02,4.800000000000000000e+01,1.680000000000000000e+02,3.600000000000000000e+01,6.700000000000000000e+01,6.700000000000000400e-01,7.555895900000000000e+09
2.320000000000000000e+02,6.620000000000000000e+02,2.670000000000000000e+02,1.850000000000000000e+02,5.700000000000000000e+01,1.690000000000000000e+02,3.900000000000000000e+01,1.070000000000000000e+02,6.700000000000000400e-01,7.574105500000000000e+09
2.510000000000000000e+02,4.590000000000000000e+02,2.550000000000000000e+02,1.760000000000000000e+02,5.000000000000000000e+01,1.650000000000000000e+02,3.900000000000000000e+01,1.280000000000000000e+02,6.600000000000000311e-01,7.592569600000000000e+09
2.140000000000000000e+02,3.950000000000000000e+02,2.390000000000000000e+02,1.870000000000000000e+02,5.700000000000000000e+01,1.570000000000000000e+02,3.900000000000000000e+01,1.320000000000000000e+02,6.600000000000000311e-01,7.611396500000000000e+09
2.040000000000000000e+02,3.640000000000000000e+02,2.470000000000000000e+02,2.040000000000000000e+02,5.800000000000000000e+01,1.910000000000000000e+02,3.500000000000000000e+01,1.450000000000000000e+02,6.500000000000000222e-01,7.633592200000000000e+09
2.650000000000000000e+02,4.080000000000000000e+02,2.560000000000000000e+02,2.170000000000000000e+02,7.300000000000000000e+01,1.960000000000000000e+02,3.500000000000000000e+01,1.460000000000000000e+02,6.500000000000000222e-01,7.655919600000000000e+09
2.700000000000000000e+02,4.500000000000000000e+02,2.100000000000000000e+02,2.900000000000000000e+02,8.500000000000000000e+01,2.000000000000000000e+02,4.000000000000000000e+01,1.230000000000000000e+02,6.400000000000000133e-01,7.674399400000000000e+09
2.580000000000000000e+02,4.440000000000000000e+02,2.420000000000000000e+02,3.470000000000000000e+02,1.040000000000000000e+02,1.970000000000000000e+02,5.100000000000000000e+01,9.700000000000000000e+01,6.400000000000000133e-01,7.693486000000000000e+09
2.880000000000000000e+02,4.520000000000000000e+02,3.110000000000000000e+02,3.730000000000000000e+02,1.030000000000000000e+02,2.850000000000000000e+02,1.370000000000000000e+02,1.540000000000000000e+02,6.400000000000000133e-01,7.712699900000000000e+09
7.010000000000000000e+02,9.190000000000000000e+02,7.500000000000000000e+02,8.060000000000000000e+02,1.710000000000000000e+02,5.550000000000000000e+02,4.500000000000000000e+02,6.140000000000000000e+02,6.199999999999999956e-01,7.733511800000000000e+09
7.320000000000000000e+02,9.610000000000000000e+02,7.910000000000000000e+02,8.410000000000000000e+02,1.790000000000000000e+02,6.400000000000000000e+02,4.740000000000000000e+02,6.640000000000000000e+02,5.999999999999999778e-01,7.760918000000000000e+09
7.430000000000000000e+02,9.260000000000000000e+02,8.000000000000000000e+02,8.790000000000000000e+02,2.060000000000000000e+02,7.210000000000000000e+02,4.840000000000000000e+02,6.760000000000000000e+02,5.799999999999999600e-01,7.779164200000000000e+09
7.410000000000000000e+02,9.280000000000000000e+02,7.910000000000000000e+02,8.620000000000000000e+02,2.020000000000000000e+02,7.320000000000000000e+02,4.850000000000000000e+02,6.770000000000000000e+02,5.600000000000000533e-01,7.797438900000000000e+09
7.320000000000000000e+02,9.330000000000000000e+02,7.760000000000000000e+02,8.530000000000000000e+02,2.020000000000000000e+02,7.020000000000000000e+02,4.700000000000000000e+02,6.730000000000000000e+02,5.500000000000000444e-01,7.817592200000000000e+09
3.810000000000000000e+02,4.930000000000000000e+02,3.690000000000000000e+02,4.820000000000000000e+02,1.890000000000000000e+02,5.600000000000000000e+02,2.050000000000000000e+02,3.150000000000000000e+02,5.300000000000000266e-01,7.835992300000000000e+09
3.160000000000000000e+02,2.960000000000000000e+02,2.660000000000000000e+02,4.130000000000000000e+02,2.660000000000000000e+02,6.040000000000000000e+02,1.470000000000000000e+02,1.990000000000000000e+02,5.200000000000000178e-01,7.855702700000000000e+09
4.870000000000000000e+02,3.440000000000000000e+02,2.820000000000000000e+02,3.110000000000000000e+02,3.420000000000000000e+02,5.350000000000000000e+02,1.080000000000000000e+02,1.570000000000000000e+02,5.000000000000000000e-01,7.874111700000000000e+09
5.680000000000000000e+02,3.890000000000000000e+02,3.260000000000000000e+02,3.230000000000000000e+02,4.350000000000000000e+02,5.750000000000000000e+02,2.130000000000000000e+02,1.580000000000000000e+02,4.799999999999999822e-01,7.893154600000000000e+09
5.790000000000000000e+02,3.510000000000000000e+02,3.210000000000000000e+02,3.150000000000000000e+02,5.490000000000000000e+02,7.070000000000000000e+02,5.490000000000000000e+02,1.320000000000000000e+02,4.699999999999999734e-01,7.912669900000000000e+09
7.050000000000000000e+02,5.740000000000000000e+02,4.130000000000000000e+02,3.170000000000000000e+02,7.670000000000000000e+02,6.920000000000000000e+02,7.100000000000000000e+02,1.260000000000000000e+02,4.500000000000000111e-01,7.933573500000000000e+09
7.130000000000000000e+02,7.130000000000000000e+02,4.140000000000000000e+02,3.120000000000000000e+02,1.087000000000000000e+03,6.190000000000000000e+02,7.590000000000000000e+02,1.080000000000000000e+02,4.299999999999999933e-01,7.955802900000000000e+09
6.720000000000000000e+02,9.170000000000000000e+02,4.320000000000000000e+02,3.440000000000000000e+02,1.180000000000000000e+03,6.890000000000000000e+02,7.820000000000000000e+02,1.290000000000000000e+02,4.299999999999999933e-01,7.973950000000000000e+09
6.240000000000000000e+02,9.900000000000000000e+02,4.540000000000000000e+02,4.700000000000000000e+02,1.362000000000000000e+03,6.980000000000000000e+02,9.540000000000000000e+02,1.220000000000000000e+02,4.299999999999999933e-01,7.992103900000000000e+09
6.330000000000000000e+02,1.065000000000000000e+03,4.580000000000000000e+02,5.410000000000000000e+02,1.347000000000000000e+03,5.860000000000000000e+02,1.057000000000000000e+03,1.600000000000000000e+02,4.199999999999999845e-01,8.011424000000000000e+09
5.780000000000000000e+02,1.223000000000000000e+03,3.900000000000000000e+02,5.690000000000000000e+02,1.242000000000000000e+03,5.820000000000000000e+02,1.070000000000000000e+03,2.080000000000000000e+02,4.199999999999999845e-01,8.033462000000000000e+09
6.010000000000000000e+02,1.342000000000000000e+03,4.590000000000000000e+02,6.800000000000000000e+02,1.002000000000000000e+03,6.220000000000000000e+02,1.150000000000000000e+03,3.230000000000000000e+02,4.099999999999999756e-01,8.055935600000000000e+09
5.830000000000000000e+02,1.436000000000000000e+03,4.250000000000000000e+02,7.120000000000000000e+02,8.700000000000000000e+02,5.250000000000000000e+02,1.205000000000000000e+03,5.860000000000000000e+02,4.000000000000000222e-01,8.074992500000000000e+09
8.030000000000000000e+02,1.475000000000000000e+03,3.910000000000000000e+02,8.110000000000000000e+02,4.930000000000000000e+02,5.570000000000000000e+02,1.259000000000000000e+03,8.800000000000000000e+02,4.000000000000000222e-01,8.094859200000000000e+09
9.200000000000000000e+02,1.457000000000000000e+03,3.840000000000000000e+02,1.039000000000000000e+03,5.530000000000000000e+02,6.820000000000000000e+02,1.220000000000000000e+03,9.970000000000000000e+02,3.900000000000000133e-01,8.114198700000000000e+09
8.740000000000000000e+02,1.314000000000000000e+03,4.220000000000000000e+02,1.134000000000000000e+03,5.720000000000000000e+02,7.200000000000000000e+02,1.183000000000000000e+03,1.327000000000000000e+03,4.000000000000000222e-01,8.133460100000000000e+09
8.390000000000000000e+02,1.128000000000000000e+03,3.630000000000000000e+02,1.339000000000000000e+03,5.250000000000000000e+02,7.570000000000000000e+02,1.124000000000000000e+03,1.327000000000000000e+03,3.900000000000000133e-01,8.155774100000000000e+09
7.880000000000000000e+02,8.980000000000000000e+02,3.970000000000000000e+02,1.342000000000000000e+03,5.590000000000000000e+02,7.830000000000000000e+02,1.050000000000000000e+03,1.238000000000000000e+03,3.900000000000000133e-01,8.174998400000000000e+09
5.420000000000000000e+02,7.670000000000000000e+02,3.840000000000000000e+02,1.265000000000000000e+03,5.430000000000000000e+02,7.170000000000000000e+02,8.030000000000000000e+02,1.063000000000000000e+03,3.900000000000000133e-01,8.194128500000000000e+09
2.490000000000000000e+02,7.010000000000000000e+02,3.820000000000000000e+02,1.058000000000000000e+03,4.140000000000000000e+02,5.820000000000000000e+02,5.270000000000000000e+02,9.520000000000000000e+02,3.699999999999999956e-01,8.213661300000000000e+09
1.740000000000000000e+02,5.530000000000000000e+02,3.170000000000000000e+02,9.360000000000000000e+02,3.580000000000000000e+02,5.630000000000000000e+02,5.100000000000000000e+02,3.510000000000000000e+02,3.699999999999999956e-01,8.233568600000000000e+09
1.170000000000000000e+02,5.360000000000000000e+02,2.910000000000000000e+02,4.970000000000000000e+02,2.990000000000000000e+02,4.500000000000000000e+02,5.850000000000000000e+02,3.380000000000000000e+02,3.599999999999999867e-01,8.256255100000000000e+09
1.200000000000000000e+02,3.630000000000000000e+02,2.240000000000000000e+02,4.600000000000000000e+02,2.160000000000000000e+02,4.450000000000000000e+02,6.540000000000000000e+02,3.180000000000000000e+02,3.599999999999999867e-01,8.275699500000000000e+09
1.390000000000000000e+02,2.510000000000000000e+02,2.110000000000000000e+02,4.640000000000000000e+02,2.160000000000000000e+02,4.350000000000000000e+02,6.560000000000000000e+02,2.750000000000000000e+02,3.699999999999999956e-01,8.295223800000000000e+09
1.880000000000000000e+02,2.540000000000000000e+02,1.920000000000000000e+02,4.630000000000000000e+02,1.930000000000000000e+02,4.300000000000000000e+02,6.700000000000000000e+02,2.640000000000000000e+02,3.699999999999999956e-01,8.315176100000000000e+09
2.090000000000000000e+02,2.440000000000000000e+02,1.790000000000000000e+02,4.510000000000000000e+02,1.800000000000000000e+02,3.500000000000000000e+02,5.880000000000000000e+02,2.650000000000000000e+02,3.699999999999999956e-01,8.335085300000000000e+09
2.230000000000000000e+02,2.230000000000000000e+02,1.940000000000000000e+02,4.460000000000000000e+02,1.710000000000000000e+02,2.840000000000000000e+02,4.020000000000000000e+02,1.410000000000000000e+02,3.800000000000000044e-01,8.355298500000000000e+09
2.300000000000000000e+02,1.860000000000000000e+02,1.820000000000000000e+02,3.530000000000000000e+02,1.160000000000000000e+02,1.850000000000000000e+02,2.780000000000000000e+02,1.330000000000000000e+02,3.900000000000000133e-01,8.373644700000000000e+09
2.400000000000000000e+02,1.740000000000000000e+02,1.720000000000000000e+02,2.420000000000000000e+02,1.030000000000000000e+02,1.780000000000000000e+02,2.580000000000000000e+02,1.390000000000000000e+02,4.000000000000000222e-01,8.391788200000000000e+09
2.100000000000000000e+02,1.610000000000000000e+02,1.850000000000000000e+02,2.380000000000000000e+02,2.230000000000000000e+02,1.650000000000000000e+02,2.170000000000000000e+02,1.570000000000000000e+02,4.000000000000000222e-01,8.412306500000000000e+09
1.910000000000000000e+02,1.610000000000000000e+02,1.810000000000000000e+02,2.250000000000000000e+02,2.300000000000000000e+02,1.680000000000000000e+02,1.830000000000000000e+02,1.540000000000000000e+02,4.099999999999999756e-01,8.434663300000000000e+09
1.690000000000000000e+02,3.310000000000000000e+02,2.740000000000000000e+02,2.500000000000000000e+02,2.920000000000000000e+02,2.190000000000000000e+02,3.020000000000000000e+02,2.390000000000000000e+02,4.099999999999999756e-01,8.456631400000000000e+09
1.570000000000000000e+02,4.420000000000000000e+02,3.280000000000000000e+02,2.690000000000000000e+02,3.020000000000000000e+02,2.590000000000000000e+02,4.260000000000000000e+02,2.750000000000000000e+02,4.099999999999999756e-01,8.474962400000000000e+09
1.110000000000000000e+02,4.430000000000000000e+02,3.350000000000000000e+02,2.900000000000000000e+02,3.230000000000000000e+02,2.590000000000000000e+02,4.410000000000000000e+02,2.760000000000000000e+02,4.099999999999999756e-01,8.495787400000000000e+09
1.020000000000000000e+02,4.440000000000000000e+02,3.240000000000000000e+02,2.610000000000000000e+02,2.570000000000000000e+02,2.640000000000000000e+02,4.530000000000000000e+02,2.690000000000000000e+02,4.000000000000000222e-01,8.515550600000000000e+09
8.900000000000000000e+01,4.450000000000000000e+02,3.230000000000000000e+02,2.510000000000000000e+02,2.800000000000000000e+02,2.460000000000000000e+02,4.470000000000000000e+02,2.760000000000000000e+02,3.900000000000000133e-01,8.535317000000000000e+09
1.030000000000000000e+02,3.410000000000000000e+02,2.320000000000000000e+02,1.950000000000000000e+02,2.200000000000000000e+02,1.860000000000000000e+02,3.630000000000000000e+02,1.980000000000000000e+02,3.900000000000000133e-01,8.556961300000000000e+09
9.000000000000000000e+01,1.640000000000000000e+02,1.460000000000000000e+02,1.620000000000000000e+02,2.060000000000000000e+02,1.140000000000000000e+02,1.920000000000000000e+02,1.380000000000000000e+02,3.900000000000000133e-01,8.575739600000000000e+09
9.300000000000000000e+01,1.730000000000000000e+02,1.240000000000000000e+02,9.100000000000000000e+01,1.710000000000000000e+02,1.170000000000000000e+02,1.660000000000000000e+02,1.210000000000000000e+02,3.800000000000000044e-01,8.596698300000000000e+09
1.090000000000000000e+02,1.860000000000000000e+02,1.200000000000000000e+02,8.300000000000000000e+01,1.690000000000000000e+02,1.130000000000000000e+02,1.430000000000000000e+02,1.230000000000000000e+02,3.699999999999999956e-01,8.615324600000000000e+09
1.140000000000000000e+02,1.830000000000000000e+02,1.120000000000000000e+02,1.150000000000000000e+02,1.060000000000000000e+02,1.010000000000000000e+02,1.300000000000000000e+02,1.060000000000000000e+02,3.599999999999999867e-01,8.633350600000000000e+09
1.030000000000000000e+02,1.700000000000000000e+02,1.000000000000000000e+02,1.510000000000000000e+02,9.200000000000000000e+01,9.900000000000000000e+01,1.260000000000000000e+02,1.040000000000000000e+02,3.699999999999999956e-01,8.655451900000000000e+09
1.160000000000000000e+02,1.710000000000000000e+02,8.100000000000000000e+01,1.460000000000000000e+02,8.900000000000000000e+01,1.010000000000000000e+02,1.200000000000000000e+02,1.830000000000000000e+02,3.699999999999999956e-01,8.673912100000000000e+09
1.140000000000000000e+02,1.500000000000000000e+02,7.300000000000000000e+01,1.530000000000000000e+02,8.400000000000000000e+01,9.000000000000000000e+01,1.030000000000000000e+02,1.950000000000000000e+02,3.800000000000000044e-01,8.694541100000000000e+09
9.500000000000000000e+01,1.120000000000000000e+02,6.500000000000000000e+01,1.540000000000000000e+02,8.000000000000000000e+01,7.700000000000000000e+01,9.100000000000000000e+01,1.890000000000000000e+02,4.000000000000000222e-01,8.712927100000000000e+09
9.100000000000000000e+01,1.090000000000000000e+02,6.800000000000000000e+01,1.370000000000000000e+02,7.500000000000000000e+01,8.100000000000000000e+01,9.700000000000000000e+01,1.950000000000000000e+02,4.099999999999999756e-01,8.733228500000000000e+09
9.400000000000000000e+01,1.160000000000000000e+02,7.700000000000000000e+01,9.500000000000000000e+01,7.100000000000000000e+01,9.700000000000000000e+01,9.300000000000000000e+01,2.010000000000000000e+02,4.199999999999999845e-01,8.755421100000000000e+09
7.700000000000000000e+01,1.160000000000000000e+02,8.400000000000000000e+01,1.270000000000000000e+02,7.200000000000000000e+01,9.400000000000000000e+01,9.100000000000000000e+01,1.320000000000000000e+02,4.400000000000000022e-01,8.774411400000000000e+09
6.800000000000000000e+01,1.240000000000000000e+02,1.270000000000000000e+02,1.430000000000000000e+02,6.800000000000000000e+01,9.100000000000000000e+01,8.300000000000000000e+01,1.030000000000000000e+02,4.500000000000000111e-01,8.794143800000000000e+09
6.300000000000000000e+01,1.240000000000000000e+02,1.290000000000000000e+02,1.380000000000000000e+02,5.900000000000000000e+01,9.500000000000000000e+01,7.200000000000000000e+01,9.200000000000000000e+01,4.600000000000000200e-01,8.811757100000000000e+09
7.400000000000000000e+01,1.320000000000000000e+02,1.330000000000000000e+02,1.410000000000000000e+02,5.400000000000000000e+01,9.600000000000000000e+01,8.200000000000000000e+01,9.300000000000000000e+01,4.699999999999999734e-01,8.833275800000000000e+09
7.500000000000000000e+01,1.330000000000000000e+02,1.290000000000000000e+02,1.400000000000000000e+02,5.600000000000000000e+01,7.500000000000000000e+01,8.800000000000000000e+01,1.160000000000000000e+02,4.899999999999999911e-01,8.855241500000000000e+09
7.400000000000000000e+01,1.190000000000000000e+02,1.220000000000000000e+02,1.170000000000000000e+02,5.600000000000000000e+01,8.600000000000000000e+01,1.170000000000000000e+02,1.170000000000000000e+02,4.899999999999999911e-01,8.874121500000000000e+09
7.700000000000000000e+01,1.130000000000000000e+02,8.400000000000000000e+01,8.900000000000000000e+01,5.500000000000000000e+01,9.300000000000000000e+01,1.280000000000000000e+02,1.180000000000000000e+02,5.000000000000000000e-01,8.892524200000000000e+09
8.600000000000000000e+01,1.530000000000000000e+02,8.300000000000000000e+01,9.000000000000000000e+01,5.800000000000000000e+01,9.500000000000000000e+01,1.290000000000000000e+02,1.320000000000000000e+02,5.000000000000000000e-01,8.910954800000000000e+09
1.080000000000000000e+02,1.700000000000000000e+02,7.800000000000000000e+01,8.200000000000000000e+01,6.200000000000000000e+01,9.600000000000000000e+01,1.280000000000000000e+02,1.490000000000000000e+02,5.100000000000000089e-01,8.933192000000000000e+09
1.080000000000000000e+02,1.930000000000000000e+02,8.100000000000000000e+01,1.030000000000000000e+02,7.000000000000000000e+01,1.030000000000000000e+02,1.340000000000000000e+02,1.380000000000000000e+02,5.100000000000000089e-01,8.955332500000000000e+09
1.080000000000000000e+02,2.030000000000000000e+02,8.000000000000000000e+01,1.130000000000000000e+02,7.700000000000000000e+01,9.500000000000000000e+01,1.130000000000000000e+02,1.360000000000000000e+02,5.200000000000000178e-01,8.973963700000000000e+09
1.080000000000000000e+02,2.060000000000000000e+02,7.000000000000000000e+01,1.080000000000000000e+02,7.500000000000000000e+01,9.000000000000000000e+01,1.030000000000000000e+02,1.360000000000000000e+02,5.200000000000000178e-01,8.992289800000000000e+09
9.900000000000000000e+01,1.840000000000000000e+02,9.000000000000000000e+01,1.140000000000000000e+02,7.500000000000000000e+01,8.300000000000000000e+01,9.900000000000000000e+01,1.230000000000000000e+02,5.200000000000000178e-01,9.011293200000000000e+09
6.700000000000000000e+01,1.610000000000000000e+02,8.700000000000000000e+01,1.200000000000000000e+02,7.400000000000000000e+01,8.300000000000000000e+01,9.000000000000000000e+01,9.000000000000000000e+01,5.300000000000000266e-01,9.034274600000000000e+09
8.400000000000000000e+01,1.440000000000000000e+02,8.900000000000000000e+01,1.240000000000000000e+02,6.700000000000000000e+01,8.400000000000000000e+01,8.400000000000000000e+01,1.000000000000000000e+02,5.300000000000000266e-01,9.057018700000000000e+09
1.010000000000000000e+02,1.360000000000000000e+02,9.400000000000000000e+01,1.180000000000000000e+02,6.000000000000000000e+01,9.100000000000000000e+01,8.700000000000000000e+01,1.430000000000000000e+02,5.300000000000000266e-01,9.075894800000000000e+09
1.120000000000000000e+02,1.280000000000000000e+02,9.400000000000000000e+01,1.170000000000000000e+02,6.000000000000000000e+01,8.900000000000000000e+01,9.000000000000000000e+01,1.530000000000000000e+02,5.300000000000000266e-01,9.094133800000000000e+09
1.190000000000000000e+02,1.170000000000000000e+02,7.900000000000000000e+01,1.220000000000000000e+02,5.800000000000000000e+01,9.000000000000000000e+01,9.500000000000000000e+01,1.560000000000000000e+02,5.300000000000000266e-01,9.113224000000000000e+09
1.260000000000000000e+02,1.310000000000000000e+02,8.700000000000000000e+01,1.210000000000000000e+02,6.000000000000000000e+01,8.100000000000000000e+01,9.800000000000000000e+01,1.950000000000000000e+02,5.300000000000000266e-01,9.135258800000000000e+09
1.460000000000000000e+02,1.830000000000000000e+02,9.600000000000000000e+01,1.130000000000000000e+02,6.100000000000000000e+01,7.900000000000000000e+01,9.600000000000000000e+01,1.840000000000000000e+02,5.300000000000000266e-01,9.153881200000000000e+09
1.510000000000000000e+02,1.840000000000000000e+02,9.100000000000000000e+01,1.200000000000000000e+02,6.100000000000000000e+01,7.700000000000000000e+01,9.100000000000000000e+01,1.860000000000000000e+02,5.300000000000000266e-01,9.172035700000000000e+09
1.500000000000000000e+02,1.960000000000000000e+02,1.140000000000000000e+02,1.360000000000000000e+02,6.800000000000000000e+01,9.000000000000000000e+01,9.700000000000000000e+01,1.780000000000000000e+02,5.300000000000000266e-01,9.191842700000000000e+09
1.470000000000000000e+02,2.030000000000000000e+02,1.240000000000000000e+02,1.380000000000000000e+02,6.900000000000000000e+01,1.030000000000000000e+02,9.900000000000000000e+01,1.770000000000000000e+02,5.400000000000000355e-01,9.213927000000000000e+09
1.430000000000000000e+02,2.040000000000000000e+02,1.310000000000000000e+02,1.430000000000000000e+02,7.000000000000000000e+01,1.050000000000000000e+02,9.400000000000000000e+01,1.370000000000000000e+02,5.400000000000000355e-01,9.236143500000000000e+09
1.170000000000000000e+02,1.480000000000000000e+02,1.270000000000000000e+02,1.480000000000000000e+02,7.200000000000000000e+01,1.060000000000000000e+02,1.100000000000000000e+02,1.680000000000000000e+02,5.400000000000000355e-01,9.256201600000000000e+09
1.000000000000000000e+02,1.380000000000000000e+02,1.280000000000000000e+02,1.400000000000000000e+02,7.600000000000000000e+01,1.010000000000000000e+02,1.180000000000000000e+02,1.900000000000000000e+02,5.400000000000000355e-01,9.275032400000000000e+09
8.800000000000000000e+01,1.190000000000000000e+02,1.150000000000000000e+02,1.270000000000000000e+02,7.000000000000000000e+01,8.700000000000000000e+01,1.130000000000000000e+02,1.960000000000000000e+02,5.400000000000000355e-01,9.294671000000000000e+09
1.000000000000000000e+02,1.160000000000000000e+02,9.900000000000000000e+01,1.150000000000000000e+02,7.100000000000000000e+01,7.800000000000000000e+01,1.260000000000000000e+02,2.020000000000000000e+02,5.400000000000000355e-01,9.313807700000000000e+09
9.400000000000000000e+01,9.800000000000000000e+01,9.000000000000000000e+01,1.400000000000000000e+02,6.600000000000000000e+01,7.700000000000000000e+01,1.270000000000000000e+02,2.030000000000000000e+02,5.400000000000000355e-01,9.334233500000000000e+09
9.400000000000000000e+01,9.700000000000000000e+01,8.800000000000000000e+01,1.500000000000000000e+02,6.400000000000000000e+01,7.100000000000000000e+01,1.230000000000000000e+02,1.760000000000000000e+02,5.400000000000000355e-01,9.356479000000000000e+09
8.600000000000000000e+01,9.300000000000000000e+01,8.300000000000000000e+01,1.530000000000000000e+02,5.600000000000000000e+01,7.000000000000000000e+01,1.170000000000000000e+02,1.140000000000000000e+02,5.400000000000000355e-01,9.375771800000000000e+09
9.000000000000000000e+01,9.500000000000000000e+01,8.300000000000000000e+01,1.720000000000000000e+02,6.100000000000000000e+01,7.500000000000000000e+01,1.290000000000000000e+02,1.130000000000000000e+02,5.500000000000000444e-01,9.394009800000000000e+09
7.100000000000000000e+01,8.400000000000000000e+01,1.040000000000000000e+02,1.870000000000000000e+02,6.100000000000000000e+01,6.400000000000000000e+01,1.170000000000000000e+02,1.010000000000000000e+02,5.500000000000000444e-01,9.412062000000000000e+09
7.800000000000000000e+01,8.800000000000000000e+01,1.010000000000000000e+02,2.140000000000000000e+02,6.300000000000000000e+01,6.200000000000000000e+01,1.160000000000000000e+02,1.110000000000000000e+02,5.600000000000000533e-01,9.434209400000000000e+09
6.200000000000000000e+01,7.300000000000000000e+01,1.030000000000000000e+02,2.080000000000000000e+02,6.000000000000000000e+01,7.300000000000000000e+01,1.110000000000000000e+02,1.030000000000000000e+02,5.600000000000000533e-01,9.456334600000000000e+09
6.500000000000000000e+01,8.200000000000000000e+01,1.060000000000000000e+02,2.120000000000000000e+02,6.700000000000000000e+01,7.500000000000000000e+01,1.120000000000000000e+02,9.900000000000000000e+01,5.699999999999999512e-01,9.475447800000000000e+09
5.800000000000000000e+01,8.500000000000000000e+01,1.070000000000000000e+02,2.080000000000000000e+02,5.900000000000000000e+01,7.900000000000000000e+01,9.900000000000000000e+01,8.300000000000000000e+01,5.699999999999999512e-01,9.494649300000000000e+09
7.600000000000000000e+01,9.900000000000000000e+01,9.400000000000000000e+01,2.010000000000000000e+02,5.800000000000000000e+01,7.800000000000000000e+01,9.300000000000000000e+01,1.110000000000000000e+02,5.799999999999999600e-01,9.513641700000000000e+09
6.700000000000000000e+01,9.500000000000000000e+01,8.800000000000000000e+01,1.490000000000000000e+02,6.000000000000000000e+01,8.200000000000000000e+01,9.000000000000000000e+01,9.600000000000000000e+01,5.899999999999999689e-01,9.534171500000000000e+09
6.700000000000000000e+01,1.030000000000000000e+02,8.800000000000000000e+01,1.550000000000000000e+02,6.600000000000000000e+01,7.200000000000000000e+01,7.700000000000000000e+01,9.600000000000000000e+01,5.899999999999999689e-01,9.556293500000000000e+09
7.000000000000000000e+01,9.700000000000000000e+01,9.000000000000000000e+01,1.570000000000000000e+02,6.600000000000000000e+01,7.600000000000000000e+01,7.600000000000000000e+01,9.800000000000000000e+01,5.999999999999999778e-01,9.574612000000000000e+09
7.900000000000000000e+01,1.030000000000000000e+02,8.500000000000000000e+01,1.480000000000000000e+02,7.600000000000000000e+01,7.000000000000000000e+01,1.030000000000000000e+02,1.390000000000000000e+02,5.999999999999999778e-01,9.595810400000000000e+09
7.100000000000000000e+01,9.700000000000000000e+01,7.500000000000000000e+01,1.350000000000000000e+02,7.500000000000000000e+01,8.100000000000000000e+01,1.120000000000000000e+02,1.290000000000000000e+02,5.999999999999999778e-01,9.616364900000000000e+09
7.200000000000000000e+01,1.110000000000000000e+02,8.400000000000000000e+01,1.300000000000000000e+02,7.300000000000000000e+01,8.900000000000000000e+01,1.160000000000000000e+02,1.270000000000000000e+02,5.999999999999999778e-01,9.637049600000000000e+09
7.200000000000000000e+01,1.050000000000000000e+02,9.200000000000000000e+01,1.190000000000000000e+02,8.000000000000000000e+01,1.210000000000000000e+02,1.400000000000000000e+02,1.300000000000000000e+02,5.999999999999999778e-01,9.655585200000000000e+09
7.300000000000000000e+01,1.110000000000000000e+02,9.700000000000000000e+01,1.140000000000000000e+02,7.600000000000000000e+01,1.230000000000000000e+02,1.470000000000000000e+02,1.420000000000000000e+02,5.899999999999999689e-01,9.676507300000000000e+09
7.100000000000000000e+01,1.020000000000000000e+02,1.020000000000000000e+02,1.160000000000000000e+02,6.900000000000000000e+01,1.300000000000000000e+02,1.330000000000000000e+02,1.100000000000000000e+02,5.899999999999999689e-01,9.694485300000000000e+09
6.500000000000000000e+01,1.090000000000000000e+02,1.300000000000000000e+02,1.170000000000000000e+02,7.100000000000000000e+01,1.280000000000000000e+02,1.250000000000000000e+02,1.010000000000000000e+02,5.799999999999999600e-01,9.714829700000000000e+09
6.800000000000000000e+01,1.120000000000000000e+02,1.340000000000000000e+02,1.150000000000000000e+02,7.300000000000000000e+01,1.250000000000000000e+02,1.310000000000000000e+02,9.800000000000000000e+01,5.799999999999999600e-01,9.736146300000000000e+09
6.600000000000000000e+01,1.120000000000000000e+02,1.280000000000000000e+02,9.800000000000000000e+01,6.400000000000000000e+01,1.090000000000000000e+02,1.110000000000000000e+02,9.100000000000000000e+01,5.699999999999999512e-01,9.755167400000000000e+09
5.900000000000000000e+01,1.080000000000000000e+02,1.270000000000000000e+02,8.000000000000000000e+01,6.600000000000000000e+01,1.100000000000000000e+02,1.010000000000000000e+02,6.700000000000000000e+01,5.699999999999999512e-01,9.777208200000000000e+09
5.300000000000000000e+01,1.400000000000000000e+02,1.420000000000000000e+02,6.800000000000000000e+01,6.500000000000000000e+01,1.040000000000000000e+02,9.800000000000000000e+01,6.200000000000000000e+01,5.600000000000000533e-01,9.797033300000000000e+09
5.200000000000000000e+01,1.530000000000000000e+02,1.480000000000000000e+02,8.100000000000000000e+01,6.600000000000000000e+01,1.060000000000000000e+02,1.120000000000000000e+02,5.900000000000000000e+01,5.600000000000000533e-01,9.815812500000000000e+09
4.900000000000000000e+01,1.590000000000000000e+02,1.680000000000000000e+02,1.000000000000000000e+02,6.600000000000000000e+01,1.090000000000000000e+02,1.160000000000000000e+02,6.800000000000000000e+01,5.600000000000000533e-01,9.833741400000000000e+09
4.700000000000000000e+01,1.570000000000000000e+02,1.660000000000000000e+02,9.900000000000000000e+01,6.900000000000000000e+01,1.020000000000000000e+02,1.100000000000000000e+02,7.100000000000000000e+01,5.600000000000000533e-01,9.855035300000000000e+09
5.100000000000000000e+01,1.590000000000000000e+02,1.610000000000000000e+02,1.030000000000000000e+02,7.000000000000000000e+01,9.700000000000000000e+01,1.080000000000000000e+02,7.500000000000000000e+01,5.500000000000000444e-01,9.874281500000000000e+09
5.200000000000000000e+01,1.480000000000000000e+02,1.560000000000000000e+02,1.010000000000000000e+02,7.200000000000000000e+01,9.600000000000000000e+01,1.070000000000000000e+02,7.100000000000000000e+01,5.500000000000000444e-01,9.892672200000000000e+09
4.800000000000000000e+01,1.440000000000000000e+02,2.000000000000000000e+02,9.300000000000000000e+01,7.600000000000000000e+01,1.050000000000000000e+02,8.900000000000000000e+01,6.600000000000000000e+01,5.500000000000000444e-01,9.913701300000000000e+09
4.400000000000000000e+01,1.260000000000000000e+02,1.830000000000000000e+02,7.000000000000000000e+01,7.400000000000000000e+01,1.020000000000000000e+02,7.400000000000000000e+01,5.700000000000000000e+01,5.500000000000000444e-01,9.932732500000000000e+09
4.500000000000000000e+01,1.280000000000000000e+02,1.850000000000000000e+02,7.500000000000000000e+01,6.800000000000000000e+01,1.030000000000000000e+02,7.300000000000000000e+01,5.300000000000000000e+01,5.500000000000000444e-01,9.954803400000000000e+09
4.000000000000000000e+01,1.250000000000000000e+02,1.900000000000000000e+02,8.800000000000000000e+01,6.900000000000000000e+01,1.140000000000000000e+02,7.300000000000000000e+01,5.200000000000000000e+01,5.500000000000000444e-01,9.977066400000000000e+09
3.400000000000000000e+01,1.150000000000000000e+02,1.880000000000000000e+02,9.200000000000000000e+01,6.900000000000000000e+01,1.150000000000000000e+02,7.100000000000000000e+01,4.500000000000000000e+01,5.400000000000000355e-01,9.995865200000000000e+09
3.300000000000000000e+01,9.000000000000000000e+01,1.500000000000000000e+02,1.030000000000000000e+02,6.900000000000000000e+01,1.040000000000000000e+02,7.300000000000000000e+01,4.400000000000000000e+01,5.400000000000000355e-01,1.001447080000000000e+10
3.200000000000000000e+01,9.100000000000000000e+01,1.510000000000000000e+02,1.080000000000000000e+02,7.900000000000000000e+01,1.210000000000000000e+02,8.500000000000000000e+01,4.500000000000000000e+01,5.500000000000000444e-01,1.003307510000000000e+10
3.500000000000000000e+01,9.100000000000000000e+01,1.470000000000000000e+02,1.040000000000000000e+02,7.700000000000000000e+01,1.180000000000000000e+02,9.000000000000000000e+01,4.700000000000000000e+01,5.400000000000000355e-01,1.005482700000000000e+10
3.400000000000000000e+01,9.200000000000000000e+01,1.550000000000000000e+02,9.100000000000000000e+01,7.200000000000000000e+01,1.040000000000000000e+02,8.500000000000000000e+01,4.400000000000000000e+01,5.400000000000000355e-01,1.007701990000000000e+10
3.700000000000000000e+01,8.300000000000000000e+01,1.470000000000000000e+02,8.400000000000000000e+01,6.900000000000000000e+01,1.060000000000000000e+02,8.800000000000000000e+01,4.400000000000000000e+01,5.400000000000000355e-01,1.009625740000000000e+10
4.100000000000000000e+01,8.700000000000000000e+01,1.170000000000000000e+02,6.500000000000000000e+01,6.200000000000000000e+01,1.090000000000000000e+02,9.600000000000000000e+01,4.600000000000000000e+01,5.400000000000000355e-01,1.011398790000000000e+10
4.300000000000000000e+01,8.200000000000000000e+01,1.080000000000000000e+02,5.500000000000000000e+01,4.800000000000000000e+01,9.300000000000000000e+01,8.400000000000000000e+01,4.400000000000000000e+01,5.400000000000000355e-01,1.013293860000000000e+10
4.000000000000000000e+01,9.200000000000000000e+01,1.210000000000000000e+02,5.500000000000000000e+01,4.700000000000000000e+01,8.500000000000000000e+01,7.800000000000000000e+01,4.200000000000000000e+01,5.300000000000000266e-01,1.015589910000000000e+10
4.300000000000000000e+01,1.210000000000000000e+02,2.100000000000000000e+02,5.300000000000000000e+01,5.000000000000000000e+01,9.500000000000000000e+01,9.300000000000000000e+01,4.900000000000000000e+01,5.300000000000000266e-01,1.017508820000000000e+10
4.000000000000000000e+01,1.240000000000000000e+02,2.300000000000000000e+02,8.100000000000000000e+01,5.100000000000000000e+01,9.600000000000000000e+01,9.400000000000000000e+01,5.600000000000000000e+01,5.300000000000000266e-01,1.019413880000000000e+10
3.700000000000000000e+01,1.180000000000000000e+02,2.280000000000000000e+02,8.700000000000000000e+01,6.600000000000000000e+01,9.900000000000000000e+01,9.400000000000000000e+01,5.700000000000000000e+01,5.300000000000000266e-01,1.021300380000000000e+10
4.000000000000000000e+01,1.230000000000000000e+02,2.400000000000000000e+02,9.100000000000000000e+01,6.800000000000000000e+01,9.700000000000000000e+01,1.000000000000000000e+02,6.100000000000000000e+01,5.300000000000000266e-01,1.023522840000000000e+10
4.400000000000000000e+01,1.310000000000000000e+02,2.480000000000000000e+02,1.000000000000000000e+02,7.800000000000000000e+01,1.060000000000000000e+02,1.030000000000000000e+02,6.600000000000000000e+01,5.300000000000000266e-01,1.025330040000000000e+10
4.300000000000000000e+01,1.230000000000000000e+02,2.030000000000000000e+02,1.060000000000000000e+02,8.500000000000000000e+01,1.030000000000000000e+02,9.300000000000000000e+01,6.100000000000000000e+01,5.300000000000000266e-01,1.027298260000000000e+10
4.100000000000000000e+01,1.180000000000000000e+02,1.940000000000000000e+02,8.700000000000000000e+01,1.050000000000000000e+02,1.020000000000000000e+02,9.100000000000000000e+01,5.600000000000000000e+01,5.300000000000000266e-01,1.029209350000000000e+10
4.200000000000000000e+01,1.180000000000000000e+02,1.890000000000000000e+02,8.200000000000000000e+01,1.050000000000000000e+02,9.600000000000000000e+01,8.100000000000000000e+01,5.300000000000000000e+01,5.200000000000000178e-01,1.031294080000000000e+10
3.900000000000000000e+01,1.190000000000000000e+02,1.770000000000000000e+02,8.100000000000000000e+01,1.070000000000000000e+02,8.900000000000000000e+01,7.400000000000000000e+01,4.500000000000000000e+01,5.200000000000000178e-01,1.033503450000000000e+10
3.700000000000000000e+01,1.210000000000000000e+02,1.700000000000000000e+02,7.400000000000000000e+01,1.040000000000000000e+02,8.200000000000000000e+01,7.000000000000000000e+01,3.900000000000000000e+01,5.200000000000000178e-01,1.035728420000000000e+10
3.500000000000000000e+01,9.700000000000000000e+01,1.430000000000000000e+02,6.900000000000000000e+01,1.070000000000000000e+02,9.700000000000000000e+01,7.100000000000000000e+01,4.200000000000000000e+01,5.200000000000000178e-01,1.037652830000000000e+10
3.700000000000000000e+01,9.600000000000000000e+01,1.220000000000000000e+02,7.100000000000000000e+01,9.300000000000000000e+01,9.400000000000000000e+01,6.600000000000000000e+01,4.000000000000000000e+01,5.100000000000000089e-01,1.039555020000000000e+10
3.600000000000000000e+01,1.000000000000000000e+02,1.220000000000000000e+02,8.100000000000000000e+01,9.000000000000000000e+01,9.300000000000000000e+01,6.700000000000000000e+01,4.100000000000000000e+01,5.100000000000000089e-01,1.041350450000000000e+10
3.400000000000000000e+01,9.900000000000000000e+01,1.200000000000000000e+02,1.020000000000000000e+02,9.600000000000000000e+01,9.200000000000000000e+01,6.400000000000000000e+01,4.700000000000000000e+01,5.100000000000000089e-01,1.043495350000000000e+10
