3.500000000000000000e+01,6.900000000000000000e+01,1.520000000000000000e+02,5.500000000000000000e+01,4.900000000000000000e+01,6.400000000000000000e+01,3.500000000000000000e+01,3.100000000000000000e+01,5.000000000000000000e-01,4.757816000000000000e+08
3.700000000000000000e+01,7.100000000000000000e+01,2.250000000000000000e+02,5.700000000000000000e+01,5.000000000000000000e+01,6.800000000000000000e+01,3.700000000000000000e+01,3.100000000000000000e+01,5.000000000000000000e-01,5.022145000000000000e+08
3.700000000000000000e+01,8.200000000000000000e+01,2.890000000000000000e+02,5.500000000000000000e+01,5.200000000000000000e+01,7.800000000000000000e+01,3.900000000000000000e+01,3.400000000000000000e+01,5.000000000000000000e-01,1.200945300000000000e+09
2.800000000000000000e+01,6.300000000000000000e+01,2.820000000000000000e+02,4.300000000000000000e+01,4.000000000000000000e+01,6.700000000000000000e+01,3.500000000000000000e+01,2.800000000000000000e+01,5.000000000000000000e-01,1.219283500000000000e+09
2.800000000000000000e+01,6.500000000000000000e+01,3.460000000000000000e+02,4.500000000000000000e+01,4.100000000000000000e+01,6.700000000000000000e+01,4.000000000000000000e+01,2.800000000000000000e+01,5.000000000000000000e-01,1.237346400000000000e+09
2.800000000000000000e+01,6.200000000000000000e+01,3.680000000000000000e+02,4.000000000000000000e+01,3.900000000000000000e+01,6.400000000000000000e+01,3.700000000000000000e+01,2.700000000000000000e+01,5.000000000000000000e-01,1.255195400000000000e+09
3.100000000000000000e+01,6.600000000000000000e+01,3.340000000000000000e+02,4.000000000000000000e+01,3.500000000000000000e+01,6.900000000000000000e+01,3.800000000000000000e+01,2.900000000000000000e+01,5.000000000000000000e-01,1.273092400000000000e+09
3.200000000000000000e+01,6.200000000000000000e+01,2.810000000000000000e+02,4.200000000000000000e+01,3.200000000000000000e+01,5.300000000000000000e+01,3.500000000000000000e+01,2.500000000000000000e+01,5.000000000000000000e-01,1.291678600000000000e+09
3.300000000000000000e+01,6.300000000000000000e+01,2.750000000000000000e+02,4.300000000000000000e+01,3.400000000000000000e+01,5.100000000000000000e+01,3.300000000000000000e+01,2.500000000000000000e+01,5.000000000000000000e-01,1.310448600000000000e+09
3.200000000000000000e+01,6.100000000000000000e+01,2.010000000000000000e+02,3.800000000000000000e+01,3.200000000000000000e+01,4.500000000000000000e+01,2.700000000000000000e+01,2.300000000000000000e+01,5.000000000000000000e-01,1.329580700000000000e+09
3.100000000000000000e+01,6.500000000000000000e+01,1.600000000000000000e+02,4.200000000000000000e+01,3.600000000000000000e+01,4.900000000000000000e+01,2.800000000000000000e+01,2.400000000000000000e+01,5.000000000000000000e-01,1.347967600000000000e+09
3.600000000000000000e+01,7.900000000000000000e+01,2.050000000000000000e+02,5.200000000000000000e+01,4.600000000000000000e+01,5.700000000000000000e+01,3.400000000000000000e+01,2.800000000000000000e+01,5.000000000000000000e-01,1.365893800000000000e+09
3.500000000000000000e+01,7.000000000000000000e+01,2.020000000000000000e+02,5.100000000000000000e+01,4.300000000000000000e+01,6.300000000000000000e+01,3.500000000000000000e+01,2.800000000000000000e+01,5.000000000000000000e-01,1.384909800000000000e+09
3.400000000000000000e+01,7.000000000000000000e+01,2.030000000000000000e+02,5.000000000000000000e+01,4.100000000000000000e+01,6.300000000000000000e+01,3.700000000000000000e+01,2.900000000000000000e+01,5.000000000000000000e-01,1.403336100000000000e+09
3.900000000000000000e+01,8.600000000000000000e+01,2.020000000000000000e+02,5.400000000000000000e+01,4.300000000000000000e+01,6.300000000000000000e+01,3.600000000000000000e+01,3.000000000000000000e+01,5.000000000000000000e-01,1.421855300000000000e+09
4.000000000000000000e+01,8.400000000000000000e+01,2.000000000000000000e+02,5.300000000000000000e+01,4.100000000000000000e+01,6.100000000000000000e+01,3.700000000000000000e+01,2.900000000000000000e+01,5.000000000000000000e-01,1.440932400000000000e+09
3.100000000000000000e+01,6.500000000000000000e+01,1.490000000000000000e+02,4.200000000000000000e+01,3.000000000000000000e+01,5.500000000000000000e+01,3.000000000000000000e+01,2.400000000000000000e+01,5.000000000000000000e-01,1.458686800000000000e+09
3.000000000000000000e+01,6.400000000000000000e+01,1.490000000000000000e+02,3.900000000000000000e+01,2.800000000000000000e+01,5.000000000000000000e+01,3.000000000000000000e+01,2.400000000000000000e+01,5.000000000000000000e-01,1.477237900000000000e+09
3.000000000000000000e+01,6.900000000000000000e+01,1.690000000000000000e+02,4.000000000000000000e+01,2.700000000000000000e+01,4.800000000000000000e+01,2.700000000000000000e+01,2.400000000000000000e+01,5.000000000000000000e-01,1.518562800000000000e+09
2.800000000000000000e+01,6.200000000000000000e+01,1.870000000000000000e+02,3.600000000000000000e+01,2.800000000000000000e+01,5.000000000000000000e+01,2.900000000000000000e+01,2.500000000000000000e+01,5.000000000000000000e-01,1.537486100000000000e+09
2.700000000000000000e+01,6.100000000000000000e+01,1.880000000000000000e+02,3.600000000000000000e+01,2.600000000000000000e+01,5.200000000000000000e+01,2.900000000000000000e+01,2.400000000000000000e+01,5.000000000000000000e-01,1.555226700000000000e+09
2.800000000000000000e+01,6.300000000000000000e+01,1.950000000000000000e+02,3.700000000000000000e+01,2.900000000000000000e+01,4.900000000000000000e+01,3.000000000000000000e+01,2.500000000000000000e+01,5.000000000000000000e-01,1.573919800000000000e+09
3.200000000000000000e+01,9.700000000000000000e+01,2.750000000000000000e+02,5.900000000000000000e+01,3.900000000000000000e+01,4.900000000000000000e+01,3.000000000000000000e+01,2.900000000000000000e+01,5.000000000000000000e-01,1.592157600000000000e+09
4.000000000000000000e+01,1.110000000000000000e+02,3.130000000000000000e+02,6.300000000000000000e+01,5.100000000000000000e+01,5.300000000000000000e+01,3.400000000000000000e+01,3.300000000000000000e+01,5.000000000000000000e-01,1.610578600000000000e+09
3.800000000000000000e+01,1.050000000000000000e+02,3.060000000000000000e+02,6.300000000000000000e+01,5.100000000000000000e+01,5.400000000000000000e+01,3.700000000000000000e+01,3.300000000000000000e+01,5.000000000000000000e-01,1.629109700000000000e+09
4.000000000000000000e+01,1.120000000000000000e+02,3.070000000000000000e+02,6.400000000000000000e+01,5.200000000000000000e+01,6.100000000000000000e+01,4.000000000000000000e+01,3.400000000000000000e+01,5.000000000000000000e-01,1.647793500000000000e+09
4.000000000000000000e+01,1.140000000000000000e+02,2.970000000000000000e+02,6.400000000000000000e+01,5.100000000000000000e+01,5.200000000000000000e+01,3.700000000000000000e+01,3.300000000000000000e+01,5.000000000000000000e-01,1.667825500000000000e+09
3.500000000000000000e+01,9.100000000000000000e+01,2.340000000000000000e+02,4.700000000000000000e+01,4.300000000000000000e+01,5.000000000000000000e+01,3.500000000000000000e+01,3.200000000000000000e+01,5.000000000000000000e-01,1.687206300000000000e+09
2.600000000000000000e+01,7.900000000000000000e+01,2.770000000000000000e+02,4.100000000000000000e+01,3.000000000000000000e+01,4.700000000000000000e+01,3.100000000000000000e+01,2.600000000000000000e+01,5.000000000000000000e-01,1.706168100000000000e+09
2.700000000000000000e+01,8.500000000000000000e+01,3.040000000000000000e+02,5.300000000000000000e+01,3.400000000000000000e+01,6.600000000000000000e+01,3.000000000000000000e+01,2.800000000000000000e+01,5.000000000000000000e-01,1.725656700000000000e+09
2.500000000000000000e+01,7.900000000000000000e+01,3.150000000000000000e+02,5.200000000000000000e+01,3.200000000000000000e+01,6.300000000000000000e+01,2.800000000000000000e+01,2.600000000000000000e+01,5.000000000000000000e-01,1.744497500000000000e+09
2.500000000000000000e+01,7.500000000000000000e+01,3.210000000000000000e+02,5.300000000000000000e+01,3.200000000000000000e+01,6.700000000000000000e+01,3.100000000000000000e+01,2.700000000000000000e+01,5.000000000000000000e-01,1.762701800000000000e+09
3.100000000000000000e+01,7.500000000000000000e+01,3.770000000000000000e+02,5.500000000000000000e+01,3.300000000000000000e+01,6.700000000000000000e+01,3.100000000000000000e+01,2.600000000000000000e+01,5.100000000000000089e-01,1.781171700000000000e+09
3.200000000000000000e+01,6.700000000000000000e+01,3.070000000000000000e+02,5.400000000000000000e+01,3.400000000000000000e+01,7.800000000000000000e+01,3.200000000000000000e+01,2.800000000000000000e+01,5.100000000000000089e-01,1.799564600000000000e+09
2.900000000000000000e+01,5.700000000000000000e+01,2.820000000000000000e+02,4.500000000000000000e+01,2.800000000000000000e+01,6.100000000000000000e+01,2.900000000000000000e+01,2.600000000000000000e+01,5.100000000000000089e-01,1.817843200000000000e+09
3.000000000000000000e+01,6.200000000000000000e+01,3.050000000000000000e+02,5.000000000000000000e+01,2.900000000000000000e+01,5.800000000000000000e+01,3.100000000000000000e+01,5.200000000000000000e+01,5.100000000000000089e-01,1.836617600000000000e+09
2.900000000000000000e+01,6.100000000000000000e+01,2.970000000000000000e+02,4.600000000000000000e+01,2.900000000000000000e+01,5.800000000000000000e+01,3.000000000000000000e+01,5.600000000000000000e+01,5.000000000000000000e-01,1.855516900000000000e+09
2.600000000000000000e+01,7.000000000000000000e+01,2.910000000000000000e+02,4.500000000000000000e+01,2.600000000000000000e+01,5.800000000000000000e+01,3.000000000000000000e+01,5.900000000000000000e+01,5.000000000000000000e-01,1.874297100000000000e+09
3.300000000000000000e+01,7.600000000000000000e+01,3.130000000000000000e+02,4.700000000000000000e+01,2.600000000000000000e+01,4.700000000000000000e+01,3.000000000000000000e+01,6.500000000000000000e+01,5.000000000000000000e-01,1.893173200000000000e+09
3.700000000000000000e+01,8.600000000000000000e+01,3.350000000000000000e+02,4.800000000000000000e+01,2.600000000000000000e+01,4.500000000000000000e+01,3.000000000000000000e+01,7.100000000000000000e+01,5.000000000000000000e-01,1.911490700000000000e+09
4.300000000000000000e+01,8.400000000000000000e+01,3.010000000000000000e+02,4.300000000000000000e+01,2.700000000000000000e+01,8.500000000000000000e+01,4.200000000000000000e+01,1.010000000000000000e+02,5.000000000000000000e-01,1.929968400000000000e+09
5.800000000000000000e+01,9.200000000000000000e+01,3.860000000000000000e+02,5.100000000000000000e+01,2.800000000000000000e+01,8.800000000000000000e+01,4.600000000000000000e+01,1.380000000000000000e+02,5.000000000000000000e-01,1.949109200000000000e+09
6.600000000000000000e+01,1.490000000000000000e+02,4.030000000000000000e+02,5.700000000000000000e+01,3.000000000000000000e+01,8.900000000000000000e+01,4.700000000000000000e+01,1.450000000000000000e+02,5.000000000000000000e-01,1.968203600000000000e+09
6.700000000000000000e+01,1.640000000000000000e+02,4.150000000000000000e+02,5.800000000000000000e+01,3.000000000000000000e+01,9.200000000000000000e+01,4.700000000000000000e+01,1.460000000000000000e+02,5.000000000000000000e-01,1.989032500000000000e+09
7.400000000000000000e+01,1.700000000000000000e+02,5.430000000000000000e+02,7.400000000000000000e+01,3.700000000000000000e+01,1.070000000000000000e+02,5.600000000000000000e+01,1.630000000000000000e+02,5.000000000000000000e-01,2.007877500000000000e+09
8.000000000000000000e+01,2.360000000000000000e+02,6.130000000000000000e+02,8.900000000000000000e+01,4.200000000000000000e+01,8.600000000000000000e+01,5.200000000000000000e+01,1.420000000000000000e+02,5.100000000000000089e-01,2.027510500000000000e+09
7.500000000000000000e+01,2.430000000000000000e+02,5.910000000000000000e+02,9.200000000000000000e+01,4.500000000000000000e+01,8.300000000000000000e+01,4.800000000000000000e+01,1.080000000000000000e+02,5.100000000000000089e-01,2.047540700000000000e+09
8.100000000000000000e+01,2.400000000000000000e+02,5.950000000000000000e+02,9.600000000000000000e+01,5.600000000000000000e+01,8.900000000000000000e+01,5.200000000000000000e+01,1.010000000000000000e+02,5.100000000000000089e-01,2.066173800000000000e+09
9.700000000000000000e+01,2.490000000000000000e+02,5.900000000000000000e+02,1.020000000000000000e+02,5.800000000000000000e+01,8.400000000000000000e+01,5.200000000000000000e+01,9.900000000000000000e+01,5.200000000000000178e-01,2.084372800000000000e+09
9.900000000000000000e+01,2.730000000000000000e+02,5.120000000000000000e+02,9.600000000000000000e+01,6.000000000000000000e+01,7.200000000000000000e+01,4.600000000000000000e+01,9.200000000000000000e+01,5.200000000000000178e-01,2.104066500000000000e+09
1.010000000000000000e+02,2.490000000000000000e+02,5.840000000000000000e+02,1.020000000000000000e+02,6.300000000000000000e+01,7.100000000000000000e+01,4.300000000000000000e+01,9.900000000000000000e+01,5.300000000000000266e-01,2.124393400000000000e+09
1.080000000000000000e+02,2.750000000000000000e+02,7.450000000000000000e+02,1.160000000000000000e+02,6.600000000000000000e+01,7.000000000000000000e+01,4.600000000000000000e+01,1.020000000000000000e+02,5.200000000000000178e-01,2.143325400000000000e+09
1.020000000000000000e+02,2.590000000000000000e+02,7.170000000000000000e+02,1.090000000000000000e+02,5.800000000000000000e+01,5.900000000000000000e+01,4.000000000000000000e+01,9.800000000000000000e+01,5.300000000000000266e-01,2.161347200000000000e+09
8.500000000000000000e+01,2.470000000000000000e+02,7.200000000000000000e+02,1.080000000000000000e+02,6.100000000000000000e+01,6.000000000000000000e+01,4.100000000000000000e+01,1.020000000000000000e+02,5.300000000000000266e-01,2.179860700000000000e+09
7.800000000000000000e+01,2.220000000000000000e+02,6.970000000000000000e+02,1.140000000000000000e+02,6.200000000000000000e+01,5.700000000000000000e+01,4.400000000000000000e+01,8.100000000000000000e+01,5.300000000000000266e-01,2.199247500000000000e+09
7.500000000000000000e+01,2.310000000000000000e+02,6.880000000000000000e+02,1.200000000000000000e+02,5.800000000000000000e+01,4.900000000000000000e+01,4.200000000000000000e+01,7.200000000000000000e+01,5.300000000000000266e-01,2.218544200000000000e+09
7.000000000000000000e+01,2.020000000000000000e+02,5.160000000000000000e+02,1.140000000000000000e+02,5.800000000000000000e+01,5.100000000000000000e+01,3.900000000000000000e+01,6.800000000000000000e+01,5.300000000000000266e-01,2.237794200000000000e+09
6.500000000000000000e+01,1.930000000000000000e+02,5.180000000000000000e+02,1.160000000000000000e+02,5.700000000000000000e+01,5.000000000000000000e+01,4.000000000000000000e+01,6.700000000000000000e+01,5.300000000000000266e-01,2.256324300000000000e+09
6.600000000000000000e+01,1.860000000000000000e+02,5.110000000000000000e+02,1.140000000000000000e+02,5.300000000000000000e+01,5.000000000000000000e+01,3.800000000000000000e+01,5.800000000000000000e+01,5.300000000000000266e-01,2.274988300000000000e+09
6.300000000000000000e+01,1.740000000000000000e+02,5.410000000000000000e+02,1.060000000000000000e+02,4.800000000000000000e+01,4.400000000000000000e+01,3.100000000000000000e+01,4.800000000000000000e+01,5.400000000000000355e-01,2.293286500000000000e+09
5.000000000000000000e+01,1.210000000000000000e+02,4.260000000000000000e+02,8.000000000000000000e+01,4.400000000000000000e+01,3.900000000000000000e+01,2.700000000000000000e+01,3.900000000000000000e+01,5.400000000000000355e-01,2.311971800000000000e+09
3.900000000000000000e+01,1.000000000000000000e+02,3.990000000000000000e+02,6.500000000000000000e+01,3.600000000000000000e+01,3.000000000000000000e+01,2.500000000000000000e+01,3.300000000000000000e+01,5.400000000000000355e-01,2.330052500000000000e+09
4.200000000000000000e+01,1.040000000000000000e+02,4.940000000000000000e+02,7.900000000000000000e+01,4.500000000000000000e+01,3.400000000000000000e+01,2.500000000000000000e+01,3.000000000000000000e+01,5.400000000000000355e-01,2.349234400000000000e+09
4.100000000000000000e+01,1.010000000000000000e+02,4.970000000000000000e+02,7.500000000000000000e+01,4.300000000000000000e+01,3.200000000000000000e+01,2.500000000000000000e+01,3.000000000000000000e+01,5.500000000000000444e-01,2.369630900000000000e+09
5.200000000000000000e+01,1.410000000000000000e+02,5.470000000000000000e+02,8.100000000000000000e+01,4.700000000000000000e+01,3.200000000000000000e+01,2.700000000000000000e+01,4.200000000000000000e+01,5.500000000000000444e-01,2.388586000000000000e+09
5.300000000000000000e+01,1.350000000000000000e+02,5.600000000000000000e+02,7.900000000000000000e+01,4.500000000000000000e+01,3.300000000000000000e+01,2.600000000000000000e+01,5.900000000000000000e+01,5.600000000000000533e-01,2.406700400000000000e+09
5.300000000000000000e+01,1.460000000000000000e+02,5.920000000000000000e+02,8.800000000000000000e+01,4.600000000000000000e+01,3.400000000000000000e+01,3.000000000000000000e+01,6.100000000000000000e+01,5.699999999999999512e-01,2.424714500000000000e+09
6.600000000000000000e+01,1.870000000000000000e+02,5.490000000000000000e+02,9.000000000000000000e+01,5.300000000000000000e+01,4.400000000000000000e+01,3.600000000000000000e+01,7.300000000000000000e+01,5.699999999999999512e-01,2.443371300000000000e+09
6.900000000000000000e+01,2.150000000000000000e+02,6.380000000000000000e+02,1.050000000000000000e+02,6.200000000000000000e+01,4.900000000000000000e+01,3.800000000000000000e+01,7.300000000000000000e+01,5.699999999999999512e-01,2.462444000000000000e+09
6.200000000000000000e+01,1.970000000000000000e+02,6.410000000000000000e+02,1.090000000000000000e+02,5.900000000000000000e+01,4.700000000000000000e+01,3.500000000000000000e+01,6.600000000000000000e+01,5.699999999999999512e-01,2.480819000000000000e+09
6.100000000000000000e+01,2.120000000000000000e+02,6.970000000000000000e+02,1.110000000000000000e+02,6.000000000000000000e+01,4.700000000000000000e+01,3.600000000000000000e+01,5.200000000000000000e+01,5.699999999999999512e-01,2.499944800000000000e+09
6.900000000000000000e+01,2.320000000000000000e+02,7.100000000000000000e+02,1.080000000000000000e+02,5.900000000000000000e+01,4.500000000000000000e+01,3.400000000000000000e+01,5.400000000000000000e+01,5.600000000000000533e-01,2.518863600000000000e+09
9.700000000000000000e+01,2.980000000000000000e+02,7.820000000000000000e+02,1.540000000000000000e+02,8.200000000000000000e+01,6.600000000000000000e+01,5.000000000000000000e+01,6.300000000000000000e+01,5.500000000000000444e-01,2.537275100000000000e+09
9.700000000000000000e+01,2.880000000000000000e+02,7.590000000000000000e+02,1.480000000000000000e+02,7.900000000000000000e+01,6.600000000000000000e+01,4.800000000000000000e+01,6.300000000000000000e+01,5.500000000000000444e-01,2.555748300000000000e+09
9.800000000000000000e+01,2.950000000000000000e+02,7.400000000000000000e+02,1.540000000000000000e+02,7.800000000000000000e+01,6.500000000000000000e+01,4.900000000000000000e+01,6.300000000000000000e+01,5.400000000000000355e-01,2.576049600000000000e+09
1.070000000000000000e+02,2.960000000000000000e+02,6.980000000000000000e+02,1.620000000000000000e+02,8.000000000000000000e+01,6.500000000000000000e+01,5.000000000000000000e+01,6.500000000000000000e+01,5.300000000000000266e-01,2.594444400000000000e+09
1.120000000000000000e+02,2.980000000000000000e+02,6.960000000000000000e+02,1.680000000000000000e+02,8.500000000000000000e+01,6.800000000000000000e+01,5.200000000000000000e+01,6.400000000000000000e+01,5.200000000000000178e-01,2.613552500000000000e+09
9.700000000000000000e+01,2.350000000000000000e+02,6.650000000000000000e+02,1.350000000000000000e+02,5.200000000000000000e+01,3.900000000000000000e+01,3.100000000000000000e+01,4.200000000000000000e+01,5.200000000000000178e-01,2.633820000000000000e+09
9.800000000000000000e+01,2.310000000000000000e+02,6.270000000000000000e+02,1.520000000000000000e+02,5.900000000000000000e+01,3.700000000000000000e+01,3.000000000000000000e+01,4.200000000000000000e+01,5.200000000000000178e-01,2.651987400000000000e+09
9.900000000000000000e+01,2.240000000000000000e+02,5.790000000000000000e+02,1.420000000000000000e+02,6.100000000000000000e+01,3.600000000000000000e+01,3.200000000000000000e+01,4.100000000000000000e+01,5.200000000000000178e-01,2.669536300000000000e+09
9.400000000000000000e+01,2.360000000000000000e+02,5.810000000000000000e+02,1.450000000000000000e+02,6.000000000000000000e+01,3.600000000000000000e+01,3.100000000000000000e+01,3.800000000000000000e+01,5.200000000000000178e-01,2.688294100000000000e+09
8.600000000000000000e+01,2.230000000000000000e+02,5.280000000000000000e+02,1.440000000000000000e+02,5.600000000000000000e+01,3.200000000000000000e+01,2.500000000000000000e+01,3.500000000000000000e+01,5.300000000000000266e-01,2.706237500000000000e+09
6.900000000000000000e+01,2.380000000000000000e+02,5.180000000000000000e+02,1.530000000000000000e+02,5.800000000000000000e+01,3.600000000000000000e+01,2.800000000000000000e+01,3.000000000000000000e+01,5.300000000000000266e-01,2.723595700000000000e+09
6.700000000000000000e+01,2.560000000000000000e+02,5.490000000000000000e+02,1.410000000000000000e+02,4.700000000000000000e+01,3.600000000000000000e+01,2.900000000000000000e+01,3.200000000000000000e+01,5.300000000000000266e-01,2.742084400000000000e+09
8.300000000000000000e+01,2.960000000000000000e+02,6.000000000000000000e+02,1.430000000000000000e+02,6.300000000000000000e+01,5.000000000000000000e+01,3.500000000000000000e+01,4.200000000000000000e+01,5.400000000000000355e-01,2.759178200000000000e+09
1.030000000000000000e+02,2.830000000000000000e+02,5.900000000000000000e+02,1.340000000000000000e+02,6.600000000000000000e+01,5.200000000000000000e+01,3.400000000000000000e+01,4.400000000000000000e+01,5.500000000000000444e-01,2.776849200000000000e+09
1.150000000000000000e+02,2.940000000000000000e+02,6.080000000000000000e+02,1.260000000000000000e+02,6.700000000000000000e+01,5.300000000000000000e+01,3.600000000000000000e+01,4.800000000000000000e+01,5.500000000000000444e-01,2.794555500000000000e+09
1.150000000000000000e+02,2.570000000000000000e+02,5.590000000000000000e+02,9.500000000000000000e+01,6.500000000000000000e+01,5.000000000000000000e+01,3.500000000000000000e+01,4.900000000000000000e+01,5.600000000000000533e-01,2.811764600000000000e+09
1.160000000000000000e+02,2.430000000000000000e+02,5.090000000000000000e+02,8.400000000000000000e+01,6.500000000000000000e+01,4.800000000000000000e+01,3.500000000000000000e+01,5.100000000000000000e+01,5.699999999999999512e-01,2.829070100000000000e+09
1.140000000000000000e+02,1.930000000000000000e+02,4.230000000000000000e+02,8.200000000000000000e+01,4.600000000000000000e+01,3.400000000000000000e+01,2.700000000000000000e+01,4.500000000000000000e+01,5.799999999999999600e-01,2.847105500000000000e+09
9.500000000000000000e+01,1.840000000000000000e+02,3.710000000000000000e+02,8.600000000000000000e+01,4.400000000000000000e+01,3.300000000000000000e+01,3.100000000000000000e+01,5.200000000000000000e+01,5.799999999999999600e-01,2.864364600000000000e+09
7.900000000000000000e+01,1.800000000000000000e+02,3.970000000000000000e+02,9.100000000000000000e+01,4.100000000000000000e+01,3.100000000000000000e+01,2.900000000000000000e+01,5.100000000000000000e+01,5.799999999999999600e-01,2.881600400000000000e+09
8.300000000000000000e+01,2.050000000000000000e+02,3.810000000000000000e+02,1.110000000000000000e+02,4.800000000000000000e+01,3.900000000000000000e+01,3.100000000000000000e+01,5.100000000000000000e+01,5.899999999999999689e-01,2.898755100000000000e+09
1.040000000000000000e+02,2.430000000000000000e+02,5.190000000000000000e+02,1.320000000000000000e+02,5.900000000000000000e+01,4.600000000000000000e+01,3.300000000000000000e+01,6.000000000000000000e+01,5.899999999999999689e-01,2.916550800000000000e+09
9.400000000000000000e+01,2.400000000000000000e+02,5.200000000000000000e+02,1.310000000000000000e+02,6.100000000000000000e+01,4.700000000000000000e+01,3.600000000000000000e+01,6.200000000000000000e+01,5.899999999999999689e-01,2.933938700000000000e+09
1.030000000000000000e+02,2.450000000000000000e+02,5.080000000000000000e+02,1.220000000000000000e+02,5.500000000000000000e+01,4.400000000000000000e+01,3.300000000000000000e+01,6.300000000000000000e+01,5.899999999999999689e-01,2.952055700000000000e+09
1.060000000000000000e+02,2.240000000000000000e+02,4.900000000000000000e+02,1.200000000000000000e+02,5.600000000000000000e+01,4.600000000000000000e+01,3.400000000000000000e+01,6.300000000000000000e+01,5.899999999999999689e-01,2.969626700000000000e+09
1.020000000000000000e+02,2.170000000000000000e+02,5.140000000000000000e+02,1.100000000000000000e+02,5.200000000000000000e+01,4.000000000000000000e+01,3.000000000000000000e+01,6.500000000000000000e+01,5.899999999999999689e-01,2.986719900000000000e+09
9.300000000000000000e+01,2.240000000000000000e+02,4.340000000000000000e+02,1.100000000000000000e+02,7.200000000000000000e+01,4.600000000000000000e+01,3.100000000000000000e+01,5.700000000000000000e+01,5.999999999999999778e-01,3.004024300000000000e+09
9.500000000000000000e+01,2.250000000000000000e+02,4.330000000000000000e+02,1.230000000000000000e+02,9.000000000000000000e+01,5.100000000000000000e+01,3.300000000000000000e+01,6.500000000000000000e+01,5.999999999999999778e-01,3.021818200000000000e+09
8.400000000000000000e+01,2.210000000000000000e+02,4.360000000000000000e+02,1.220000000000000000e+02,9.100000000000000000e+01,5.200000000000000000e+01,3.400000000000000000e+01,6.500000000000000000e+01,5.999999999999999778e-01,3.041865800000000000e+09
8.500000000000000000e+01,2.330000000000000000e+02,4.220000000000000000e+02,1.220000000000000000e+02,9.100000000000000000e+01,4.900000000000000000e+01,3.400000000000000000e+01,1.610000000000000000e+02,5.899999999999999689e-01,3.059767200000000000e+09
8.500000000000000000e+01,2.240000000000000000e+02,4.160000000000000000e+02,1.230000000000000000e+02,8.800000000000000000e+01,4.900000000000000000e+01,3.500000000000000000e+01,1.930000000000000000e+02,5.799999999999999600e-01,3.078706400000000000e+09
7.000000000000000000e+01,1.950000000000000000e+02,3.280000000000000000e+02,1.170000000000000000e+02,6.300000000000000000e+01,3.500000000000000000e+01,3.700000000000000000e+01,1.960000000000000000e+02,5.799999999999999600e-01,3.096699600000000000e+09
7.900000000000000000e+01,2.290000000000000000e+02,3.360000000000000000e+02,1.040000000000000000e+02,4.200000000000000000e+01,3.900000000000000000e+01,3.500000000000000000e+01,1.990000000000000000e+02,5.699999999999999512e-01,3.113868200000000000e+09
7.700000000000000000e+01,2.240000000000000000e+02,3.440000000000000000e+02,1.060000000000000000e+02,4.600000000000000000e+01,4.000000000000000000e+01,3.400000000000000000e+01,1.990000000000000000e+02,5.699999999999999512e-01,3.131209300000000000e+09
7.900000000000000000e+01,2.350000000000000000e+02,3.420000000000000000e+02,1.080000000000000000e+02,4.900000000000000000e+01,4.100000000000000000e+01,3.400000000000000000e+01,1.400000000000000000e+02,5.699999999999999512e-01,3.150295800000000000e+09
8.200000000000000000e+01,2.600000000000000000e+02,3.020000000000000000e+02,1.010000000000000000e+02,5.400000000000000000e+01,4.400000000000000000e+01,3.800000000000000000e+01,1.640000000000000000e+02,5.600000000000000533e-01,3.168255400000000000e+09
8.300000000000000000e+01,2.530000000000000000e+02,3.800000000000000000e+02,9.000000000000000000e+01,5.600000000000000000e+01,4.600000000000000000e+01,3.500000000000000000e+01,1.700000000000000000e+02,5.600000000000000533e-01,3.185703200000000000e+09
7.300000000000000000e+01,2.290000000000000000e+02,4.040000000000000000e+02,8.600000000000000000e+01,5.400000000000000000e+01,4.100000000000000000e+01,3.200000000000000000e+01,1.650000000000000000e+02,5.600000000000000533e-01,3.205384800000000000e+09
8.400000000000000000e+01,2.460000000000000000e+02,4.310000000000000000e+02,9.800000000000000000e+01,6.700000000000000000e+01,4.100000000000000000e+01,3.400000000000000000e+01,1.730000000000000000e+02,5.500000000000000444e-01,3.223733100000000000e+09
7.200000000000000000e+01,2.300000000000000000e+02,4.200000000000000000e+02,9.300000000000000000e+01,6.700000000000000000e+01,4.100000000000000000e+01,3.500000000000000000e+01,1.770000000000000000e+02,5.500000000000000444e-01,3.241404900000000000e+09
7.300000000000000000e+01,2.510000000000000000e+02,3.970000000000000000e+02,1.000000000000000000e+02,6.900000000000000000e+01,5.000000000000000000e+01,4.400000000000000000e+01,1.430000000000000000e+02,5.500000000000000444e-01,3.258789300000000000e+09
7.400000000000000000e+01,2.450000000000000000e+02,3.180000000000000000e+02,9.100000000000000000e+01,6.900000000000000000e+01,5.300000000000000000e+01,5.000000000000000000e+01,1.500000000000000000e+02,5.500000000000000444e-01,3.276948200000000000e+09
7.900000000000000000e+01,2.420000000000000000e+02,2.720000000000000000e+02,9.100000000000000000e+01,6.800000000000000000e+01,5.200000000000000000e+01,5.100000000000000000e+01,1.510000000000000000e+02,5.500000000000000444e-01,3.293888900000000000e+09
8.200000000000000000e+01,2.620000000000000000e+02,2.450000000000000000e+02,7.800000000000000000e+01,5.700000000000000000e+01,5.300000000000000000e+01,5.300000000000000000e+01,1.440000000000000000e+02,5.500000000000000444e-01,3.311405000000000000e+09
8.800000000000000000e+01,2.560000000000000000e+02,3.020000000000000000e+02,8.100000000000000000e+01,5.700000000000000000e+01,5.400000000000000000e+01,5.300000000000000000e+01,1.460000000000000000e+02,5.500000000000000444e-01,3.329098900000000000e+09
8.800000000000000000e+01,2.000000000000000000e+02,3.070000000000000000e+02,6.600000000000000000e+01,5.200000000000000000e+01,4.500000000000000000e+01,4.800000000000000000e+01,1.820000000000000000e+02,5.400000000000000355e-01,3.346387100000000000e+09
9.900000000000000000e+01,2.010000000000000000e+02,3.750000000000000000e+02,7.200000000000000000e+01,5.000000000000000000e+01,3.800000000000000000e+01,4.000000000000000000e+01,1.950000000000000000e+02,5.400000000000000355e-01,3.364816500000000000e+09
9.900000000000000000e+01,2.090000000000000000e+02,4.060000000000000000e+02,8.100000000000000000e+01,4.800000000000000000e+01,5.200000000000000000e+01,1.400000000000000000e+02,2.010000000000000000e+02,5.300000000000000266e-01,3.384076700000000000e+09
9.600000000000000000e+01,1.800000000000000000e+02,4.030000000000000000e+02,8.200000000000000000e+01,5.000000000000000000e+01,1.450000000000000000e+02,3.650000000000000000e+02,2.050000000000000000e+02,5.300000000000000266e-01,3.401866900000000000e+09
9.300000000000000000e+01,1.870000000000000000e+02,3.870000000000000000e+02,8.500000000000000000e+01,4.600000000000000000e+01,1.790000000000000000e+02,4.380000000000000000e+02,2.030000000000000000e+02,5.200000000000000178e-01,3.419166400000000000e+09
9.100000000000000000e+01,2.120000000000000000e+02,3.830000000000000000e+02,9.300000000000000000e+01,4.800000000000000000e+01,1.830000000000000000e+02,4.430000000000000000e+02,1.520000000000000000e+02,5.200000000000000178e-01,3.436142700000000000e+09
7.800000000000000000e+01,2.100000000000000000e+02,3.590000000000000000e+02,8.200000000000000000e+01,4.800000000000000000e+01,1.850000000000000000e+02,4.470000000000000000e+02,1.310000000000000000e+02,5.200000000000000178e-01,3.453442100000000000e+09
8.500000000000000000e+01,2.400000000000000000e+02,3.410000000000000000e+02,7.200000000000000000e+01,5.100000000000000000e+01,1.850000000000000000e+02,4.330000000000000000e+02,1.760000000000000000e+02,5.200000000000000178e-01,3.470310700000000000e+09
8.000000000000000000e+01,2.490000000000000000e+02,3.610000000000000000e+02,7.200000000000000000e+01,4.300000000000000000e+01,1.270000000000000000e+02,2.840000000000000000e+02,1.750000000000000000e+02,5.200000000000000178e-01,3.488726000000000000e+09
1.030000000000000000e+02,2.840000000000000000e+02,3.790000000000000000e+02,6.900000000000000000e+01,4.500000000000000000e+01,7.600000000000000000e+01,1.600000000000000000e+02,1.770000000000000000e+02,5.200000000000000178e-01,3.507732000000000000e+09
1.180000000000000000e+02,2.960000000000000000e+02,4.360000000000000000e+02,7.500000000000000000e+01,4.500000000000000000e+01,6.800000000000000000e+01,1.430000000000000000e+02,1.750000000000000000e+02,5.200000000000000178e-01,3.527590200000000000e+09
1.230000000000000000e+02,3.050000000000000000e+02,4.270000000000000000e+02,8.300000000000000000e+01,4.900000000000000000e+01,6.500000000000000000e+01,1.300000000000000000e+02,1.640000000000000000e+02,5.200000000000000178e-01,3.545261100000000000e+09
1.190000000000000000e+02,2.690000000000000000e+02,4.230000000000000000e+02,8.500000000000000000e+01,4.400000000000000000e+01,5.900000000000000000e+01,1.270000000000000000e+02,1.050000000000000000e+02,5.300000000000000266e-01,3.563137700000000000e+09
1.170000000000000000e+02,2.890000000000000000e+02,3.940000000000000000e+02,8.800000000000000000e+01,4.900000000000000000e+01,6.200000000000000000e+01,1.330000000000000000e+02,9.600000000000000000e+01,5.300000000000000266e-01,3.580509800000000000e+09
1.010000000000000000e+02,2.660000000000000000e+02,3.710000000000000000e+02,8.700000000000000000e+01,5.100000000000000000e+01,6.200000000000000000e+01,1.280000000000000000e+02,1.780000000000000000e+02,5.400000000000000355e-01,3.597668800000000000e+09
1.050000000000000000e+02,2.600000000000000000e+02,3.130000000000000000e+02,7.500000000000000000e+01,4.900000000000000000e+01,6.000000000000000000e+01,1.290000000000000000e+02,1.820000000000000000e+02,5.400000000000000355e-01,3.614783100000000000e+09
1.050000000000000000e+02,2.810000000000000000e+02,3.170000000000000000e+02,7.800000000000000000e+01,5.100000000000000000e+01,5.900000000000000000e+01,1.300000000000000000e+02,1.870000000000000000e+02,5.400000000000000355e-01,3.633418900000000000e+09
1.010000000000000000e+02,2.890000000000000000e+02,3.150000000000000000e+02,7.900000000000000000e+01,5.500000000000000000e+01,5.500000000000000000e+01,1.140000000000000000e+02,1.880000000000000000e+02,5.400000000000000355e-01,3.652292300000000000e+09
1.030000000000000000e+02,2.540000000000000000e+02,3.140000000000000000e+02,7.700000000000000000e+01,5.300000000000000000e+01,4.400000000000000000e+01,6.500000000000000000e+01,1.870000000000000000e+02,5.400000000000000355e-01,3.670685500000000000e+09
1.050000000000000000e+02,3.320000000000000000e+02,3.860000000000000000e+02,7.500000000000000000e+01,5.500000000000000000e+01,3.900000000000000000e+01,5.000000000000000000e+01,1.050000000000000000e+02,5.400000000000000355e-01,3.688433900000000000e+09
9.300000000000000000e+01,3.390000000000000000e+02,3.810000000000000000e+02,9.100000000000000000e+01,5.900000000000000000e+01,3.800000000000000000e+01,4.300000000000000000e+01,1.010000000000000000e+02,5.500000000000000444e-01,3.706264000000000000e+09
9.400000000000000000e+01,3.380000000000000000e+02,3.650000000000000000e+02,1.000000000000000000e+02,6.600000000000000000e+01,4.100000000000000000e+01,4.000000000000000000e+01,1.070000000000000000e+02,5.500000000000000444e-01,3.723494400000000000e+09
9.800000000000000000e+01,3.460000000000000000e+02,3.560000000000000000e+02,1.100000000000000000e+02,9.000000000000000000e+01,4.500000000000000000e+01,4.000000000000000000e+01,1.160000000000000000e+02,5.500000000000000444e-01,3.741809900000000000e+09
9.700000000000000000e+01,3.560000000000000000e+02,3.560000000000000000e+02,1.180000000000000000e+02,9.800000000000000000e+01,5.000000000000000000e+01,4.000000000000000000e+01,1.180000000000000000e+02,5.500000000000000444e-01,3.759781900000000000e+09
1.290000000000000000e+02,2.880000000000000000e+02,3.490000000000000000e+02,1.210000000000000000e+02,9.800000000000000000e+01,4.900000000000000000e+01,3.700000000000000000e+01,1.090000000000000000e+02,5.500000000000000444e-01,3.777268900000000000e+09
1.230000000000000000e+02,2.630000000000000000e+02,3.310000000000000000e+02,1.080000000000000000e+02,9.400000000000000000e+01,4.900000000000000000e+01,3.700000000000000000e+01,1.000000000000000000e+02,5.400000000000000355e-01,3.794938600000000000e+09
1.170000000000000000e+02,2.470000000000000000e+02,3.540000000000000000e+02,9.400000000000000000e+01,9.300000000000000000e+01,4.700000000000000000e+01,3.300000000000000000e+01,7.900000000000000000e+01,5.400000000000000355e-01,3.811723100000000000e+09
1.160000000000000000e+02,2.360000000000000000e+02,3.630000000000000000e+02,8.500000000000000000e+01,6.800000000000000000e+01,4.200000000000000000e+01,2.900000000000000000e+01,6.000000000000000000e+01,5.400000000000000355e-01,3.829793000000000000e+09
1.160000000000000000e+02,2.240000000000000000e+02,3.630000000000000000e+02,7.400000000000000000e+01,5.200000000000000000e+01,3.700000000000000000e+01,2.800000000000000000e+01,6.500000000000000000e+01,5.500000000000000444e-01,3.847802200000000000e+09
7.900000000000000000e+01,2.150000000000000000e+02,2.740000000000000000e+02,6.800000000000000000e+01,4.700000000000000000e+01,3.600000000000000000e+01,2.900000000000000000e+01,6.300000000000000000e+01,5.500000000000000444e-01,3.865899100000000000e+09
1.030000000000000000e+02,2.100000000000000000e+02,2.770000000000000000e+02,8.600000000000000000e+01,5.500000000000000000e+01,4.100000000000000000e+01,3.400000000000000000e+01,6.700000000000000000e+01,5.500000000000000444e-01,3.883944000000000000e+09
1.070000000000000000e+02,1.880000000000000000e+02,2.250000000000000000e+02,8.300000000000000000e+01,4.600000000000000000e+01,3.800000000000000000e+01,3.300000000000000000e+01,6.600000000000000000e+01,5.500000000000000444e-01,3.900564200000000000e+09
1.170000000000000000e+02,1.770000000000000000e+02,2.280000000000000000e+02,8.400000000000000000e+01,4.900000000000000000e+01,4.000000000000000000e+01,3.300000000000000000e+01,6.100000000000000000e+01,5.500000000000000444e-01,3.917914500000000000e+09
1.210000000000000000e+02,1.880000000000000000e+02,2.540000000000000000e+02,8.200000000000000000e+01,5.000000000000000000e+01,4.200000000000000000e+01,3.400000000000000000e+01,6.000000000000000000e+01,5.500000000000000444e-01,3.935354200000000000e+09
1.200000000000000000e+02,1.710000000000000000e+02,2.440000000000000000e+02,8.700000000000000000e+01,5.500000000000000000e+01,4.100000000000000000e+01,3.400000000000000000e+01,8.900000000000000000e+01,5.500000000000000444e-01,3.953354000000000000e+09
1.050000000000000000e+02,1.670000000000000000e+02,2.900000000000000000e+02,7.400000000000000000e+01,7.000000000000000000e+01,3.600000000000000000e+01,2.900000000000000000e+01,9.000000000000000000e+01,5.400000000000000355e-01,3.970442200000000000e+09
9.900000000000000000e+01,1.850000000000000000e+02,3.460000000000000000e+02,8.400000000000000000e+01,7.600000000000000000e+01,3.800000000000000000e+01,2.900000000000000000e+01,9.100000000000000000e+01,5.400000000000000355e-01,3.987572400000000000e+09
9.400000000000000000e+01,2.150000000000000000e+02,3.970000000000000000e+02,1.050000000000000000e+02,8.600000000000000000e+01,4.300000000000000000e+01,3.300000000000000000e+01,9.600000000000000000e+01,5.400000000000000355e-01,4.005804700000000000e+09
8.900000000000000000e+01,2.070000000000000000e+02,4.070000000000000000e+02,1.100000000000000000e+02,8.800000000000000000e+01,4.300000000000000000e+01,3.300000000000000000e+01,8.600000000000000000e+01,5.400000000000000355e-01,4.022822600000000000e+09
9.400000000000000000e+01,2.070000000000000000e+02,4.380000000000000000e+02,1.070000000000000000e+02,8.800000000000000000e+01,4.200000000000000000e+01,3.100000000000000000e+01,6.100000000000000000e+01,5.400000000000000355e-01,4.040117200000000000e+09
1.230000000000000000e+02,2.900000000000000000e+02,6.710000000000000000e+02,1.540000000000000000e+02,9.300000000000000000e+01,6.000000000000000000e+01,4.800000000000000000e+01,6.800000000000000000e+01,5.300000000000000266e-01,4.056823900000000000e+09
1.340000000000000000e+02,3.770000000000000000e+02,7.650000000000000000e+02,2.080000000000000000e+02,1.070000000000000000e+02,6.600000000000000000e+01,5.500000000000000000e+01,7.600000000000000000e+01,5.200000000000000178e-01,4.074454100000000000e+09
1.310000000000000000e+02,3.850000000000000000e+02,8.200000000000000000e+02,2.030000000000000000e+02,1.000000000000000000e+02,6.300000000000000000e+01,5.300000000000000000e+01,7.100000000000000000e+01,5.100000000000000089e-01,4.092150900000000000e+09
1.500000000000000000e+02,4.610000000000000000e+02,8.800000000000000000e+02,2.210000000000000000e+02,1.030000000000000000e+02,6.600000000000000000e+01,5.600000000000000000e+01,7.600000000000000000e+01,5.000000000000000000e-01,4.109093200000000000e+09
2.050000000000000000e+02,5.700000000000000000e+02,9.380000000000000000e+02,2.380000000000000000e+02,1.210000000000000000e+02,8.000000000000000000e+01,7.500000000000000000e+01,9.700000000000000000e+01,4.799999999999999822e-01,4.127774500000000000e+09
2.200000000000000000e+02,6.170000000000000000e+02,8.760000000000000000e+02,2.780000000000000000e+02,1.390000000000000000e+02,8.900000000000000000e+01,8.000000000000000000e+01,1.210000000000000000e+02,4.699999999999999734e-01,4.146003400000000000e+09
2.470000000000000000e+02,7.270000000000000000e+02,8.680000000000000000e+02,3.050000000000000000e+02,1.610000000000000000e+02,1.000000000000000000e+02,9.000000000000000000e+01,1.350000000000000000e+02,4.400000000000000022e-01,4.165141500000000000e+09
2.510000000000000000e+02,7.500000000000000000e+02,9.710000000000000000e+02,3.450000000000000000e+02,1.720000000000000000e+02,1.010000000000000000e+02,9.200000000000000000e+01,1.370000000000000000e+02,4.199999999999999845e-01,4.183944200000000000e+09
2.740000000000000000e+02,7.740000000000000000e+02,1.067000000000000000e+03,3.900000000000000000e+02,1.790000000000000000e+02,1.060000000000000000e+02,9.500000000000000000e+01,1.430000000000000000e+02,4.000000000000000222e-01,4.204062700000000000e+09
2.880000000000000000e+02,8.030000000000000000e+02,1.047000000000000000e+03,4.110000000000000000e+02,1.890000000000000000e+02,1.190000000000000000e+02,1.060000000000000000e+02,1.570000000000000000e+02,3.699999999999999956e-01,4.220972400000000000e+09
2.900000000000000000e+02,7.740000000000000000e+02,1.092000000000000000e+03,3.910000000000000000e+02,1.930000000000000000e+02,1.250000000000000000e+02,1.080000000000000000e+02,1.480000000000000000e+02,3.499999999999999778e-01,4.238626700000000000e+09
2.820000000000000000e+02,7.120000000000000000e+02,1.156000000000000000e+03,3.900000000000000000e+02,2.060000000000000000e+02,1.240000000000000000e+02,1.030000000000000000e+02,1.370000000000000000e+02,3.200000000000000067e-01,4.256139000000000000e+09
2.920000000000000000e+02,7.260000000000000000e+02,1.081000000000000000e+03,3.910000000000000000e+02,2.150000000000000000e+02,1.320000000000000000e+02,1.080000000000000000e+02,1.460000000000000000e+02,2.999999999999999889e-01,4.273032400000000000e+09
3.170000000000000000e+02,7.750000000000000000e+02,1.122000000000000000e+03,4.830000000000000000e+02,2.710000000000000000e+02,1.660000000000000000e+02,1.320000000000000000e+02,1.720000000000000000e+02,2.800000000000000266e-01,4.290644700000000000e+09
3.360000000000000000e+02,8.630000000000000000e+02,1.119000000000000000e+03,5.250000000000000000e+02,2.870000000000000000e+02,1.700000000000000000e+02,1.320000000000000000e+02,1.720000000000000000e+02,2.500000000000000000e-01,4.307712900000000000e+09
3.350000000000000000e+02,9.170000000000000000e+02,1.070000000000000000e+03,5.500000000000000000e+02,2.940000000000000000e+02,1.700000000000000000e+02,1.330000000000000000e+02,1.710000000000000000e+02,2.300000000000000100e-01,4.325967100000000000e+09
3.750000000000000000e+02,1.011000000000000000e+03,9.980000000000000000e+02,5.910000000000000000e+02,3.170000000000000000e+02,1.900000000000000000e+02,1.460000000000000000e+02,1.990000000000000000e+02,2.099999999999999922e-01,4.343577900000000000e+09
3.840000000000000000e+02,1.065000000000000000e+03,1.008000000000000000e+03,5.740000000000000000e+02,3.100000000000000000e+02,1.890000000000000000e+02,1.450000000000000000e+02,1.960000000000000000e+02,1.900000000000000022e-01,4.362636400000000000e+09
3.620000000000000000e+02,1.047000000000000000e+03,9.160000000000000000e+02,4.850000000000000000e+02,2.660000000000000000e+02,1.630000000000000000e+02,1.270000000000000000e+02,1.780000000000000000e+02,1.799999999999999933e-01,4.380625600000000000e+09
3.280000000000000000e+02,1.060000000000000000e+03,9.870000000000000000e+02,4.630000000000000000e+02,2.450000000000000000e+02,1.470000000000000000e+02,1.130000000000000000e+02,1.660000000000000000e+02,1.700000000000000122e-01,4.398075200000000000e+09
3.170000000000000000e+02,1.023000000000000000e+03,9.890000000000000000e+02,4.390000000000000000e+02,2.240000000000000000e+02,1.360000000000000000e+02,1.050000000000000000e+02,1.610000000000000000e+02,1.600000000000000033e-01,4.416159400000000000e+09
2.760000000000000000e+02,9.220000000000000000e+02,9.770000000000000000e+02,3.430000000000000000e+02,1.490000000000000000e+02,1.010000000000000000e+02,8.500000000000000000e+01,1.340000000000000000e+02,1.499999999999999944e-01,4.433978900000000000e+09
3.410000000000000000e+02,9.290000000000000000e+02,1.007000000000000000e+03,3.710000000000000000e+02,1.720000000000000000e+02,1.170000000000000000e+02,1.100000000000000000e+02,1.780000000000000000e+02,1.499999999999999944e-01,4.452363400000000000e+09
3.470000000000000000e+02,9.280000000000000000e+02,9.360000000000000000e+02,3.860000000000000000e+02,1.910000000000000000e+02,1.250000000000000000e+02,1.130000000000000000e+02,1.820000000000000000e+02,1.400000000000000133e-01,4.471754800000000000e+09
3.520000000000000000e+02,8.070000000000000000e+02,8.620000000000000000e+02,3.610000000000000000e+02,1.990000000000000000e+02,1.340000000000000000e+02,1.210000000000000000e+02,1.950000000000000000e+02,1.300000000000000044e-01,4.490264100000000000e+09
3.940000000000000000e+02,8.360000000000000000e+02,8.540000000000000000e+02,3.830000000000000000e+02,2.370000000000000000e+02,1.550000000000000000e+02,1.380000000000000000e+02,2.190000000000000000e+02,1.300000000000000044e-01,4.509201200000000000e+09
3.940000000000000000e+02,8.690000000000000000e+02,8.640000000000000000e+02,4.410000000000000000e+02,2.630000000000000000e+02,1.660000000000000000e+02,1.430000000000000000e+02,2.230000000000000000e+02,1.199999999999999956e-01,4.527816800000000000e+09
3.780000000000000000e+02,8.870000000000000000e+02,9.220000000000000000e+02,4.650000000000000000e+02,2.880000000000000000e+02,1.770000000000000000e+02,1.440000000000000000e+02,2.140000000000000000e+02,1.199999999999999956e-01,4.546116500000000000e+09
3.680000000000000000e+02,8.640000000000000000e+02,9.030000000000000000e+02,4.270000000000000000e+02,2.720000000000000000e+02,1.670000000000000000e+02,1.400000000000000000e+02,2.070000000000000000e+02,1.100000000000000006e-01,4.564208900000000000e+09
3.550000000000000000e+02,8.480000000000000000e+02,9.090000000000000000e+02,4.080000000000000000e+02,2.650000000000000000e+02,1.640000000000000000e+02,1.350000000000000000e+02,1.950000000000000000e+02,1.100000000000000006e-01,4.582751000000000000e+09
2.960000000000000000e+02,8.040000000000000000e+02,8.820000000000000000e+02,3.650000000000000000e+02,2.320000000000000000e+02,1.440000000000000000e+02,1.190000000000000000e+02,1.660000000000000000e+02,1.100000000000000006e-01,4.600984800000000000e+09
2.790000000000000000e+02,7.700000000000000000e+02,8.440000000000000000e+02,2.940000000000000000e+02,2.050000000000000000e+02,1.300000000000000000e+02,1.070000000000000000e+02,1.520000000000000000e+02,1.000000000000000056e-01,4.619665800000000000e+09
2.260000000000000000e+02,7.190000000000000000e+02,7.040000000000000000e+02,2.280000000000000000e+02,1.400000000000000000e+02,9.200000000000000000e+01,8.100000000000000000e+01,1.230000000000000000e+02,1.100000000000000006e-01,4.637696900000000000e+09
2.020000000000000000e+02,6.850000000000000000e+02,7.700000000000000000e+02,2.460000000000000000e+02,1.360000000000000000e+02,8.700000000000000000e+01,7.300000000000000000e+01,1.120000000000000000e+02,1.100000000000000006e-01,4.656342600000000000e+09
1.890000000000000000e+02,6.590000000000000000e+02,7.840000000000000000e+02,2.410000000000000000e+02,1.340000000000000000e+02,7.800000000000000000e+01,6.700000000000000000e+01,1.090000000000000000e+02,1.100000000000000006e-01,4.677247900000000000e+09
2.160000000000000000e+02,6.750000000000000000e+02,8.050000000000000000e+02,2.610000000000000000e+02,1.450000000000000000e+02,8.300000000000000000e+01,6.900000000000000000e+01,1.110000000000000000e+02,1.199999999999999956e-01,4.696231000000000000e+09
2.310000000000000000e+02,6.820000000000000000e+02,8.460000000000000000e+02,2.480000000000000000e+02,1.480000000000000000e+02,9.100000000000000000e+01,7.600000000000000000e+01,1.210000000000000000e+02,1.199999999999999956e-01,4.715547000000000000e+09
2.020000000000000000e+02,6.430000000000000000e+02,8.270000000000000000e+02,2.460000000000000000e+02,1.590000000000000000e+02,9.300000000000000000e+01,7.300000000000000000e+01,1.080000000000000000e+02,1.199999999999999956e-01,4.735633900000000000e+09
2.010000000000000000e+02,6.130000000000000000e+02,7.750000000000000000e+02,2.230000000000000000e+02,1.550000000000000000e+02,9.400000000000000000e+01,7.400000000000000000e+01,1.080000000000000000e+02,1.300000000000000044e-01,4.754516400000000000e+09
2.060000000000000000e+02,6.160000000000000000e+02,7.640000000000000000e+02,2.110000000000000000e+02,1.560000000000000000e+02,1.020000000000000000e+02,8.000000000000000000e+01,1.160000000000000000e+02,1.400000000000000133e-01,4.774089500000000000e+09
2.890000000000000000e+02,6.960000000000000000e+02,8.270000000000000000e+02,2.390000000000000000e+02,1.780000000000000000e+02,1.180000000000000000e+02,9.500000000000000000e+01,1.350000000000000000e+02,1.499999999999999944e-01,4.794251700000000000e+09
2.810000000000000000e+02,6.710000000000000000e+02,8.630000000000000000e+02,2.430000000000000000e+02,1.780000000000000000e+02,1.120000000000000000e+02,9.000000000000000000e+01,1.260000000000000000e+02,1.499999999999999944e-01,4.816483000000000000e+09
3.090000000000000000e+02,6.930000000000000000e+02,8.940000000000000000e+02,2.210000000000000000e+02,1.750000000000000000e+02,1.140000000000000000e+02,9.300000000000000000e+01,1.340000000000000000e+02,1.600000000000000033e-01,4.835436500000000000e+09
3.110000000000000000e+02,7.080000000000000000e+02,8.660000000000000000e+02,2.420000000000000000e+02,1.820000000000000000e+02,1.170000000000000000e+02,9.500000000000000000e+01,1.350000000000000000e+02,1.700000000000000122e-01,4.856023400000000000e+09
3.130000000000000000e+02,7.400000000000000000e+02,9.040000000000000000e+02,2.630000000000000000e+02,1.820000000000000000e+02,1.150000000000000000e+02,9.200000000000000000e+01,1.260000000000000000e+02,1.600000000000000033e-01,4.875809600000000000e+09
2.950000000000000000e+02,7.600000000000000000e+02,8.920000000000000000e+02,2.740000000000000000e+02,1.730000000000000000e+02,1.100000000000000000e+02,9.000000000000000000e+01,1.300000000000000000e+02,1.600000000000000033e-01,4.894871500000000000e+09
2.930000000000000000e+02,7.780000000000000000e+02,7.930000000000000000e+02,2.840000000000000000e+02,1.710000000000000000e+02,1.110000000000000000e+02,9.100000000000000000e+01,1.350000000000000000e+02,1.600000000000000033e-01,4.916441600000000000e+09
2.640000000000000000e+02,7.170000000000000000e+02,7.710000000000000000e+02,2.790000000000000000e+02,1.610000000000000000e+02,1.070000000000000000e+02,8.400000000000000000e+01,1.240000000000000000e+02,1.600000000000000033e-01,4.937130100000000000e+09
2.670000000000000000e+02,7.360000000000000000e+02,8.600000000000000000e+02,2.630000000000000000e+02,1.620000000000000000e+02,1.090000000000000000e+02,8.400000000000000000e+01,1.240000000000000000e+02,1.600000000000000033e-01,4.956756400000000000e+09
2.570000000000000000e+02,7.100000000000000000e+02,8.260000000000000000e+02,2.500000000000000000e+02,1.480000000000000000e+02,1.020000000000000000e+02,7.700000000000000000e+01,1.170000000000000000e+02,1.600000000000000033e-01,4.975438600000000000e+09
1.900000000000000000e+02,5.600000000000000000e+02,7.630000000000000000e+02,1.840000000000000000e+02,1.180000000000000000e+02,8.400000000000000000e+01,5.600000000000000000e+01,9.300000000000000000e+01,1.700000000000000122e-01,4.994157200000000000e+09
1.770000000000000000e+02,4.630000000000000000e+02,7.660000000000000000e+02,1.590000000000000000e+02,1.090000000000000000e+02,8.000000000000000000e+01,5.200000000000000000e+01,8.300000000000000000e+01,1.799999999999999933e-01,5.016107300000000000e+09
1.810000000000000000e+02,4.740000000000000000e+02,7.100000000000000000e+02,1.730000000000000000e+02,1.200000000000000000e+02,8.900000000000000000e+01,5.900000000000000000e+01,8.600000000000000000e+01,1.900000000000000022e-01,5.034677100000000000e+09
1.720000000000000000e+02,4.270000000000000000e+02,5.890000000000000000e+02,1.570000000000000000e+02,1.070000000000000000e+02,8.000000000000000000e+01,5.400000000000000000e+01,8.300000000000000000e+01,2.000000000000000111e-01,5.053945100000000000e+09
1.640000000000000000e+02,4.460000000000000000e+02,5.080000000000000000e+02,1.630000000000000000e+02,1.070000000000000000e+02,7.900000000000000000e+01,5.600000000000000000e+01,8.500000000000000000e+01,2.200000000000000011e-01,5.072577600000000000e+09
1.250000000000000000e+02,4.470000000000000000e+02,3.910000000000000000e+02,1.640000000000000000e+02,9.100000000000000000e+01,6.900000000000000000e+01,4.900000000000000000e+01,6.800000000000000000e+01,2.399999999999999911e-01,5.095300900000000000e+09
1.480000000000000000e+02,4.860000000000000000e+02,3.290000000000000000e+02,1.600000000000000000e+02,9.000000000000000000e+01,7.100000000000000000e+01,5.000000000000000000e+01,6.400000000000000000e+01,2.600000000000000089e-01,5.113751600000000000e+09
1.390000000000000000e+02,4.610000000000000000e+02,2.990000000000000000e+02,1.380000000000000000e+02,7.300000000000000000e+01,5.900000000000000000e+01,4.200000000000000000e+01,5.800000000000000000e+01,2.800000000000000266e-01,5.132826200000000000e+09
1.430000000000000000e+02,4.630000000000000000e+02,3.650000000000000000e+02,1.590000000000000000e+02,7.700000000000000000e+01,6.300000000000000000e+01,4.500000000000000000e+01,6.500000000000000000e+01,3.099999999999999978e-01,5.152470500000000000e+09
1.410000000000000000e+02,3.890000000000000000e+02,3.490000000000000000e+02,1.320000000000000000e+02,6.800000000000000000e+01,5.900000000000000000e+01,4.100000000000000000e+01,5.900000000000000000e+01,3.300000000000000155e-01,5.174390900000000000e+09
1.430000000000000000e+02,3.630000000000000000e+02,3.400000000000000000e+02,1.150000000000000000e+02,7.900000000000000000e+01,5.600000000000000000e+01,4.100000000000000000e+01,5.700000000000000000e+01,3.599999999999999867e-01,5.196915800000000000e+09
1.120000000000000000e+02,2.900000000000000000e+02,3.460000000000000000e+02,1.270000000000000000e+02,7.300000000000000000e+01,4.700000000000000000e+01,3.500000000000000000e+01,5.200000000000000000e+01,3.800000000000000044e-01,5.216451200000000000e+09
1.530000000000000000e+02,4.710000000000000000e+02,3.660000000000000000e+02,2.080000000000000000e+02,7.200000000000000000e+01,4.700000000000000000e+01,3.600000000000000000e+01,5.900000000000000000e+01,4.000000000000000222e-01,5.235634500000000000e+09
1.480000000000000000e+02,4.850000000000000000e+02,2.920000000000000000e+02,2.060000000000000000e+02,6.500000000000000000e+01,4.500000000000000000e+01,3.700000000000000000e+01,5.500000000000000000e+01,4.199999999999999845e-01,5.254528900000000000e+09
1.440000000000000000e+02,4.780000000000000000e+02,2.540000000000000000e+02,2.100000000000000000e+02,6.800000000000000000e+01,4.600000000000000000e+01,3.700000000000000000e+01,5.400000000000000000e+01,4.400000000000000022e-01,5.279082700000000000e+09
1.420000000000000000e+02,4.920000000000000000e+02,2.600000000000000000e+02,2.150000000000000000e+02,7.000000000000000000e+01,5.400000000000000000e+01,3.600000000000000000e+01,5.400000000000000000e+01,4.500000000000000111e-01,5.297442300000000000e+09
1.400000000000000000e+02,4.990000000000000000e+02,3.190000000000000000e+02,2.060000000000000000e+02,7.500000000000000000e+01,5.500000000000000000e+01,3.700000000000000000e+01,5.500000000000000000e+01,4.600000000000000200e-01,5.318076900000000000e+09
1.060000000000000000e+02,4.290000000000000000e+02,3.300000000000000000e+02,1.400000000000000000e+02,7.500000000000000000e+01,5.200000000000000000e+01,3.200000000000000000e+01,5.000000000000000000e+01,4.699999999999999734e-01,5.337519000000000000e+09
1.000000000000000000e+02,4.040000000000000000e+02,3.520000000000000000e+02,1.470000000000000000e+02,8.400000000000000000e+01,5.200000000000000000e+01,2.900000000000000000e+01,4.800000000000000000e+01,4.799999999999999822e-01,5.357359400000000000e+09
1.020000000000000000e+02,3.910000000000000000e+02,3.990000000000000000e+02,1.690000000000000000e+02,8.300000000000000000e+01,4.800000000000000000e+01,2.600000000000000000e+01,4.500000000000000000e+01,4.899999999999999911e-01,5.375780000000000000e+09
1.030000000000000000e+02,3.790000000000000000e+02,4.050000000000000000e+02,1.680000000000000000e+02,7.900000000000000000e+01,5.000000000000000000e+01,2.900000000000000000e+01,4.300000000000000000e+01,5.000000000000000000e-01,5.395420400000000000e+09
9.900000000000000000e+01,3.720000000000000000e+02,3.630000000000000000e+02,1.730000000000000000e+02,7.800000000000000000e+01,5.300000000000000000e+01,3.000000000000000000e+01,4.100000000000000000e+01,5.100000000000000089e-01,5.414247800000000000e+09
9.700000000000000000e+01,3.500000000000000000e+02,5.130000000000000000e+02,1.810000000000000000e+02,8.700000000000000000e+01,6.400000000000000000e+01,4.000000000000000000e+01,3.900000000000000000e+01,5.100000000000000089e-01,5.433348700000000000e+09
1.240000000000000000e+02,3.490000000000000000e+02,5.440000000000000000e+02,1.710000000000000000e+02,8.100000000000000000e+01,6.300000000000000000e+01,3.900000000000000000e+01,3.900000000000000000e+01,5.200000000000000178e-01,5.453392500000000000e+09
1.240000000000000000e+02,3.710000000000000000e+02,5.390000000000000000e+02,1.490000000000000000e+02,8.500000000000000000e+01,6.700000000000000000e+01,4.100000000000000000e+01,4.500000000000000000e+01,5.200000000000000178e-01,5.473480100000000000e+09
1.310000000000000000e+02,3.950000000000000000e+02,5.340000000000000000e+02,1.410000000000000000e+02,7.600000000000000000e+01,5.900000000000000000e+01,3.900000000000000000e+01,4.600000000000000000e+01,5.300000000000000266e-01,5.495491400000000000e+09
1.330000000000000000e+02,3.930000000000000000e+02,5.360000000000000000e+02,1.370000000000000000e+02,7.400000000000000000e+01,5.900000000000000000e+01,4.000000000000000000e+01,4.600000000000000000e+01,5.300000000000000266e-01,5.514452300000000000e+09
1.210000000000000000e+02,3.350000000000000000e+02,3.770000000000000000e+02,1.220000000000000000e+02,6.400000000000000000e+01,5.000000000000000000e+01,3.500000000000000000e+01,4.800000000000000000e+01,5.300000000000000266e-01,5.533944000000000000e+09
1.040000000000000000e+02,3.420000000000000000e+02,3.260000000000000000e+02,1.050000000000000000e+02,6.000000000000000000e+01,4.900000000000000000e+01,3.700000000000000000e+01,4.800000000000000000e+01,5.400000000000000355e-01,5.552785500000000000e+09
1.000000000000000000e+02,3.150000000000000000e+02,2.770000000000000000e+02,1.060000000000000000e+02,5.600000000000000000e+01,4.300000000000000000e+01,3.500000000000000000e+01,4.400000000000000000e+01,5.400000000000000355e-01,5.573175400000000000e+09
8.300000000000000000e+01,2.760000000000000000e+02,2.600000000000000000e+02,1.180000000000000000e+02,6.200000000000000000e+01,4.400000000000000000e+01,3.700000000000000000e+01,4.400000000000000000e+01,5.500000000000000444e-01,5.595401900000000000e+09
8.600000000000000000e+01,2.800000000000000000e+02,2.780000000000000000e+02,1.240000000000000000e+02,6.900000000000000000e+01,4.600000000000000000e+01,3.600000000000000000e+01,4.700000000000000000e+01,5.500000000000000444e-01,5.614877500000000000e+09
8.600000000000000000e+01,2.630000000000000000e+02,3.590000000000000000e+02,1.190000000000000000e+02,9.400000000000000000e+01,5.800000000000000000e+01,3.900000000000000000e+01,4.600000000000000000e+01,5.500000000000000444e-01,5.634572800000000000e+09
7.000000000000000000e+01,2.210000000000000000e+02,3.980000000000000000e+02,1.330000000000000000e+02,9.600000000000000000e+01,6.000000000000000000e+01,3.800000000000000000e+01,4.200000000000000000e+01,5.600000000000000533e-01,5.654931100000000000e+09
7.500000000000000000e+01,2.510000000000000000e+02,5.290000000000000000e+02,1.640000000000000000e+02,1.100000000000000000e+02,7.000000000000000000e+01,4.400000000000000000e+01,4.500000000000000000e+01,5.500000000000000444e-01,5.675076600000000000e+09
9.400000000000000000e+01,3.540000000000000000e+02,7.130000000000000000e+02,2.070000000000000000e+02,1.160000000000000000e+02,8.300000000000000000e+01,5.000000000000000000e+01,5.500000000000000000e+01,5.500000000000000444e-01,5.695847200000000000e+09
1.330000000000000000e+02,4.730000000000000000e+02,7.640000000000000000e+02,2.090000000000000000e+02,1.170000000000000000e+02,1.120000000000000000e+02,5.300000000000000000e+01,5.900000000000000000e+01,5.400000000000000355e-01,5.714028500000000000e+09
1.360000000000000000e+02,4.780000000000000000e+02,8.010000000000000000e+02,2.420000000000000000e+02,1.030000000000000000e+02,1.400000000000000000e+02,5.900000000000000000e+01,6.100000000000000000e+01,5.300000000000000266e-01,5.733002200000000000e+09
1.510000000000000000e+02,4.900000000000000000e+02,8.830000000000000000e+02,2.510000000000000000e+02,1.070000000000000000e+02,1.430000000000000000e+02,6.500000000000000000e+01,7.600000000000000000e+01,5.100000000000000089e-01,5.752642000000000000e+09
1.530000000000000000e+02,5.200000000000000000e+02,9.040000000000000000e+02,2.550000000000000000e+02,9.200000000000000000e+01,1.420000000000000000e+02,6.200000000000000000e+01,7.800000000000000000e+01,4.899999999999999911e-01,5.775118700000000000e+09
1.760000000000000000e+02,4.980000000000000000e+02,8.350000000000000000e+02,2.420000000000000000e+02,8.900000000000000000e+01,1.390000000000000000e+02,5.800000000000000000e+01,8.400000000000000000e+01,4.799999999999999822e-01,5.797552600000000000e+09
1.540000000000000000e+02,4.100000000000000000e+02,8.430000000000000000e+02,2.730000000000000000e+02,9.800000000000000000e+01,1.280000000000000000e+02,6.000000000000000000e+01,8.500000000000000000e+01,4.600000000000000200e-01,5.816127200000000000e+09
1.490000000000000000e+02,3.780000000000000000e+02,8.020000000000000000e+02,2.530000000000000000e+02,1.000000000000000000e+02,1.250000000000000000e+02,4.900000000000000000e+01,8.300000000000000000e+01,4.400000000000000022e-01,5.835497400000000000e+09
1.510000000000000000e+02,4.970000000000000000e+02,7.540000000000000000e+02,2.930000000000000000e+02,1.160000000000000000e+02,1.330000000000000000e+02,4.700000000000000000e+01,8.400000000000000000e+01,4.199999999999999845e-01,5.853950300000000000e+09
2.460000000000000000e+02,5.320000000000000000e+02,6.970000000000000000e+02,2.870000000000000000e+02,1.280000000000000000e+02,1.380000000000000000e+02,5.300000000000000000e+01,9.600000000000000000e+01,4.000000000000000222e-01,5.875374000000000000e+09
2.300000000000000000e+02,5.110000000000000000e+02,6.970000000000000000e+02,2.790000000000000000e+02,1.400000000000000000e+02,1.960000000000000000e+02,6.600000000000000000e+01,9.000000000000000000e+01,3.800000000000000044e-01,5.895266000000000000e+09
2.280000000000000000e+02,5.010000000000000000e+02,6.280000000000000000e+02,2.500000000000000000e+02,1.470000000000000000e+02,2.320000000000000000e+02,6.300000000000000000e+01,9.000000000000000000e+01,3.699999999999999956e-01,5.914031400000000000e+09
2.340000000000000000e+02,5.270000000000000000e+02,7.470000000000000000e+02,2.590000000000000000e+02,1.520000000000000000e+02,2.260000000000000000e+02,6.800000000000000000e+01,9.000000000000000000e+01,3.499999999999999778e-01,5.933881800000000000e+09
2.490000000000000000e+02,4.630000000000000000e+02,7.650000000000000000e+02,2.430000000000000000e+02,1.510000000000000000e+02,2.280000000000000000e+02,6.900000000000000000e+01,9.000000000000000000e+01,3.400000000000000244e-01,5.954390900000000000e+09
1.780000000000000000e+02,4.140000000000000000e+02,7.530000000000000000e+02,2.350000000000000000e+02,1.520000000000000000e+02,2.740000000000000000e+02,6.700000000000000000e+01,7.800000000000000000e+01,3.400000000000000244e-01,5.974255900000000000e+09
2.200000000000000000e+02,5.220000000000000000e+02,7.680000000000000000e+02,2.390000000000000000e+02,1.420000000000000000e+02,2.430000000000000000e+02,6.300000000000000000e+01,9.300000000000000000e+01,3.300000000000000155e-01,5.996489400000000000e+09
2.670000000000000000e+02,6.860000000000000000e+02,8.630000000000000000e+02,2.840000000000000000e+02,1.760000000000000000e+02,2.290000000000000000e+02,8.700000000000000000e+01,1.120000000000000000e+02,3.200000000000000067e-01,6.015469500000000000e+09
2.750000000000000000e+02,7.570000000000000000e+02,8.720000000000000000e+02,2.750000000000000000e+02,1.750000000000000000e+02,2.450000000000000000e+02,8.800000000000000000e+01,1.150000000000000000e+02,2.999999999999999889e-01,6.034447700000000000e+09
2.640000000000000000e+02,7.380000000000000000e+02,8.200000000000000000e+02,2.440000000000000000e+02,1.630000000000000000e+02,2.390000000000000000e+02,8.400000000000000000e+01,1.080000000000000000e+02,2.899999999999999800e-01,6.053761200000000000e+09
2.650000000000000000e+02,7.680000000000000000e+02,8.190000000000000000e+02,2.330000000000000000e+02,1.600000000000000000e+02,1.880000000000000000e+02,8.400000000000000000e+01,1.070000000000000000e+02,2.800000000000000266e-01,6.074328000000000000e+09
2.320000000000000000e+02,7.270000000000000000e+02,7.900000000000000000e+02,2.370000000000000000e+02,1.620000000000000000e+02,1.850000000000000000e+02,7.900000000000000000e+01,9.600000000000000000e+01,2.700000000000000178e-01,6.096296000000000000e+09
2.470000000000000000e+02,6.430000000000000000e+02,7.280000000000000000e+02,2.510000000000000000e+02,1.290000000000000000e+02,1.580000000000000000e+02,6.400000000000000000e+01,9.400000000000000000e+01,2.700000000000000178e-01,6.114792600000000000e+09
2.380000000000000000e+02,5.750000000000000000e+02,6.400000000000000000e+02,2.580000000000000000e+02,1.230000000000000000e+02,1.170000000000000000e+02,6.000000000000000000e+01,9.100000000000000000e+01,2.600000000000000089e-01,6.133831100000000000e+09
2.270000000000000000e+02,5.680000000000000000e+02,6.160000000000000000e+02,2.650000000000000000e+02,1.280000000000000000e+02,1.140000000000000000e+02,6.200000000000000000e+01,9.500000000000000000e+01,2.600000000000000089e-01,6.152945300000000000e+09
2.120000000000000000e+02,5.520000000000000000e+02,6.210000000000000000e+02,2.810000000000000000e+02,1.550000000000000000e+02,1.620000000000000000e+02,6.900000000000000000e+01,9.400000000000000000e+01,2.600000000000000089e-01,6.174222400000000000e+09
2.150000000000000000e+02,5.830000000000000000e+02,7.460000000000000000e+02,3.110000000000000000e+02,2.070000000000000000e+02,2.740000000000000000e+02,7.500000000000000000e+01,1.090000000000000000e+02,2.500000000000000000e-01,6.196537100000000000e+09
1.630000000000000000e+02,5.350000000000000000e+02,7.270000000000000000e+02,2.650000000000000000e+02,2.040000000000000000e+02,2.810000000000000000e+02,7.100000000000000000e+01,9.900000000000000000e+01,2.300000000000000100e-01,6.216080800000000000e+09
1.860000000000000000e+02,6.040000000000000000e+02,6.620000000000000000e+02,2.760000000000000000e+02,2.100000000000000000e+02,2.840000000000000000e+02,7.800000000000000000e+01,1.090000000000000000e+02,2.200000000000000011e-01,6.236349100000000000e+09
1.880000000000000000e+02,7.100000000000000000e+02,7.220000000000000000e+02,3.170000000000000000e+02,2.910000000000000000e+02,3.000000000000000000e+02,8.000000000000000000e+01,1.060000000000000000e+02,2.200000000000000011e-01,6.255818700000000000e+09
1.990000000000000000e+02,7.460000000000000000e+02,7.950000000000000000e+02,4.300000000000000000e+02,3.680000000000000000e+02,3.750000000000000000e+02,8.900000000000000000e+01,1.180000000000000000e+02,2.099999999999999922e-01,6.274537800000000000e+09
2.120000000000000000e+02,7.300000000000000000e+02,6.600000000000000000e+02,4.270000000000000000e+02,3.540000000000000000e+02,3.180000000000000000e+02,9.100000000000000000e+01,1.050000000000000000e+02,2.000000000000000111e-01,6.297104800000000000e+09
2.010000000000000000e+02,7.430000000000000000e+02,7.170000000000000000e+02,4.530000000000000000e+02,3.850000000000000000e+02,3.180000000000000000e+02,9.200000000000000000e+01,9.600000000000000000e+01,1.900000000000000022e-01,6.317039500000000000e+09
1.900000000000000000e+02,6.660000000000000000e+02,7.980000000000000000e+02,4.990000000000000000e+02,4.200000000000000000e+02,3.520000000000000000e+02,1.480000000000000000e+02,8.800000000000000000e+01,1.799999999999999933e-01,6.335581300000000000e+09
2.040000000000000000e+02,5.530000000000000000e+02,7.460000000000000000e+02,4.810000000000000000e+02,3.790000000000000000e+02,3.450000000000000000e+02,1.560000000000000000e+02,9.000000000000000000e+01,1.600000000000000033e-01,6.355108600000000000e+09
2.020000000000000000e+02,4.460000000000000000e+02,7.260000000000000000e+02,3.980000000000000000e+02,3.040000000000000000e+02,2.360000000000000000e+02,1.520000000000000000e+02,8.200000000000000000e+01,1.400000000000000133e-01,6.374885400000000000e+09
1.940000000000000000e+02,4.810000000000000000e+02,7.770000000000000000e+02,4.220000000000000000e+02,3.240000000000000000e+02,2.380000000000000000e+02,1.560000000000000000e+02,8.200000000000000000e+01,1.199999999999999956e-01,6.398042800000000000e+09
1.890000000000000000e+02,4.840000000000000000e+02,7.350000000000000000e+02,4.040000000000000000e+02,3.240000000000000000e+02,2.430000000000000000e+02,1.770000000000000000e+02,8.800000000000000000e+01,1.100000000000000006e-01,6.417236500000000000e+09
2.000000000000000000e+02,4.940000000000000000e+02,7.400000000000000000e+02,3.430000000000000000e+02,3.100000000000000000e+02,2.230000000000000000e+02,1.360000000000000000e+02,9.200000000000000000e+01,1.000000000000000056e-01,6.438133800000000000e+09
1.850000000000000000e+02,4.930000000000000000e+02,8.100000000000000000e+02,3.610000000000000000e+02,3.180000000000000000e+02,2.690000000000000000e+02,1.550000000000000000e+02,9.200000000000000000e+01,8.999999999999999667e-02,6.457403300000000000e+09
1.720000000000000000e+02,4.970000000000000000e+02,7.590000000000000000e+02,3.580000000000000000e+02,3.170000000000000000e+02,2.840000000000000000e+02,1.520000000000000000e+02,8.100000000000000000e+01,8.000000000000000167e-02,6.476311100000000000e+09
1.680000000000000000e+02,3.940000000000000000e+02,7.480000000000000000e+02,4.060000000000000000e+02,3.470000000000000000e+02,3.430000000000000000e+02,1.510000000000000000e+02,8.800000000000000000e+01,7.000000000000000666e-02,6.495383400000000000e+09
1.670000000000000000e+02,3.200000000000000000e+02,7.740000000000000000e+02,4.640000000000000000e+02,3.440000000000000000e+02,3.410000000000000000e+02,1.400000000000000000e+02,9.500000000000000000e+01,7.000000000000000666e-02,6.517164800000000000e+09
1.310000000000000000e+02,2.750000000000000000e+02,7.770000000000000000e+02,4.700000000000000000e+02,3.490000000000000000e+02,3.260000000000000000e+02,1.480000000000000000e+02,8.900000000000000000e+01,7.000000000000000666e-02,6.535684300000000000e+09
1.320000000000000000e+02,2.720000000000000000e+02,8.180000000000000000e+02,4.590000000000000000e+02,3.510000000000000000e+02,3.940000000000000000e+02,1.340000000000000000e+02,9.100000000000000000e+01,7.000000000000000666e-02,6.554449400000000000e+09
1.450000000000000000e+02,3.020000000000000000e+02,8.920000000000000000e+02,4.600000000000000000e+02,3.450000000000000000e+02,3.870000000000000000e+02,1.310000000000000000e+02,9.400000000000000000e+01,5.999999999999999778e-02,6.573444200000000000e+09
1.740000000000000000e+02,3.900000000000000000e+02,9.570000000000000000e+02,4.230000000000000000e+02,3.050000000000000000e+02,3.340000000000000000e+02,1.330000000000000000e+02,9.300000000000000000e+01,5.999999999999999778e-02,6.594951200000000000e+09
1.700000000000000000e+02,3.910000000000000000e+02,9.080000000000000000e+02,3.630000000000000000e+02,3.330000000000000000e+02,3.330000000000000000e+02,1.300000000000000000e+02,9.200000000000000000e+01,5.000000000000000278e-02,6.617420400000000000e+09
1.830000000000000000e+02,4.290000000000000000e+02,8.420000000000000000e+02,3.710000000000000000e+02,3.030000000000000000e+02,3.280000000000000000e+02,1.280000000000000000e+02,9.000000000000000000e+01,5.000000000000000278e-02,6.636815300000000000e+09
2.400000000000000000e+02,5.480000000000000000e+02,7.730000000000000000e+02,3.880000000000000000e+02,2.930000000000000000e+02,1.810000000000000000e+02,1.120000000000000000e+02,1.020000000000000000e+02,5.000000000000000278e-02,6.655493300000000000e+09
2.600000000000000000e+02,5.610000000000000000e+02,7.180000000000000000e+02,3.980000000000000000e+02,2.960000000000000000e+02,1.630000000000000000e+02,1.250000000000000000e+02,1.360000000000000000e+02,5.000000000000000278e-02,6.675135900000000000e+09
2.480000000000000000e+02,5.310000000000000000e+02,5.510000000000000000e+02,3.380000000000000000e+02,2.870000000000000000e+02,1.320000000000000000e+02,1.240000000000000000e+02,1.360000000000000000e+02,5.000000000000000278e-02,6.695692600000000000e+09
2.670000000000000000e+02,5.710000000000000000e+02,5.840000000000000000e+02,3.270000000000000000e+02,2.140000000000000000e+02,1.170000000000000000e+02,1.550000000000000000e+02,1.820000000000000000e+02,5.000000000000000278e-02,6.716290100000000000e+09
2.760000000000000000e+02,6.270000000000000000e+02,5.480000000000000000e+02,3.020000000000000000e+02,2.100000000000000000e+02,1.120000000000000000e+02,1.470000000000000000e+02,1.800000000000000000e+02,5.999999999999999778e-02,6.736023300000000000e+09
2.690000000000000000e+02,5.890000000000000000e+02,5.240000000000000000e+02,2.690000000000000000e+02,2.070000000000000000e+02,1.220000000000000000e+02,2.230000000000000000e+02,1.850000000000000000e+02,5.999999999999999778e-02,6.756019100000000000e+09
2.970000000000000000e+02,6.040000000000000000e+02,5.140000000000000000e+02,2.480000000000000000e+02,2.190000000000000000e+02,1.280000000000000000e+02,2.490000000000000000e+02,1.730000000000000000e+02,7.000000000000000666e-02,6.775330400000000000e+09
3.090000000000000000e+02,6.610000000000000000e+02,5.330000000000000000e+02,2.390000000000000000e+02,2.040000000000000000e+02,1.340000000000000000e+02,3.180000000000000000e+02,2.390000000000000000e+02,7.000000000000000666e-02,6.795544400000000000e+09
3.460000000000000000e+02,6.700000000000000000e+02,5.190000000000000000e+02,2.310000000000000000e+02,1.860000000000000000e+02,1.220000000000000000e+02,3.160000000000000000e+02,2.110000000000000000e+02,8.999999999999999667e-02,6.813594900000000000e+09
3.630000000000000000e+02,7.360000000000000000e+02,5.420000000000000000e+02,2.310000000000000000e+02,1.800000000000000000e+02,1.180000000000000000e+02,3.150000000000000000e+02,2.270000000000000000e+02,1.100000000000000006e-01,6.832759600000000000e+09
3.790000000000000000e+02,8.400000000000000000e+02,5.540000000000000000e+02,2.540000000000000000e+02,1.730000000000000000e+02,1.200000000000000000e+02,2.950000000000000000e+02,2.270000000000000000e+02,1.199999999999999956e-01,6.852108300000000000e+09
3.930000000000000000e+02,8.710000000000000000e+02,5.690000000000000000e+02,2.460000000000000000e+02,1.500000000000000000e+02,1.230000000000000000e+02,2.730000000000000000e+02,2.230000000000000000e+02,1.300000000000000044e-01,6.873170400000000000e+09
4.170000000000000000e+02,9.510000000000000000e+02,5.390000000000000000e+02,2.560000000000000000e+02,1.470000000000000000e+02,1.150000000000000000e+02,1.910000000000000000e+02,1.820000000000000000e+02,1.499999999999999944e-01,6.895807500000000000e+09
3.780000000000000000e+02,1.028000000000000000e+03,5.750000000000000000e+02,2.690000000000000000e+02,1.480000000000000000e+02,1.130000000000000000e+02,1.860000000000000000e+02,1.950000000000000000e+02,1.600000000000000033e-01,6.915900200000000000e+09
3.750000000000000000e+02,1.012000000000000000e+03,5.760000000000000000e+02,2.750000000000000000e+02,1.460000000000000000e+02,1.170000000000000000e+02,2.160000000000000000e+02,2.760000000000000000e+02,1.700000000000000122e-01,6.934764700000000000e+09
4.100000000000000000e+02,9.420000000000000000e+02,5.860000000000000000e+02,2.900000000000000000e+02,1.250000000000000000e+02,1.070000000000000000e+02,2.360000000000000000e+02,2.780000000000000000e+02,1.799999999999999933e-01,6.954081300000000000e+09
4.090000000000000000e+02,9.610000000000000000e+02,5.240000000000000000e+02,2.950000000000000000e+02,1.300000000000000000e+02,1.040000000000000000e+02,2.370000000000000000e+02,2.870000000000000000e+02,2.000000000000000111e-01,6.973391100000000000e+09
3.730000000000000000e+02,8.820000000000000000e+02,5.160000000000000000e+02,2.870000000000000000e+02,1.210000000000000000e+02,1.010000000000000000e+02,2.340000000000000000e+02,2.740000000000000000e+02,2.099999999999999922e-01,6.995261100000000000e+09
4.410000000000000000e+02,8.660000000000000000e+02,5.370000000000000000e+02,2.890000000000000000e+02,1.260000000000000000e+02,1.180000000000000000e+02,2.760000000000000000e+02,3.510000000000000000e+02,2.200000000000000011e-01,7.013764200000000000e+09
4.830000000000000000e+02,9.190000000000000000e+02,5.230000000000000000e+02,2.780000000000000000e+02,1.310000000000000000e+02,1.240000000000000000e+02,2.830000000000000000e+02,3.070000000000000000e+02,2.300000000000000100e-01,7.033088700000000000e+09
4.510000000000000000e+02,9.490000000000000000e+02,4.420000000000000000e+02,2.180000000000000000e+02,1.240000000000000000e+02,1.150000000000000000e+02,2.470000000000000000e+02,3.300000000000000000e+02,2.399999999999999911e-01,7.051764400000000000e+09
4.270000000000000000e+02,9.280000000000000000e+02,4.540000000000000000e+02,2.010000000000000000e+02,1.080000000000000000e+02,1.040000000000000000e+02,2.450000000000000000e+02,3.440000000000000000e+02,2.600000000000000089e-01,7.073128300000000000e+09
4.640000000000000000e+02,9.540000000000000000e+02,4.700000000000000000e+02,2.060000000000000000e+02,1.090000000000000000e+02,1.100000000000000000e+02,2.590000000000000000e+02,3.580000000000000000e+02,2.800000000000000266e-01,7.095818600000000000e+09
4.300000000000000000e+02,8.930000000000000000e+02,4.020000000000000000e+02,2.070000000000000000e+02,1.140000000000000000e+02,9.100000000000000000e+01,2.010000000000000000e+02,2.830000000000000000e+02,2.999999999999999889e-01,7.115025900000000000e+09
3.760000000000000000e+02,8.110000000000000000e+02,4.170000000000000000e+02,2.120000000000000000e+02,1.080000000000000000e+02,8.000000000000000000e+01,1.680000000000000000e+02,2.580000000000000000e+02,3.099999999999999978e-01,7.133748700000000000e+09
4.010000000000000000e+02,8.720000000000000000e+02,4.740000000000000000e+02,2.220000000000000000e+02,1.140000000000000000e+02,8.600000000000000000e+01,1.800000000000000000e+02,2.330000000000000000e+02,3.300000000000000155e-01,7.154514100000000000e+09
4.250000000000000000e+02,8.490000000000000000e+02,4.310000000000000000e+02,2.050000000000000000e+02,1.110000000000000000e+02,9.000000000000000000e+01,1.820000000000000000e+02,2.070000000000000000e+02,3.499999999999999778e-01,7.173833200000000000e+09
4.170000000000000000e+02,8.620000000000000000e+02,4.750000000000000000e+02,2.200000000000000000e+02,1.140000000000000000e+02,8.300000000000000000e+01,1.670000000000000000e+02,1.780000000000000000e+02,3.699999999999999956e-01,7.196462700000000000e+09
3.880000000000000000e+02,8.760000000000000000e+02,4.420000000000000000e+02,1.840000000000000000e+02,9.800000000000000000e+01,7.900000000000000000e+01,1.630000000000000000e+02,1.540000000000000000e+02,3.900000000000000133e-01,7.215664800000000000e+09
3.950000000000000000e+02,8.750000000000000000e+02,4.610000000000000000e+02,1.760000000000000000e+02,9.400000000000000000e+01,7.600000000000000000e+01,1.590000000000000000e+02,1.530000000000000000e+02,4.099999999999999756e-01,7.234932900000000000e+09
3.840000000000000000e+02,7.630000000000000000e+02,4.160000000000000000e+02,1.900000000000000000e+02,9.700000000000000000e+01,7.400000000000000000e+01,1.250000000000000000e+02,1.480000000000000000e+02,4.299999999999999933e-01,7.254596900000000000e+09
4.040000000000000000e+02,7.870000000000000000e+02,4.980000000000000000e+02,2.410000000000000000e+02,1.100000000000000000e+02,7.500000000000000000e+01,1.310000000000000000e+02,1.550000000000000000e+02,4.500000000000000111e-01,7.273816500000000000e+09
4.250000000000000000e+02,8.310000000000000000e+02,4.550000000000000000e+02,2.420000000000000000e+02,1.050000000000000000e+02,7.400000000000000000e+01,1.520000000000000000e+02,1.750000000000000000e+02,4.500000000000000111e-01,7.296181300000000000e+09
4.390000000000000000e+02,8.070000000000000000e+02,4.900000000000000000e+02,2.430000000000000000e+02,1.060000000000000000e+02,8.000000000000000000e+01,1.960000000000000000e+02,2.450000000000000000e+02,4.500000000000000111e-01,7.315608700000000000e+09
4.650000000000000000e+02,8.730000000000000000e+02,5.280000000000000000e+02,2.570000000000000000e+02,1.150000000000000000e+02,9.100000000000000000e+01,2.120000000000000000e+02,2.760000000000000000e+02,4.500000000000000111e-01,7.334022100000000000e+09
5.130000000000000000e+02,9.050000000000000000e+02,6.150000000000000000e+02,2.590000000000000000e+02,1.310000000000000000e+02,9.900000000000000000e+01,2.190000000000000000e+02,2.900000000000000000e+02,4.500000000000000111e-01,7.352709600000000000e+09
4.680000000000000000e+02,9.070000000000000000e+02,5.960000000000000000e+02,2.550000000000000000e+02,1.310000000000000000e+02,1.010000000000000000e+02,2.120000000000000000e+02,2.890000000000000000e+02,4.500000000000000111e-01,7.374591900000000000e+09
4.360000000000000000e+02,8.780000000000000000e+02,5.960000000000000000e+02,2.440000000000000000e+02,1.280000000000000000e+02,9.800000000000000000e+01,1.970000000000000000e+02,2.740000000000000000e+02,4.400000000000000022e-01,7.394667500000000000e+09
4.590000000000000000e+02,9.590000000000000000e+02,5.770000000000000000e+02,2.460000000000000000e+02,1.340000000000000000e+02,1.000000000000000000e+02,1.470000000000000000e+02,2.210000000000000000e+02,4.400000000000000022e-01,7.415487600000000000e+09
5.650000000000000000e+02,9.120000000000000000e+02,5.600000000000000000e+02,2.680000000000000000e+02,1.500000000000000000e+02,1.150000000000000000e+02,1.350000000000000000e+02,2.030000000000000000e+02,4.299999999999999933e-01,7.436634100000000000e+09
5.580000000000000000e+02,1.004000000000000000e+03,5.570000000000000000e+02,4.730000000000000000e+02,1.330000000000000000e+02,1.100000000000000000e+02,1.470000000000000000e+02,1.830000000000000000e+02,4.099999999999999756e-01,7.456119300000000000e+09
5.610000000000000000e+02,9.950000000000000000e+02,5.510000000000000000e+02,4.890000000000000000e+02,1.250000000000000000e+02,1.050000000000000000e+02,1.460000000000000000e+02,1.670000000000000000e+02,4.000000000000000222e-01,7.479157200000000000e+09
5.950000000000000000e+02,1.000000000000000000e+03,6.050000000000000000e+02,4.920000000000000000e+02,1.400000000000000000e+02,1.210000000000000000e+02,1.590000000000000000e+02,2.070000000000000000e+02,3.900000000000000133e-01,7.498746000000000000e+09
6.130000000000000000e+02,9.610000000000000000e+02,6.370000000000000000e+02,5.140000000000000000e+02,1.390000000000000000e+02,1.170000000000000000e+02,1.620000000000000000e+02,2.070000000000000000e+02,3.800000000000000044e-01,7.520370800000000000e+09
4.900000000000000000e+02,9.800000000000000000e+02,6.390000000000000000e+02,5.590000000000000000e+02,1.320000000000000000e+02,9.600000000000000000e+01,1.460000000000000000e+02,1.780000000000000000e+02,3.699999999999999956e-01,7.539243000000000000e+09
4.270000000000000000e+02,9.120000000000000000e+02,5.700000000000000000e+02,4.280000000000000000e+02,1.320000000000000000e+02,9.100000000000000000e+01,1.530000000000000000e+02,1.750000000000000000e+02,3.499999999999999778e-01,7.558269500000000000e+09
4.540000000000000000e+02,9.100000000000000000e+02,5.210000000000000000e+02,3.970000000000000000e+02,1.380000000000000000e+02,1.140000000000000000e+02,2.130000000000000000e+02,1.920000000000000000e+02,3.499999999999999778e-01,7.577911300000000000e+09
3.990000000000000000e+02,8.250000000000000000e+02,4.450000000000000000e+02,3.890000000000000000e+02,1.260000000000000000e+02,1.010000000000000000e+02,2.020000000000000000e+02,1.430000000000000000e+02,3.400000000000000244e-01,7.597232600000000000e+09
4.050000000000000000e+02,8.890000000000000000e+02,4.280000000000000000e+02,4.230000000000000000e+02,1.500000000000000000e+02,1.040000000000000000e+02,1.990000000000000000e+02,1.400000000000000000e+02,3.400000000000000244e-01,7.617191300000000000e+09
4.160000000000000000e+02,8.750000000000000000e+02,3.810000000000000000e+02,3.580000000000000000e+02,1.580000000000000000e+02,1.060000000000000000e+02,2.040000000000000000e+02,1.480000000000000000e+02,3.300000000000000155e-01,7.636551700000000000e+09
4.190000000000000000e+02,8.270000000000000000e+02,3.520000000000000000e+02,3.280000000000000000e+02,1.770000000000000000e+02,1.110000000000000000e+02,2.190000000000000000e+02,1.440000000000000000e+02,3.200000000000000067e-01,7.655703200000000000e+09
3.880000000000000000e+02,8.110000000000000000e+02,4.390000000000000000e+02,4.660000000000000000e+02,2.060000000000000000e+02,9.700000000000000000e+01,1.710000000000000000e+02,1.350000000000000000e+02,3.099999999999999978e-01,7.675654300000000000e+09
4.720000000000000000e+02,8.440000000000000000e+02,4.580000000000000000e+02,5.070000000000000000e+02,2.270000000000000000e+02,1.190000000000000000e+02,1.920000000000000000e+02,1.420000000000000000e+02,2.999999999999999889e-01,7.694512800000000000e+09
4.220000000000000000e+02,7.330000000000000000e+02,4.490000000000000000e+02,4.850000000000000000e+02,2.210000000000000000e+02,1.310000000000000000e+02,2.260000000000000000e+02,1.560000000000000000e+02,2.899999999999999800e-01,7.715836300000000000e+09
3.970000000000000000e+02,6.620000000000000000e+02,4.330000000000000000e+02,4.940000000000000000e+02,2.510000000000000000e+02,1.720000000000000000e+02,3.350000000000000000e+02,1.780000000000000000e+02,2.899999999999999800e-01,7.735083200000000000e+09
3.760000000000000000e+02,6.780000000000000000e+02,4.850000000000000000e+02,5.820000000000000000e+02,3.440000000000000000e+02,2.110000000000000000e+02,3.470000000000000000e+02,1.800000000000000000e+02,2.800000000000000266e-01,7.753799900000000000e+09
3.980000000000000000e+02,7.320000000000000000e+02,4.380000000000000000e+02,4.970000000000000000e+02,3.420000000000000000e+02,2.130000000000000000e+02,3.460000000000000000e+02,1.660000000000000000e+02,2.700000000000000178e-01,7.772829500000000000e+09
3.730000000000000000e+02,6.990000000000000000e+02,4.150000000000000000e+02,4.670000000000000000e+02,3.340000000000000000e+02,2.050000000000000000e+02,3.370000000000000000e+02,1.650000000000000000e+02,2.600000000000000089e-01,7.793685700000000000e+09
3.820000000000000000e+02,6.950000000000000000e+02,3.900000000000000000e+02,4.370000000000000000e+02,3.320000000000000000e+02,1.990000000000000000e+02,3.160000000000000000e+02,1.480000000000000000e+02,2.500000000000000000e-01,7.815842400000000000e+09
3.930000000000000000e+02,7.060000000000000000e+02,3.800000000000000000e+02,4.470000000000000000e+02,3.340000000000000000e+02,1.680000000000000000e+02,2.160000000000000000e+02,1.170000000000000000e+02,2.300000000000000100e-01,7.834514300000000000e+09
3.870000000000000000e+02,6.760000000000000000e+02,3.190000000000000000e+02,3.370000000000000000e+02,2.630000000000000000e+02,1.330000000000000000e+02,1.650000000000000000e+02,1.050000000000000000e+02,2.300000000000000100e-01,7.853698000000000000e+09
3.730000000000000000e+02,7.010000000000000000e+02,2.850000000000000000e+02,3.230000000000000000e+02,2.730000000000000000e+02,1.250000000000000000e+02,1.560000000000000000e+02,1.090000000000000000e+02,2.200000000000000011e-01,7.872996300000000000e+09
2.900000000000000000e+02,6.770000000000000000e+02,3.550000000000000000e+02,3.380000000000000000e+02,3.180000000000000000e+02,1.360000000000000000e+02,1.560000000000000000e+02,1.060000000000000000e+02,2.099999999999999922e-01,7.893488700000000000e+09
3.680000000000000000e+02,7.090000000000000000e+02,4.070000000000000000e+02,4.030000000000000000e+02,3.600000000000000000e+02,1.490000000000000000e+02,2.010000000000000000e+02,1.240000000000000000e+02,2.099999999999999922e-01,7.916041600000000000e+09
4.040000000000000000e+02,7.310000000000000000e+02,4.340000000000000000e+02,4.270000000000000000e+02,3.880000000000000000e+02,1.700000000000000000e+02,2.720000000000000000e+02,1.310000000000000000e+02,2.000000000000000111e-01,7.935568600000000000e+09
4.110000000000000000e+02,6.870000000000000000e+02,4.160000000000000000e+02,4.530000000000000000e+02,3.950000000000000000e+02,1.660000000000000000e+02,2.880000000000000000e+02,1.260000000000000000e+02,1.900000000000000022e-01,7.955291200000000000e+09
4.300000000000000000e+02,6.840000000000000000e+02,4.780000000000000000e+02,4.520000000000000000e+02,3.870000000000000000e+02,1.770000000000000000e+02,3.350000000000000000e+02,1.350000000000000000e+02,1.799999999999999933e-01,7.974276200000000000e+09
4.330000000000000000e+02,7.170000000000000000e+02,5.270000000000000000e+02,4.670000000000000000e+02,3.730000000000000000e+02,1.740000000000000000e+02,3.390000000000000000e+02,1.360000000000000000e+02,1.700000000000000122e-01,7.995953000000000000e+09
3.520000000000000000e+02,6.650000000000000000e+02,5.130000000000000000e+02,4.180000000000000000e+02,3.390000000000000000e+02,1.730000000000000000e+02,3.980000000000000000e+02,1.390000000000000000e+02,1.700000000000000122e-01,8.015624000000000000e+09
3.360000000000000000e+02,7.030000000000000000e+02,4.820000000000000000e+02,3.520000000000000000e+02,2.840000000000000000e+02,2.380000000000000000e+02,3.570000000000000000e+02,1.730000000000000000e+02,1.700000000000000122e-01,8.035512300000000000e+09
3.320000000000000000e+02,6.880000000000000000e+02,4.800000000000000000e+02,3.430000000000000000e+02,2.890000000000000000e+02,2.850000000000000000e+02,3.480000000000000000e+02,2.370000000000000000e+02,1.600000000000000033e-01,8.055424700000000000e+09
3.440000000000000000e+02,6.140000000000000000e+02,4.480000000000000000e+02,4.830000000000000000e+02,4.580000000000000000e+02,3.210000000000000000e+02,3.230000000000000000e+02,2.540000000000000000e+02,1.600000000000000033e-01,8.076157600000000000e+09
3.480000000000000000e+02,5.710000000000000000e+02,4.050000000000000000e+02,5.390000000000000000e+02,5.110000000000000000e+02,3.290000000000000000e+02,3.260000000000000000e+02,2.580000000000000000e+02,1.499999999999999944e-01,8.096778500000000000e+09
3.440000000000000000e+02,5.550000000000000000e+02,3.540000000000000000e+02,5.460000000000000000e+02,5.120000000000000000e+02,3.860000000000000000e+02,3.160000000000000000e+02,2.540000000000000000e+02,1.499999999999999944e-01,8.116637400000000000e+09
3.040000000000000000e+02,4.210000000000000000e+02,3.720000000000000000e+02,5.990000000000000000e+02,5.480000000000000000e+02,3.550000000000000000e+02,3.410000000000000000e+02,2.290000000000000000e+02,1.400000000000000133e-01,8.136565100000000000e+09
3.050000000000000000e+02,4.210000000000000000e+02,3.980000000000000000e+02,6.170000000000000000e+02,5.730000000000000000e+02,3.440000000000000000e+02,3.520000000000000000e+02,1.890000000000000000e+02,1.400000000000000133e-01,8.156707800000000000e+09
2.470000000000000000e+02,5.040000000000000000e+02,3.550000000000000000e+02,5.010000000000000000e+02,4.420000000000000000e+02,3.180000000000000000e+02,3.490000000000000000e+02,1.790000000000000000e+02,1.499999999999999944e-01,8.175992000000000000e+09
2.250000000000000000e+02,5.480000000000000000e+02,2.820000000000000000e+02,4.230000000000000000e+02,3.920000000000000000e+02,3.170000000000000000e+02,3.900000000000000000e+02,1.810000000000000000e+02,1.499999999999999944e-01,8.196866100000000000e+09
2.240000000000000000e+02,6.350000000000000000e+02,4.460000000000000000e+02,5.690000000000000000e+02,5.690000000000000000e+02,2.740000000000000000e+02,3.210000000000000000e+02,1.740000000000000000e+02,1.499999999999999944e-01,8.215891600000000000e+09
2.760000000000000000e+02,7.160000000000000000e+02,5.780000000000000000e+02,6.150000000000000000e+02,6.210000000000000000e+02,2.860000000000000000e+02,2.850000000000000000e+02,1.740000000000000000e+02,1.400000000000000133e-01,8.234919600000000000e+09
4.040000000000000000e+02,7.820000000000000000e+02,5.640000000000000000e+02,5.630000000000000000e+02,5.730000000000000000e+02,2.470000000000000000e+02,2.650000000000000000e+02,1.660000000000000000e+02,1.300000000000000044e-01,8.254446200000000000e+09
4.230000000000000000e+02,7.730000000000000000e+02,5.830000000000000000e+02,5.610000000000000000e+02,5.710000000000000000e+02,2.290000000000000000e+02,2.470000000000000000e+02,1.450000000000000000e+02,1.300000000000000044e-01,8.273511000000000000e+09
4.230000000000000000e+02,7.830000000000000000e+02,6.080000000000000000e+02,5.450000000000000000e+02,5.520000000000000000e+02,2.220000000000000000e+02,1.600000000000000000e+02,1.340000000000000000e+02,1.199999999999999956e-01,8.295473300000000000e+09
4.180000000000000000e+02,7.190000000000000000e+02,5.210000000000000000e+02,3.770000000000000000e+02,3.630000000000000000e+02,1.770000000000000000e+02,1.490000000000000000e+02,1.660000000000000000e+02,1.199999999999999956e-01,8.314138400000000000e+09
4.070000000000000000e+02,6.860000000000000000e+02,3.490000000000000000e+02,1.370000000000000000e+02,1.570000000000000000e+02,1.310000000000000000e+02,2.090000000000000000e+02,1.860000000000000000e+02,1.400000000000000133e-01,8.334526600000000000e+09
2.980000000000000000e+02,7.670000000000000000e+02,3.750000000000000000e+02,2.200000000000000000e+02,2.160000000000000000e+02,1.440000000000000000e+02,2.230000000000000000e+02,1.700000000000000000e+02,1.499999999999999944e-01,8.353303100000000000e+09
2.680000000000000000e+02,7.280000000000000000e+02,4.560000000000000000e+02,4.070000000000000000e+02,3.040000000000000000e+02,1.550000000000000000e+02,2.320000000000000000e+02,1.730000000000000000e+02,1.499999999999999944e-01,8.373236900000000000e+09
2.880000000000000000e+02,7.350000000000000000e+02,4.490000000000000000e+02,4.480000000000000000e+02,3.200000000000000000e+02,1.480000000000000000e+02,2.250000000000000000e+02,1.770000000000000000e+02,1.400000000000000133e-01,8.395375800000000000e+09
2.890000000000000000e+02,7.700000000000000000e+02,4.290000000000000000e+02,4.440000000000000000e+02,3.120000000000000000e+02,1.460000000000000000e+02,2.440000000000000000e+02,1.600000000000000000e+02,1.400000000000000133e-01,8.415050800000000000e+09
3.050000000000000000e+02,7.900000000000000000e+02,4.510000000000000000e+02,4.510000000000000000e+02,3.150000000000000000e+02,1.370000000000000000e+02,2.520000000000000000e+02,1.550000000000000000e+02,1.300000000000000044e-01,8.434062900000000000e+09
2.920000000000000000e+02,6.750000000000000000e+02,5.920000000000000000e+02,5.170000000000000000e+02,3.610000000000000000e+02,1.420000000000000000e+02,2.540000000000000000e+02,1.630000000000000000e+02,1.300000000000000044e-01,8.453854000000000000e+09
2.900000000000000000e+02,6.660000000000000000e+02,5.260000000000000000e+02,4.070000000000000000e+02,3.270000000000000000e+02,1.420000000000000000e+02,2.460000000000000000e+02,1.530000000000000000e+02,1.400000000000000133e-01,8.473889600000000000e+09
2.790000000000000000e+02,6.400000000000000000e+02,5.000000000000000000e+02,3.840000000000000000e+02,3.090000000000000000e+02,1.360000000000000000e+02,2.470000000000000000e+02,1.470000000000000000e+02,1.400000000000000133e-01,8.500169200000000000e+09
2.890000000000000000e+02,6.420000000000000000e+02,5.420000000000000000e+02,5.070000000000000000e+02,4.170000000000000000e+02,1.820000000000000000e+02,2.400000000000000000e+02,1.430000000000000000e+02,1.400000000000000133e-01,8.522393400000000000e+09
2.450000000000000000e+02,6.230000000000000000e+02,5.360000000000000000e+02,6.010000000000000000e+02,4.540000000000000000e+02,1.820000000000000000e+02,1.600000000000000000e+02,1.160000000000000000e+02,1.400000000000000133e-01,8.542376100000000000e+09
2.380000000000000000e+02,6.200000000000000000e+02,3.590000000000000000e+02,5.460000000000000000e+02,4.010000000000000000e+02,1.780000000000000000e+02,1.740000000000000000e+02,1.070000000000000000e+02,1.499999999999999944e-01,8.561806800000000000e+09
2.210000000000000000e+02,5.800000000000000000e+02,3.490000000000000000e+02,5.480000000000000000e+02,3.870000000000000000e+02,1.770000000000000000e+02,1.770000000000000000e+02,1.100000000000000000e+02,1.300000000000000044e-01,8.581131500000000000e+09
2.250000000000000000e+02,5.670000000000000000e+02,3.480000000000000000e+02,5.420000000000000000e+02,3.860000000000000000e+02,1.800000000000000000e+02,2.280000000000000000e+02,1.190000000000000000e+02,1.199999999999999956e-01,8.599187700000000000e+09
2.110000000000000000e+02,5.590000000000000000e+02,3.000000000000000000e+02,4.400000000000000000e+02,2.670000000000000000e+02,1.300000000000000000e+02,2.370000000000000000e+02,9.600000000000000000e+01,1.300000000000000044e-01,8.617702800000000000e+09
2.830000000000000000e+02,5.840000000000000000e+02,3.130000000000000000e+02,3.010000000000000000e+02,1.930000000000000000e+02,1.240000000000000000e+02,2.370000000000000000e+02,1.080000000000000000e+02,1.400000000000000133e-01,8.636670900000000000e+09
3.120000000000000000e+02,6.060000000000000000e+02,2.950000000000000000e+02,4.950000000000000000e+02,3.610000000000000000e+02,1.540000000000000000e+02,2.080000000000000000e+02,1.000000000000000000e+02,1.400000000000000133e-01,8.656671600000000000e+09
3.060000000000000000e+02,6.450000000000000000e+02,2.790000000000000000e+02,5.250000000000000000e+02,3.820000000000000000e+02,1.550000000000000000e+02,2.040000000000000000e+02,9.700000000000000000e+01,1.400000000000000133e-01,8.675912700000000000e+09
2.870000000000000000e+02,6.290000000000000000e+02,2.780000000000000000e+02,5.350000000000000000e+02,3.850000000000000000e+02,1.560000000000000000e+02,1.830000000000000000e+02,8.500000000000000000e+01,1.499999999999999944e-01,8.695307400000000000e+09
2.940000000000000000e+02,6.570000000000000000e+02,2.550000000000000000e+02,5.410000000000000000e+02,3.980000000000000000e+02,1.640000000000000000e+02,2.060000000000000000e+02,1.020000000000000000e+02,1.600000000000000033e-01,8.714986200000000000e+09
2.260000000000000000e+02,6.310000000000000000e+02,2.720000000000000000e+02,5.760000000000000000e+02,4.180000000000000000e+02,1.770000000000000000e+02,2.470000000000000000e+02,1.080000000000000000e+02,1.600000000000000033e-01,8.736962400000000000e+09
1.830000000000000000e+02,6.170000000000000000e+02,2.910000000000000000e+02,4.160000000000000000e+02,2.840000000000000000e+02,1.390000000000000000e+02,2.700000000000000000e+02,1.070000000000000000e+02,1.700000000000000122e-01,8.755765600000000000e+09
2.120000000000000000e+02,5.850000000000000000e+02,4.150000000000000000e+02,4.010000000000000000e+02,2.530000000000000000e+02,1.330000000000000000e+02,3.070000000000000000e+02,1.150000000000000000e+02,1.799999999999999933e-01,8.774597000000000000e+09
2.170000000000000000e+02,6.080000000000000000e+02,4.120000000000000000e+02,4.640000000000000000e+02,3.420000000000000000e+02,1.600000000000000000e+02,3.070000000000000000e+02,1.230000000000000000e+02,1.799999999999999933e-01,8.793720900000000000e+09
2.140000000000000000e+02,5.590000000000000000e+02,4.990000000000000000e+02,4.680000000000000000e+02,3.390000000000000000e+02,1.560000000000000000e+02,2.960000000000000000e+02,1.250000000000000000e+02,1.799999999999999933e-01,8.814438700000000000e+09
2.160000000000000000e+02,5.050000000000000000e+02,5.000000000000000000e+02,4.330000000000000000e+02,3.160000000000000000e+02,1.440000000000000000e+02,2.900000000000000000e+02,1.170000000000000000e+02,1.799999999999999933e-01,8.836800900000000000e+09
2.160000000000000000e+02,4.960000000000000000e+02,5.380000000000000000e+02,4.170000000000000000e+02,3.080000000000000000e+02,1.480000000000000000e+02,3.030000000000000000e+02,1.190000000000000000e+02,1.799999999999999933e-01,8.855035400000000000e+09
2.120000000000000000e+02,5.160000000000000000e+02,5.260000000000000000e+02,3.940000000000000000e+02,3.240000000000000000e+02,1.480000000000000000e+02,2.750000000000000000e+02,1.120000000000000000e+02,1.799999999999999933e-01,8.873800100000000000e+09
2.120000000000000000e+02,4.710000000000000000e+02,5.400000000000000000e+02,3.000000000000000000e+02,2.510000000000000000e+02,1.250000000000000000e+02,2.710000000000000000e+02,1.080000000000000000e+02,1.799999999999999933e-01,8.893518600000000000e+09
1.980000000000000000e+02,4.400000000000000000e+02,4.720000000000000000e+02,2.880000000000000000e+02,2.600000000000000000e+02,1.280000000000000000e+02,2.950000000000000000e+02,9.500000000000000000e+01,1.799999999999999933e-01,8.914321100000000000e+09
2.330000000000000000e+02,4.580000000000000000e+02,4.910000000000000000e+02,2.680000000000000000e+02,2.580000000000000000e+02,1.340000000000000000e+02,3.200000000000000000e+02,1.170000000000000000e+02,1.799999999999999933e-01,8.936752700000000000e+09
2.400000000000000000e+02,4.050000000000000000e+02,5.450000000000000000e+02,2.660000000000000000e+02,2.680000000000000000e+02,1.340000000000000000e+02,3.010000000000000000e+02,1.190000000000000000e+02,1.799999999999999933e-01,8.955106000000000000e+09
2.300000000000000000e+02,4.060000000000000000e+02,5.050000000000000000e+02,2.660000000000000000e+02,2.360000000000000000e+02,1.270000000000000000e+02,2.960000000000000000e+02,1.170000000000000000e+02,1.799999999999999933e-01,8.974856100000000000e+09
2.350000000000000000e+02,4.090000000000000000e+02,5.150000000000000000e+02,2.790000000000000000e+02,2.340000000000000000e+02,1.270000000000000000e+02,2.930000000000000000e+02,1.160000000000000000e+02,1.799999999999999933e-01,8.994079300000000000e+09
2.450000000000000000e+02,3.990000000000000000e+02,5.360000000000000000e+02,4.350000000000000000e+02,3.340000000000000000e+02,1.470000000000000000e+02,2.860000000000000000e+02,1.220000000000000000e+02,1.799999999999999933e-01,9.014463200000000000e+09
2.190000000000000000e+02,4.080000000000000000e+02,5.330000000000000000e+02,4.630000000000000000e+02,3.680000000000000000e+02,1.480000000000000000e+02,2.240000000000000000e+02,9.100000000000000000e+01,1.799999999999999933e-01,9.036463800000000000e+09
2.250000000000000000e+02,4.230000000000000000e+02,4.330000000000000000e+02,4.760000000000000000e+02,3.730000000000000000e+02,1.450000000000000000e+02,2.040000000000000000e+02,8.000000000000000000e+01,1.799999999999999933e-01,9.055184800000000000e+09
2.400000000000000000e+02,3.840000000000000000e+02,4.070000000000000000e+02,5.240000000000000000e+02,4.120000000000000000e+02,1.550000000000000000e+02,2.360000000000000000e+02,9.000000000000000000e+01,1.799999999999999933e-01,9.075047000000000000e+09
2.590000000000000000e+02,3.570000000000000000e+02,3.920000000000000000e+02,5.170000000000000000e+02,3.910000000000000000e+02,1.430000000000000000e+02,2.440000000000000000e+02,9.900000000000000000e+01,1.900000000000000022e-01,9.094799800000000000e+09
2.410000000000000000e+02,3.770000000000000000e+02,4.090000000000000000e+02,3.850000000000000000e+02,2.980000000000000000e+02,1.130000000000000000e+02,1.990000000000000000e+02,8.900000000000000000e+01,1.900000000000000022e-01,9.116322700000000000e+09
2.300000000000000000e+02,3.420000000000000000e+02,3.770000000000000000e+02,4.410000000000000000e+02,3.020000000000000000e+02,1.170000000000000000e+02,2.920000000000000000e+02,1.040000000000000000e+02,2.000000000000000111e-01,9.134677000000000000e+09
2.540000000000000000e+02,4.040000000000000000e+02,3.780000000000000000e+02,4.210000000000000000e+02,2.940000000000000000e+02,1.270000000000000000e+02,3.410000000000000000e+02,1.340000000000000000e+02,2.000000000000000111e-01,9.154222600000000000e+09
2.330000000000000000e+02,3.830000000000000000e+02,4.070000000000000000e+02,3.380000000000000000e+02,2.320000000000000000e+02,1.150000000000000000e+02,3.410000000000000000e+02,1.380000000000000000e+02,2.099999999999999922e-01,9.174328400000000000e+09
1.950000000000000000e+02,4.010000000000000000e+02,4.650000000000000000e+02,3.610000000000000000e+02,2.530000000000000000e+02,1.220000000000000000e+02,3.430000000000000000e+02,1.260000000000000000e+02,2.099999999999999922e-01,9.195478500000000000e+09
2.200000000000000000e+02,4.310000000000000000e+02,4.820000000000000000e+02,4.160000000000000000e+02,2.830000000000000000e+02,1.330000000000000000e+02,3.930000000000000000e+02,1.460000000000000000e+02,2.099999999999999922e-01,9.217280100000000000e+09
2.720000000000000000e+02,4.460000000000000000e+02,5.350000000000000000e+02,3.350000000000000000e+02,2.540000000000000000e+02,1.200000000000000000e+02,3.850000000000000000e+02,1.590000000000000000e+02,2.099999999999999922e-01,9.235823500000000000e+09
2.320000000000000000e+02,3.820000000000000000e+02,5.390000000000000000e+02,5.900000000000000000e+02,5.300000000000000000e+02,2.000000000000000000e+02,3.400000000000000000e+02,1.340000000000000000e+02,2.099999999999999922e-01,9.254800900000000000e+09
2.360000000000000000e+02,3.920000000000000000e+02,5.440000000000000000e+02,6.630000000000000000e+02,5.880000000000000000e+02,2.180000000000000000e+02,3.190000000000000000e+02,1.240000000000000000e+02,2.099999999999999922e-01,9.274484000000000000e+09
2.430000000000000000e+02,3.740000000000000000e+02,4.960000000000000000e+02,6.420000000000000000e+02,5.790000000000000000e+02,2.160000000000000000e+02,3.110000000000000000e+02,1.330000000000000000e+02,2.099999999999999922e-01,9.293900600000000000e+09
2.340000000000000000e+02,3.070000000000000000e+02,4.370000000000000000e+02,6.140000000000000000e+02,5.660000000000000000e+02,2.140000000000000000e+02,2.560000000000000000e+02,1.110000000000000000e+02,2.099999999999999922e-01,9.314175700000000000e+09
2.070000000000000000e+02,3.830000000000000000e+02,4.070000000000000000e+02,6.440000000000000000e+02,5.730000000000000000e+02,2.180000000000000000e+02,1.630000000000000000e+02,7.800000000000000000e+01,2.099999999999999922e-01,9.336522400000000000e+09
2.220000000000000000e+02,3.710000000000000000e+02,3.920000000000000000e+02,4.360000000000000000e+02,3.440000000000000000e+02,1.430000000000000000e+02,2.050000000000000000e+02,1.150000000000000000e+02,2.099999999999999922e-01,9.356149600000000000e+09
2.290000000000000000e+02,3.780000000000000000e+02,3.490000000000000000e+02,3.140000000000000000e+02,2.420000000000000000e+02,1.160000000000000000e+02,2.010000000000000000e+02,1.180000000000000000e+02,2.099999999999999922e-01,9.376027500000000000e+09
2.220000000000000000e+02,3.780000000000000000e+02,3.180000000000000000e+02,3.100000000000000000e+02,2.350000000000000000e+02,1.090000000000000000e+02,1.750000000000000000e+02,1.060000000000000000e+02,2.099999999999999922e-01,9.394884900000000000e+09
2.120000000000000000e+02,3.830000000000000000e+02,2.920000000000000000e+02,2.850000000000000000e+02,2.140000000000000000e+02,9.300000000000000000e+01,1.520000000000000000e+02,1.100000000000000000e+02,2.099999999999999922e-01,9.414321500000000000e+09
1.800000000000000000e+02,3.410000000000000000e+02,2.240000000000000000e+02,1.820000000000000000e+02,1.580000000000000000e+02,7.700000000000000000e+01,1.490000000000000000e+02,1.080000000000000000e+02,2.300000000000000100e-01,9.436478400000000000e+09
1.560000000000000000e+02,3.400000000000000000e+02,2.920000000000000000e+02,4.710000000000000000e+02,4.780000000000000000e+02,2.590000000000000000e+02,1.480000000000000000e+02,7.900000000000000000e+01,2.300000000000000100e-01,9.457128900000000000e+09
1.410000000000000000e+02,3.330000000000000000e+02,3.360000000000000000e+02,6.090000000000000000e+02,6.260000000000000000e+02,3.390000000000000000e+02,1.710000000000000000e+02,8.000000000000000000e+01,2.300000000000000100e-01,9.476064000000000000e+09
1.380000000000000000e+02,3.360000000000000000e+02,4.070000000000000000e+02,7.060000000000000000e+02,6.810000000000000000e+02,3.590000000000000000e+02,1.750000000000000000e+02,8.100000000000000000e+01,2.300000000000000100e-01,9.494950800000000000e+09
1.220000000000000000e+02,3.210000000000000000e+02,4.170000000000000000e+02,7.220000000000000000e+02,6.950000000000000000e+02,3.660000000000000000e+02,1.730000000000000000e+02,7.100000000000000000e+01,2.300000000000000100e-01,9.514181700000000000e+09
9.400000000000000000e+01,1.970000000000000000e+02,4.000000000000000000e+02,7.260000000000000000e+02,7.000000000000000000e+02,3.680000000000000000e+02,1.720000000000000000e+02,6.700000000000000000e+01,2.399999999999999911e-01,9.536236200000000000e+09
8.900000000000000000e+01,2.480000000000000000e+02,3.850000000000000000e+02,5.700000000000000000e+02,5.270000000000000000e+02,2.690000000000000000e+02,1.220000000000000000e+02,8.500000000000000000e+01,2.399999999999999911e-01,9.555239000000000000e+09
2.000000000000000000e+02,2.480000000000000000e+02,3.520000000000000000e+02,4.180000000000000000e+02,3.350000000000000000e+02,1.560000000000000000e+02,7.800000000000000000e+01,1.120000000000000000e+02,2.500000000000000000e-01,9.575666500000000000e+09
2.440000000000000000e+02,2.470000000000000000e+02,2.820000000000000000e+02,2.220000000000000000e+02,2.100000000000000000e+02,1.060000000000000000e+02,6.900000000000000000e+01,1.230000000000000000e+02,2.600000000000000089e-01,9.611587800000000000e+09
2.490000000000000000e+02,2.450000000000000000e+02,2.750000000000000000e+02,1.670000000000000000e+02,1.640000000000000000e+02,8.400000000000000000e+01,6.800000000000000000e+01,1.240000000000000000e+02,2.700000000000000178e-01,9.630433700000000000e+09
2.770000000000000000e+02,2.690000000000000000e+02,3.460000000000000000e+02,1.490000000000000000e+02,1.430000000000000000e+02,7.700000000000000000e+01,7.000000000000000000e+01,1.270000000000000000e+02,2.800000000000000266e-01,9.649917000000000000e+09
3.050000000000000000e+02,2.380000000000000000e+02,3.090000000000000000e+02,1.240000000000000000e+02,1.210000000000000000e+02,6.900000000000000000e+01,6.600000000000000000e+01,1.090000000000000000e+02,2.899999999999999800e-01,9.668825500000000000e+09
2.630000000000000000e+02,3.530000000000000000e+02,2.940000000000000000e+02,1.100000000000000000e+02,1.080000000000000000e+02,6.200000000000000000e+01,5.800000000000000000e+01,7.800000000000000000e+01,2.899999999999999800e-01,9.687374500000000000e+09
2.520000000000000000e+02,3.850000000000000000e+02,2.780000000000000000e+02,1.140000000000000000e+02,1.140000000000000000e+02,6.000000000000000000e+01,5.000000000000000000e+01,6.000000000000000000e+01,3.099999999999999978e-01,9.705860500000000000e+09
2.860000000000000000e+02,4.210000000000000000e+02,2.790000000000000000e+02,1.190000000000000000e+02,1.100000000000000000e+02,6.000000000000000000e+01,5.100000000000000000e+01,6.500000000000000000e+01,3.300000000000000155e-01,9.726055900000000000e+09
2.620000000000000000e+02,4.430000000000000000e+02,3.650000000000000000e+02,2.260000000000000000e+02,2.270000000000000000e+02,7.300000000000000000e+01,5.200000000000000000e+01,6.100000000000000000e+01,3.400000000000000244e-01,9.744428100000000000e+09
2.270000000000000000e+02,4.980000000000000000e+02,4.250000000000000000e+02,2.680000000000000000e+02,2.770000000000000000e+02,8.400000000000000000e+01,5.500000000000000000e+01,5.900000000000000000e+01,3.400000000000000244e-01,9.763122000000000000e+09
2.180000000000000000e+02,4.360000000000000000e+02,4.620000000000000000e+02,2.690000000000000000e+02,2.760000000000000000e+02,8.200000000000000000e+01,5.400000000000000000e+01,6.000000000000000000e+01,3.400000000000000244e-01,9.781797800000000000e+09
1.940000000000000000e+02,4.050000000000000000e+02,4.620000000000000000e+02,2.700000000000000000e+02,2.690000000000000000e+02,7.700000000000000000e+01,5.000000000000000000e+01,6.400000000000000000e+01,3.400000000000000244e-01,9.801431600000000000e+09
1.380000000000000000e+02,3.820000000000000000e+02,4.820000000000000000e+02,2.660000000000000000e+02,2.700000000000000000e+02,7.700000000000000000e+01,4.600000000000000000e+01,6.300000000000000000e+01,3.400000000000000244e-01,9.820120700000000000e+09
1.470000000000000000e+02,3.950000000000000000e+02,3.750000000000000000e+02,1.800000000000000000e+02,1.850000000000000000e+02,5.900000000000000000e+01,3.900000000000000000e+01,6.300000000000000000e+01,3.400000000000000244e-01,9.839258000000000000e+09
1.960000000000000000e+02,4.590000000000000000e+02,3.520000000000000000e+02,1.340000000000000000e+02,1.070000000000000000e+02,6.200000000000000000e+01,5.700000000000000000e+01,7.200000000000000000e+01,3.499999999999999778e-01,9.859641200000000000e+09
1.850000000000000000e+02,4.440000000000000000e+02,2.910000000000000000e+02,1.310000000000000000e+02,1.060000000000000000e+02,6.600000000000000000e+01,5.800000000000000000e+01,6.800000000000000000e+01,3.499999999999999778e-01,9.879864300000000000e+09
1.760000000000000000e+02,4.880000000000000000e+02,3.080000000000000000e+02,1.190000000000000000e+02,1.000000000000000000e+02,6.800000000000000000e+01,6.100000000000000000e+01,6.800000000000000000e+01,3.599999999999999867e-01,9.897922100000000000e+09
2.220000000000000000e+02,5.160000000000000000e+02,3.240000000000000000e+02,1.200000000000000000e+02,9.400000000000000000e+01,6.900000000000000000e+01,6.600000000000000000e+01,7.900000000000000000e+01,3.599999999999999867e-01,9.917270500000000000e+09
2.630000000000000000e+02,5.420000000000000000e+02,3.400000000000000000e+02,1.200000000000000000e+02,8.600000000000000000e+01,7.500000000000000000e+01,7.000000000000000000e+01,8.600000000000000000e+01,3.699999999999999956e-01,9.937085600000000000e+09
2.390000000000000000e+02,4.390000000000000000e+02,2.860000000000000000e+02,1.060000000000000000e+02,7.400000000000000000e+01,6.000000000000000000e+01,5.400000000000000000e+01,9.600000000000000000e+01,3.699999999999999956e-01,9.955626500000000000e+09
2.720000000000000000e+02,4.500000000000000000e+02,3.220000000000000000e+02,1.050000000000000000e+02,6.700000000000000000e+01,5.200000000000000000e+01,5.500000000000000000e+01,1.080000000000000000e+02,3.800000000000000044e-01,9.974361800000000000e+09
3.010000000000000000e+02,4.360000000000000000e+02,3.580000000000000000e+02,1.100000000000000000e+02,6.600000000000000000e+01,5.300000000000000000e+01,5.900000000000000000e+01,1.180000000000000000e+02,4.000000000000000222e-01,9.993996700000000000e+09
2.940000000000000000e+02,3.920000000000000000e+02,3.250000000000000000e+02,1.210000000000000000e+02,8.200000000000000000e+01,5.000000000000000000e+01,5.400000000000000000e+01,1.080000000000000000e+02,4.099999999999999756e-01,1.001492630000000000e+10
2.800000000000000000e+02,4.060000000000000000e+02,3.190000000000000000e+02,1.840000000000000000e+02,1.240000000000000000e+02,5.800000000000000000e+01,5.300000000000000000e+01,1.050000000000000000e+02,4.299999999999999933e-01,1.003616740000000000e+10
2.820000000000000000e+02,3.930000000000000000e+02,3.320000000000000000e+02,4.260000000000000000e+02,3.850000000000000000e+02,1.290000000000000000e+02,6.200000000000000000e+01,9.200000000000000000e+01,4.400000000000000022e-01,1.005477030000000000e+10
3.130000000000000000e+02,4.050000000000000000e+02,3.190000000000000000e+02,5.050000000000000000e+02,4.380000000000000000e+02,1.480000000000000000e+02,7.400000000000000000e+01,1.000000000000000000e+02,4.299999999999999933e-01,1.007422300000000000e+10
3.160000000000000000e+02,3.700000000000000000e+02,2.660000000000000000e+02,5.080000000000000000e+02,4.390000000000000000e+02,1.460000000000000000e+02,6.900000000000000000e+01,1.060000000000000000e+02,4.199999999999999845e-01,1.009317360000000000e+10
2.950000000000000000e+02,3.620000000000000000e+02,2.590000000000000000e+02,5.130000000000000000e+02,4.400000000000000000e+02,1.490000000000000000e+02,7.400000000000000000e+01,1.140000000000000000e+02,4.099999999999999756e-01,1.011409750000000000e+10
3.030000000000000000e+02,3.180000000000000000e+02,2.540000000000000000e+02,5.010000000000000000e+02,4.320000000000000000e+02,1.440000000000000000e+02,7.200000000000000000e+01,1.150000000000000000e+02,4.000000000000000222e-01,1.013651750000000000e+10
2.930000000000000000e+02,3.060000000000000000e+02,2.340000000000000000e+02,3.260000000000000000e+02,2.360000000000000000e+02,8.700000000000000000e+01,6.400000000000000000e+01,1.240000000000000000e+02,3.900000000000000133e-01,1.015568920000000000e+10
2.410000000000000000e+02,2.690000000000000000e+02,2.230000000000000000e+02,1.890000000000000000e+02,1.200000000000000000e+02,6.100000000000000000e+01,6.300000000000000000e+01,1.270000000000000000e+02,3.900000000000000133e-01,1.017423100000000000e+10
1.990000000000000000e+02,2.660000000000000000e+02,2.170000000000000000e+02,1.820000000000000000e+02,1.180000000000000000e+02,1.070000000000000000e+02,2.080000000000000000e+02,1.470000000000000000e+02,3.900000000000000133e-01,1.019501710000000000e+10
1.980000000000000000e+02,2.670000000000000000e+02,2.190000000000000000e+02,1.770000000000000000e+02,1.170000000000000000e+02,1.190000000000000000e+02,2.200000000000000000e+02,1.440000000000000000e+02,3.900000000000000133e-01,1.021567270000000000e+10
1.520000000000000000e+02,1.880000000000000000e+02,1.920000000000000000e+02,2.210000000000000000e+02,1.280000000000000000e+02,1.240000000000000000e+02,2.270000000000000000e+02,1.450000000000000000e+02,3.900000000000000133e-01,1.023600720000000000e+10
1.700000000000000000e+02,1.950000000000000000e+02,2.040000000000000000e+02,2.240000000000000000e+02,1.190000000000000000e+02,1.310000000000000000e+02,3.090000000000000000e+02,1.450000000000000000e+02,3.900000000000000133e-01,1.025547590000000000e+10
1.370000000000000000e+02,1.670000000000000000e+02,1.780000000000000000e+02,2.170000000000000000e+02,1.120000000000000000e+02,1.580000000000000000e+02,4.770000000000000000e+02,1.290000000000000000e+02,3.900000000000000133e-01,1.027528770000000000e+10
1.390000000000000000e+02,1.660000000000000000e+02,1.830000000000000000e+02,2.130000000000000000e+02,1.130000000000000000e+02,1.770000000000000000e+02,4.800000000000000000e+02,8.900000000000000000e+01,4.099999999999999756e-01,1.029529340000000000e+10
1.400000000000000000e+02,2.040000000000000000e+02,2.870000000000000000e+02,1.960000000000000000e+02,9.700000000000000000e+01,1.670000000000000000e+02,4.880000000000000000e+02,8.700000000000000000e+01,4.299999999999999933e-01,1.031489040000000000e+10
1.410000000000000000e+02,1.930000000000000000e+02,2.920000000000000000e+02,1.150000000000000000e+02,6.400000000000000000e+01,1.740000000000000000e+02,5.220000000000000000e+02,8.400000000000000000e+01,4.400000000000000022e-01,1.033388330000000000e+10
1.540000000000000000e+02,2.030000000000000000e+02,2.920000000000000000e+02,8.200000000000000000e+01,5.600000000000000000e+01,1.740000000000000000e+02,6.200000000000000000e+02,6.800000000000000000e+01,4.600000000000000200e-01,1.035316920000000000e+10
1.590000000000000000e+02,2.290000000000000000e+02,3.180000000000000000e+02,1.020000000000000000e+02,6.600000000000000000e+01,1.510000000000000000e+02,5.350000000000000000e+02,6.700000000000000000e+01,4.699999999999999734e-01,1.037282960000000000e+10
1.850000000000000000e+02,4.530000000000000000e+02,5.190000000000000000e+02,1.470000000000000000e+02,8.500000000000000000e+01,1.050000000000000000e+02,5.010000000000000000e+02,7.700000000000000000e+01,4.899999999999999911e-01,1.039466430000000000e+10
