1.040000000000000000e+02,8.900000000000000000e+01,5.700000000000000000e+01,5.900000000000000000e+01,3.700000000000000000e+01,3.300000000000000000e+01,2.900000000000000000e+01,4.000000000000000000e+01,4.799999999999999822e-01,4.687312000000000000e+08
9.300000000000000000e+01,6.700000000000000000e+01,5.700000000000000000e+01,5.900000000000000000e+01,3.600000000000000000e+01,3.200000000000000000e+01,2.800000000000000000e+01,3.900000000000000000e+01,4.799999999999999822e-01,4.971751000000000000e+08
9.500000000000000000e+01,8.100000000000000000e+01,6.500000000000000000e+01,5.400000000000000000e+01,3.800000000000000000e+01,3.300000000000000000e+01,3.000000000000000000e+01,4.200000000000000000e+01,4.799999999999999822e-01,1.262558800000000000e+09
9.600000000000000000e+01,7.800000000000000000e+01,6.800000000000000000e+01,5.300000000000000000e+01,4.100000000000000000e+01,3.700000000000000000e+01,3.100000000000000000e+01,4.200000000000000000e+01,4.799999999999999822e-01,1.281412900000000000e+09
8.600000000000000000e+01,8.100000000000000000e+01,6.700000000000000000e+01,6.200000000000000000e+01,4.400000000000000000e+01,3.900000000000000000e+01,3.200000000000000000e+01,4.100000000000000000e+01,4.799999999999999822e-01,1.301210500000000000e+09
7.500000000000000000e+01,8.700000000000000000e+01,6.900000000000000000e+01,5.100000000000000000e+01,5.100000000000000000e+01,3.700000000000000000e+01,3.300000000000000000e+01,3.900000000000000000e+01,4.799999999999999822e-01,1.319518400000000000e+09
8.900000000000000000e+01,9.900000000000000000e+01,6.700000000000000000e+01,5.400000000000000000e+01,6.500000000000000000e+01,4.000000000000000000e+01,3.500000000000000000e+01,4.400000000000000000e+01,4.799999999999999822e-01,1.338221800000000000e+09
8.800000000000000000e+01,9.000000000000000000e+01,5.800000000000000000e+01,6.100000000000000000e+01,6.500000000000000000e+01,3.900000000000000000e+01,3.300000000000000000e+01,4.000000000000000000e+01,4.799999999999999822e-01,1.357574900000000000e+09
8.600000000000000000e+01,9.200000000000000000e+01,6.500000000000000000e+01,6.500000000000000000e+01,6.300000000000000000e+01,3.600000000000000000e+01,3.200000000000000000e+01,4.100000000000000000e+01,4.799999999999999822e-01,1.377313700000000000e+09
7.700000000000000000e+01,8.400000000000000000e+01,6.200000000000000000e+01,6.000000000000000000e+01,6.400000000000000000e+01,3.000000000000000000e+01,2.900000000000000000e+01,3.600000000000000000e+01,4.799999999999999822e-01,1.397664400000000000e+09
7.900000000000000000e+01,8.600000000000000000e+01,6.000000000000000000e+01,6.200000000000000000e+01,6.400000000000000000e+01,3.100000000000000000e+01,3.000000000000000000e+01,4.000000000000000000e+01,4.799999999999999822e-01,1.415736400000000000e+09
6.300000000000000000e+01,7.500000000000000000e+01,7.200000000000000000e+01,7.100000000000000000e+01,5.600000000000000000e+01,2.600000000000000000e+01,2.700000000000000000e+01,3.700000000000000000e+01,4.799999999999999822e-01,1.434586400000000000e+09
5.900000000000000000e+01,7.400000000000000000e+01,8.600000000000000000e+01,8.200000000000000000e+01,5.600000000000000000e+01,3.300000000000000000e+01,2.700000000000000000e+01,3.600000000000000000e+01,4.899999999999999911e-01,1.453253500000000000e+09
5.300000000000000000e+01,8.200000000000000000e+01,1.400000000000000000e+02,1.060000000000000000e+02,6.600000000000000000e+01,3.500000000000000000e+01,2.800000000000000000e+01,3.800000000000000000e+01,4.899999999999999911e-01,1.472420200000000000e+09
5.300000000000000000e+01,8.100000000000000000e+01,1.500000000000000000e+02,1.220000000000000000e+02,7.100000000000000000e+01,3.500000000000000000e+01,2.900000000000000000e+01,5.300000000000000000e+01,4.899999999999999911e-01,1.491820100000000000e+09
5.400000000000000000e+01,8.600000000000000000e+01,1.670000000000000000e+02,1.410000000000000000e+02,7.600000000000000000e+01,5.000000000000000000e+01,4.700000000000000000e+01,1.120000000000000000e+02,4.899999999999999911e-01,1.511144100000000000e+09
5.100000000000000000e+01,8.200000000000000000e+01,1.630000000000000000e+02,1.440000000000000000e+02,7.500000000000000000e+01,5.200000000000000000e+01,4.800000000000000000e+01,1.130000000000000000e+02,5.000000000000000000e-01,1.530043600000000000e+09
5.900000000000000000e+01,8.800000000000000000e+01,1.600000000000000000e+02,1.430000000000000000e+02,7.500000000000000000e+01,4.800000000000000000e+01,5.000000000000000000e+01,1.160000000000000000e+02,5.000000000000000000e-01,1.548919900000000000e+09
5.800000000000000000e+01,8.200000000000000000e+01,1.460000000000000000e+02,1.560000000000000000e+02,7.100000000000000000e+01,4.800000000000000000e+01,4.900000000000000000e+01,1.170000000000000000e+02,5.100000000000000089e-01,1.595470400000000000e+09
6.300000000000000000e+01,9.200000000000000000e+01,1.400000000000000000e+02,1.520000000000000000e+02,6.400000000000000000e+01,5.200000000000000000e+01,5.000000000000000000e+01,1.140000000000000000e+02,5.100000000000000089e-01,1.615026000000000000e+09
5.800000000000000000e+01,7.800000000000000000e+01,1.310000000000000000e+02,1.470000000000000000e+02,5.400000000000000000e+01,3.800000000000000000e+01,3.300000000000000000e+01,5.700000000000000000e+01,5.200000000000000178e-01,1.635690300000000000e+09
5.900000000000000000e+01,8.400000000000000000e+01,1.400000000000000000e+02,1.510000000000000000e+02,4.900000000000000000e+01,3.800000000000000000e+01,3.600000000000000000e+01,5.300000000000000000e+01,5.300000000000000266e-01,1.654611100000000000e+09
5.300000000000000000e+01,8.600000000000000000e+01,1.550000000000000000e+02,1.520000000000000000e+02,5.000000000000000000e+01,3.900000000000000000e+01,3.300000000000000000e+01,4.800000000000000000e+01,5.300000000000000266e-01,1.673952400000000000e+09
5.400000000000000000e+01,8.700000000000000000e+01,1.260000000000000000e+02,1.250000000000000000e+02,4.600000000000000000e+01,3.900000000000000000e+01,3.500000000000000000e+01,4.600000000000000000e+01,5.400000000000000355e-01,1.692766100000000000e+09
4.600000000000000000e+01,7.500000000000000000e+01,1.380000000000000000e+02,1.220000000000000000e+02,6.500000000000000000e+01,4.100000000000000000e+01,3.300000000000000000e+01,4.000000000000000000e+01,5.400000000000000355e-01,1.713857300000000000e+09
6.100000000000000000e+01,9.200000000000000000e+01,1.510000000000000000e+02,1.530000000000000000e+02,8.700000000000000000e+01,4.800000000000000000e+01,4.200000000000000000e+01,4.900000000000000000e+01,5.500000000000000444e-01,1.736697500000000000e+09
6.600000000000000000e+01,8.800000000000000000e+01,1.480000000000000000e+02,1.580000000000000000e+02,1.010000000000000000e+02,4.900000000000000000e+01,4.200000000000000000e+01,4.800000000000000000e+01,5.500000000000000444e-01,1.756776400000000000e+09
6.600000000000000000e+01,8.000000000000000000e+01,1.340000000000000000e+02,1.580000000000000000e+02,9.900000000000000000e+01,4.800000000000000000e+01,4.100000000000000000e+01,4.700000000000000000e+01,5.500000000000000444e-01,1.775069900000000000e+09
7.900000000000000000e+01,8.100000000000000000e+01,1.530000000000000000e+02,1.880000000000000000e+02,1.020000000000000000e+02,5.200000000000000000e+01,4.600000000000000000e+01,5.400000000000000000e+01,5.600000000000000533e-01,1.796686000000000000e+09
8.200000000000000000e+01,9.200000000000000000e+01,1.850000000000000000e+02,2.300000000000000000e+02,1.000000000000000000e+02,5.100000000000000000e+01,4.800000000000000000e+01,5.900000000000000000e+01,5.600000000000000533e-01,1.814863500000000000e+09
7.200000000000000000e+01,8.300000000000000000e+01,1.680000000000000000e+02,2.070000000000000000e+02,8.400000000000000000e+01,4.600000000000000000e+01,4.000000000000000000e+01,5.100000000000000000e+01,5.699999999999999512e-01,1.835167900000000000e+09
6.700000000000000000e+01,8.500000000000000000e+01,1.700000000000000000e+02,2.030000000000000000e+02,7.400000000000000000e+01,4.900000000000000000e+01,4.200000000000000000e+01,5.200000000000000000e+01,5.699999999999999512e-01,1.853147700000000000e+09
6.800000000000000000e+01,8.900000000000000000e+01,1.870000000000000000e+02,2.250000000000000000e+02,1.050000000000000000e+02,5.600000000000000000e+01,4.400000000000000000e+01,5.100000000000000000e+01,5.699999999999999512e-01,1.871428500000000000e+09
5.200000000000000000e+01,8.600000000000000000e+01,1.750000000000000000e+02,2.070000000000000000e+02,1.120000000000000000e+02,5.400000000000000000e+01,3.900000000000000000e+01,4.300000000000000000e+01,5.699999999999999512e-01,1.889551500000000000e+09
4.900000000000000000e+01,7.700000000000000000e+01,1.560000000000000000e+02,1.670000000000000000e+02,1.170000000000000000e+02,5.400000000000000000e+01,4.000000000000000000e+01,3.500000000000000000e+01,5.699999999999999512e-01,1.908033000000000000e+09
4.700000000000000000e+01,6.600000000000000000e+01,1.680000000000000000e+02,1.710000000000000000e+02,1.180000000000000000e+02,5.600000000000000000e+01,4.000000000000000000e+01,3.500000000000000000e+01,5.699999999999999512e-01,1.926569800000000000e+09
4.400000000000000000e+01,6.100000000000000000e+01,1.630000000000000000e+02,1.620000000000000000e+02,1.180000000000000000e+02,5.500000000000000000e+01,3.800000000000000000e+01,3.400000000000000000e+01,5.699999999999999512e-01,1.945741600000000000e+09
4.200000000000000000e+01,5.800000000000000000e+01,1.490000000000000000e+02,1.400000000000000000e+02,1.160000000000000000e+02,5.000000000000000000e+01,4.200000000000000000e+01,3.900000000000000000e+01,5.699999999999999512e-01,1.963607500000000000e+09
4.100000000000000000e+01,5.900000000000000000e+01,1.480000000000000000e+02,1.310000000000000000e+02,1.230000000000000000e+02,5.600000000000000000e+01,4.700000000000000000e+01,4.100000000000000000e+01,5.699999999999999512e-01,1.981752100000000000e+09
4.300000000000000000e+01,6.000000000000000000e+01,1.360000000000000000e+02,1.200000000000000000e+02,1.130000000000000000e+02,5.400000000000000000e+01,4.300000000000000000e+01,4.100000000000000000e+01,5.699999999999999512e-01,2.000042800000000000e+09
4.400000000000000000e+01,5.900000000000000000e+01,1.200000000000000000e+02,1.080000000000000000e+02,1.130000000000000000e+02,5.400000000000000000e+01,4.400000000000000000e+01,3.700000000000000000e+01,5.600000000000000533e-01,2.018723100000000000e+09
4.400000000000000000e+01,5.900000000000000000e+01,1.210000000000000000e+02,1.180000000000000000e+02,1.210000000000000000e+02,5.100000000000000000e+01,4.300000000000000000e+01,3.500000000000000000e+01,5.600000000000000533e-01,2.037216200000000000e+09
3.900000000000000000e+01,5.700000000000000000e+01,1.240000000000000000e+02,1.240000000000000000e+02,1.030000000000000000e+02,5.500000000000000000e+01,3.800000000000000000e+01,3.300000000000000000e+01,5.600000000000000533e-01,2.056294100000000000e+09
3.700000000000000000e+01,5.400000000000000000e+01,1.180000000000000000e+02,1.240000000000000000e+02,8.500000000000000000e+01,4.700000000000000000e+01,3.100000000000000000e+01,2.800000000000000000e+01,5.500000000000000444e-01,2.074803700000000000e+09
3.400000000000000000e+01,5.100000000000000000e+01,9.600000000000000000e+01,1.230000000000000000e+02,8.400000000000000000e+01,4.900000000000000000e+01,3.100000000000000000e+01,2.700000000000000000e+01,5.500000000000000444e-01,2.093518800000000000e+09
3.400000000000000000e+01,5.200000000000000000e+01,9.700000000000000000e+01,1.230000000000000000e+02,8.100000000000000000e+01,4.600000000000000000e+01,2.800000000000000000e+01,3.000000000000000000e+01,5.500000000000000444e-01,2.113181500000000000e+09
3.600000000000000000e+01,5.200000000000000000e+01,1.110000000000000000e+02,1.260000000000000000e+02,6.700000000000000000e+01,5.100000000000000000e+01,3.200000000000000000e+01,3.400000000000000000e+01,5.500000000000000444e-01,2.131499300000000000e+09
3.700000000000000000e+01,5.600000000000000000e+01,9.600000000000000000e+01,1.030000000000000000e+02,6.200000000000000000e+01,4.700000000000000000e+01,3.400000000000000000e+01,3.100000000000000000e+01,5.500000000000000444e-01,2.150122700000000000e+09
4.000000000000000000e+01,5.300000000000000000e+01,1.000000000000000000e+02,1.030000000000000000e+02,6.700000000000000000e+01,4.600000000000000000e+01,3.400000000000000000e+01,3.400000000000000000e+01,5.500000000000000444e-01,2.168279900000000000e+09
3.800000000000000000e+01,5.500000000000000000e+01,1.050000000000000000e+02,1.070000000000000000e+02,7.500000000000000000e+01,4.600000000000000000e+01,3.800000000000000000e+01,3.400000000000000000e+01,5.500000000000000444e-01,2.186886200000000000e+09
4.600000000000000000e+01,6.100000000000000000e+01,1.360000000000000000e+02,1.470000000000000000e+02,1.260000000000000000e+02,6.100000000000000000e+01,4.500000000000000000e+01,4.000000000000000000e+01,5.500000000000000444e-01,2.205630700000000000e+09
4.700000000000000000e+01,6.100000000000000000e+01,1.200000000000000000e+02,1.410000000000000000e+02,1.340000000000000000e+02,6.200000000000000000e+01,4.700000000000000000e+01,4.200000000000000000e+01,5.500000000000000444e-01,2.225888300000000000e+09
4.700000000000000000e+01,5.300000000000000000e+01,1.210000000000000000e+02,1.460000000000000000e+02,1.360000000000000000e+02,6.300000000000000000e+01,4.600000000000000000e+01,4.100000000000000000e+01,5.500000000000000444e-01,2.244916900000000000e+09
5.900000000000000000e+01,5.700000000000000000e+01,1.400000000000000000e+02,1.610000000000000000e+02,1.360000000000000000e+02,6.400000000000000000e+01,4.700000000000000000e+01,4.300000000000000000e+01,5.500000000000000444e-01,2.262722700000000000e+09
6.500000000000000000e+01,5.600000000000000000e+01,1.470000000000000000e+02,1.610000000000000000e+02,1.340000000000000000e+02,6.200000000000000000e+01,4.400000000000000000e+01,4.700000000000000000e+01,5.400000000000000355e-01,2.282343700000000000e+09
6.000000000000000000e+01,5.300000000000000000e+01,1.240000000000000000e+02,1.320000000000000000e+02,9.700000000000000000e+01,4.900000000000000000e+01,4.300000000000000000e+01,4.500000000000000000e+01,5.400000000000000355e-01,2.300999000000000000e+09
6.000000000000000000e+01,5.100000000000000000e+01,1.280000000000000000e+02,1.300000000000000000e+02,8.800000000000000000e+01,4.600000000000000000e+01,3.700000000000000000e+01,4.100000000000000000e+01,5.400000000000000355e-01,2.318722600000000000e+09
6.500000000000000000e+01,5.300000000000000000e+01,1.280000000000000000e+02,1.280000000000000000e+02,8.400000000000000000e+01,4.600000000000000000e+01,3.700000000000000000e+01,4.200000000000000000e+01,5.400000000000000355e-01,2.336108900000000000e+09
7.400000000000000000e+01,7.300000000000000000e+01,1.090000000000000000e+02,1.100000000000000000e+02,7.700000000000000000e+01,4.200000000000000000e+01,3.500000000000000000e+01,4.600000000000000000e+01,5.400000000000000355e-01,2.355534200000000000e+09
7.100000000000000000e+01,7.500000000000000000e+01,9.200000000000000000e+01,1.000000000000000000e+02,7.200000000000000000e+01,4.200000000000000000e+01,3.500000000000000000e+01,4.300000000000000000e+01,5.400000000000000355e-01,2.372963300000000000e+09
7.100000000000000000e+01,7.500000000000000000e+01,8.400000000000000000e+01,9.100000000000000000e+01,5.600000000000000000e+01,4.000000000000000000e+01,2.900000000000000000e+01,3.900000000000000000e+01,5.400000000000000355e-01,2.391434200000000000e+09
7.200000000000000000e+01,7.600000000000000000e+01,7.900000000000000000e+01,8.900000000000000000e+01,4.900000000000000000e+01,3.300000000000000000e+01,2.900000000000000000e+01,3.800000000000000000e+01,5.400000000000000355e-01,2.409572500000000000e+09
7.300000000000000000e+01,7.800000000000000000e+01,7.000000000000000000e+01,7.500000000000000000e+01,4.400000000000000000e+01,2.900000000000000000e+01,2.700000000000000000e+01,4.200000000000000000e+01,5.400000000000000355e-01,2.427901600000000000e+09
5.500000000000000000e+01,7.600000000000000000e+01,7.400000000000000000e+01,6.100000000000000000e+01,4.200000000000000000e+01,3.100000000000000000e+01,2.800000000000000000e+01,3.400000000000000000e+01,5.400000000000000355e-01,2.446906000000000000e+09
5.400000000000000000e+01,7.200000000000000000e+01,7.800000000000000000e+01,7.200000000000000000e+01,4.500000000000000000e+01,3.200000000000000000e+01,3.200000000000000000e+01,3.400000000000000000e+01,5.300000000000000266e-01,2.465089000000000000e+09
5.300000000000000000e+01,8.100000000000000000e+01,9.600000000000000000e+01,1.160000000000000000e+02,6.000000000000000000e+01,3.100000000000000000e+01,2.900000000000000000e+01,3.500000000000000000e+01,5.400000000000000355e-01,2.483352500000000000e+09
5.300000000000000000e+01,9.500000000000000000e+01,1.040000000000000000e+02,1.340000000000000000e+02,6.900000000000000000e+01,4.100000000000000000e+01,3.000000000000000000e+01,3.400000000000000000e+01,5.400000000000000355e-01,2.502720900000000000e+09
4.800000000000000000e+01,9.300000000000000000e+01,1.080000000000000000e+02,1.390000000000000000e+02,7.000000000000000000e+01,4.200000000000000000e+01,3.300000000000000000e+01,2.800000000000000000e+01,5.400000000000000355e-01,2.521668100000000000e+09
4.300000000000000000e+01,7.700000000000000000e+01,1.030000000000000000e+02,1.470000000000000000e+02,7.800000000000000000e+01,4.200000000000000000e+01,3.600000000000000000e+01,2.900000000000000000e+01,5.400000000000000355e-01,2.540565500000000000e+09
4.100000000000000000e+01,8.500000000000000000e+01,1.090000000000000000e+02,1.430000000000000000e+02,7.900000000000000000e+01,4.500000000000000000e+01,3.500000000000000000e+01,2.900000000000000000e+01,5.400000000000000355e-01,2.558497900000000000e+09
3.900000000000000000e+01,7.900000000000000000e+01,1.000000000000000000e+02,1.220000000000000000e+02,1.030000000000000000e+02,4.900000000000000000e+01,3.800000000000000000e+01,2.700000000000000000e+01,5.500000000000000444e-01,2.576499500000000000e+09
4.000000000000000000e+01,6.500000000000000000e+01,1.000000000000000000e+02,1.070000000000000000e+02,1.000000000000000000e+02,4.800000000000000000e+01,4.000000000000000000e+01,3.000000000000000000e+01,5.500000000000000444e-01,2.593943000000000000e+09
4.400000000000000000e+01,6.700000000000000000e+01,9.500000000000000000e+01,9.900000000000000000e+01,1.000000000000000000e+02,5.000000000000000000e+01,4.000000000000000000e+01,3.100000000000000000e+01,5.500000000000000444e-01,2.612289700000000000e+09
4.500000000000000000e+01,7.000000000000000000e+01,9.400000000000000000e+01,1.030000000000000000e+02,1.410000000000000000e+02,5.500000000000000000e+01,4.200000000000000000e+01,3.300000000000000000e+01,5.400000000000000355e-01,2.630798800000000000e+09
4.600000000000000000e+01,6.500000000000000000e+01,8.000000000000000000e+01,1.160000000000000000e+02,1.550000000000000000e+02,6.500000000000000000e+01,4.500000000000000000e+01,3.700000000000000000e+01,5.400000000000000355e-01,2.649379900000000000e+09
4.700000000000000000e+01,7.400000000000000000e+01,1.180000000000000000e+02,1.230000000000000000e+02,1.440000000000000000e+02,6.400000000000000000e+01,4.500000000000000000e+01,3.800000000000000000e+01,5.400000000000000355e-01,2.667202500000000000e+09
4.400000000000000000e+01,7.100000000000000000e+01,1.140000000000000000e+02,1.200000000000000000e+02,1.460000000000000000e+02,6.100000000000000000e+01,4.300000000000000000e+01,3.600000000000000000e+01,5.400000000000000355e-01,2.684704500000000000e+09
3.400000000000000000e+01,7.000000000000000000e+01,1.190000000000000000e+02,1.220000000000000000e+02,1.580000000000000000e+02,6.400000000000000000e+01,4.500000000000000000e+01,3.400000000000000000e+01,5.400000000000000355e-01,2.703682300000000000e+09
3.400000000000000000e+01,6.600000000000000000e+01,1.180000000000000000e+02,1.200000000000000000e+02,1.420000000000000000e+02,7.100000000000000000e+01,4.400000000000000000e+01,3.400000000000000000e+01,5.300000000000000266e-01,2.722108800000000000e+09
3.300000000000000000e+01,6.500000000000000000e+01,1.180000000000000000e+02,1.190000000000000000e+02,1.780000000000000000e+02,7.500000000000000000e+01,4.300000000000000000e+01,3.400000000000000000e+01,5.300000000000000266e-01,2.739550100000000000e+09
3.300000000000000000e+01,4.900000000000000000e+01,8.100000000000000000e+01,1.140000000000000000e+02,2.010000000000000000e+02,8.600000000000000000e+01,4.600000000000000000e+01,4.300000000000000000e+01,5.200000000000000178e-01,2.758046400000000000e+09
3.400000000000000000e+01,5.400000000000000000e+01,9.000000000000000000e+01,1.240000000000000000e+02,2.120000000000000000e+02,9.200000000000000000e+01,4.700000000000000000e+01,4.300000000000000000e+01,5.100000000000000089e-01,2.777928100000000000e+09
3.600000000000000000e+01,5.500000000000000000e+01,9.100000000000000000e+01,1.300000000000000000e+02,2.240000000000000000e+02,9.500000000000000000e+01,4.600000000000000000e+01,4.400000000000000000e+01,5.000000000000000000e-01,2.796053200000000000e+09
3.600000000000000000e+01,5.600000000000000000e+01,9.400000000000000000e+01,1.330000000000000000e+02,2.300000000000000000e+02,8.700000000000000000e+01,4.200000000000000000e+01,4.200000000000000000e+01,5.000000000000000000e-01,2.815147000000000000e+09
3.500000000000000000e+01,5.400000000000000000e+01,9.800000000000000000e+01,1.240000000000000000e+02,1.960000000000000000e+02,7.600000000000000000e+01,3.900000000000000000e+01,4.200000000000000000e+01,4.899999999999999911e-01,2.832727600000000000e+09
3.200000000000000000e+01,5.500000000000000000e+01,9.200000000000000000e+01,1.140000000000000000e+02,1.690000000000000000e+02,6.300000000000000000e+01,3.400000000000000000e+01,3.200000000000000000e+01,4.899999999999999911e-01,2.849385700000000000e+09
3.100000000000000000e+01,4.800000000000000000e+01,8.900000000000000000e+01,1.060000000000000000e+02,1.610000000000000000e+02,5.900000000000000000e+01,3.300000000000000000e+01,3.100000000000000000e+01,4.799999999999999822e-01,2.865963900000000000e+09
3.000000000000000000e+01,5.300000000000000000e+01,8.900000000000000000e+01,9.700000000000000000e+01,1.460000000000000000e+02,5.900000000000000000e+01,3.100000000000000000e+01,3.000000000000000000e+01,4.799999999999999822e-01,2.882705000000000000e+09
2.900000000000000000e+01,5.300000000000000000e+01,8.800000000000000000e+01,1.160000000000000000e+02,1.380000000000000000e+02,8.500000000000000000e+01,3.500000000000000000e+01,3.200000000000000000e+01,4.799999999999999822e-01,2.900816400000000000e+09
3.400000000000000000e+01,5.300000000000000000e+01,8.500000000000000000e+01,1.300000000000000000e+02,1.520000000000000000e+02,9.200000000000000000e+01,3.600000000000000000e+01,3.100000000000000000e+01,4.799999999999999822e-01,2.917971300000000000e+09
3.500000000000000000e+01,5.400000000000000000e+01,8.300000000000000000e+01,1.280000000000000000e+02,1.530000000000000000e+02,9.300000000000000000e+01,3.500000000000000000e+01,3.500000000000000000e+01,4.699999999999999734e-01,2.934573000000000000e+09
3.300000000000000000e+01,7.600000000000000000e+01,7.300000000000000000e+01,1.370000000000000000e+02,1.600000000000000000e+02,9.600000000000000000e+01,4.000000000000000000e+01,3.600000000000000000e+01,4.699999999999999734e-01,2.951452800000000000e+09
3.500000000000000000e+01,7.400000000000000000e+01,7.300000000000000000e+01,1.510000000000000000e+02,1.710000000000000000e+02,9.400000000000000000e+01,4.400000000000000000e+01,3.600000000000000000e+01,4.799999999999999822e-01,2.968219400000000000e+09
3.500000000000000000e+01,7.800000000000000000e+01,7.100000000000000000e+01,1.330000000000000000e+02,1.550000000000000000e+02,7.800000000000000000e+01,4.400000000000000000e+01,3.500000000000000000e+01,4.799999999999999822e-01,2.986165900000000000e+09
3.000000000000000000e+01,7.500000000000000000e+01,6.800000000000000000e+01,1.200000000000000000e+02,1.430000000000000000e+02,6.800000000000000000e+01,4.300000000000000000e+01,3.100000000000000000e+01,4.799999999999999822e-01,3.003541200000000000e+09
3.600000000000000000e+01,7.300000000000000000e+01,7.300000000000000000e+01,1.220000000000000000e+02,1.410000000000000000e+02,1.080000000000000000e+02,4.400000000000000000e+01,2.700000000000000000e+01,4.899999999999999911e-01,3.022489100000000000e+09
3.900000000000000000e+01,8.900000000000000000e+01,7.100000000000000000e+01,1.120000000000000000e+02,1.260000000000000000e+02,1.230000000000000000e+02,4.100000000000000000e+01,2.800000000000000000e+01,4.899999999999999911e-01,3.039797800000000000e+09
3.900000000000000000e+01,1.820000000000000000e+02,6.200000000000000000e+01,1.050000000000000000e+02,1.100000000000000000e+02,1.210000000000000000e+02,4.100000000000000000e+01,2.600000000000000000e+01,4.899999999999999911e-01,3.056643000000000000e+09
4.100000000000000000e+01,1.910000000000000000e+02,5.900000000000000000e+01,1.020000000000000000e+02,1.070000000000000000e+02,1.180000000000000000e+02,3.700000000000000000e+01,2.700000000000000000e+01,5.000000000000000000e-01,3.073787000000000000e+09
4.300000000000000000e+01,2.030000000000000000e+02,5.700000000000000000e+01,1.020000000000000000e+02,1.040000000000000000e+02,1.190000000000000000e+02,4.100000000000000000e+01,2.800000000000000000e+01,5.000000000000000000e-01,3.091941400000000000e+09
1.090000000000000000e+02,2.800000000000000000e+02,5.200000000000000000e+01,1.190000000000000000e+02,1.080000000000000000e+02,8.600000000000000000e+01,3.900000000000000000e+01,2.800000000000000000e+01,5.100000000000000089e-01,3.108834400000000000e+09
1.620000000000000000e+02,3.270000000000000000e+02,5.500000000000000000e+01,1.210000000000000000e+02,1.100000000000000000e+02,5.500000000000000000e+01,4.500000000000000000e+01,2.800000000000000000e+01,5.100000000000000089e-01,3.126045000000000000e+09
2.020000000000000000e+02,4.120000000000000000e+02,6.600000000000000000e+01,1.210000000000000000e+02,1.050000000000000000e+02,5.100000000000000000e+01,4.400000000000000000e+01,2.800000000000000000e+01,5.200000000000000178e-01,3.143037000000000000e+09
2.830000000000000000e+02,6.090000000000000000e+02,8.600000000000000000e+01,1.190000000000000000e+02,1.050000000000000000e+02,4.900000000000000000e+01,4.300000000000000000e+01,2.600000000000000000e+01,5.200000000000000178e-01,3.160135200000000000e+09
3.390000000000000000e+02,6.330000000000000000e+02,9.500000000000000000e+01,1.160000000000000000e+02,9.700000000000000000e+01,5.100000000000000000e+01,4.000000000000000000e+01,2.700000000000000000e+01,5.200000000000000178e-01,3.177379500000000000e+09
3.270000000000000000e+02,6.990000000000000000e+02,1.040000000000000000e+02,1.060000000000000000e+02,9.200000000000000000e+01,5.000000000000000000e+01,4.600000000000000000e+01,2.800000000000000000e+01,5.300000000000000266e-01,3.195085900000000000e+09
3.060000000000000000e+02,7.020000000000000000e+02,1.170000000000000000e+02,1.040000000000000000e+02,8.600000000000000000e+01,4.800000000000000000e+01,4.100000000000000000e+01,2.700000000000000000e+01,5.300000000000000266e-01,3.212318400000000000e+09
3.450000000000000000e+02,7.380000000000000000e+02,1.130000000000000000e+02,1.050000000000000000e+02,8.500000000000000000e+01,5.200000000000000000e+01,4.400000000000000000e+01,2.700000000000000000e+01,5.400000000000000355e-01,3.229894500000000000e+09
3.170000000000000000e+02,6.360000000000000000e+02,1.190000000000000000e+02,1.140000000000000000e+02,8.500000000000000000e+01,5.200000000000000000e+01,4.500000000000000000e+01,2.900000000000000000e+01,5.400000000000000355e-01,3.246719700000000000e+09
2.620000000000000000e+02,6.150000000000000000e+02,1.210000000000000000e+02,1.110000000000000000e+02,8.600000000000000000e+01,4.700000000000000000e+01,4.500000000000000000e+01,2.800000000000000000e+01,5.400000000000000355e-01,3.263896700000000000e+09
2.600000000000000000e+02,5.040000000000000000e+02,1.140000000000000000e+02,9.900000000000000000e+01,9.400000000000000000e+01,5.100000000000000000e+01,3.900000000000000000e+01,2.700000000000000000e+01,5.500000000000000444e-01,3.281449800000000000e+09
2.600000000000000000e+02,4.680000000000000000e+02,1.030000000000000000e+02,1.030000000000000000e+02,1.030000000000000000e+02,5.700000000000000000e+01,4.000000000000000000e+01,3.300000000000000000e+01,5.500000000000000444e-01,3.298830300000000000e+09
1.870000000000000000e+02,7.010000000000000000e+02,2.690000000000000000e+02,1.010000000000000000e+02,9.900000000000000000e+01,5.900000000000000000e+01,3.600000000000000000e+01,3.300000000000000000e+01,5.500000000000000444e-01,3.316531900000000000e+09
1.540000000000000000e+02,7.460000000000000000e+02,4.140000000000000000e+02,1.020000000000000000e+02,9.600000000000000000e+01,5.800000000000000000e+01,4.000000000000000000e+01,3.200000000000000000e+01,5.600000000000000533e-01,3.333909500000000000e+09
1.480000000000000000e+02,7.460000000000000000e+02,4.190000000000000000e+02,1.110000000000000000e+02,1.010000000000000000e+02,6.300000000000000000e+01,4.900000000000000000e+01,3.100000000000000000e+01,5.600000000000000533e-01,3.352534500000000000e+09
1.470000000000000000e+02,7.500000000000000000e+02,4.320000000000000000e+02,1.130000000000000000e+02,1.030000000000000000e+02,5.900000000000000000e+01,5.100000000000000000e+01,3.100000000000000000e+01,5.699999999999999512e-01,3.370567800000000000e+09
1.440000000000000000e+02,7.590000000000000000e+02,4.330000000000000000e+02,1.170000000000000000e+02,9.400000000000000000e+01,5.300000000000000000e+01,5.200000000000000000e+01,2.600000000000000000e+01,5.699999999999999512e-01,3.388959700000000000e+09
1.680000000000000000e+02,6.980000000000000000e+02,4.790000000000000000e+02,1.210000000000000000e+02,9.200000000000000000e+01,5.300000000000000000e+01,5.300000000000000000e+01,6.100000000000000000e+01,5.699999999999999512e-01,3.405828900000000000e+09
1.580000000000000000e+02,6.770000000000000000e+02,5.080000000000000000e+02,1.230000000000000000e+02,9.800000000000000000e+01,5.000000000000000000e+01,5.300000000000000000e+01,1.060000000000000000e+02,5.699999999999999512e-01,3.423251100000000000e+09
1.560000000000000000e+02,6.760000000000000000e+02,5.230000000000000000e+02,1.390000000000000000e+02,9.800000000000000000e+01,4.600000000000000000e+01,4.700000000000000000e+01,1.090000000000000000e+02,5.699999999999999512e-01,3.440002900000000000e+09
1.610000000000000000e+02,6.990000000000000000e+02,5.490000000000000000e+02,1.410000000000000000e+02,8.600000000000000000e+01,5.000000000000000000e+01,5.100000000000000000e+01,1.160000000000000000e+02,5.699999999999999512e-01,3.457024200000000000e+09
1.770000000000000000e+02,8.850000000000000000e+02,6.690000000000000000e+02,1.340000000000000000e+02,8.500000000000000000e+01,5.700000000000000000e+01,4.900000000000000000e+01,1.160000000000000000e+02,5.699999999999999512e-01,3.473449600000000000e+09
1.350000000000000000e+02,7.970000000000000000e+02,7.980000000000000000e+02,1.230000000000000000e+02,7.700000000000000000e+01,5.400000000000000000e+01,5.000000000000000000e+01,1.170000000000000000e+02,5.699999999999999512e-01,3.491363500000000000e+09
1.170000000000000000e+02,7.510000000000000000e+02,7.240000000000000000e+02,1.100000000000000000e+02,6.800000000000000000e+01,5.800000000000000000e+01,5.000000000000000000e+01,9.200000000000000000e+01,5.600000000000000533e-01,3.508906600000000000e+09
1.160000000000000000e+02,7.550000000000000000e+02,7.170000000000000000e+02,9.700000000000000000e+01,6.400000000000000000e+01,5.500000000000000000e+01,5.100000000000000000e+01,9.600000000000000000e+01,5.600000000000000533e-01,3.526322100000000000e+09
1.070000000000000000e+02,7.700000000000000000e+02,6.890000000000000000e+02,1.000000000000000000e+02,6.100000000000000000e+01,5.100000000000000000e+01,4.700000000000000000e+01,9.400000000000000000e+01,5.500000000000000444e-01,3.543104300000000000e+09
7.900000000000000000e+01,5.590000000000000000e+02,5.860000000000000000e+02,1.310000000000000000e+02,6.500000000000000000e+01,5.400000000000000000e+01,5.000000000000000000e+01,9.700000000000000000e+01,5.500000000000000444e-01,3.559916000000000000e+09
7.500000000000000000e+01,4.190000000000000000e+02,2.390000000000000000e+02,1.340000000000000000e+02,7.200000000000000000e+01,5.500000000000000000e+01,5.100000000000000000e+01,8.600000000000000000e+01,5.500000000000000444e-01,3.576716600000000000e+09
6.500000000000000000e+01,3.860000000000000000e+02,3.600000000000000000e+02,1.370000000000000000e+02,8.100000000000000000e+01,5.300000000000000000e+01,4.900000000000000000e+01,7.900000000000000000e+01,5.400000000000000355e-01,3.593312500000000000e+09
9.900000000000000000e+01,6.470000000000000000e+02,4.910000000000000000e+02,1.270000000000000000e+02,8.100000000000000000e+01,6.200000000000000000e+01,5.100000000000000000e+01,8.100000000000000000e+01,5.400000000000000355e-01,3.611894700000000000e+09
2.760000000000000000e+02,9.320000000000000000e+02,7.980000000000000000e+02,1.280000000000000000e+02,8.500000000000000000e+01,7.100000000000000000e+01,5.100000000000000000e+01,8.000000000000000000e+01,5.300000000000000266e-01,3.630390400000000000e+09
3.160000000000000000e+02,9.410000000000000000e+02,8.070000000000000000e+02,1.160000000000000000e+02,9.400000000000000000e+01,7.000000000000000000e+01,5.100000000000000000e+01,7.600000000000000000e+01,5.300000000000000266e-01,3.648744600000000000e+09
3.210000000000000000e+02,9.260000000000000000e+02,8.140000000000000000e+02,1.100000000000000000e+02,9.500000000000000000e+01,7.200000000000000000e+01,5.400000000000000000e+01,7.900000000000000000e+01,5.300000000000000266e-01,3.666881600000000000e+09
3.220000000000000000e+02,9.330000000000000000e+02,7.650000000000000000e+02,1.160000000000000000e+02,9.300000000000000000e+01,7.500000000000000000e+01,6.000000000000000000e+01,7.900000000000000000e+01,5.300000000000000266e-01,3.684947300000000000e+09
3.160000000000000000e+02,7.730000000000000000e+02,6.840000000000000000e+02,1.160000000000000000e+02,1.040000000000000000e+02,7.700000000000000000e+01,5.800000000000000000e+01,6.800000000000000000e+01,5.300000000000000266e-01,3.702348700000000000e+09
1.840000000000000000e+02,3.010000000000000000e+02,2.700000000000000000e+02,1.070000000000000000e+02,1.020000000000000000e+02,6.900000000000000000e+01,6.300000000000000000e+01,6.000000000000000000e+01,5.400000000000000355e-01,3.721131300000000000e+09
9.400000000000000000e+01,2.140000000000000000e+02,2.060000000000000000e+02,8.400000000000000000e+01,1.050000000000000000e+02,6.400000000000000000e+01,6.100000000000000000e+01,6.200000000000000000e+01,5.400000000000000355e-01,3.738326500000000000e+09
7.900000000000000000e+01,1.950000000000000000e+02,1.700000000000000000e+02,1.050000000000000000e+02,1.060000000000000000e+02,6.700000000000000000e+01,5.600000000000000000e+01,6.400000000000000000e+01,5.400000000000000355e-01,3.755760000000000000e+09
7.600000000000000000e+01,1.630000000000000000e+02,1.280000000000000000e+02,9.400000000000000000e+01,1.030000000000000000e+02,6.100000000000000000e+01,5.300000000000000000e+01,6.200000000000000000e+01,5.300000000000000266e-01,3.772955200000000000e+09
6.100000000000000000e+01,1.520000000000000000e+02,1.130000000000000000e+02,9.400000000000000000e+01,8.800000000000000000e+01,5.200000000000000000e+01,5.100000000000000000e+01,6.200000000000000000e+01,5.300000000000000266e-01,3.789608600000000000e+09
5.800000000000000000e+01,1.450000000000000000e+02,1.020000000000000000e+02,9.500000000000000000e+01,8.900000000000000000e+01,4.900000000000000000e+01,4.700000000000000000e+01,7.300000000000000000e+01,5.300000000000000266e-01,3.807236200000000000e+09
5.600000000000000000e+01,1.390000000000000000e+02,9.600000000000000000e+01,8.800000000000000000e+01,6.600000000000000000e+01,4.900000000000000000e+01,5.200000000000000000e+01,7.400000000000000000e+01,5.300000000000000266e-01,3.825753400000000000e+09
5.800000000000000000e+01,1.360000000000000000e+02,1.010000000000000000e+02,6.000000000000000000e+01,5.500000000000000000e+01,4.100000000000000000e+01,5.700000000000000000e+01,6.700000000000000000e+01,5.300000000000000266e-01,3.843727600000000000e+09
5.900000000000000000e+01,1.170000000000000000e+02,1.340000000000000000e+02,7.700000000000000000e+01,6.700000000000000000e+01,4.800000000000000000e+01,5.400000000000000000e+01,6.200000000000000000e+01,5.300000000000000266e-01,3.861625000000000000e+09
5.900000000000000000e+01,1.000000000000000000e+02,1.270000000000000000e+02,7.700000000000000000e+01,7.500000000000000000e+01,5.200000000000000000e+01,5.800000000000000000e+01,6.100000000000000000e+01,5.300000000000000266e-01,3.879689700000000000e+09
5.800000000000000000e+01,9.600000000000000000e+01,1.310000000000000000e+02,7.800000000000000000e+01,7.100000000000000000e+01,7.400000000000000000e+01,5.700000000000000000e+01,6.400000000000000000e+01,5.300000000000000266e-01,3.898034800000000000e+09
6.300000000000000000e+01,9.200000000000000000e+01,1.340000000000000000e+02,7.900000000000000000e+01,7.000000000000000000e+01,1.070000000000000000e+02,5.800000000000000000e+01,6.500000000000000000e+01,5.200000000000000178e-01,3.918830400000000000e+09
5.600000000000000000e+01,6.900000000000000000e+01,1.330000000000000000e+02,9.300000000000000000e+01,9.000000000000000000e+01,1.350000000000000000e+02,6.000000000000000000e+01,6.300000000000000000e+01,5.200000000000000178e-01,3.937569100000000000e+09
5.500000000000000000e+01,6.200000000000000000e+01,1.040000000000000000e+02,1.030000000000000000e+02,8.400000000000000000e+01,1.350000000000000000e+02,5.900000000000000000e+01,8.100000000000000000e+01,5.200000000000000178e-01,3.956374600000000000e+09
5.900000000000000000e+01,6.900000000000000000e+01,1.080000000000000000e+02,1.050000000000000000e+02,7.600000000000000000e+01,1.490000000000000000e+02,5.800000000000000000e+01,8.500000000000000000e+01,5.200000000000000178e-01,3.973357400000000000e+09
6.200000000000000000e+01,7.200000000000000000e+01,1.110000000000000000e+02,1.040000000000000000e+02,9.000000000000000000e+01,1.470000000000000000e+02,5.500000000000000000e+01,7.800000000000000000e+01,5.200000000000000178e-01,3.991724800000000000e+09
6.800000000000000000e+01,7.300000000000000000e+01,1.240000000000000000e+02,1.110000000000000000e+02,1.050000000000000000e+02,1.350000000000000000e+02,5.500000000000000000e+01,8.200000000000000000e+01,5.200000000000000178e-01,4.009654000000000000e+09
7.600000000000000000e+01,8.100000000000000000e+01,1.170000000000000000e+02,1.070000000000000000e+02,8.900000000000000000e+01,1.160000000000000000e+02,5.300000000000000000e+01,9.200000000000000000e+01,5.200000000000000178e-01,4.027750900000000000e+09
7.800000000000000000e+01,9.500000000000000000e+01,1.170000000000000000e+02,8.700000000000000000e+01,8.700000000000000000e+01,1.150000000000000000e+02,5.400000000000000000e+01,8.100000000000000000e+01,5.100000000000000089e-01,4.044954500000000000e+09
7.300000000000000000e+01,8.900000000000000000e+01,1.400000000000000000e+02,9.200000000000000000e+01,9.000000000000000000e+01,9.400000000000000000e+01,5.000000000000000000e+01,8.700000000000000000e+01,5.100000000000000089e-01,4.061983000000000000e+09
7.400000000000000000e+01,8.900000000000000000e+01,1.470000000000000000e+02,1.320000000000000000e+02,8.700000000000000000e+01,9.300000000000000000e+01,5.800000000000000000e+01,9.600000000000000000e+01,5.100000000000000089e-01,4.079648500000000000e+09
6.500000000000000000e+01,9.000000000000000000e+01,1.360000000000000000e+02,1.270000000000000000e+02,7.300000000000000000e+01,8.000000000000000000e+01,5.900000000000000000e+01,9.000000000000000000e+01,5.100000000000000089e-01,4.096978400000000000e+09
6.100000000000000000e+01,9.100000000000000000e+01,1.270000000000000000e+02,1.250000000000000000e+02,7.600000000000000000e+01,6.800000000000000000e+01,5.700000000000000000e+01,8.200000000000000000e+01,5.100000000000000089e-01,4.113911500000000000e+09
6.400000000000000000e+01,7.800000000000000000e+01,1.360000000000000000e+02,1.300000000000000000e+02,8.600000000000000000e+01,7.400000000000000000e+01,5.800000000000000000e+01,8.100000000000000000e+01,5.100000000000000089e-01,4.131787000000000000e+09
6.600000000000000000e+01,8.100000000000000000e+01,1.130000000000000000e+02,1.300000000000000000e+02,8.400000000000000000e+01,7.300000000000000000e+01,6.100000000000000000e+01,7.000000000000000000e+01,5.200000000000000178e-01,4.149932100000000000e+09
6.300000000000000000e+01,8.700000000000000000e+01,1.190000000000000000e+02,1.080000000000000000e+02,7.800000000000000000e+01,6.500000000000000000e+01,6.400000000000000000e+01,5.900000000000000000e+01,5.200000000000000178e-01,4.167405100000000000e+09
6.300000000000000000e+01,8.500000000000000000e+01,1.220000000000000000e+02,1.170000000000000000e+02,8.100000000000000000e+01,6.800000000000000000e+01,6.800000000000000000e+01,5.900000000000000000e+01,5.200000000000000178e-01,4.184647500000000000e+09
5.600000000000000000e+01,7.800000000000000000e+01,1.200000000000000000e+02,1.150000000000000000e+02,7.900000000000000000e+01,6.700000000000000000e+01,1.270000000000000000e+02,5.400000000000000000e+01,5.200000000000000178e-01,4.202979200000000000e+09
4.900000000000000000e+01,7.800000000000000000e+01,1.070000000000000000e+02,1.100000000000000000e+02,6.700000000000000000e+01,5.900000000000000000e+01,1.330000000000000000e+02,5.600000000000000000e+01,5.200000000000000178e-01,4.220314700000000000e+09
5.800000000000000000e+01,7.500000000000000000e+01,1.020000000000000000e+02,1.000000000000000000e+02,6.700000000000000000e+01,5.900000000000000000e+01,1.350000000000000000e+02,5.700000000000000000e+01,5.200000000000000178e-01,4.238201900000000000e+09
5.600000000000000000e+01,6.200000000000000000e+01,7.600000000000000000e+01,8.500000000000000000e+01,6.600000000000000000e+01,5.200000000000000000e+01,1.340000000000000000e+02,5.400000000000000000e+01,5.200000000000000178e-01,4.255598200000000000e+09
5.400000000000000000e+01,8.600000000000000000e+01,6.500000000000000000e+01,7.000000000000000000e+01,6.200000000000000000e+01,4.700000000000000000e+01,1.360000000000000000e+02,6.400000000000000000e+01,5.200000000000000178e-01,4.273813600000000000e+09
6.000000000000000000e+01,9.500000000000000000e+01,7.300000000000000000e+01,6.200000000000000000e+01,6.600000000000000000e+01,5.000000000000000000e+01,8.300000000000000000e+01,6.500000000000000000e+01,5.200000000000000178e-01,4.291872600000000000e+09
6.600000000000000000e+01,9.700000000000000000e+01,8.000000000000000000e+01,7.200000000000000000e+01,6.900000000000000000e+01,5.100000000000000000e+01,7.500000000000000000e+01,6.700000000000000000e+01,5.200000000000000178e-01,4.309457200000000000e+09
6.100000000000000000e+01,1.000000000000000000e+02,9.500000000000000000e+01,8.300000000000000000e+01,7.000000000000000000e+01,5.100000000000000000e+01,8.200000000000000000e+01,7.300000000000000000e+01,5.100000000000000089e-01,4.327039100000000000e+09
6.500000000000000000e+01,1.110000000000000000e+02,9.200000000000000000e+01,8.500000000000000000e+01,6.400000000000000000e+01,5.300000000000000000e+01,7.800000000000000000e+01,7.300000000000000000e+01,5.100000000000000089e-01,4.345033700000000000e+09
7.000000000000000000e+01,1.150000000000000000e+02,9.800000000000000000e+01,8.600000000000000000e+01,6.600000000000000000e+01,5.400000000000000000e+01,6.700000000000000000e+01,7.300000000000000000e+01,5.100000000000000089e-01,4.362664500000000000e+09
6.600000000000000000e+01,1.160000000000000000e+02,9.100000000000000000e+01,8.900000000000000000e+01,5.700000000000000000e+01,5.100000000000000000e+01,7.000000000000000000e+01,8.600000000000000000e+01,5.200000000000000178e-01,4.379977100000000000e+09
6.700000000000000000e+01,1.190000000000000000e+02,8.200000000000000000e+01,8.200000000000000000e+01,5.600000000000000000e+01,5.200000000000000000e+01,6.700000000000000000e+01,8.200000000000000000e+01,5.200000000000000178e-01,4.397153700000000000e+09
6.300000000000000000e+01,1.170000000000000000e+02,6.400000000000000000e+01,7.300000000000000000e+01,6.100000000000000000e+01,5.100000000000000000e+01,5.900000000000000000e+01,7.500000000000000000e+01,5.200000000000000178e-01,4.415541400000000000e+09
8.900000000000000000e+01,1.350000000000000000e+02,7.700000000000000000e+01,6.500000000000000000e+01,6.100000000000000000e+01,4.700000000000000000e+01,6.400000000000000000e+01,9.400000000000000000e+01,5.100000000000000089e-01,4.433118100000000000e+09
8.600000000000000000e+01,1.250000000000000000e+02,7.300000000000000000e+01,5.800000000000000000e+01,5.600000000000000000e+01,4.700000000000000000e+01,6.800000000000000000e+01,8.800000000000000000e+01,5.100000000000000089e-01,4.450712100000000000e+09
8.400000000000000000e+01,1.240000000000000000e+02,7.400000000000000000e+01,5.600000000000000000e+01,6.100000000000000000e+01,4.900000000000000000e+01,6.500000000000000000e+01,7.400000000000000000e+01,5.100000000000000089e-01,4.468365100000000000e+09
8.300000000000000000e+01,1.240000000000000000e+02,7.900000000000000000e+01,5.400000000000000000e+01,5.800000000000000000e+01,4.500000000000000000e+01,6.900000000000000000e+01,7.300000000000000000e+01,5.100000000000000089e-01,4.486218500000000000e+09
8.200000000000000000e+01,1.330000000000000000e+02,7.900000000000000000e+01,5.400000000000000000e+01,8.900000000000000000e+01,5.300000000000000000e+01,6.400000000000000000e+01,7.500000000000000000e+01,5.100000000000000089e-01,4.505968500000000000e+09
4.900000000000000000e+01,1.130000000000000000e+02,6.300000000000000000e+01,5.600000000000000000e+01,9.300000000000000000e+01,6.200000000000000000e+01,6.600000000000000000e+01,5.200000000000000000e+01,5.100000000000000089e-01,4.523622500000000000e+09
5.300000000000000000e+01,1.100000000000000000e+02,6.900000000000000000e+01,6.100000000000000000e+01,9.900000000000000000e+01,6.500000000000000000e+01,6.600000000000000000e+01,8.300000000000000000e+01,5.000000000000000000e-01,4.541716900000000000e+09
6.000000000000000000e+01,1.080000000000000000e+02,7.300000000000000000e+01,7.500000000000000000e+01,1.050000000000000000e+02,7.200000000000000000e+01,6.800000000000000000e+01,8.800000000000000000e+01,5.000000000000000000e-01,4.559605000000000000e+09
6.000000000000000000e+01,1.070000000000000000e+02,6.700000000000000000e+01,7.500000000000000000e+01,1.100000000000000000e+02,8.400000000000000000e+01,8.100000000000000000e+01,8.600000000000000000e+01,5.000000000000000000e-01,4.578683000000000000e+09
7.100000000000000000e+01,9.700000000000000000e+01,7.700000000000000000e+01,7.900000000000000000e+01,8.800000000000000000e+01,1.200000000000000000e+02,1.440000000000000000e+02,1.130000000000000000e+02,4.899999999999999911e-01,4.597230400000000000e+09
7.500000000000000000e+01,8.800000000000000000e+01,8.300000000000000000e+01,8.800000000000000000e+01,8.300000000000000000e+01,1.190000000000000000e+02,1.500000000000000000e+02,1.260000000000000000e+02,4.899999999999999911e-01,4.617793400000000000e+09
9.600000000000000000e+01,8.300000000000000000e+01,9.300000000000000000e+01,1.080000000000000000e+02,8.600000000000000000e+01,1.190000000000000000e+02,1.500000000000000000e+02,1.190000000000000000e+02,4.899999999999999911e-01,4.635798300000000000e+09
9.500000000000000000e+01,1.030000000000000000e+02,9.000000000000000000e+01,1.070000000000000000e+02,8.200000000000000000e+01,1.340000000000000000e+02,1.770000000000000000e+02,1.240000000000000000e+02,4.899999999999999911e-01,4.654239700000000000e+09
9.400000000000000000e+01,1.030000000000000000e+02,8.900000000000000000e+01,1.070000000000000000e+02,7.800000000000000000e+01,1.390000000000000000e+02,1.720000000000000000e+02,1.310000000000000000e+02,4.899999999999999911e-01,4.673213400000000000e+09
9.200000000000000000e+01,1.010000000000000000e+02,8.500000000000000000e+01,1.090000000000000000e+02,8.100000000000000000e+01,1.190000000000000000e+02,1.270000000000000000e+02,1.140000000000000000e+02,4.899999999999999911e-01,4.695492900000000000e+09
9.200000000000000000e+01,1.030000000000000000e+02,8.400000000000000000e+01,1.120000000000000000e+02,8.900000000000000000e+01,1.270000000000000000e+02,1.390000000000000000e+02,1.100000000000000000e+02,4.899999999999999911e-01,4.717753300000000000e+09
7.400000000000000000e+01,1.080000000000000000e+02,7.600000000000000000e+01,1.000000000000000000e+02,9.200000000000000000e+01,1.360000000000000000e+02,1.420000000000000000e+02,1.100000000000000000e+02,4.899999999999999911e-01,4.735517200000000000e+09
8.300000000000000000e+01,8.900000000000000000e+01,1.030000000000000000e+02,1.040000000000000000e+02,9.000000000000000000e+01,1.320000000000000000e+02,1.270000000000000000e+02,1.090000000000000000e+02,4.899999999999999911e-01,4.754943400000000000e+09
9.200000000000000000e+01,1.000000000000000000e+02,1.320000000000000000e+02,1.170000000000000000e+02,8.800000000000000000e+01,1.310000000000000000e+02,1.530000000000000000e+02,1.130000000000000000e+02,4.899999999999999911e-01,4.774757600000000000e+09
9.000000000000000000e+01,1.020000000000000000e+02,1.470000000000000000e+02,1.350000000000000000e+02,1.080000000000000000e+02,1.400000000000000000e+02,1.520000000000000000e+02,1.110000000000000000e+02,5.000000000000000000e-01,4.795574900000000000e+09
9.400000000000000000e+01,1.080000000000000000e+02,1.870000000000000000e+02,1.310000000000000000e+02,1.140000000000000000e+02,1.440000000000000000e+02,1.620000000000000000e+02,1.410000000000000000e+02,5.000000000000000000e-01,4.817598100000000000e+09
8.600000000000000000e+01,1.040000000000000000e+02,2.530000000000000000e+02,1.260000000000000000e+02,1.070000000000000000e+02,1.360000000000000000e+02,1.590000000000000000e+02,1.340000000000000000e+02,5.000000000000000000e-01,4.835492800000000000e+09
8.800000000000000000e+01,1.050000000000000000e+02,2.630000000000000000e+02,1.200000000000000000e+02,1.060000000000000000e+02,1.430000000000000000e+02,1.520000000000000000e+02,1.360000000000000000e+02,5.000000000000000000e-01,4.856072600000000000e+09
8.400000000000000000e+01,1.110000000000000000e+02,2.620000000000000000e+02,1.280000000000000000e+02,1.080000000000000000e+02,1.470000000000000000e+02,1.490000000000000000e+02,1.420000000000000000e+02,5.000000000000000000e-01,4.874575600000000000e+09
8.500000000000000000e+01,1.090000000000000000e+02,2.550000000000000000e+02,1.050000000000000000e+02,8.600000000000000000e+01,1.330000000000000000e+02,1.510000000000000000e+02,1.440000000000000000e+02,5.000000000000000000e-01,4.895362900000000000e+09
8.900000000000000000e+01,1.130000000000000000e+02,2.310000000000000000e+02,1.030000000000000000e+02,8.200000000000000000e+01,1.260000000000000000e+02,1.230000000000000000e+02,1.220000000000000000e+02,4.899999999999999911e-01,4.917533300000000000e+09
9.300000000000000000e+01,1.240000000000000000e+02,1.550000000000000000e+02,1.140000000000000000e+02,8.600000000000000000e+01,1.530000000000000000e+02,1.520000000000000000e+02,1.330000000000000000e+02,4.899999999999999911e-01,4.935284500000000000e+09
8.600000000000000000e+01,1.270000000000000000e+02,1.240000000000000000e+02,1.180000000000000000e+02,8.400000000000000000e+01,1.460000000000000000e+02,1.620000000000000000e+02,1.310000000000000000e+02,5.000000000000000000e-01,4.954161100000000000e+09
9.200000000000000000e+01,1.110000000000000000e+02,1.030000000000000000e+02,9.600000000000000000e+01,8.900000000000000000e+01,1.370000000000000000e+02,1.490000000000000000e+02,1.200000000000000000e+02,5.000000000000000000e-01,4.979082100000000000e+09
9.000000000000000000e+01,1.120000000000000000e+02,1.020000000000000000e+02,9.500000000000000000e+01,9.400000000000000000e+01,1.460000000000000000e+02,1.520000000000000000e+02,1.220000000000000000e+02,5.000000000000000000e-01,4.998634000000000000e+09
1.030000000000000000e+02,1.290000000000000000e+02,1.180000000000000000e+02,9.500000000000000000e+01,8.900000000000000000e+01,1.480000000000000000e+02,1.550000000000000000e+02,1.130000000000000000e+02,5.000000000000000000e-01,5.018064000000000000e+09
1.000000000000000000e+02,1.320000000000000000e+02,1.870000000000000000e+02,8.200000000000000000e+01,8.300000000000000000e+01,1.180000000000000000e+02,1.310000000000000000e+02,9.700000000000000000e+01,4.899999999999999911e-01,5.037003300000000000e+09
1.050000000000000000e+02,1.370000000000000000e+02,2.160000000000000000e+02,6.800000000000000000e+01,8.400000000000000000e+01,1.060000000000000000e+02,1.090000000000000000e+02,9.700000000000000000e+01,4.899999999999999911e-01,5.055698400000000000e+09
1.100000000000000000e+02,1.840000000000000000e+02,2.610000000000000000e+02,7.300000000000000000e+01,7.700000000000000000e+01,1.060000000000000000e+02,1.250000000000000000e+02,8.900000000000000000e+01,4.899999999999999911e-01,5.074576500000000000e+09
1.270000000000000000e+02,1.990000000000000000e+02,2.730000000000000000e+02,6.800000000000000000e+01,6.800000000000000000e+01,1.000000000000000000e+02,1.490000000000000000e+02,8.100000000000000000e+01,4.899999999999999911e-01,5.096893000000000000e+09
1.250000000000000000e+02,1.940000000000000000e+02,2.670000000000000000e+02,9.500000000000000000e+01,7.500000000000000000e+01,1.120000000000000000e+02,1.560000000000000000e+02,7.000000000000000000e+01,4.899999999999999911e-01,5.119119900000000000e+09
1.420000000000000000e+02,2.110000000000000000e+02,2.240000000000000000e+02,1.050000000000000000e+02,7.700000000000000000e+01,1.290000000000000000e+02,1.670000000000000000e+02,8.400000000000000000e+01,4.899999999999999911e-01,5.139149500000000000e+09
1.420000000000000000e+02,2.050000000000000000e+02,1.940000000000000000e+02,1.080000000000000000e+02,7.500000000000000000e+01,1.350000000000000000e+02,1.740000000000000000e+02,7.800000000000000000e+01,5.000000000000000000e-01,5.158229700000000000e+09
1.320000000000000000e+02,1.670000000000000000e+02,1.230000000000000000e+02,1.070000000000000000e+02,8.100000000000000000e+01,1.320000000000000000e+02,1.570000000000000000e+02,7.900000000000000000e+01,5.000000000000000000e-01,5.177906300000000000e+09
1.170000000000000000e+02,1.520000000000000000e+02,9.100000000000000000e+01,1.090000000000000000e+02,8.200000000000000000e+01,1.350000000000000000e+02,1.410000000000000000e+02,1.020000000000000000e+02,5.000000000000000000e-01,5.197422500000000000e+09
1.040000000000000000e+02,1.400000000000000000e+02,7.700000000000000000e+01,8.600000000000000000e+01,7.800000000000000000e+01,1.220000000000000000e+02,1.400000000000000000e+02,1.010000000000000000e+02,5.000000000000000000e-01,5.218698900000000000e+09
7.900000000000000000e+01,1.150000000000000000e+02,7.300000000000000000e+01,7.200000000000000000e+01,7.900000000000000000e+01,1.350000000000000000e+02,1.490000000000000000e+02,9.400000000000000000e+01,5.000000000000000000e-01,5.237499500000000000e+09
8.000000000000000000e+01,1.190000000000000000e+02,7.600000000000000000e+01,6.800000000000000000e+01,8.000000000000000000e+01,1.390000000000000000e+02,1.710000000000000000e+02,1.000000000000000000e+02,5.000000000000000000e-01,5.257152800000000000e+09
8.000000000000000000e+01,1.160000000000000000e+02,7.700000000000000000e+01,6.300000000000000000e+01,7.100000000000000000e+01,1.440000000000000000e+02,1.700000000000000000e+02,9.900000000000000000e+01,5.000000000000000000e-01,5.275491300000000000e+09
7.900000000000000000e+01,1.090000000000000000e+02,7.300000000000000000e+01,8.400000000000000000e+01,6.800000000000000000e+01,1.480000000000000000e+02,1.700000000000000000e+02,8.400000000000000000e+01,5.000000000000000000e-01,5.296492900000000000e+09
7.900000000000000000e+01,1.060000000000000000e+02,7.000000000000000000e+01,8.300000000000000000e+01,6.600000000000000000e+01,1.510000000000000000e+02,1.860000000000000000e+02,9.400000000000000000e+01,5.000000000000000000e-01,5.318729600000000000e+09
8.300000000000000000e+01,9.200000000000000000e+01,6.700000000000000000e+01,8.600000000000000000e+01,6.400000000000000000e+01,1.490000000000000000e+02,2.320000000000000000e+02,9.600000000000000000e+01,5.100000000000000089e-01,5.337363300000000000e+09
7.400000000000000000e+01,8.600000000000000000e+01,5.600000000000000000e+01,8.500000000000000000e+01,6.200000000000000000e+01,1.400000000000000000e+02,2.230000000000000000e+02,8.500000000000000000e+01,5.100000000000000089e-01,5.357464100000000000e+09
7.200000000000000000e+01,8.900000000000000000e+01,6.500000000000000000e+01,9.000000000000000000e+01,6.300000000000000000e+01,1.390000000000000000e+02,2.300000000000000000e+02,8.800000000000000000e+01,5.100000000000000089e-01,5.377487300000000000e+09
6.900000000000000000e+01,9.700000000000000000e+01,7.200000000000000000e+01,7.100000000000000000e+01,7.000000000000000000e+01,1.410000000000000000e+02,2.330000000000000000e+02,8.500000000000000000e+01,5.100000000000000089e-01,5.396355400000000000e+09
6.400000000000000000e+01,1.060000000000000000e+02,7.300000000000000000e+01,6.600000000000000000e+01,6.400000000000000000e+01,1.490000000000000000e+02,2.330000000000000000e+02,7.600000000000000000e+01,5.100000000000000089e-01,5.418605700000000000e+09
7.700000000000000000e+01,1.170000000000000000e+02,7.500000000000000000e+01,6.900000000000000000e+01,6.000000000000000000e+01,1.810000000000000000e+02,2.190000000000000000e+02,9.200000000000000000e+01,5.100000000000000089e-01,5.437813900000000000e+09
7.900000000000000000e+01,1.170000000000000000e+02,8.600000000000000000e+01,7.500000000000000000e+01,6.100000000000000000e+01,1.840000000000000000e+02,2.180000000000000000e+02,1.040000000000000000e+02,5.100000000000000089e-01,5.456340000000000000e+09
9.200000000000000000e+01,1.160000000000000000e+02,8.000000000000000000e+01,6.900000000000000000e+01,6.200000000000000000e+01,1.830000000000000000e+02,2.170000000000000000e+02,1.090000000000000000e+02,5.100000000000000089e-01,5.474474800000000000e+09
1.020000000000000000e+02,1.150000000000000000e+02,7.800000000000000000e+01,6.700000000000000000e+01,6.300000000000000000e+01,1.810000000000000000e+02,2.200000000000000000e+02,1.100000000000000000e+02,5.100000000000000089e-01,5.496361600000000000e+09
1.130000000000000000e+02,1.310000000000000000e+02,7.800000000000000000e+01,7.400000000000000000e+01,6.600000000000000000e+01,1.970000000000000000e+02,2.220000000000000000e+02,1.190000000000000000e+02,5.100000000000000089e-01,5.518903800000000000e+09
1.090000000000000000e+02,1.240000000000000000e+02,7.700000000000000000e+01,7.800000000000000000e+01,7.800000000000000000e+01,1.630000000000000000e+02,1.840000000000000000e+02,1.020000000000000000e+02,5.100000000000000089e-01,5.538078300000000000e+09
1.180000000000000000e+02,1.220000000000000000e+02,6.700000000000000000e+01,7.400000000000000000e+01,7.700000000000000000e+01,1.640000000000000000e+02,1.820000000000000000e+02,9.500000000000000000e+01,5.100000000000000089e-01,5.557110300000000000e+09
1.150000000000000000e+02,1.220000000000000000e+02,6.600000000000000000e+01,7.700000000000000000e+01,7.500000000000000000e+01,1.690000000000000000e+02,1.940000000000000000e+02,8.900000000000000000e+01,5.100000000000000089e-01,5.576146600000000000e+09
1.100000000000000000e+02,1.290000000000000000e+02,7.400000000000000000e+01,8.000000000000000000e+01,6.500000000000000000e+01,1.660000000000000000e+02,1.900000000000000000e+02,1.940000000000000000e+02,5.100000000000000089e-01,5.596745800000000000e+09
1.100000000000000000e+02,1.190000000000000000e+02,7.600000000000000000e+01,7.600000000000000000e+01,5.900000000000000000e+01,1.610000000000000000e+02,1.950000000000000000e+02,2.190000000000000000e+02,5.100000000000000089e-01,5.618879500000000000e+09
1.110000000000000000e+02,1.180000000000000000e+02,7.500000000000000000e+01,6.400000000000000000e+01,4.900000000000000000e+01,1.810000000000000000e+02,2.080000000000000000e+02,2.290000000000000000e+02,5.100000000000000089e-01,5.637099500000000000e+09
9.900000000000000000e+01,1.270000000000000000e+02,8.500000000000000000e+01,6.900000000000000000e+01,5.500000000000000000e+01,1.890000000000000000e+02,2.200000000000000000e+02,2.340000000000000000e+02,5.100000000000000089e-01,5.655670300000000000e+09
9.700000000000000000e+01,1.290000000000000000e+02,8.800000000000000000e+01,7.400000000000000000e+01,6.400000000000000000e+01,2.040000000000000000e+02,2.250000000000000000e+02,2.350000000000000000e+02,5.000000000000000000e-01,5.674507200000000000e+09
1.020000000000000000e+02,1.200000000000000000e+02,8.100000000000000000e+01,7.000000000000000000e+01,6.600000000000000000e+01,2.000000000000000000e+02,2.170000000000000000e+02,1.600000000000000000e+02,5.000000000000000000e-01,5.696596000000000000e+09
9.600000000000000000e+01,1.060000000000000000e+02,7.900000000000000000e+01,7.000000000000000000e+01,6.500000000000000000e+01,1.890000000000000000e+02,2.050000000000000000e+02,1.290000000000000000e+02,5.000000000000000000e-01,5.719137900000000000e+09
8.900000000000000000e+01,1.000000000000000000e+02,8.100000000000000000e+01,7.800000000000000000e+01,6.500000000000000000e+01,1.650000000000000000e+02,1.890000000000000000e+02,1.150000000000000000e+02,5.000000000000000000e-01,5.737497100000000000e+09
8.900000000000000000e+01,9.500000000000000000e+01,7.200000000000000000e+01,7.600000000000000000e+01,6.100000000000000000e+01,2.040000000000000000e+02,1.840000000000000000e+02,1.030000000000000000e+02,5.000000000000000000e-01,5.757287100000000000e+09
9.400000000000000000e+01,9.300000000000000000e+01,6.600000000000000000e+01,6.800000000000000000e+01,5.200000000000000000e+01,1.870000000000000000e+02,1.600000000000000000e+02,1.080000000000000000e+02,5.000000000000000000e-01,5.776593900000000000e+09
8.900000000000000000e+01,9.000000000000000000e+01,6.600000000000000000e+01,7.200000000000000000e+01,6.100000000000000000e+01,1.880000000000000000e+02,1.650000000000000000e+02,1.030000000000000000e+02,5.000000000000000000e-01,5.796950500000000000e+09
8.600000000000000000e+01,8.500000000000000000e+01,6.100000000000000000e+01,7.300000000000000000e+01,7.400000000000000000e+01,2.100000000000000000e+02,1.670000000000000000e+02,9.500000000000000000e+01,5.000000000000000000e-01,5.819078900000000000e+09
8.400000000000000000e+01,1.090000000000000000e+02,7.000000000000000000e+01,7.100000000000000000e+01,7.200000000000000000e+01,2.430000000000000000e+02,2.120000000000000000e+02,1.180000000000000000e+02,5.000000000000000000e-01,5.836892100000000000e+09
8.800000000000000000e+01,1.110000000000000000e+02,7.200000000000000000e+01,7.300000000000000000e+01,7.200000000000000000e+01,2.120000000000000000e+02,2.090000000000000000e+02,1.340000000000000000e+02,5.000000000000000000e-01,5.856736600000000000e+09
8.200000000000000000e+01,1.140000000000000000e+02,8.400000000000000000e+01,8.300000000000000000e+01,7.600000000000000000e+01,2.190000000000000000e+02,2.290000000000000000e+02,1.340000000000000000e+02,5.000000000000000000e-01,5.874822200000000000e+09
1.590000000000000000e+02,1.200000000000000000e+02,8.200000000000000000e+01,7.900000000000000000e+01,7.100000000000000000e+01,2.400000000000000000e+02,2.530000000000000000e+02,1.440000000000000000e+02,5.000000000000000000e-01,5.896873600000000000e+09
2.140000000000000000e+02,1.190000000000000000e+02,8.300000000000000000e+01,8.100000000000000000e+01,6.900000000000000000e+01,2.170000000000000000e+02,2.400000000000000000e+02,1.390000000000000000e+02,5.000000000000000000e-01,5.919680900000000000e+09
2.830000000000000000e+02,1.090000000000000000e+02,7.800000000000000000e+01,9.200000000000000000e+01,7.100000000000000000e+01,1.970000000000000000e+02,2.340000000000000000e+02,1.260000000000000000e+02,5.000000000000000000e-01,5.937789000000000000e+09
2.860000000000000000e+02,1.080000000000000000e+02,8.900000000000000000e+01,9.900000000000000000e+01,7.300000000000000000e+01,1.910000000000000000e+02,2.350000000000000000e+02,1.190000000000000000e+02,5.000000000000000000e-01,5.956938000000000000e+09
2.870000000000000000e+02,1.030000000000000000e+02,8.100000000000000000e+01,9.100000000000000000e+01,6.900000000000000000e+01,1.800000000000000000e+02,2.130000000000000000e+02,1.200000000000000000e+02,5.000000000000000000e-01,5.976060900000000000e+09
2.500000000000000000e+02,9.900000000000000000e+01,8.300000000000000000e+01,9.200000000000000000e+01,6.400000000000000000e+01,1.490000000000000000e+02,1.810000000000000000e+02,1.130000000000000000e+02,5.000000000000000000e-01,5.997590700000000000e+09
2.070000000000000000e+02,1.040000000000000000e+02,8.300000000000000000e+01,9.500000000000000000e+01,5.500000000000000000e+01,1.740000000000000000e+02,2.040000000000000000e+02,1.180000000000000000e+02,5.000000000000000000e-01,6.015798300000000000e+09
9.700000000000000000e+01,9.900000000000000000e+01,7.800000000000000000e+01,8.400000000000000000e+01,6.200000000000000000e+01,1.660000000000000000e+02,1.790000000000000000e+02,1.090000000000000000e+02,5.000000000000000000e-01,6.035557700000000000e+09
8.400000000000000000e+01,9.400000000000000000e+01,5.900000000000000000e+01,7.400000000000000000e+01,6.000000000000000000e+01,1.720000000000000000e+02,1.760000000000000000e+02,1.070000000000000000e+02,5.000000000000000000e-01,6.055149400000000000e+09
7.700000000000000000e+01,9.800000000000000000e+01,5.600000000000000000e+01,8.100000000000000000e+01,6.000000000000000000e+01,1.850000000000000000e+02,1.890000000000000000e+02,1.070000000000000000e+02,5.100000000000000089e-01,6.081171600000000000e+09
7.700000000000000000e+01,1.040000000000000000e+02,5.400000000000000000e+01,7.900000000000000000e+01,6.700000000000000000e+01,1.880000000000000000e+02,1.950000000000000000e+02,1.130000000000000000e+02,5.100000000000000089e-01,6.099527700000000000e+09
6.700000000000000000e+01,1.240000000000000000e+02,5.900000000000000000e+01,7.000000000000000000e+01,6.800000000000000000e+01,1.760000000000000000e+02,1.820000000000000000e+02,1.060000000000000000e+02,5.100000000000000089e-01,6.119773700000000000e+09
6.800000000000000000e+01,1.280000000000000000e+02,6.000000000000000000e+01,7.500000000000000000e+01,6.100000000000000000e+01,2.000000000000000000e+02,1.880000000000000000e+02,1.350000000000000000e+02,5.100000000000000089e-01,6.138210000000000000e+09
6.200000000000000000e+01,1.280000000000000000e+02,6.400000000000000000e+01,6.900000000000000000e+01,5.900000000000000000e+01,2.020000000000000000e+02,1.840000000000000000e+02,1.310000000000000000e+02,5.100000000000000089e-01,6.156787500000000000e+09
6.800000000000000000e+01,1.380000000000000000e+02,7.800000000000000000e+01,7.300000000000000000e+01,6.400000000000000000e+01,1.920000000000000000e+02,1.940000000000000000e+02,1.440000000000000000e+02,5.100000000000000089e-01,6.175867000000000000e+09
6.700000000000000000e+01,1.330000000000000000e+02,7.500000000000000000e+01,7.600000000000000000e+01,6.200000000000000000e+01,1.950000000000000000e+02,2.000000000000000000e+02,1.360000000000000000e+02,5.100000000000000089e-01,6.194790500000000000e+09
6.800000000000000000e+01,1.170000000000000000e+02,8.100000000000000000e+01,8.300000000000000000e+01,6.100000000000000000e+01,1.790000000000000000e+02,1.890000000000000000e+02,1.360000000000000000e+02,5.200000000000000178e-01,6.216905600000000000e+09
6.500000000000000000e+01,1.070000000000000000e+02,8.000000000000000000e+01,9.500000000000000000e+01,6.400000000000000000e+01,1.450000000000000000e+02,1.760000000000000000e+02,1.130000000000000000e+02,5.200000000000000178e-01,6.239245300000000000e+09
8.100000000000000000e+01,1.070000000000000000e+02,8.000000000000000000e+01,9.600000000000000000e+01,6.400000000000000000e+01,1.320000000000000000e+02,1.690000000000000000e+02,1.400000000000000000e+02,5.200000000000000178e-01,6.257220200000000000e+09
7.300000000000000000e+01,9.200000000000000000e+01,7.200000000000000000e+01,8.800000000000000000e+01,6.600000000000000000e+01,1.360000000000000000e+02,1.500000000000000000e+02,1.230000000000000000e+02,5.200000000000000178e-01,6.276719400000000000e+09
7.500000000000000000e+01,1.020000000000000000e+02,7.700000000000000000e+01,8.900000000000000000e+01,7.200000000000000000e+01,1.610000000000000000e+02,1.470000000000000000e+02,1.270000000000000000e+02,5.200000000000000178e-01,6.295379600000000000e+09
8.400000000000000000e+01,9.700000000000000000e+01,6.700000000000000000e+01,8.900000000000000000e+01,7.100000000000000000e+01,1.840000000000000000e+02,1.570000000000000000e+02,1.280000000000000000e+02,5.200000000000000178e-01,6.316887200000000000e+09
8.500000000000000000e+01,1.040000000000000000e+02,7.400000000000000000e+01,7.100000000000000000e+01,7.800000000000000000e+01,1.920000000000000000e+02,1.600000000000000000e+02,1.210000000000000000e+02,5.200000000000000178e-01,6.339148100000000000e+09
7.500000000000000000e+01,1.060000000000000000e+02,7.000000000000000000e+01,6.700000000000000000e+01,8.500000000000000000e+01,1.880000000000000000e+02,1.570000000000000000e+02,8.800000000000000000e+01,5.200000000000000178e-01,6.357421200000000000e+09
7.400000000000000000e+01,1.100000000000000000e+02,7.000000000000000000e+01,6.900000000000000000e+01,8.400000000000000000e+01,1.980000000000000000e+02,2.050000000000000000e+02,1.020000000000000000e+02,5.100000000000000089e-01,6.375890500000000000e+09
7.900000000000000000e+01,1.100000000000000000e+02,6.500000000000000000e+01,7.400000000000000000e+01,8.200000000000000000e+01,1.700000000000000000e+02,2.010000000000000000e+02,1.040000000000000000e+02,5.100000000000000089e-01,6.394691500000000000e+09
6.800000000000000000e+01,1.100000000000000000e+02,6.800000000000000000e+01,6.700000000000000000e+01,8.100000000000000000e+01,1.490000000000000000e+02,1.970000000000000000e+02,1.000000000000000000e+02,5.100000000000000089e-01,6.416856200000000000e+09
6.300000000000000000e+01,1.020000000000000000e+02,6.500000000000000000e+01,6.500000000000000000e+01,7.000000000000000000e+01,1.280000000000000000e+02,1.900000000000000000e+02,9.900000000000000000e+01,5.100000000000000089e-01,6.439355200000000000e+09
6.100000000000000000e+01,1.010000000000000000e+02,6.600000000000000000e+01,6.600000000000000000e+01,6.200000000000000000e+01,1.280000000000000000e+02,1.980000000000000000e+02,1.140000000000000000e+02,5.100000000000000089e-01,6.459495100000000000e+09
6.100000000000000000e+01,1.000000000000000000e+02,6.300000000000000000e+01,8.000000000000000000e+01,6.600000000000000000e+01,1.200000000000000000e+02,1.660000000000000000e+02,1.160000000000000000e+02,5.000000000000000000e-01,6.478455100000000000e+09
5.000000000000000000e+01,9.000000000000000000e+01,6.400000000000000000e+01,7.100000000000000000e+01,6.900000000000000000e+01,1.190000000000000000e+02,1.590000000000000000e+02,1.080000000000000000e+02,5.000000000000000000e-01,6.497087400000000000e+09
6.200000000000000000e+01,8.900000000000000000e+01,6.300000000000000000e+01,7.100000000000000000e+01,6.900000000000000000e+01,1.130000000000000000e+02,1.560000000000000000e+02,1.130000000000000000e+02,5.000000000000000000e-01,6.516879800000000000e+09
7.000000000000000000e+01,9.300000000000000000e+01,6.400000000000000000e+01,7.800000000000000000e+01,7.200000000000000000e+01,1.130000000000000000e+02,1.570000000000000000e+02,1.180000000000000000e+02,5.000000000000000000e-01,6.539290600000000000e+09
7.200000000000000000e+01,8.700000000000000000e+01,6.200000000000000000e+01,7.700000000000000000e+01,7.200000000000000000e+01,1.190000000000000000e+02,1.550000000000000000e+02,1.020000000000000000e+02,4.899999999999999911e-01,6.558178400000000000e+09
9.000000000000000000e+01,1.300000000000000000e+02,7.300000000000000000e+01,6.700000000000000000e+01,6.200000000000000000e+01,1.110000000000000000e+02,1.330000000000000000e+02,1.150000000000000000e+02,4.899999999999999911e-01,6.576417200000000000e+09
1.280000000000000000e+02,1.700000000000000000e+02,1.080000000000000000e+02,8.200000000000000000e+01,5.300000000000000000e+01,1.760000000000000000e+02,1.960000000000000000e+02,1.310000000000000000e+02,5.000000000000000000e-01,6.595504200000000000e+09
1.290000000000000000e+02,1.720000000000000000e+02,1.080000000000000000e+02,8.500000000000000000e+01,6.300000000000000000e+01,1.760000000000000000e+02,2.000000000000000000e+02,1.310000000000000000e+02,5.000000000000000000e-01,6.617733700000000000e+09
1.280000000000000000e+02,1.710000000000000000e+02,1.150000000000000000e+02,8.700000000000000000e+01,6.000000000000000000e+01,1.740000000000000000e+02,1.970000000000000000e+02,1.340000000000000000e+02,5.000000000000000000e-01,6.636075700000000000e+09
1.280000000000000000e+02,1.790000000000000000e+02,1.140000000000000000e+02,8.800000000000000000e+01,6.000000000000000000e+01,1.890000000000000000e+02,1.990000000000000000e+02,1.470000000000000000e+02,5.000000000000000000e-01,6.654290600000000000e+09
1.160000000000000000e+02,1.510000000000000000e+02,1.060000000000000000e+02,8.300000000000000000e+01,5.900000000000000000e+01,1.890000000000000000e+02,1.970000000000000000e+02,1.240000000000000000e+02,5.100000000000000089e-01,6.673871400000000000e+09
7.100000000000000000e+01,9.800000000000000000e+01,7.200000000000000000e+01,7.200000000000000000e+01,6.500000000000000000e+01,1.500000000000000000e+02,1.570000000000000000e+02,1.160000000000000000e+02,5.100000000000000089e-01,6.695382800000000000e+09
5.900000000000000000e+01,1.000000000000000000e+02,7.600000000000000000e+01,6.800000000000000000e+01,6.900000000000000000e+01,1.740000000000000000e+02,1.640000000000000000e+02,1.100000000000000000e+02,5.000000000000000000e-01,6.717642000000000000e+09
5.800000000000000000e+01,1.000000000000000000e+02,7.200000000000000000e+01,5.900000000000000000e+01,6.900000000000000000e+01,1.710000000000000000e+02,1.590000000000000000e+02,1.080000000000000000e+02,5.000000000000000000e-01,6.736699600000000000e+09
5.700000000000000000e+01,8.500000000000000000e+01,7.300000000000000000e+01,5.700000000000000000e+01,7.000000000000000000e+01,1.540000000000000000e+02,1.460000000000000000e+02,8.900000000000000000e+01,5.100000000000000089e-01,6.754945200000000000e+09
6.000000000000000000e+01,8.700000000000000000e+01,7.300000000000000000e+01,5.600000000000000000e+01,6.900000000000000000e+01,1.570000000000000000e+02,1.680000000000000000e+02,1.170000000000000000e+02,5.000000000000000000e-01,6.773120100000000000e+09
5.900000000000000000e+01,8.500000000000000000e+01,7.000000000000000000e+01,6.500000000000000000e+01,6.400000000000000000e+01,1.440000000000000000e+02,1.520000000000000000e+02,1.090000000000000000e+02,5.000000000000000000e-01,6.795629800000000000e+09
6.300000000000000000e+01,7.900000000000000000e+01,6.600000000000000000e+01,6.800000000000000000e+01,5.200000000000000000e+01,1.350000000000000000e+02,1.570000000000000000e+02,1.360000000000000000e+02,5.000000000000000000e-01,6.817558800000000000e+09
6.700000000000000000e+01,7.400000000000000000e+01,6.000000000000000000e+01,6.700000000000000000e+01,4.700000000000000000e+01,1.430000000000000000e+02,1.610000000000000000e+02,1.380000000000000000e+02,5.000000000000000000e-01,6.836310300000000000e+09
6.700000000000000000e+01,7.500000000000000000e+01,6.300000000000000000e+01,6.900000000000000000e+01,4.500000000000000000e+01,1.440000000000000000e+02,1.650000000000000000e+02,1.420000000000000000e+02,5.000000000000000000e-01,6.854770600000000000e+09
6.200000000000000000e+01,7.000000000000000000e+01,6.600000000000000000e+01,8.600000000000000000e+01,5.500000000000000000e+01,1.330000000000000000e+02,1.420000000000000000e+02,1.240000000000000000e+02,5.000000000000000000e-01,6.874236500000000000e+09
6.200000000000000000e+01,7.000000000000000000e+01,6.400000000000000000e+01,7.500000000000000000e+01,5.400000000000000000e+01,1.220000000000000000e+02,1.400000000000000000e+02,1.270000000000000000e+02,5.000000000000000000e-01,6.896888300000000000e+09
6.200000000000000000e+01,8.500000000000000000e+01,7.200000000000000000e+01,7.100000000000000000e+01,5.200000000000000000e+01,1.410000000000000000e+02,1.610000000000000000e+02,1.250000000000000000e+02,5.000000000000000000e-01,6.919432900000000000e+09
5.700000000000000000e+01,8.700000000000000000e+01,7.200000000000000000e+01,7.100000000000000000e+01,5.300000000000000000e+01,1.360000000000000000e+02,1.590000000000000000e+02,1.250000000000000000e+02,5.000000000000000000e-01,6.937879200000000000e+09
6.300000000000000000e+01,8.800000000000000000e+01,7.100000000000000000e+01,7.300000000000000000e+01,5.800000000000000000e+01,1.360000000000000000e+02,1.600000000000000000e+02,1.220000000000000000e+02,5.000000000000000000e-01,6.956578000000000000e+09
7.000000000000000000e+01,1.030000000000000000e+02,7.400000000000000000e+01,5.300000000000000000e+01,6.100000000000000000e+01,1.570000000000000000e+02,1.930000000000000000e+02,1.700000000000000000e+02,5.000000000000000000e-01,6.975667300000000000e+09
7.100000000000000000e+01,1.070000000000000000e+02,7.800000000000000000e+01,5.700000000000000000e+01,6.000000000000000000e+01,1.770000000000000000e+02,2.190000000000000000e+02,1.750000000000000000e+02,5.000000000000000000e-01,6.997081700000000000e+09
9.000000000000000000e+01,1.190000000000000000e+02,7.600000000000000000e+01,5.800000000000000000e+01,6.000000000000000000e+01,1.620000000000000000e+02,2.180000000000000000e+02,1.760000000000000000e+02,5.000000000000000000e-01,7.019413700000000000e+09
9.700000000000000000e+01,1.200000000000000000e+02,7.300000000000000000e+01,6.000000000000000000e+01,6.900000000000000000e+01,1.800000000000000000e+02,2.250000000000000000e+02,1.850000000000000000e+02,4.899999999999999911e-01,7.037692500000000000e+09
9.500000000000000000e+01,1.250000000000000000e+02,7.500000000000000000e+01,5.900000000000000000e+01,7.400000000000000000e+01,1.890000000000000000e+02,2.290000000000000000e+02,1.930000000000000000e+02,4.899999999999999911e-01,7.058079200000000000e+09
1.010000000000000000e+02,1.180000000000000000e+02,7.200000000000000000e+01,5.700000000000000000e+01,6.700000000000000000e+01,1.920000000000000000e+02,2.220000000000000000e+02,1.580000000000000000e+02,4.899999999999999911e-01,7.076909700000000000e+09
1.050000000000000000e+02,1.190000000000000000e+02,7.200000000000000000e+01,5.800000000000000000e+01,7.000000000000000000e+01,1.790000000000000000e+02,2.040000000000000000e+02,1.660000000000000000e+02,4.899999999999999911e-01,7.097171500000000000e+09
1.060000000000000000e+02,1.190000000000000000e+02,6.800000000000000000e+01,5.800000000000000000e+01,7.000000000000000000e+01,1.680000000000000000e+02,1.830000000000000000e+02,1.550000000000000000e+02,4.899999999999999911e-01,7.119541800000000000e+09
9.600000000000000000e+01,1.170000000000000000e+02,6.700000000000000000e+01,5.100000000000000000e+01,6.100000000000000000e+01,1.490000000000000000e+02,1.800000000000000000e+02,1.400000000000000000e+02,4.799999999999999822e-01,7.138154800000000000e+09
1.060000000000000000e+02,1.120000000000000000e+02,6.300000000000000000e+01,5.100000000000000000e+01,5.000000000000000000e+01,1.410000000000000000e+02,1.870000000000000000e+02,1.580000000000000000e+02,4.799999999999999822e-01,7.160956000000000000e+09
1.060000000000000000e+02,1.060000000000000000e+02,6.000000000000000000e+01,5.100000000000000000e+01,4.800000000000000000e+01,1.250000000000000000e+02,1.710000000000000000e+02,1.550000000000000000e+02,4.799999999999999822e-01,7.181774300000000000e+09
1.040000000000000000e+02,1.030000000000000000e+02,5.900000000000000000e+01,4.500000000000000000e+01,4.700000000000000000e+01,1.320000000000000000e+02,1.630000000000000000e+02,1.380000000000000000e+02,4.799999999999999822e-01,7.200555900000000000e+09
8.800000000000000000e+01,7.300000000000000000e+01,4.900000000000000000e+01,4.400000000000000000e+01,5.300000000000000000e+01,1.500000000000000000e+02,1.630000000000000000e+02,1.250000000000000000e+02,4.799999999999999822e-01,7.218408500000000000e+09
9.800000000000000000e+01,8.600000000000000000e+01,4.800000000000000000e+01,4.800000000000000000e+01,5.800000000000000000e+01,1.620000000000000000e+02,1.780000000000000000e+02,1.290000000000000000e+02,4.799999999999999822e-01,7.242094700000000000e+09
8.400000000000000000e+01,8.500000000000000000e+01,5.000000000000000000e+01,4.900000000000000000e+01,6.200000000000000000e+01,1.550000000000000000e+02,1.630000000000000000e+02,8.500000000000000000e+01,4.699999999999999734e-01,7.261739300000000000e+09
8.300000000000000000e+01,8.700000000000000000e+01,5.400000000000000000e+01,6.200000000000000000e+01,6.700000000000000000e+01,1.530000000000000000e+02,1.620000000000000000e+02,1.040000000000000000e+02,4.699999999999999734e-01,7.279886200000000000e+09
7.700000000000000000e+01,9.000000000000000000e+01,5.400000000000000000e+01,6.200000000000000000e+01,7.200000000000000000e+01,1.480000000000000000e+02,1.610000000000000000e+02,1.070000000000000000e+02,4.699999999999999734e-01,7.300790500000000000e+09
7.700000000000000000e+01,9.200000000000000000e+01,5.600000000000000000e+01,6.700000000000000000e+01,6.800000000000000000e+01,1.410000000000000000e+02,1.590000000000000000e+02,1.230000000000000000e+02,4.699999999999999734e-01,7.319669400000000000e+09
7.300000000000000000e+01,9.200000000000000000e+01,6.100000000000000000e+01,6.800000000000000000e+01,6.400000000000000000e+01,1.440000000000000000e+02,1.430000000000000000e+02,1.230000000000000000e+02,4.699999999999999734e-01,7.337552300000000000e+09
7.500000000000000000e+01,9.600000000000000000e+01,6.000000000000000000e+01,6.900000000000000000e+01,6.000000000000000000e+01,1.440000000000000000e+02,1.490000000000000000e+02,1.260000000000000000e+02,4.699999999999999734e-01,7.355935800000000000e+09
6.700000000000000000e+01,9.600000000000000000e+01,6.600000000000000000e+01,6.100000000000000000e+01,5.400000000000000000e+01,1.550000000000000000e+02,1.630000000000000000e+02,1.000000000000000000e+02,4.699999999999999734e-01,7.375792300000000000e+09
8.000000000000000000e+01,1.000000000000000000e+02,6.400000000000000000e+01,6.200000000000000000e+01,4.400000000000000000e+01,1.590000000000000000e+02,1.800000000000000000e+02,1.090000000000000000e+02,4.699999999999999734e-01,7.394587500000000000e+09
8.400000000000000000e+01,1.020000000000000000e+02,7.200000000000000000e+01,6.000000000000000000e+01,4.300000000000000000e+01,1.860000000000000000e+02,2.110000000000000000e+02,1.090000000000000000e+02,4.799999999999999822e-01,7.416382500000000000e+09
8.000000000000000000e+01,1.010000000000000000e+02,7.100000000000000000e+01,6.400000000000000000e+01,6.200000000000000000e+01,1.780000000000000000e+02,2.140000000000000000e+02,1.010000000000000000e+02,4.799999999999999822e-01,7.438612100000000000e+09
8.900000000000000000e+01,1.060000000000000000e+02,6.900000000000000000e+01,6.100000000000000000e+01,6.600000000000000000e+01,1.820000000000000000e+02,2.280000000000000000e+02,1.070000000000000000e+02,4.799999999999999822e-01,7.456583700000000000e+09
9.300000000000000000e+01,1.090000000000000000e+02,6.200000000000000000e+01,5.700000000000000000e+01,6.600000000000000000e+01,1.710000000000000000e+02,2.240000000000000000e+02,1.090000000000000000e+02,4.799999999999999822e-01,7.476199600000000000e+09
8.500000000000000000e+01,1.090000000000000000e+02,7.000000000000000000e+01,5.700000000000000000e+01,7.000000000000000000e+01,1.780000000000000000e+02,2.400000000000000000e+02,1.050000000000000000e+02,4.799999999999999822e-01,7.494657500000000000e+09
8.200000000000000000e+01,1.190000000000000000e+02,6.900000000000000000e+01,5.300000000000000000e+01,7.000000000000000000e+01,1.590000000000000000e+02,2.440000000000000000e+02,1.030000000000000000e+02,4.799999999999999822e-01,7.516394800000000000e+09
8.200000000000000000e+01,1.130000000000000000e+02,6.500000000000000000e+01,4.300000000000000000e+01,5.400000000000000000e+01,1.620000000000000000e+02,2.390000000000000000e+02,1.060000000000000000e+02,4.799999999999999822e-01,7.538693000000000000e+09
2.420000000000000000e+02,1.330000000000000000e+02,7.500000000000000000e+01,4.200000000000000000e+01,5.200000000000000000e+01,1.870000000000000000e+02,2.500000000000000000e+02,1.120000000000000000e+02,4.799999999999999822e-01,7.556520700000000000e+09
2.670000000000000000e+02,1.320000000000000000e+02,7.500000000000000000e+01,4.700000000000000000e+01,5.600000000000000000e+01,1.920000000000000000e+02,2.450000000000000000e+02,1.160000000000000000e+02,4.799999999999999822e-01,7.576488100000000000e+09
2.770000000000000000e+02,1.270000000000000000e+02,6.700000000000000000e+01,4.400000000000000000e+01,5.800000000000000000e+01,1.870000000000000000e+02,2.360000000000000000e+02,1.120000000000000000e+02,4.799999999999999822e-01,7.595696200000000000e+09
2.790000000000000000e+02,1.170000000000000000e+02,6.800000000000000000e+01,4.700000000000000000e+01,5.900000000000000000e+01,2.080000000000000000e+02,2.300000000000000000e+02,1.220000000000000000e+02,4.799999999999999822e-01,7.616486900000000000e+09
2.800000000000000000e+02,1.220000000000000000e+02,7.200000000000000000e+01,4.900000000000000000e+01,5.600000000000000000e+01,2.090000000000000000e+02,2.480000000000000000e+02,1.220000000000000000e+02,4.799999999999999822e-01,7.638484900000000000e+09
1.590000000000000000e+02,9.900000000000000000e+01,6.600000000000000000e+01,4.600000000000000000e+01,5.400000000000000000e+01,2.370000000000000000e+02,2.470000000000000000e+02,1.120000000000000000e+02,4.799999999999999822e-01,7.656770400000000000e+09
1.140000000000000000e+02,1.040000000000000000e+02,7.600000000000000000e+01,4.900000000000000000e+01,5.200000000000000000e+01,2.410000000000000000e+02,2.570000000000000000e+02,1.100000000000000000e+02,4.799999999999999822e-01,7.675868300000000000e+09
8.800000000000000000e+01,1.050000000000000000e+02,7.300000000000000000e+01,5.100000000000000000e+01,4.300000000000000000e+01,2.360000000000000000e+02,2.400000000000000000e+02,1.100000000000000000e+02,4.799999999999999822e-01,7.694169800000000000e+09
8.000000000000000000e+01,1.050000000000000000e+02,6.700000000000000000e+01,4.800000000000000000e+01,4.100000000000000000e+01,2.060000000000000000e+02,2.300000000000000000e+02,9.000000000000000000e+01,4.799999999999999822e-01,7.712395100000000000e+09
7.900000000000000000e+01,1.180000000000000000e+02,6.700000000000000000e+01,4.700000000000000000e+01,4.800000000000000000e+01,2.060000000000000000e+02,2.270000000000000000e+02,8.700000000000000000e+01,4.799999999999999822e-01,7.738621400000000000e+09
8.200000000000000000e+01,1.220000000000000000e+02,6.600000000000000000e+01,4.700000000000000000e+01,4.700000000000000000e+01,1.730000000000000000e+02,2.110000000000000000e+02,8.800000000000000000e+01,4.799999999999999822e-01,7.756745300000000000e+09
7.600000000000000000e+01,1.170000000000000000e+02,5.500000000000000000e+01,4.300000000000000000e+01,4.200000000000000000e+01,1.640000000000000000e+02,1.970000000000000000e+02,9.000000000000000000e+01,4.799999999999999822e-01,7.774212000000000000e+09
7.000000000000000000e+01,1.180000000000000000e+02,5.600000000000000000e+01,4.400000000000000000e+01,4.300000000000000000e+01,1.710000000000000000e+02,1.960000000000000000e+02,8.300000000000000000e+01,4.899999999999999911e-01,7.794513600000000000e+09
7.200000000000000000e+01,1.190000000000000000e+02,5.800000000000000000e+01,5.100000000000000000e+01,4.800000000000000000e+01,1.680000000000000000e+02,1.710000000000000000e+02,9.500000000000000000e+01,4.899999999999999911e-01,7.817283600000000000e+09
6.200000000000000000e+01,1.020000000000000000e+02,5.800000000000000000e+01,5.300000000000000000e+01,4.700000000000000000e+01,1.610000000000000000e+02,1.630000000000000000e+02,1.040000000000000000e+02,4.899999999999999911e-01,7.836229100000000000e+09
6.500000000000000000e+01,9.100000000000000000e+01,5.200000000000000000e+01,5.600000000000000000e+01,4.900000000000000000e+01,1.350000000000000000e+02,1.610000000000000000e+02,1.090000000000000000e+02,4.899999999999999911e-01,7.855243800000000000e+09
6.100000000000000000e+01,9.700000000000000000e+01,5.500000000000000000e+01,5.600000000000000000e+01,5.200000000000000000e+01,1.350000000000000000e+02,1.770000000000000000e+02,1.060000000000000000e+02,4.899999999999999911e-01,7.874470900000000000e+09
6.500000000000000000e+01,9.400000000000000000e+01,5.900000000000000000e+01,5.500000000000000000e+01,5.100000000000000000e+01,1.250000000000000000e+02,1.940000000000000000e+02,1.140000000000000000e+02,4.899999999999999911e-01,7.896622100000000000e+09
6.700000000000000000e+01,9.400000000000000000e+01,5.900000000000000000e+01,5.300000000000000000e+01,4.500000000000000000e+01,1.470000000000000000e+02,2.150000000000000000e+02,1.030000000000000000e+02,4.899999999999999911e-01,7.918857600000000000e+09
7.700000000000000000e+01,9.800000000000000000e+01,5.700000000000000000e+01,4.900000000000000000e+01,4.000000000000000000e+01,1.520000000000000000e+02,2.040000000000000000e+02,9.800000000000000000e+01,4.899999999999999911e-01,7.937369300000000000e+09
7.600000000000000000e+01,1.080000000000000000e+02,6.300000000000000000e+01,4.900000000000000000e+01,3.800000000000000000e+01,1.560000000000000000e+02,2.200000000000000000e+02,8.500000000000000000e+01,4.899999999999999911e-01,7.955142100000000000e+09
8.800000000000000000e+01,1.060000000000000000e+02,6.200000000000000000e+01,4.900000000000000000e+01,4.000000000000000000e+01,1.580000000000000000e+02,2.290000000000000000e+02,9.200000000000000000e+01,5.000000000000000000e-01,7.974334100000000000e+09
9.000000000000000000e+01,1.070000000000000000e+02,5.900000000000000000e+01,4.800000000000000000e+01,4.100000000000000000e+01,1.640000000000000000e+02,2.190000000000000000e+02,8.700000000000000000e+01,5.000000000000000000e-01,7.996842600000000000e+09
9.400000000000000000e+01,1.050000000000000000e+02,5.600000000000000000e+01,4.400000000000000000e+01,3.900000000000000000e+01,1.540000000000000000e+02,2.010000000000000000e+02,9.800000000000000000e+01,5.000000000000000000e-01,8.018993900000000000e+09
8.900000000000000000e+01,1.100000000000000000e+02,6.300000000000000000e+01,4.700000000000000000e+01,4.100000000000000000e+01,1.590000000000000000e+02,2.110000000000000000e+02,1.030000000000000000e+02,5.000000000000000000e-01,8.037227900000000000e+09
8.400000000000000000e+01,1.020000000000000000e+02,6.300000000000000000e+01,4.700000000000000000e+01,4.300000000000000000e+01,1.530000000000000000e+02,1.860000000000000000e+02,1.090000000000000000e+02,5.000000000000000000e-01,8.055426500000000000e+09
8.400000000000000000e+01,1.040000000000000000e+02,6.700000000000000000e+01,4.800000000000000000e+01,4.100000000000000000e+01,1.540000000000000000e+02,1.650000000000000000e+02,1.140000000000000000e+02,5.000000000000000000e-01,8.074521800000000000e+09
8.000000000000000000e+01,1.010000000000000000e+02,6.600000000000000000e+01,5.000000000000000000e+01,5.600000000000000000e+01,1.420000000000000000e+02,1.530000000000000000e+02,1.100000000000000000e+02,5.000000000000000000e-01,8.096674700000000000e+09
6.700000000000000000e+01,1.040000000000000000e+02,6.600000000000000000e+01,5.300000000000000000e+01,6.400000000000000000e+01,1.290000000000000000e+02,1.490000000000000000e+02,1.030000000000000000e+02,5.000000000000000000e-01,8.118867100000000000e+09
7.100000000000000000e+01,1.010000000000000000e+02,6.100000000000000000e+01,5.700000000000000000e+01,6.800000000000000000e+01,1.330000000000000000e+02,1.460000000000000000e+02,9.400000000000000000e+01,5.000000000000000000e-01,8.137333100000000000e+09
8.200000000000000000e+01,1.050000000000000000e+02,6.000000000000000000e+01,5.700000000000000000e+01,6.700000000000000000e+01,1.260000000000000000e+02,1.520000000000000000e+02,9.200000000000000000e+01,4.899999999999999911e-01,8.157204200000000000e+09
7.400000000000000000e+01,1.110000000000000000e+02,6.400000000000000000e+01,5.700000000000000000e+01,7.000000000000000000e+01,1.370000000000000000e+02,2.010000000000000000e+02,7.900000000000000000e+01,4.899999999999999911e-01,8.175600700000000000e+09
7.400000000000000000e+01,1.150000000000000000e+02,7.000000000000000000e+01,5.700000000000000000e+01,7.700000000000000000e+01,1.470000000000000000e+02,2.150000000000000000e+02,8.000000000000000000e+01,4.899999999999999911e-01,8.196624400000000000e+09
8.200000000000000000e+01,1.240000000000000000e+02,7.400000000000000000e+01,6.900000000000000000e+01,7.600000000000000000e+01,1.760000000000000000e+02,2.560000000000000000e+02,8.800000000000000000e+01,4.899999999999999911e-01,8.218796500000000000e+09
8.400000000000000000e+01,1.390000000000000000e+02,7.700000000000000000e+01,6.700000000000000000e+01,7.500000000000000000e+01,1.950000000000000000e+02,2.730000000000000000e+02,9.500000000000000000e+01,4.899999999999999911e-01,8.236997600000000000e+09
7.300000000000000000e+01,1.420000000000000000e+02,9.100000000000000000e+01,7.000000000000000000e+01,7.500000000000000000e+01,2.070000000000000000e+02,3.240000000000000000e+02,1.470000000000000000e+02,4.899999999999999911e-01,8.259023500000000000e+09
7.000000000000000000e+01,1.350000000000000000e+02,8.600000000000000000e+01,7.800000000000000000e+01,7.200000000000000000e+01,2.050000000000000000e+02,3.360000000000000000e+02,1.680000000000000000e+02,4.899999999999999911e-01,8.279650500000000000e+09
7.300000000000000000e+01,1.490000000000000000e+02,8.500000000000000000e+01,7.600000000000000000e+01,5.300000000000000000e+01,2.190000000000000000e+02,4.010000000000000000e+02,2.370000000000000000e+02,4.899999999999999911e-01,8.301328300000000000e+09
6.900000000000000000e+01,1.420000000000000000e+02,8.500000000000000000e+01,6.400000000000000000e+01,5.100000000000000000e+01,1.970000000000000000e+02,3.860000000000000000e+02,2.420000000000000000e+02,4.899999999999999911e-01,8.320732100000000000e+09
7.300000000000000000e+01,1.450000000000000000e+02,9.300000000000000000e+01,6.100000000000000000e+01,4.900000000000000000e+01,2.620000000000000000e+02,4.150000000000000000e+02,2.440000000000000000e+02,4.899999999999999911e-01,8.338547100000000000e+09
8.500000000000000000e+01,1.500000000000000000e+02,8.200000000000000000e+01,5.800000000000000000e+01,5.300000000000000000e+01,2.750000000000000000e+02,3.980000000000000000e+02,2.360000000000000000e+02,4.899999999999999911e-01,8.358138400000000000e+09
8.700000000000000000e+01,1.530000000000000000e+02,8.600000000000000000e+01,4.900000000000000000e+01,5.500000000000000000e+01,2.730000000000000000e+02,3.850000000000000000e+02,2.360000000000000000e+02,4.899999999999999911e-01,8.376823400000000000e+09
9.600000000000000000e+01,1.410000000000000000e+02,8.700000000000000000e+01,5.400000000000000000e+01,6.200000000000000000e+01,2.640000000000000000e+02,3.130000000000000000e+02,1.860000000000000000e+02,4.899999999999999911e-01,8.395763300000000000e+09
9.700000000000000000e+01,1.480000000000000000e+02,9.100000000000000000e+01,5.800000000000000000e+01,6.200000000000000000e+01,2.770000000000000000e+02,3.330000000000000000e+02,1.810000000000000000e+02,4.899999999999999911e-01,8.416139700000000000e+09
9.000000000000000000e+01,1.370000000000000000e+02,7.900000000000000000e+01,6.200000000000000000e+01,5.900000000000000000e+01,2.180000000000000000e+02,3.230000000000000000e+02,1.930000000000000000e+02,5.000000000000000000e-01,8.438186500000000000e+09
8.700000000000000000e+01,1.530000000000000000e+02,8.800000000000000000e+01,6.700000000000000000e+01,6.000000000000000000e+01,2.250000000000000000e+02,3.700000000000000000e+02,2.410000000000000000e+02,5.000000000000000000e-01,8.456857200000000000e+09
8.600000000000000000e+01,1.490000000000000000e+02,8.200000000000000000e+01,6.300000000000000000e+01,5.900000000000000000e+01,2.290000000000000000e+02,3.560000000000000000e+02,2.300000000000000000e+02,5.000000000000000000e-01,8.475330600000000000e+09
7.400000000000000000e+01,1.470000000000000000e+02,7.800000000000000000e+01,6.500000000000000000e+01,5.600000000000000000e+01,2.310000000000000000e+02,3.610000000000000000e+02,2.190000000000000000e+02,5.000000000000000000e-01,8.494280200000000000e+09
7.300000000000000000e+01,1.320000000000000000e+02,7.100000000000000000e+01,6.200000000000000000e+01,5.700000000000000000e+01,2.140000000000000000e+02,3.410000000000000000e+02,2.160000000000000000e+02,5.000000000000000000e-01,8.516000200000000000e+09
6.800000000000000000e+01,1.210000000000000000e+02,7.100000000000000000e+01,7.000000000000000000e+01,6.600000000000000000e+01,2.080000000000000000e+02,3.040000000000000000e+02,2.040000000000000000e+02,5.000000000000000000e-01,8.538110800000000000e+09
6.600000000000000000e+01,8.200000000000000000e+01,5.900000000000000000e+01,6.900000000000000000e+01,6.700000000000000000e+01,1.810000000000000000e+02,2.150000000000000000e+02,1.190000000000000000e+02,5.000000000000000000e-01,8.556605400000000000e+09
6.500000000000000000e+01,8.200000000000000000e+01,6.300000000000000000e+01,8.100000000000000000e+01,6.600000000000000000e+01,1.700000000000000000e+02,2.150000000000000000e+02,1.280000000000000000e+02,5.000000000000000000e-01,8.577012700000000000e+09
7.000000000000000000e+01,8.500000000000000000e+01,6.900000000000000000e+01,7.900000000000000000e+01,6.500000000000000000e+01,1.740000000000000000e+02,2.160000000000000000e+02,1.310000000000000000e+02,5.000000000000000000e-01,8.596559700000000000e+09
7.000000000000000000e+01,8.500000000000000000e+01,6.800000000000000000e+01,7.900000000000000000e+01,5.700000000000000000e+01,1.760000000000000000e+02,2.100000000000000000e+02,1.330000000000000000e+02,5.000000000000000000e-01,8.616202600000000000e+09
7.600000000000000000e+01,1.010000000000000000e+02,7.100000000000000000e+01,7.000000000000000000e+01,5.000000000000000000e+01,1.570000000000000000e+02,2.170000000000000000e+02,1.480000000000000000e+02,5.000000000000000000e-01,8.638136900000000000e+09
8.100000000000000000e+01,1.040000000000000000e+02,7.400000000000000000e+01,6.900000000000000000e+01,4.600000000000000000e+01,1.590000000000000000e+02,2.330000000000000000e+02,1.390000000000000000e+02,5.000000000000000000e-01,8.656702800000000000e+09
8.400000000000000000e+01,1.210000000000000000e+02,7.600000000000000000e+01,5.600000000000000000e+01,4.400000000000000000e+01,1.780000000000000000e+02,2.490000000000000000e+02,1.320000000000000000e+02,5.000000000000000000e-01,8.675646000000000000e+09
9.600000000000000000e+01,1.360000000000000000e+02,7.900000000000000000e+01,6.100000000000000000e+01,4.200000000000000000e+01,1.740000000000000000e+02,2.930000000000000000e+02,1.710000000000000000e+02,5.100000000000000089e-01,8.695515100000000000e+09
1.010000000000000000e+02,1.350000000000000000e+02,8.500000000000000000e+01,6.000000000000000000e+01,4.200000000000000000e+01,1.720000000000000000e+02,2.960000000000000000e+02,1.680000000000000000e+02,5.100000000000000089e-01,8.716027100000000000e+09
1.050000000000000000e+02,1.330000000000000000e+02,8.500000000000000000e+01,6.400000000000000000e+01,5.100000000000000000e+01,1.810000000000000000e+02,3.350000000000000000e+02,1.700000000000000000e+02,5.100000000000000089e-01,8.738177300000000000e+09
9.600000000000000000e+01,1.400000000000000000e+02,8.500000000000000000e+01,6.300000000000000000e+01,5.400000000000000000e+01,1.820000000000000000e+02,3.400000000000000000e+02,2.040000000000000000e+02,5.100000000000000089e-01,8.757328100000000000e+09
1.000000000000000000e+02,1.330000000000000000e+02,8.100000000000000000e+01,6.300000000000000000e+01,5.100000000000000000e+01,1.580000000000000000e+02,3.240000000000000000e+02,2.060000000000000000e+02,5.100000000000000089e-01,8.776990400000000000e+09
8.500000000000000000e+01,1.120000000000000000e+02,7.100000000000000000e+01,6.600000000000000000e+01,5.200000000000000000e+01,1.500000000000000000e+02,2.810000000000000000e+02,1.800000000000000000e+02,5.100000000000000089e-01,8.796648200000000000e+09
7.700000000000000000e+01,1.220000000000000000e+02,6.400000000000000000e+01,6.500000000000000000e+01,6.100000000000000000e+01,1.660000000000000000e+02,2.690000000000000000e+02,1.880000000000000000e+02,5.100000000000000089e-01,8.816016600000000000e+09
6.600000000000000000e+01,1.140000000000000000e+02,6.100000000000000000e+01,6.400000000000000000e+01,6.100000000000000000e+01,1.800000000000000000e+02,2.210000000000000000e+02,1.730000000000000000e+02,5.100000000000000089e-01,8.838376900000000000e+09
7.200000000000000000e+01,1.020000000000000000e+02,5.700000000000000000e+01,7.000000000000000000e+01,6.100000000000000000e+01,1.680000000000000000e+02,1.960000000000000000e+02,1.390000000000000000e+02,5.000000000000000000e-01,8.857367000000000000e+09
5.700000000000000000e+01,9.200000000000000000e+01,5.800000000000000000e+01,7.200000000000000000e+01,6.400000000000000000e+01,1.670000000000000000e+02,1.990000000000000000e+02,1.320000000000000000e+02,5.000000000000000000e-01,8.876473500000000000e+09
6.300000000000000000e+01,9.700000000000000000e+01,6.000000000000000000e+01,6.500000000000000000e+01,6.100000000000000000e+01,1.640000000000000000e+02,2.010000000000000000e+02,1.320000000000000000e+02,5.000000000000000000e-01,8.895372100000000000e+09
9.300000000000000000e+01,1.050000000000000000e+02,6.500000000000000000e+01,6.600000000000000000e+01,5.400000000000000000e+01,1.590000000000000000e+02,2.570000000000000000e+02,1.570000000000000000e+02,5.000000000000000000e-01,8.917615900000000000e+09
1.020000000000000000e+02,1.080000000000000000e+02,6.500000000000000000e+01,6.200000000000000000e+01,4.300000000000000000e+01,1.280000000000000000e+02,2.640000000000000000e+02,1.560000000000000000e+02,5.000000000000000000e-01,8.936341600000000000e+09
1.050000000000000000e+02,1.040000000000000000e+02,6.500000000000000000e+01,5.300000000000000000e+01,4.500000000000000000e+01,1.250000000000000000e+02,2.530000000000000000e+02,1.510000000000000000e+02,5.000000000000000000e-01,8.955355700000000000e+09
1.110000000000000000e+02,1.080000000000000000e+02,6.200000000000000000e+01,5.000000000000000000e+01,4.700000000000000000e+01,1.560000000000000000e+02,2.710000000000000000e+02,1.770000000000000000e+02,5.000000000000000000e-01,8.974536500000000000e+09
1.090000000000000000e+02,1.090000000000000000e+02,6.300000000000000000e+01,4.700000000000000000e+01,5.000000000000000000e+01,1.620000000000000000e+02,2.780000000000000000e+02,1.710000000000000000e+02,5.000000000000000000e-01,8.995345100000000000e+09
8.700000000000000000e+01,1.000000000000000000e+02,7.000000000000000000e+01,5.700000000000000000e+01,5.000000000000000000e+01,1.630000000000000000e+02,2.620000000000000000e+02,1.500000000000000000e+02,5.000000000000000000e-01,9.017576300000000000e+09
8.500000000000000000e+01,1.050000000000000000e+02,7.100000000000000000e+01,5.800000000000000000e+01,5.000000000000000000e+01,1.620000000000000000e+02,2.580000000000000000e+02,1.560000000000000000e+02,5.000000000000000000e-01,9.035959000000000000e+09
7.800000000000000000e+01,1.080000000000000000e+02,6.500000000000000000e+01,6.100000000000000000e+01,4.500000000000000000e+01,1.660000000000000000e+02,2.600000000000000000e+02,1.530000000000000000e+02,5.000000000000000000e-01,9.054590900000000000e+09
7.200000000000000000e+01,1.140000000000000000e+02,7.000000000000000000e+01,6.300000000000000000e+01,4.200000000000000000e+01,1.620000000000000000e+02,2.520000000000000000e+02,1.310000000000000000e+02,5.000000000000000000e-01,9.073142400000000000e+09
8.400000000000000000e+01,1.150000000000000000e+02,7.300000000000000000e+01,6.500000000000000000e+01,4.100000000000000000e+01,1.570000000000000000e+02,2.420000000000000000e+02,1.430000000000000000e+02,5.000000000000000000e-01,9.095294900000000000e+09
9.600000000000000000e+01,1.100000000000000000e+02,6.600000000000000000e+01,5.400000000000000000e+01,4.200000000000000000e+01,1.530000000000000000e+02,2.440000000000000000e+02,1.380000000000000000e+02,5.000000000000000000e-01,9.117554300000000000e+09
8.700000000000000000e+01,1.000000000000000000e+02,6.300000000000000000e+01,6.100000000000000000e+01,4.700000000000000000e+01,1.490000000000000000e+02,2.330000000000000000e+02,1.300000000000000000e+02,5.000000000000000000e-01,9.135864200000000000e+09
8.800000000000000000e+01,1.070000000000000000e+02,8.300000000000000000e+01,6.200000000000000000e+01,5.000000000000000000e+01,1.870000000000000000e+02,2.550000000000000000e+02,1.380000000000000000e+02,5.000000000000000000e-01,9.155681400000000000e+09
9.600000000000000000e+01,1.060000000000000000e+02,8.200000000000000000e+01,6.200000000000000000e+01,5.000000000000000000e+01,1.780000000000000000e+02,2.460000000000000000e+02,1.320000000000000000e+02,5.000000000000000000e-01,9.174119300000000000e+09
8.500000000000000000e+01,1.000000000000000000e+02,7.900000000000000000e+01,6.700000000000000000e+01,5.700000000000000000e+01,1.820000000000000000e+02,2.420000000000000000e+02,1.250000000000000000e+02,5.000000000000000000e-01,9.196123500000000000e+09
8.200000000000000000e+01,1.040000000000000000e+02,7.600000000000000000e+01,6.900000000000000000e+01,6.200000000000000000e+01,1.930000000000000000e+02,2.470000000000000000e+02,1.200000000000000000e+02,5.000000000000000000e-01,9.218410000000000000e+09
8.600000000000000000e+01,1.070000000000000000e+02,7.800000000000000000e+01,6.400000000000000000e+01,6.000000000000000000e+01,2.020000000000000000e+02,2.420000000000000000e+02,1.160000000000000000e+02,5.000000000000000000e-01,9.237316000000000000e+09
8.700000000000000000e+01,1.050000000000000000e+02,6.100000000000000000e+01,7.300000000000000000e+01,6.000000000000000000e+01,1.710000000000000000e+02,2.340000000000000000e+02,1.260000000000000000e+02,5.000000000000000000e-01,9.256428400000000000e+09
8.700000000000000000e+01,1.090000000000000000e+02,6.800000000000000000e+01,7.700000000000000000e+01,6.500000000000000000e+01,1.840000000000000000e+02,2.590000000000000000e+02,1.520000000000000000e+02,5.000000000000000000e-01,9.276154800000000000e+09
8.800000000000000000e+01,1.160000000000000000e+02,6.600000000000000000e+01,7.000000000000000000e+01,5.800000000000000000e+01,1.850000000000000000e+02,2.700000000000000000e+02,1.420000000000000000e+02,5.000000000000000000e-01,9.296954900000000000e+09
7.900000000000000000e+01,1.300000000000000000e+02,7.300000000000000000e+01,7.800000000000000000e+01,6.100000000000000000e+01,1.720000000000000000e+02,2.510000000000000000e+02,1.490000000000000000e+02,5.000000000000000000e-01,9.318369300000000000e+09
8.300000000000000000e+01,1.350000000000000000e+02,7.600000000000000000e+01,7.900000000000000000e+01,6.200000000000000000e+01,1.590000000000000000e+02,2.540000000000000000e+02,1.590000000000000000e+02,5.000000000000000000e-01,9.340659500000000000e+09
8.200000000000000000e+01,1.410000000000000000e+02,8.100000000000000000e+01,6.700000000000000000e+01,6.400000000000000000e+01,1.940000000000000000e+02,2.740000000000000000e+02,1.550000000000000000e+02,5.000000000000000000e-01,9.361745600000000000e+09
7.100000000000000000e+01,1.370000000000000000e+02,7.400000000000000000e+01,6.400000000000000000e+01,6.300000000000000000e+01,1.790000000000000000e+02,2.500000000000000000e+02,1.280000000000000000e+02,5.000000000000000000e-01,9.382467200000000000e+09
7.100000000000000000e+01,1.390000000000000000e+02,7.500000000000000000e+01,6.400000000000000000e+01,6.400000000000000000e+01,1.810000000000000000e+02,2.560000000000000000e+02,1.440000000000000000e+02,5.000000000000000000e-01,9.403351900000000000e+09
7.400000000000000000e+01,1.220000000000000000e+02,7.100000000000000000e+01,5.000000000000000000e+01,5.500000000000000000e+01,1.830000000000000000e+02,2.440000000000000000e+02,1.350000000000000000e+02,5.000000000000000000e-01,9.421806300000000000e+09
7.300000000000000000e+01,1.260000000000000000e+02,7.000000000000000000e+01,5.400000000000000000e+01,5.300000000000000000e+01,1.910000000000000000e+02,2.360000000000000000e+02,1.370000000000000000e+02,5.100000000000000089e-01,9.440433700000000000e+09
9.100000000000000000e+01,1.190000000000000000e+02,6.700000000000000000e+01,5.400000000000000000e+01,5.000000000000000000e+01,1.470000000000000000e+02,2.110000000000000000e+02,1.400000000000000000e+02,5.100000000000000089e-01,9.458118100000000000e+09
9.800000000000000000e+01,1.150000000000000000e+02,6.600000000000000000e+01,5.400000000000000000e+01,4.400000000000000000e+01,1.450000000000000000e+02,2.180000000000000000e+02,1.420000000000000000e+02,5.100000000000000089e-01,9.477159900000000000e+09
9.300000000000000000e+01,1.110000000000000000e+02,6.800000000000000000e+01,6.000000000000000000e+01,4.600000000000000000e+01,1.370000000000000000e+02,2.180000000000000000e+02,1.340000000000000000e+02,5.000000000000000000e-01,9.496712700000000000e+09
8.900000000000000000e+01,1.090000000000000000e+02,6.700000000000000000e+01,6.800000000000000000e+01,4.400000000000000000e+01,1.280000000000000000e+02,2.220000000000000000e+02,1.370000000000000000e+02,5.000000000000000000e-01,9.515669800000000000e+09
9.700000000000000000e+01,1.050000000000000000e+02,6.700000000000000000e+01,7.000000000000000000e+01,4.400000000000000000e+01,1.270000000000000000e+02,2.540000000000000000e+02,1.330000000000000000e+02,5.000000000000000000e-01,9.537632500000000000e+09
7.800000000000000000e+01,1.040000000000000000e+02,6.400000000000000000e+01,7.200000000000000000e+01,4.800000000000000000e+01,1.350000000000000000e+02,2.430000000000000000e+02,1.210000000000000000e+02,5.000000000000000000e-01,9.557046400000000000e+09
8.300000000000000000e+01,1.320000000000000000e+02,6.900000000000000000e+01,7.000000000000000000e+01,5.200000000000000000e+01,1.480000000000000000e+02,2.910000000000000000e+02,1.430000000000000000e+02,5.000000000000000000e-01,9.575534000000000000e+09
9.000000000000000000e+01,1.420000000000000000e+02,7.000000000000000000e+01,7.400000000000000000e+01,4.800000000000000000e+01,1.730000000000000000e+02,2.940000000000000000e+02,1.430000000000000000e+02,5.000000000000000000e-01,9.593799300000000000e+09
1.040000000000000000e+02,1.470000000000000000e+02,6.800000000000000000e+01,7.000000000000000000e+01,5.400000000000000000e+01,1.760000000000000000e+02,3.140000000000000000e+02,1.500000000000000000e+02,5.000000000000000000e-01,9.615552000000000000e+09
9.400000000000000000e+01,1.520000000000000000e+02,7.000000000000000000e+01,6.600000000000000000e+01,5.700000000000000000e+01,1.910000000000000000e+02,2.980000000000000000e+02,1.550000000000000000e+02,5.000000000000000000e-01,9.637946600000000000e+09
9.600000000000000000e+01,1.530000000000000000e+02,7.200000000000000000e+01,7.100000000000000000e+01,6.700000000000000000e+01,1.930000000000000000e+02,3.070000000000000000e+02,1.610000000000000000e+02,5.000000000000000000e-01,9.656148300000000000e+09
9.000000000000000000e+01,1.260000000000000000e+02,7.000000000000000000e+01,7.300000000000000000e+01,7.100000000000000000e+01,1.750000000000000000e+02,2.830000000000000000e+02,1.460000000000000000e+02,5.000000000000000000e-01,9.674386800000000000e+09
8.200000000000000000e+01,1.110000000000000000e+02,6.400000000000000000e+01,6.700000000000000000e+01,7.500000000000000000e+01,1.650000000000000000e+02,2.750000000000000000e+02,1.550000000000000000e+02,5.000000000000000000e-01,9.694026400000000000e+09
7.200000000000000000e+01,1.120000000000000000e+02,6.000000000000000000e+01,6.600000000000000000e+01,7.300000000000000000e+01,1.700000000000000000e+02,2.460000000000000000e+02,1.490000000000000000e+02,5.000000000000000000e-01,9.715440400000000000e+09
7.900000000000000000e+01,1.050000000000000000e+02,5.500000000000000000e+01,6.400000000000000000e+01,7.100000000000000000e+01,1.490000000000000000e+02,2.550000000000000000e+02,1.450000000000000000e+02,5.000000000000000000e-01,9.737519900000000000e+09
8.100000000000000000e+01,1.130000000000000000e+02,5.100000000000000000e+01,5.500000000000000000e+01,5.800000000000000000e+01,1.540000000000000000e+02,2.660000000000000000e+02,1.390000000000000000e+02,5.000000000000000000e-01,9.756065300000000000e+09
7.700000000000000000e+01,1.130000000000000000e+02,4.600000000000000000e+01,5.000000000000000000e+01,4.800000000000000000e+01,1.630000000000000000e+02,2.360000000000000000e+02,1.350000000000000000e+02,5.000000000000000000e-01,9.774271300000000000e+09
8.300000000000000000e+01,1.150000000000000000e+02,4.800000000000000000e+01,4.500000000000000000e+01,4.300000000000000000e+01,1.470000000000000000e+02,2.240000000000000000e+02,1.110000000000000000e+02,5.000000000000000000e-01,9.793635600000000000e+09
7.700000000000000000e+01,1.150000000000000000e+02,5.100000000000000000e+01,4.700000000000000000e+01,4.500000000000000000e+01,1.380000000000000000e+02,2.250000000000000000e+02,1.060000000000000000e+02,5.000000000000000000e-01,9.815385800000000000e+09
6.500000000000000000e+01,1.070000000000000000e+02,4.600000000000000000e+01,4.500000000000000000e+01,4.400000000000000000e+01,1.510000000000000000e+02,2.020000000000000000e+02,9.600000000000000000e+01,4.899999999999999911e-01,9.837910200000000000e+09
6.200000000000000000e+01,1.020000000000000000e+02,5.100000000000000000e+01,4.600000000000000000e+01,4.500000000000000000e+01,1.460000000000000000e+02,2.060000000000000000e+02,1.000000000000000000e+02,4.899999999999999911e-01,9.858053700000000000e+09
6.000000000000000000e+01,1.030000000000000000e+02,5.300000000000000000e+01,4.600000000000000000e+01,4.500000000000000000e+01,1.530000000000000000e+02,1.980000000000000000e+02,9.500000000000000000e+01,4.899999999999999911e-01,9.876506900000000000e+09
5.400000000000000000e+01,1.010000000000000000e+02,5.500000000000000000e+01,5.100000000000000000e+01,4.700000000000000000e+01,1.860000000000000000e+02,2.140000000000000000e+02,9.100000000000000000e+01,4.899999999999999911e-01,9.895927100000000000e+09
5.500000000000000000e+01,9.600000000000000000e+01,5.600000000000000000e+01,5.200000000000000000e+01,4.500000000000000000e+01,1.850000000000000000e+02,2.080000000000000000e+02,1.020000000000000000e+02,4.899999999999999911e-01,9.915566300000000000e+09
6.500000000000000000e+01,9.800000000000000000e+01,5.600000000000000000e+01,5.200000000000000000e+01,4.200000000000000000e+01,1.690000000000000000e+02,2.030000000000000000e+02,1.080000000000000000e+02,4.899999999999999911e-01,9.938366600000000000e+09
6.500000000000000000e+01,9.600000000000000000e+01,5.300000000000000000e+01,4.800000000000000000e+01,4.000000000000000000e+01,2.010000000000000000e+02,1.860000000000000000e+02,1.030000000000000000e+02,4.899999999999999911e-01,9.956601500000000000e+09
7.400000000000000000e+01,9.600000000000000000e+01,5.100000000000000000e+01,4.700000000000000000e+01,4.100000000000000000e+01,1.950000000000000000e+02,1.970000000000000000e+02,1.070000000000000000e+02,5.000000000000000000e-01,9.976951800000000000e+09
7.300000000000000000e+01,1.080000000000000000e+02,5.700000000000000000e+01,5.200000000000000000e+01,4.100000000000000000e+01,1.800000000000000000e+02,1.880000000000000000e+02,1.160000000000000000e+02,5.000000000000000000e-01,9.995807700000000000e+09
7.300000000000000000e+01,1.050000000000000000e+02,5.600000000000000000e+01,5.200000000000000000e+01,4.300000000000000000e+01,1.810000000000000000e+02,1.940000000000000000e+02,1.040000000000000000e+02,5.000000000000000000e-01,1.001629970000000000e+10
6.300000000000000000e+01,1.100000000000000000e+02,6.100000000000000000e+01,6.300000000000000000e+01,4.500000000000000000e+01,1.980000000000000000e+02,2.030000000000000000e+02,9.200000000000000000e+01,5.000000000000000000e-01,1.003865640000000000e+10
6.200000000000000000e+01,1.010000000000000000e+02,6.600000000000000000e+01,6.900000000000000000e+01,5.300000000000000000e+01,1.790000000000000000e+02,1.870000000000000000e+02,9.900000000000000000e+01,5.000000000000000000e-01,1.005749210000000000e+10
5.300000000000000000e+01,9.800000000000000000e+01,6.600000000000000000e+01,6.900000000000000000e+01,5.300000000000000000e+01,1.760000000000000000e+02,1.670000000000000000e+02,9.000000000000000000e+01,5.000000000000000000e-01,1.007571240000000000e+10
5.100000000000000000e+01,8.800000000000000000e+01,5.600000000000000000e+01,6.100000000000000000e+01,5.000000000000000000e+01,1.570000000000000000e+02,1.430000000000000000e+02,7.500000000000000000e+01,5.000000000000000000e-01,1.009419160000000000e+10
4.600000000000000000e+01,8.200000000000000000e+01,5.600000000000000000e+01,5.900000000000000000e+01,4.700000000000000000e+01,1.530000000000000000e+02,1.310000000000000000e+02,7.000000000000000000e+01,5.000000000000000000e-01,1.011646170000000000e+10
4.600000000000000000e+01,7.000000000000000000e+01,5.300000000000000000e+01,4.900000000000000000e+01,4.600000000000000000e+01,1.220000000000000000e+02,1.090000000000000000e+02,6.500000000000000000e+01,5.000000000000000000e-01,1.013855680000000000e+10
4.500000000000000000e+01,7.700000000000000000e+01,4.500000000000000000e+01,4.100000000000000000e+01,3.700000000000000000e+01,8.600000000000000000e+01,8.900000000000000000e+01,4.800000000000000000e+01,5.000000000000000000e-01,1.015726320000000000e+10
4.900000000000000000e+01,7.400000000000000000e+01,4.400000000000000000e+01,3.800000000000000000e+01,3.400000000000000000e+01,7.400000000000000000e+01,6.800000000000000000e+01,4.600000000000000000e+01,5.000000000000000000e-01,1.017746500000000000e+10
5.000000000000000000e+01,6.700000000000000000e+01,4.300000000000000000e+01,4.000000000000000000e+01,4.000000000000000000e+01,6.800000000000000000e+01,6.300000000000000000e+01,4.400000000000000000e+01,5.000000000000000000e-01,1.019714570000000000e+10
5.300000000000000000e+01,7.600000000000000000e+01,4.100000000000000000e+01,3.700000000000000000e+01,4.100000000000000000e+01,6.300000000000000000e+01,4.700000000000000000e+01,4.300000000000000000e+01,5.000000000000000000e-01,1.021627850000000000e+10
5.300000000000000000e+01,1.380000000000000000e+02,4.300000000000000000e+01,5.300000000000000000e+01,4.100000000000000000e+01,6.200000000000000000e+01,4.600000000000000000e+01,4.400000000000000000e+01,5.000000000000000000e-01,1.023897340000000000e+10
5.400000000000000000e+01,1.360000000000000000e+02,4.400000000000000000e+01,5.300000000000000000e+01,4.300000000000000000e+01,4.700000000000000000e+01,3.900000000000000000e+01,3.800000000000000000e+01,5.000000000000000000e-01,1.025783810000000000e+10
5.100000000000000000e+01,1.360000000000000000e+02,4.500000000000000000e+01,5.500000000000000000e+01,4.400000000000000000e+01,4.700000000000000000e+01,5.000000000000000000e+01,6.200000000000000000e+01,5.000000000000000000e-01,1.027783520000000000e+10
5.100000000000000000e+01,1.390000000000000000e+02,4.700000000000000000e+01,5.400000000000000000e+01,3.800000000000000000e+01,6.600000000000000000e+01,7.200000000000000000e+01,6.700000000000000000e+01,5.000000000000000000e-01,1.029726810000000000e+10
6.600000000000000000e+01,1.410000000000000000e+02,5.900000000000000000e+01,5.700000000000000000e+01,3.900000000000000000e+01,7.500000000000000000e+01,8.400000000000000000e+01,1.000000000000000000e+02,5.000000000000000000e-01,1.031754060000000000e+10
7.100000000000000000e+01,1.140000000000000000e+02,6.200000000000000000e+01,4.300000000000000000e+01,4.000000000000000000e+01,7.600000000000000000e+01,8.600000000000000000e+01,1.000000000000000000e+02,5.000000000000000000e-01,1.033627500000000000e+10
6.800000000000000000e+01,1.120000000000000000e+02,6.200000000000000000e+01,4.400000000000000000e+01,3.800000000000000000e+01,7.700000000000000000e+01,8.600000000000000000e+01,1.040000000000000000e+02,5.000000000000000000e-01,1.035614710000000000e+10
8.200000000000000000e+01,1.400000000000000000e+02,7.400000000000000000e+01,6.800000000000000000e+01,4.600000000000000000e+01,1.680000000000000000e+02,1.860000000000000000e+02,1.190000000000000000e+02,5.000000000000000000e-01,1.037610980000000000e+10
8.100000000000000000e+01,1.410000000000000000e+02,7.500000000000000000e+01,6.900000000000000000e+01,4.900000000000000000e+01,1.710000000000000000e+02,1.830000000000000000e+02,1.180000000000000000e+02,5.000000000000000000e-01,1.039495110000000000e+10
7.000000000000000000e+01,1.380000000000000000e+02,7.000000000000000000e+01,6.900000000000000000e+01,5.400000000000000000e+01,1.730000000000000000e+02,1.870000000000000000e+02,9.200000000000000000e+01,5.000000000000000000e-01,1.041367920000000000e+10
6.900000000000000000e+01,1.160000000000000000e+02,7.800000000000000000e+01,8.600000000000000000e+01,5.900000000000000000e+01,1.850000000000000000e+02,2.010000000000000000e+02,9.800000000000000000e+01,5.100000000000000089e-01,1.043284280000000000e+10
7.000000000000000000e+01,1.220000000000000000e+02,9.100000000000000000e+01,1.000000000000000000e+02,6.700000000000000000e+01,1.930000000000000000e+02,2.040000000000000000e+02,1.030000000000000000e+02,5.100000000000000089e-01,1.045977430000000000e+10
