1.220000000000000000e+02,5.300000000000000000e+01,2.320000000000000000e+02,2.560000000000000000e+02,3.600000000000000000e+01,2.270000000000000000e+02,1.680000000000000000e+02,2.240000000000000000e+02,5.899999999999999689e-01,5.462814000000000000e+08
1.190000000000000000e+02,6.000000000000000000e+01,2.920000000000000000e+02,2.290000000000000000e+02,3.600000000000000000e+01,1.920000000000000000e+02,1.790000000000000000e+02,2.340000000000000000e+02,5.999999999999999778e-01,5.840084000000000000e+08
1.180000000000000000e+02,5.800000000000000000e+01,2.960000000000000000e+02,2.450000000000000000e+02,3.200000000000000000e+01,1.590000000000000000e+02,2.020000000000000000e+02,2.420000000000000000e+02,6.099999999999999867e-01,1.326863200000000000e+09
1.160000000000000000e+02,5.600000000000000000e+01,2.500000000000000000e+02,2.680000000000000000e+02,3.300000000000000000e+01,1.420000000000000000e+02,2.010000000000000000e+02,2.360000000000000000e+02,6.300000000000000044e-01,1.345007500000000000e+09
6.800000000000000000e+01,5.400000000000000000e+01,2.440000000000000000e+02,2.790000000000000000e+02,3.200000000000000000e+01,2.400000000000000000e+02,1.700000000000000000e+02,1.230000000000000000e+02,6.400000000000000133e-01,1.362557900000000000e+09
5.900000000000000000e+01,5.400000000000000000e+01,2.370000000000000000e+02,2.410000000000000000e+02,3.200000000000000000e+01,4.980000000000000000e+02,1.540000000000000000e+02,1.160000000000000000e+02,6.600000000000000311e-01,1.381273400000000000e+09
5.600000000000000000e+01,4.900000000000000000e+01,1.580000000000000000e+02,2.420000000000000000e+02,3.500000000000000000e+01,7.200000000000000000e+02,1.690000000000000000e+02,9.100000000000000000e+01,6.700000000000000400e-01,1.400211600000000000e+09
5.400000000000000000e+01,4.900000000000000000e+01,1.830000000000000000e+02,2.280000000000000000e+02,4.000000000000000000e+01,8.250000000000000000e+02,2.310000000000000000e+02,8.900000000000000000e+01,6.800000000000000488e-01,1.425498100000000000e+09
5.700000000000000000e+01,8.000000000000000000e+01,2.670000000000000000e+02,2.310000000000000000e+02,5.800000000000000000e+01,8.810000000000000000e+02,2.410000000000000000e+02,1.000000000000000000e+02,6.800000000000000488e-01,1.445669800000000000e+09
5.400000000000000000e+01,8.600000000000000000e+01,3.510000000000000000e+02,2.310000000000000000e+02,7.600000000000000000e+01,9.150000000000000000e+02,2.520000000000000000e+02,1.080000000000000000e+02,6.800000000000000488e-01,1.464124200000000000e+09
5.600000000000000000e+01,9.200000000000000000e+01,3.890000000000000000e+02,2.390000000000000000e+02,1.560000000000000000e+02,8.610000000000000000e+02,2.680000000000000000e+02,1.090000000000000000e+02,6.800000000000000488e-01,1.483165300000000000e+09
6.000000000000000000e+01,9.400000000000000000e+01,3.930000000000000000e+02,2.330000000000000000e+02,2.300000000000000000e+02,8.090000000000000000e+02,2.600000000000000000e+02,1.040000000000000000e+02,6.800000000000000488e-01,1.502160500000000000e+09
5.800000000000000000e+01,1.050000000000000000e+02,4.000000000000000000e+02,2.300000000000000000e+02,2.810000000000000000e+02,7.120000000000000000e+02,2.180000000000000000e+02,8.900000000000000000e+01,6.800000000000000488e-01,1.519943800000000000e+09
6.500000000000000000e+01,1.140000000000000000e+02,3.540000000000000000e+02,2.510000000000000000e+02,3.990000000000000000e+02,6.430000000000000000e+02,2.300000000000000000e+02,7.900000000000000000e+01,6.700000000000000400e-01,1.538361500000000000e+09
6.200000000000000000e+01,1.110000000000000000e+02,2.920000000000000000e+02,3.160000000000000000e+02,4.300000000000000000e+02,5.650000000000000000e+02,2.210000000000000000e+02,6.000000000000000000e+01,6.600000000000000311e-01,1.557053500000000000e+09
6.100000000000000000e+01,1.070000000000000000e+02,2.430000000000000000e+02,3.150000000000000000e+02,4.100000000000000000e+02,4.710000000000000000e+02,1.980000000000000000e+02,5.900000000000000000e+01,6.400000000000000133e-01,1.574840200000000000e+09
5.600000000000000000e+01,1.050000000000000000e+02,2.500000000000000000e+02,3.290000000000000000e+02,3.740000000000000000e+02,1.910000000000000000e+02,2.030000000000000000e+02,6.200000000000000000e+01,6.199999999999999956e-01,1.593852700000000000e+09
5.700000000000000000e+01,1.000000000000000000e+02,2.160000000000000000e+02,3.410000000000000000e+02,3.360000000000000000e+02,1.200000000000000000e+02,1.820000000000000000e+02,9.100000000000000000e+01,5.899999999999999689e-01,1.612288900000000000e+09
5.000000000000000000e+01,7.900000000000000000e+01,2.240000000000000000e+02,2.960000000000000000e+02,1.810000000000000000e+02,9.800000000000000000e+01,1.490000000000000000e+02,9.000000000000000000e+01,5.799999999999999600e-01,1.662660200000000000e+09
5.200000000000000000e+01,7.600000000000000000e+01,2.170000000000000000e+02,2.240000000000000000e+02,7.300000000000000000e+01,7.300000000000000000e+01,1.470000000000000000e+02,9.000000000000000000e+01,5.699999999999999512e-01,1.683675500000000000e+09
5.400000000000000000e+01,7.900000000000000000e+01,2.070000000000000000e+02,2.890000000000000000e+02,6.000000000000000000e+01,6.200000000000000000e+01,1.450000000000000000e+02,8.900000000000000000e+01,5.699999999999999512e-01,1.702212800000000000e+09
5.100000000000000000e+01,7.800000000000000000e+01,1.870000000000000000e+02,2.910000000000000000e+02,5.900000000000000000e+01,7.800000000000000000e+01,1.210000000000000000e+02,8.800000000000000000e+01,5.699999999999999512e-01,1.720655700000000000e+09
5.000000000000000000e+01,7.200000000000000000e+01,2.260000000000000000e+02,2.790000000000000000e+02,5.800000000000000000e+01,8.100000000000000000e+01,8.500000000000000000e+01,5.000000000000000000e+01,5.699999999999999512e-01,1.739465300000000000e+09
4.400000000000000000e+01,5.900000000000000000e+01,2.150000000000000000e+02,2.650000000000000000e+02,4.200000000000000000e+01,8.300000000000000000e+01,7.700000000000000000e+01,4.600000000000000000e+01,5.699999999999999512e-01,1.758203600000000000e+09
4.500000000000000000e+01,6.600000000000000000e+01,2.180000000000000000e+02,2.910000000000000000e+02,3.700000000000000000e+01,8.100000000000000000e+01,5.000000000000000000e+01,4.500000000000000000e+01,5.799999999999999600e-01,1.776976100000000000e+09
4.300000000000000000e+01,6.000000000000000000e+01,2.290000000000000000e+02,2.470000000000000000e+02,3.500000000000000000e+01,1.460000000000000000e+02,4.400000000000000000e+01,5.400000000000000000e+01,5.899999999999999689e-01,1.797158600000000000e+09
4.400000000000000000e+01,5.900000000000000000e+01,2.720000000000000000e+02,2.430000000000000000e+02,3.600000000000000000e+01,1.780000000000000000e+02,4.100000000000000000e+01,5.300000000000000000e+01,5.999999999999999778e-01,1.818238400000000000e+09
3.900000000000000000e+01,5.400000000000000000e+01,2.420000000000000000e+02,2.300000000000000000e+02,3.500000000000000000e+01,1.760000000000000000e+02,4.100000000000000000e+01,5.100000000000000000e+01,6.199999999999999956e-01,1.839163400000000000e+09
3.900000000000000000e+01,5.100000000000000000e+01,2.330000000000000000e+02,2.260000000000000000e+02,3.600000000000000000e+01,1.740000000000000000e+02,4.000000000000000000e+01,5.100000000000000000e+01,6.300000000000000044e-01,1.858826500000000000e+09
3.600000000000000000e+01,4.000000000000000000e+01,2.120000000000000000e+02,2.040000000000000000e+02,3.200000000000000000e+01,1.760000000000000000e+02,4.000000000000000000e+01,4.700000000000000000e+01,6.500000000000000222e-01,1.878645600000000000e+09
3.400000000000000000e+01,4.100000000000000000e+01,2.130000000000000000e+02,1.850000000000000000e+02,3.200000000000000000e+01,1.300000000000000000e+02,4.600000000000000000e+01,3.400000000000000000e+01,6.600000000000000311e-01,1.896889900000000000e+09
3.700000000000000000e+01,5.400000000000000000e+01,2.170000000000000000e+02,1.860000000000000000e+02,3.300000000000000000e+01,6.900000000000000000e+01,4.600000000000000000e+01,3.300000000000000000e+01,6.700000000000000400e-01,1.915839700000000000e+09
3.900000000000000000e+01,5.800000000000000000e+01,2.190000000000000000e+02,1.870000000000000000e+02,3.300000000000000000e+01,6.900000000000000000e+01,5.100000000000000000e+01,3.300000000000000000e+01,6.700000000000000400e-01,1.935753100000000000e+09
3.900000000000000000e+01,5.400000000000000000e+01,2.230000000000000000e+02,1.870000000000000000e+02,3.200000000000000000e+01,6.800000000000000000e+01,5.800000000000000000e+01,3.600000000000000000e+01,6.700000000000000400e-01,1.954139500000000000e+09
4.300000000000000000e+01,6.000000000000000000e+01,2.260000000000000000e+02,1.580000000000000000e+02,3.200000000000000000e+01,6.300000000000000000e+01,5.700000000000000000e+01,3.700000000000000000e+01,6.700000000000000400e-01,1.971980300000000000e+09
4.300000000000000000e+01,6.000000000000000000e+01,2.190000000000000000e+02,1.660000000000000000e+02,3.100000000000000000e+01,5.600000000000000000e+01,5.200000000000000000e+01,4.500000000000000000e+01,6.700000000000000400e-01,1.991469500000000000e+09
4.000000000000000000e+01,5.400000000000000000e+01,2.180000000000000000e+02,1.470000000000000000e+02,2.900000000000000000e+01,5.200000000000000000e+01,5.100000000000000000e+01,4.500000000000000000e+01,6.700000000000000400e-01,2.011047500000000000e+09
4.100000000000000000e+01,5.700000000000000000e+01,2.060000000000000000e+02,1.380000000000000000e+02,2.700000000000000000e+01,4.900000000000000000e+01,4.600000000000000000e+01,4.400000000000000000e+01,6.700000000000000400e-01,2.028703600000000000e+09
4.200000000000000000e+01,7.800000000000000000e+01,2.110000000000000000e+02,1.620000000000000000e+02,3.000000000000000000e+01,4.400000000000000000e+01,3.900000000000000000e+01,4.000000000000000000e+01,6.600000000000000311e-01,2.046957700000000000e+09
4.200000000000000000e+01,9.500000000000000000e+01,2.200000000000000000e+02,2.170000000000000000e+02,3.000000000000000000e+01,5.300000000000000000e+01,3.700000000000000000e+01,4.300000000000000000e+01,6.700000000000000400e-01,2.065487100000000000e+09
4.400000000000000000e+01,9.700000000000000000e+01,2.450000000000000000e+02,2.470000000000000000e+02,3.000000000000000000e+01,5.300000000000000000e+01,4.000000000000000000e+01,3.700000000000000000e+01,6.700000000000000400e-01,2.083436200000000000e+09
4.900000000000000000e+01,9.500000000000000000e+01,2.120000000000000000e+02,2.480000000000000000e+02,3.200000000000000000e+01,5.500000000000000000e+01,4.200000000000000000e+01,3.800000000000000000e+01,6.700000000000000400e-01,2.101969200000000000e+09
5.100000000000000000e+01,9.400000000000000000e+01,2.290000000000000000e+02,2.530000000000000000e+02,3.300000000000000000e+01,5.100000000000000000e+01,4.300000000000000000e+01,3.900000000000000000e+01,6.700000000000000400e-01,2.120848000000000000e+09
4.900000000000000000e+01,8.400000000000000000e+01,2.680000000000000000e+02,2.470000000000000000e+02,3.100000000000000000e+01,5.400000000000000000e+01,4.200000000000000000e+01,5.400000000000000000e+01,6.700000000000000400e-01,2.138869100000000000e+09
4.600000000000000000e+01,6.400000000000000000e+01,2.560000000000000000e+02,2.160000000000000000e+02,3.200000000000000000e+01,4.200000000000000000e+01,4.500000000000000000e+01,5.700000000000000000e+01,6.700000000000000400e-01,2.157413400000000000e+09
4.700000000000000000e+01,6.100000000000000000e+01,2.340000000000000000e+02,1.710000000000000000e+02,3.400000000000000000e+01,4.000000000000000000e+01,4.400000000000000000e+01,5.900000000000000000e+01,6.700000000000000400e-01,2.174689800000000000e+09
4.000000000000000000e+01,5.900000000000000000e+01,2.190000000000000000e+02,1.710000000000000000e+02,3.200000000000000000e+01,4.700000000000000000e+01,4.700000000000000000e+01,5.700000000000000000e+01,6.700000000000000400e-01,2.192316400000000000e+09
3.400000000000000000e+01,5.400000000000000000e+01,2.150000000000000000e+02,1.770000000000000000e+02,3.200000000000000000e+01,5.200000000000000000e+01,5.000000000000000000e+01,7.200000000000000000e+01,6.700000000000000400e-01,2.209544200000000000e+09
3.600000000000000000e+01,4.300000000000000000e+01,1.610000000000000000e+02,1.600000000000000000e+02,3.600000000000000000e+01,4.800000000000000000e+01,5.100000000000000000e+01,6.300000000000000000e+01,6.700000000000000400e-01,2.226087700000000000e+09
3.600000000000000000e+01,4.100000000000000000e+01,1.730000000000000000e+02,1.500000000000000000e+02,3.700000000000000000e+01,5.400000000000000000e+01,5.900000000000000000e+01,7.800000000000000000e+01,6.700000000000000400e-01,2.243268100000000000e+09
3.600000000000000000e+01,4.100000000000000000e+01,1.800000000000000000e+02,1.460000000000000000e+02,3.400000000000000000e+01,5.900000000000000000e+01,8.400000000000000000e+01,9.300000000000000000e+01,6.700000000000000400e-01,2.261096100000000000e+09
3.900000000000000000e+01,4.000000000000000000e+01,1.910000000000000000e+02,1.330000000000000000e+02,3.400000000000000000e+01,5.100000000000000000e+01,8.200000000000000000e+01,9.600000000000000000e+01,6.700000000000000400e-01,2.278785800000000000e+09
3.800000000000000000e+01,4.000000000000000000e+01,1.710000000000000000e+02,1.230000000000000000e+02,3.500000000000000000e+01,5.000000000000000000e+01,8.300000000000000000e+01,9.000000000000000000e+01,6.600000000000000311e-01,2.296458300000000000e+09
4.500000000000000000e+01,4.900000000000000000e+01,1.710000000000000000e+02,1.640000000000000000e+02,3.400000000000000000e+01,5.000000000000000000e+01,8.800000000000000000e+01,9.600000000000000000e+01,6.500000000000000222e-01,2.314349700000000000e+09
4.500000000000000000e+01,4.800000000000000000e+01,1.560000000000000000e+02,1.520000000000000000e+02,2.900000000000000000e+01,4.600000000000000000e+01,8.700000000000000000e+01,9.400000000000000000e+01,6.500000000000000222e-01,2.331295500000000000e+09
4.500000000000000000e+01,4.700000000000000000e+01,1.360000000000000000e+02,1.510000000000000000e+02,3.000000000000000000e+01,4.100000000000000000e+01,7.300000000000000000e+01,8.500000000000000000e+01,6.400000000000000133e-01,2.348595700000000000e+09
4.200000000000000000e+01,4.700000000000000000e+01,1.140000000000000000e+02,1.560000000000000000e+02,3.300000000000000000e+01,4.000000000000000000e+01,7.400000000000000000e+01,8.500000000000000000e+01,6.400000000000000133e-01,2.365690900000000000e+09
4.400000000000000000e+01,4.900000000000000000e+01,1.350000000000000000e+02,1.840000000000000000e+02,3.100000000000000000e+01,3.900000000000000000e+01,7.200000000000000000e+01,8.700000000000000000e+01,6.400000000000000133e-01,2.382679100000000000e+09
5.000000000000000000e+01,4.300000000000000000e+01,1.520000000000000000e+02,1.890000000000000000e+02,2.900000000000000000e+01,4.500000000000000000e+01,8.800000000000000000e+01,8.300000000000000000e+01,6.400000000000000133e-01,2.399647200000000000e+09
4.800000000000000000e+01,4.100000000000000000e+01,1.510000000000000000e+02,2.000000000000000000e+02,3.100000000000000000e+01,4.900000000000000000e+01,9.000000000000000000e+01,7.600000000000000000e+01,6.400000000000000133e-01,2.416797500000000000e+09
4.700000000000000000e+01,4.800000000000000000e+01,1.640000000000000000e+02,1.940000000000000000e+02,3.700000000000000000e+01,5.000000000000000000e+01,8.300000000000000000e+01,6.800000000000000000e+01,6.400000000000000133e-01,2.433626900000000000e+09
4.900000000000000000e+01,4.900000000000000000e+01,1.800000000000000000e+02,1.890000000000000000e+02,3.500000000000000000e+01,5.300000000000000000e+01,1.090000000000000000e+02,8.600000000000000000e+01,6.400000000000000133e-01,2.450611000000000000e+09
4.700000000000000000e+01,5.200000000000000000e+01,1.990000000000000000e+02,1.650000000000000000e+02,3.700000000000000000e+01,5.700000000000000000e+01,1.090000000000000000e+02,8.000000000000000000e+01,6.400000000000000133e-01,2.467489400000000000e+09
3.700000000000000000e+01,5.100000000000000000e+01,1.930000000000000000e+02,1.300000000000000000e+02,3.600000000000000000e+01,5.500000000000000000e+01,9.300000000000000000e+01,8.900000000000000000e+01,6.400000000000000133e-01,2.484040500000000000e+09
4.100000000000000000e+01,5.100000000000000000e+01,2.020000000000000000e+02,1.530000000000000000e+02,3.900000000000000000e+01,5.300000000000000000e+01,8.900000000000000000e+01,8.900000000000000000e+01,6.400000000000000133e-01,2.500742400000000000e+09
4.200000000000000000e+01,4.800000000000000000e+01,2.070000000000000000e+02,1.570000000000000000e+02,3.200000000000000000e+01,5.300000000000000000e+01,8.600000000000000000e+01,9.000000000000000000e+01,6.400000000000000133e-01,2.519057000000000000e+09
3.900000000000000000e+01,4.600000000000000000e+01,2.010000000000000000e+02,1.610000000000000000e+02,3.300000000000000000e+01,5.400000000000000000e+01,5.100000000000000000e+01,7.600000000000000000e+01,6.400000000000000133e-01,2.536839400000000000e+09
4.400000000000000000e+01,4.100000000000000000e+01,1.890000000000000000e+02,1.500000000000000000e+02,3.200000000000000000e+01,5.200000000000000000e+01,4.600000000000000000e+01,7.700000000000000000e+01,6.400000000000000133e-01,2.555391900000000000e+09
4.100000000000000000e+01,4.200000000000000000e+01,1.810000000000000000e+02,1.610000000000000000e+02,3.200000000000000000e+01,5.600000000000000000e+01,4.500000000000000000e+01,6.700000000000000000e+01,6.400000000000000133e-01,2.573285000000000000e+09
3.500000000000000000e+01,4.500000000000000000e+01,1.660000000000000000e+02,1.260000000000000000e+02,3.000000000000000000e+01,5.700000000000000000e+01,4.200000000000000000e+01,6.000000000000000000e+01,6.400000000000000133e-01,2.593316400000000000e+09
3.500000000000000000e+01,5.400000000000000000e+01,1.550000000000000000e+02,1.280000000000000000e+02,3.200000000000000000e+01,6.200000000000000000e+01,4.500000000000000000e+01,6.000000000000000000e+01,6.400000000000000133e-01,2.610028200000000000e+09
4.100000000000000000e+01,5.800000000000000000e+01,1.700000000000000000e+02,1.430000000000000000e+02,3.000000000000000000e+01,7.000000000000000000e+01,4.000000000000000000e+01,5.300000000000000000e+01,6.300000000000000044e-01,2.626899200000000000e+09
3.600000000000000000e+01,5.700000000000000000e+01,1.460000000000000000e+02,1.460000000000000000e+02,2.800000000000000000e+01,6.800000000000000000e+01,4.000000000000000000e+01,5.100000000000000000e+01,6.300000000000000044e-01,2.643125100000000000e+09
3.700000000000000000e+01,6.100000000000000000e+01,1.650000000000000000e+02,1.230000000000000000e+02,2.900000000000000000e+01,6.600000000000000000e+01,4.300000000000000000e+01,4.800000000000000000e+01,6.300000000000000044e-01,2.660657100000000000e+09
4.000000000000000000e+01,5.900000000000000000e+01,1.700000000000000000e+02,1.270000000000000000e+02,2.800000000000000000e+01,6.400000000000000000e+01,4.400000000000000000e+01,5.000000000000000000e+01,6.300000000000000044e-01,2.678970300000000000e+09
4.100000000000000000e+01,4.900000000000000000e+01,1.740000000000000000e+02,1.230000000000000000e+02,3.000000000000000000e+01,5.600000000000000000e+01,4.300000000000000000e+01,6.900000000000000000e+01,6.300000000000000044e-01,2.695889200000000000e+09
3.500000000000000000e+01,5.100000000000000000e+01,1.680000000000000000e+02,1.900000000000000000e+02,3.400000000000000000e+01,4.200000000000000000e+01,4.300000000000000000e+01,7.200000000000000000e+01,6.300000000000000044e-01,2.713105000000000000e+09
3.800000000000000000e+01,5.100000000000000000e+01,1.970000000000000000e+02,2.060000000000000000e+02,3.500000000000000000e+01,4.200000000000000000e+01,4.700000000000000000e+01,7.100000000000000000e+01,6.300000000000000044e-01,2.732927600000000000e+09
3.800000000000000000e+01,4.600000000000000000e+01,1.790000000000000000e+02,2.100000000000000000e+02,3.600000000000000000e+01,3.700000000000000000e+01,4.400000000000000000e+01,7.000000000000000000e+01,6.300000000000000044e-01,2.750196100000000000e+09
3.900000000000000000e+01,4.400000000000000000e+01,1.790000000000000000e+02,2.070000000000000000e+02,3.400000000000000000e+01,3.900000000000000000e+01,4.100000000000000000e+01,6.600000000000000000e+01,6.300000000000000044e-01,2.768068600000000000e+09
3.800000000000000000e+01,4.700000000000000000e+01,1.830000000000000000e+02,2.210000000000000000e+02,3.200000000000000000e+01,4.100000000000000000e+01,4.100000000000000000e+01,4.600000000000000000e+01,6.300000000000000044e-01,2.785266800000000000e+09
3.600000000000000000e+01,4.200000000000000000e+01,1.680000000000000000e+02,1.570000000000000000e+02,3.200000000000000000e+01,4.200000000000000000e+01,4.100000000000000000e+01,4.000000000000000000e+01,6.300000000000000044e-01,2.802136200000000000e+09
3.700000000000000000e+01,4.800000000000000000e+01,1.470000000000000000e+02,1.430000000000000000e+02,3.100000000000000000e+01,4.500000000000000000e+01,3.800000000000000000e+01,3.800000000000000000e+01,6.300000000000000044e-01,2.818784400000000000e+09
4.000000000000000000e+01,4.900000000000000000e+01,1.670000000000000000e+02,1.380000000000000000e+02,3.000000000000000000e+01,4.400000000000000000e+01,3.400000000000000000e+01,3.500000000000000000e+01,6.300000000000000044e-01,2.835304000000000000e+09
3.800000000000000000e+01,5.400000000000000000e+01,1.580000000000000000e+02,1.440000000000000000e+02,3.200000000000000000e+01,4.300000000000000000e+01,3.700000000000000000e+01,3.300000000000000000e+01,6.300000000000000044e-01,2.851930500000000000e+09
4.000000000000000000e+01,4.900000000000000000e+01,1.390000000000000000e+02,1.250000000000000000e+02,3.400000000000000000e+01,4.400000000000000000e+01,4.200000000000000000e+01,3.400000000000000000e+01,6.300000000000000044e-01,2.870185100000000000e+09
4.300000000000000000e+01,5.000000000000000000e+01,2.180000000000000000e+02,1.490000000000000000e+02,3.000000000000000000e+01,4.700000000000000000e+01,4.700000000000000000e+01,3.700000000000000000e+01,6.300000000000000044e-01,2.886974000000000000e+09
4.100000000000000000e+01,4.900000000000000000e+01,2.260000000000000000e+02,1.640000000000000000e+02,3.000000000000000000e+01,4.700000000000000000e+01,5.300000000000000000e+01,3.700000000000000000e+01,6.400000000000000133e-01,2.903509900000000000e+09
3.700000000000000000e+01,5.000000000000000000e+01,2.120000000000000000e+02,1.830000000000000000e+02,3.000000000000000000e+01,5.200000000000000000e+01,5.400000000000000000e+01,3.700000000000000000e+01,6.400000000000000133e-01,2.921491000000000000e+09
3.700000000000000000e+01,4.800000000000000000e+01,2.160000000000000000e+02,1.760000000000000000e+02,3.400000000000000000e+01,5.600000000000000000e+01,5.400000000000000000e+01,3.700000000000000000e+01,6.400000000000000133e-01,2.941349700000000000e+09
3.700000000000000000e+01,5.500000000000000000e+01,2.240000000000000000e+02,1.780000000000000000e+02,3.500000000000000000e+01,5.800000000000000000e+01,5.100000000000000000e+01,3.700000000000000000e+01,6.400000000000000133e-01,2.958822600000000000e+09
4.200000000000000000e+01,5.500000000000000000e+01,2.060000000000000000e+02,1.530000000000000000e+02,3.600000000000000000e+01,6.900000000000000000e+01,5.300000000000000000e+01,4.600000000000000000e+01,6.400000000000000133e-01,2.976018200000000000e+09
4.200000000000000000e+01,5.000000000000000000e+01,1.900000000000000000e+02,1.650000000000000000e+02,3.500000000000000000e+01,6.600000000000000000e+01,4.700000000000000000e+01,4.500000000000000000e+01,6.400000000000000133e-01,2.993079400000000000e+09
4.300000000000000000e+01,4.600000000000000000e+01,1.930000000000000000e+02,1.500000000000000000e+02,3.400000000000000000e+01,6.400000000000000000e+01,5.100000000000000000e+01,4.700000000000000000e+01,6.400000000000000133e-01,3.009862500000000000e+09
4.500000000000000000e+01,4.900000000000000000e+01,1.910000000000000000e+02,1.640000000000000000e+02,3.200000000000000000e+01,6.200000000000000000e+01,4.900000000000000000e+01,5.000000000000000000e+01,6.400000000000000133e-01,3.027318700000000000e+09
4.300000000000000000e+01,4.300000000000000000e+01,1.790000000000000000e+02,1.630000000000000000e+02,3.000000000000000000e+01,5.600000000000000000e+01,4.800000000000000000e+01,5.400000000000000000e+01,6.400000000000000133e-01,3.044036400000000000e+09
3.600000000000000000e+01,4.000000000000000000e+01,1.110000000000000000e+02,1.740000000000000000e+02,3.200000000000000000e+01,3.900000000000000000e+01,4.100000000000000000e+01,4.600000000000000000e+01,6.400000000000000133e-01,3.060768900000000000e+09
3.900000000000000000e+01,4.300000000000000000e+01,1.120000000000000000e+02,1.400000000000000000e+02,3.500000000000000000e+01,4.000000000000000000e+01,3.900000000000000000e+01,4.900000000000000000e+01,6.400000000000000133e-01,3.078341300000000000e+09
3.800000000000000000e+01,5.300000000000000000e+01,1.060000000000000000e+02,1.280000000000000000e+02,3.500000000000000000e+01,4.200000000000000000e+01,3.500000000000000000e+01,4.700000000000000000e+01,6.400000000000000133e-01,3.096394000000000000e+09
3.400000000000000000e+01,5.000000000000000000e+01,1.670000000000000000e+02,1.210000000000000000e+02,3.400000000000000000e+01,4.000000000000000000e+01,3.700000000000000000e+01,4.500000000000000000e+01,6.400000000000000133e-01,3.113794500000000000e+09
3.700000000000000000e+01,5.200000000000000000e+01,2.030000000000000000e+02,1.070000000000000000e+02,3.300000000000000000e+01,4.300000000000000000e+01,3.700000000000000000e+01,3.500000000000000000e+01,6.300000000000000044e-01,3.130947000000000000e+09
3.800000000000000000e+01,5.200000000000000000e+01,2.060000000000000000e+02,1.090000000000000000e+02,3.100000000000000000e+01,4.900000000000000000e+01,4.100000000000000000e+01,3.500000000000000000e+01,6.300000000000000044e-01,3.148167200000000000e+09
3.600000000000000000e+01,5.400000000000000000e+01,2.220000000000000000e+02,1.100000000000000000e+02,2.900000000000000000e+01,4.900000000000000000e+01,4.400000000000000000e+01,3.300000000000000000e+01,6.300000000000000044e-01,3.164551300000000000e+09
3.700000000000000000e+01,5.300000000000000000e+01,2.420000000000000000e+02,1.550000000000000000e+02,2.900000000000000000e+01,4.700000000000000000e+01,4.600000000000000000e+01,3.400000000000000000e+01,6.300000000000000044e-01,3.181024900000000000e+09
3.800000000000000000e+01,5.100000000000000000e+01,2.030000000000000000e+02,1.600000000000000000e+02,3.200000000000000000e+01,4.700000000000000000e+01,4.600000000000000000e+01,3.200000000000000000e+01,6.300000000000000044e-01,3.198071000000000000e+09
3.900000000000000000e+01,5.500000000000000000e+01,1.850000000000000000e+02,1.640000000000000000e+02,3.400000000000000000e+01,4.900000000000000000e+01,4.500000000000000000e+01,3.400000000000000000e+01,6.300000000000000044e-01,3.216398500000000000e+09
3.800000000000000000e+01,6.900000000000000000e+01,1.770000000000000000e+02,1.570000000000000000e+02,3.600000000000000000e+01,4.200000000000000000e+01,4.300000000000000000e+01,3.200000000000000000e+01,6.300000000000000044e-01,3.234134200000000000e+09
4.100000000000000000e+01,6.500000000000000000e+01,1.690000000000000000e+02,1.840000000000000000e+02,3.600000000000000000e+01,4.600000000000000000e+01,4.000000000000000000e+01,3.000000000000000000e+01,6.300000000000000044e-01,3.251457500000000000e+09
4.600000000000000000e+01,6.100000000000000000e+01,1.320000000000000000e+02,1.640000000000000000e+02,3.500000000000000000e+01,4.700000000000000000e+01,3.700000000000000000e+01,3.500000000000000000e+01,6.300000000000000044e-01,3.270063600000000000e+09
4.800000000000000000e+01,6.100000000000000000e+01,1.350000000000000000e+02,1.630000000000000000e+02,3.300000000000000000e+01,4.800000000000000000e+01,3.700000000000000000e+01,3.400000000000000000e+01,6.300000000000000044e-01,3.288019100000000000e+09
4.500000000000000000e+01,5.500000000000000000e+01,1.220000000000000000e+02,1.610000000000000000e+02,3.400000000000000000e+01,4.300000000000000000e+01,3.800000000000000000e+01,3.000000000000000000e+01,6.300000000000000044e-01,3.306267200000000000e+09
4.500000000000000000e+01,4.100000000000000000e+01,1.490000000000000000e+02,1.600000000000000000e+02,3.500000000000000000e+01,4.700000000000000000e+01,3.800000000000000000e+01,3.200000000000000000e+01,6.300000000000000044e-01,3.324485400000000000e+09
4.400000000000000000e+01,4.100000000000000000e+01,1.610000000000000000e+02,1.280000000000000000e+02,3.500000000000000000e+01,4.400000000000000000e+01,4.400000000000000000e+01,3.300000000000000000e+01,6.300000000000000044e-01,3.343554300000000000e+09
3.700000000000000000e+01,3.900000000000000000e+01,1.720000000000000000e+02,1.100000000000000000e+02,3.500000000000000000e+01,4.500000000000000000e+01,4.600000000000000000e+01,2.900000000000000000e+01,6.300000000000000044e-01,3.362090000000000000e+09
3.600000000000000000e+01,4.400000000000000000e+01,1.730000000000000000e+02,9.500000000000000000e+01,3.500000000000000000e+01,4.300000000000000000e+01,4.600000000000000000e+01,3.200000000000000000e+01,6.300000000000000044e-01,3.379188800000000000e+09
3.500000000000000000e+01,5.400000000000000000e+01,1.920000000000000000e+02,1.340000000000000000e+02,3.300000000000000000e+01,4.500000000000000000e+01,4.400000000000000000e+01,3.500000000000000000e+01,6.300000000000000044e-01,3.396342900000000000e+09
3.300000000000000000e+01,5.200000000000000000e+01,1.790000000000000000e+02,1.310000000000000000e+02,3.300000000000000000e+01,4.300000000000000000e+01,4.000000000000000000e+01,3.500000000000000000e+01,6.300000000000000044e-01,3.413567500000000000e+09
3.400000000000000000e+01,5.200000000000000000e+01,1.520000000000000000e+02,1.320000000000000000e+02,3.600000000000000000e+01,4.500000000000000000e+01,3.700000000000000000e+01,3.700000000000000000e+01,6.300000000000000044e-01,3.432012600000000000e+09
3.600000000000000000e+01,5.600000000000000000e+01,1.670000000000000000e+02,1.420000000000000000e+02,3.700000000000000000e+01,4.500000000000000000e+01,3.700000000000000000e+01,3.800000000000000000e+01,6.300000000000000044e-01,3.449643400000000000e+09
3.900000000000000000e+01,6.000000000000000000e+01,1.640000000000000000e+02,1.410000000000000000e+02,3.700000000000000000e+01,4.500000000000000000e+01,3.600000000000000000e+01,3.700000000000000000e+01,6.199999999999999956e-01,3.466948300000000000e+09
3.800000000000000000e+01,5.600000000000000000e+01,1.300000000000000000e+02,1.400000000000000000e+02,3.600000000000000000e+01,4.400000000000000000e+01,3.800000000000000000e+01,3.500000000000000000e+01,6.199999999999999956e-01,3.484290900000000000e+09
3.900000000000000000e+01,5.800000000000000000e+01,1.240000000000000000e+02,1.720000000000000000e+02,3.300000000000000000e+01,4.200000000000000000e+01,4.300000000000000000e+01,3.500000000000000000e+01,6.199999999999999956e-01,3.501035900000000000e+09
4.000000000000000000e+01,6.200000000000000000e+01,1.290000000000000000e+02,2.010000000000000000e+02,2.900000000000000000e+01,4.200000000000000000e+01,4.200000000000000000e+01,3.300000000000000000e+01,6.199999999999999956e-01,3.517978300000000000e+09
3.900000000000000000e+01,7.200000000000000000e+01,9.600000000000000000e+01,2.050000000000000000e+02,2.800000000000000000e+01,4.300000000000000000e+01,4.200000000000000000e+01,3.000000000000000000e+01,6.300000000000000044e-01,3.534926000000000000e+09
3.800000000000000000e+01,6.800000000000000000e+01,1.350000000000000000e+02,2.190000000000000000e+02,2.600000000000000000e+01,4.500000000000000000e+01,4.500000000000000000e+01,3.000000000000000000e+01,6.300000000000000044e-01,3.552190400000000000e+09
3.700000000000000000e+01,6.500000000000000000e+01,1.420000000000000000e+02,2.110000000000000000e+02,2.800000000000000000e+01,5.100000000000000000e+01,4.700000000000000000e+01,3.000000000000000000e+01,6.300000000000000044e-01,3.570567600000000000e+09
4.500000000000000000e+01,9.100000000000000000e+01,2.440000000000000000e+02,2.030000000000000000e+02,3.100000000000000000e+01,5.200000000000000000e+01,4.600000000000000000e+01,3.700000000000000000e+01,6.400000000000000133e-01,3.587546400000000000e+09
5.500000000000000000e+01,1.220000000000000000e+02,3.030000000000000000e+02,2.530000000000000000e+02,3.300000000000000000e+01,6.800000000000000000e+01,4.500000000000000000e+01,4.000000000000000000e+01,6.400000000000000133e-01,3.605134700000000000e+09
6.800000000000000000e+01,1.420000000000000000e+02,4.170000000000000000e+02,3.990000000000000000e+02,4.000000000000000000e+01,5.230000000000000000e+02,4.400000000000000000e+01,4.900000000000000000e+01,6.600000000000000311e-01,3.622598900000000000e+09
7.400000000000000000e+01,1.630000000000000000e+02,5.080000000000000000e+02,5.540000000000000000e+02,4.000000000000000000e+01,7.500000000000000000e+02,4.000000000000000000e+01,5.200000000000000000e+01,6.800000000000000488e-01,3.641504300000000000e+09
1.020000000000000000e+02,2.530000000000000000e+02,7.690000000000000000e+02,6.460000000000000000e+02,4.600000000000000000e+01,8.400000000000000000e+02,4.000000000000000000e+01,6.400000000000000000e+01,6.899999999999999467e-01,3.659820300000000000e+09
1.160000000000000000e+02,2.750000000000000000e+02,7.950000000000000000e+02,6.760000000000000000e+02,4.700000000000000000e+01,8.640000000000000000e+02,3.800000000000000000e+01,6.700000000000000000e+01,6.999999999999999556e-01,3.676843200000000000e+09
1.190000000000000000e+02,2.690000000000000000e+02,8.480000000000000000e+02,8.180000000000000000e+02,5.000000000000000000e+01,8.720000000000000000e+02,4.400000000000000000e+01,7.000000000000000000e+01,7.099999999999999645e-01,3.693662400000000000e+09
1.520000000000000000e+02,3.480000000000000000e+02,9.410000000000000000e+02,9.810000000000000000e+02,6.100000000000000000e+01,7.050000000000000000e+02,5.700000000000000000e+01,8.500000000000000000e+01,7.199999999999999734e-01,3.711544100000000000e+09
1.640000000000000000e+02,3.660000000000000000e+02,9.360000000000000000e+02,9.980000000000000000e+02,6.300000000000000000e+01,4.610000000000000000e+02,6.100000000000000000e+01,9.600000000000000000e+01,7.199999999999999734e-01,3.729277600000000000e+09
1.570000000000000000e+02,3.590000000000000000e+02,8.450000000000000000e+02,9.780000000000000000e+02,6.400000000000000000e+01,2.740000000000000000e+02,6.500000000000000000e+01,9.700000000000000000e+01,7.199999999999999734e-01,3.746834800000000000e+09
1.850000000000000000e+02,4.620000000000000000e+02,9.160000000000000000e+02,1.015000000000000000e+03,8.400000000000000000e+01,1.990000000000000000e+02,8.800000000000000000e+01,1.140000000000000000e+02,7.099999999999999645e-01,3.764307100000000000e+09
2.010000000000000000e+02,4.860000000000000000e+02,9.820000000000000000e+02,9.460000000000000000e+02,2.630000000000000000e+02,1.790000000000000000e+02,9.500000000000000000e+01,1.250000000000000000e+02,6.899999999999999467e-01,3.782177800000000000e+09
1.770000000000000000e+02,4.420000000000000000e+02,8.810000000000000000e+02,8.220000000000000000e+02,3.300000000000000000e+02,1.630000000000000000e+02,9.000000000000000000e+01,1.140000000000000000e+02,6.700000000000000400e-01,3.800430700000000000e+09
2.190000000000000000e+02,4.810000000000000000e+02,8.850000000000000000e+02,7.970000000000000000e+02,3.330000000000000000e+02,1.640000000000000000e+02,9.400000000000000000e+01,1.300000000000000000e+02,6.400000000000000133e-01,3.817868500000000000e+09
2.190000000000000000e+02,4.530000000000000000e+02,8.180000000000000000e+02,8.250000000000000000e+02,3.340000000000000000e+02,1.480000000000000000e+02,9.500000000000000000e+01,1.300000000000000000e+02,6.099999999999999867e-01,3.835481700000000000e+09
1.910000000000000000e+02,3.360000000000000000e+02,8.040000000000000000e+02,8.050000000000000000e+02,3.310000000000000000e+02,1.360000000000000000e+02,7.300000000000000000e+01,1.150000000000000000e+02,5.699999999999999512e-01,3.853582700000000000e+09
2.020000000000000000e+02,3.670000000000000000e+02,7.450000000000000000e+02,8.290000000000000000e+02,2.210000000000000000e+02,1.260000000000000000e+02,8.400000000000000000e+01,1.230000000000000000e+02,5.400000000000000355e-01,3.871618600000000000e+09
2.070000000000000000e+02,3.780000000000000000e+02,7.620000000000000000e+02,8.130000000000000000e+02,9.100000000000000000e+01,1.310000000000000000e+02,8.300000000000000000e+01,1.240000000000000000e+02,5.200000000000000178e-01,3.889290600000000000e+09
1.580000000000000000e+02,3.090000000000000000e+02,7.440000000000000000e+02,7.560000000000000000e+02,8.000000000000000000e+01,1.210000000000000000e+02,7.700000000000000000e+01,1.070000000000000000e+02,5.000000000000000000e-01,3.907322900000000000e+09
1.810000000000000000e+02,4.200000000000000000e+02,8.300000000000000000e+02,7.640000000000000000e+02,7.200000000000000000e+01,1.410000000000000000e+02,7.600000000000000000e+01,1.150000000000000000e+02,4.699999999999999734e-01,3.925786900000000000e+09
1.880000000000000000e+02,4.210000000000000000e+02,7.610000000000000000e+02,7.710000000000000000e+02,7.000000000000000000e+01,1.460000000000000000e+02,7.700000000000000000e+01,1.180000000000000000e+02,4.600000000000000200e-01,3.943725800000000000e+09
1.620000000000000000e+02,3.790000000000000000e+02,7.680000000000000000e+02,7.290000000000000000e+02,5.800000000000000000e+01,1.370000000000000000e+02,6.000000000000000000e+01,1.010000000000000000e+02,4.500000000000000111e-01,3.961584900000000000e+09
1.770000000000000000e+02,3.980000000000000000e+02,8.410000000000000000e+02,6.600000000000000000e+02,6.500000000000000000e+01,1.450000000000000000e+02,6.100000000000000000e+01,1.150000000000000000e+02,4.400000000000000022e-01,3.979107300000000000e+09
1.740000000000000000e+02,4.000000000000000000e+02,8.320000000000000000e+02,6.800000000000000000e+02,6.400000000000000000e+01,1.400000000000000000e+02,6.200000000000000000e+01,1.080000000000000000e+02,4.400000000000000022e-01,3.996921600000000000e+09
1.510000000000000000e+02,2.910000000000000000e+02,7.360000000000000000e+02,6.360000000000000000e+02,6.200000000000000000e+01,1.210000000000000000e+02,6.100000000000000000e+01,9.600000000000000000e+01,4.500000000000000111e-01,4.014647400000000000e+09
1.440000000000000000e+02,2.900000000000000000e+02,8.030000000000000000e+02,6.490000000000000000e+02,5.800000000000000000e+01,1.130000000000000000e+02,6.200000000000000000e+01,8.900000000000000000e+01,4.600000000000000200e-01,4.032165300000000000e+09
1.520000000000000000e+02,3.240000000000000000e+02,7.610000000000000000e+02,6.670000000000000000e+02,6.100000000000000000e+01,1.130000000000000000e+02,5.600000000000000000e+01,9.100000000000000000e+01,4.699999999999999734e-01,4.051237800000000000e+09
1.590000000000000000e+02,3.310000000000000000e+02,7.770000000000000000e+02,7.740000000000000000e+02,5.700000000000000000e+01,1.060000000000000000e+02,5.900000000000000000e+01,8.800000000000000000e+01,4.799999999999999822e-01,4.069028900000000000e+09
1.660000000000000000e+02,3.400000000000000000e+02,7.980000000000000000e+02,7.670000000000000000e+02,5.900000000000000000e+01,1.050000000000000000e+02,5.800000000000000000e+01,9.600000000000000000e+01,4.899999999999999911e-01,4.086725600000000000e+09
1.600000000000000000e+02,3.310000000000000000e+02,8.450000000000000000e+02,7.930000000000000000e+02,5.800000000000000000e+01,9.800000000000000000e+01,5.900000000000000000e+01,9.300000000000000000e+01,4.899999999999999911e-01,4.104544600000000000e+09
1.600000000000000000e+02,3.390000000000000000e+02,8.080000000000000000e+02,7.570000000000000000e+02,5.900000000000000000e+01,9.500000000000000000e+01,6.200000000000000000e+01,9.600000000000000000e+01,4.899999999999999911e-01,4.122653700000000000e+09
1.540000000000000000e+02,3.230000000000000000e+02,7.860000000000000000e+02,7.750000000000000000e+02,6.000000000000000000e+01,9.800000000000000000e+01,7.300000000000000000e+01,9.900000000000000000e+01,4.899999999999999911e-01,4.141205500000000000e+09
1.200000000000000000e+02,2.720000000000000000e+02,6.680000000000000000e+02,6.770000000000000000e+02,5.200000000000000000e+01,9.200000000000000000e+01,6.800000000000000000e+01,8.500000000000000000e+01,5.000000000000000000e-01,4.161634700000000000e+09
1.070000000000000000e+02,2.490000000000000000e+02,6.450000000000000000e+02,7.160000000000000000e+02,5.000000000000000000e+01,9.300000000000000000e+01,6.800000000000000000e+01,7.500000000000000000e+01,5.100000000000000089e-01,4.179320900000000000e+09
1.820000000000000000e+02,3.100000000000000000e+02,6.630000000000000000e+02,7.870000000000000000e+02,6.100000000000000000e+01,1.250000000000000000e+02,6.900000000000000000e+01,1.030000000000000000e+02,5.200000000000000178e-01,4.198438800000000000e+09
1.800000000000000000e+02,2.970000000000000000e+02,6.160000000000000000e+02,8.210000000000000000e+02,6.100000000000000000e+01,1.260000000000000000e+02,6.700000000000000000e+01,1.000000000000000000e+02,5.400000000000000355e-01,4.217207000000000000e+09
1.890000000000000000e+02,2.970000000000000000e+02,6.090000000000000000e+02,8.020000000000000000e+02,6.200000000000000000e+01,1.260000000000000000e+02,6.300000000000000000e+01,9.800000000000000000e+01,5.500000000000000444e-01,4.236185600000000000e+09
1.890000000000000000e+02,3.060000000000000000e+02,6.550000000000000000e+02,8.570000000000000000e+02,6.700000000000000000e+01,1.230000000000000000e+02,6.400000000000000000e+01,9.800000000000000000e+01,5.500000000000000444e-01,4.254414800000000000e+09
1.900000000000000000e+02,3.140000000000000000e+02,6.710000000000000000e+02,8.400000000000000000e+02,6.700000000000000000e+01,1.250000000000000000e+02,6.400000000000000000e+01,1.010000000000000000e+02,5.600000000000000533e-01,4.272999300000000000e+09
1.220000000000000000e+02,2.610000000000000000e+02,6.350000000000000000e+02,7.230000000000000000e+02,5.800000000000000000e+01,9.000000000000000000e+01,6.100000000000000000e+01,7.500000000000000000e+01,5.699999999999999512e-01,4.290762300000000000e+09
1.200000000000000000e+02,2.610000000000000000e+02,6.650000000000000000e+02,6.760000000000000000e+02,5.700000000000000000e+01,8.500000000000000000e+01,6.300000000000000000e+01,7.600000000000000000e+01,5.799999999999999600e-01,4.308931700000000000e+09
8.700000000000000000e+01,2.140000000000000000e+02,6.410000000000000000e+02,6.440000000000000000e+02,4.800000000000000000e+01,6.500000000000000000e+01,5.700000000000000000e+01,6.300000000000000000e+01,5.999999999999999778e-01,4.328510100000000000e+09
9.300000000000000000e+01,2.190000000000000000e+02,6.600000000000000000e+02,5.920000000000000000e+02,4.600000000000000000e+01,7.900000000000000000e+01,6.100000000000000000e+01,6.400000000000000000e+01,6.099999999999999867e-01,4.346749600000000000e+09
8.100000000000000000e+01,2.040000000000000000e+02,7.110000000000000000e+02,5.980000000000000000e+02,4.500000000000000000e+01,7.200000000000000000e+01,6.000000000000000000e+01,5.600000000000000000e+01,6.199999999999999956e-01,4.365849900000000000e+09
7.900000000000000000e+01,1.980000000000000000e+02,6.650000000000000000e+02,6.420000000000000000e+02,4.300000000000000000e+01,7.800000000000000000e+01,5.900000000000000000e+01,5.400000000000000000e+01,6.300000000000000044e-01,4.385376200000000000e+09
8.400000000000000000e+01,1.860000000000000000e+02,6.310000000000000000e+02,6.150000000000000000e+02,4.700000000000000000e+01,8.000000000000000000e+01,5.500000000000000000e+01,5.200000000000000000e+01,6.400000000000000133e-01,4.403971500000000000e+09
1.070000000000000000e+02,2.160000000000000000e+02,7.030000000000000000e+02,6.680000000000000000e+02,5.000000000000000000e+01,8.100000000000000000e+01,5.500000000000000000e+01,6.500000000000000000e+01,6.500000000000000222e-01,4.424646100000000000e+09
1.060000000000000000e+02,1.970000000000000000e+02,6.420000000000000000e+02,6.420000000000000000e+02,4.500000000000000000e+01,7.600000000000000000e+01,5.000000000000000000e+01,6.300000000000000000e+01,6.600000000000000311e-01,4.446698400000000000e+09
1.220000000000000000e+02,2.060000000000000000e+02,5.480000000000000000e+02,6.400000000000000000e+02,4.300000000000000000e+01,8.700000000000000000e+01,5.500000000000000000e+01,7.500000000000000000e+01,6.700000000000000400e-01,4.465313400000000000e+09
2.050000000000000000e+02,2.680000000000000000e+02,6.850000000000000000e+02,7.290000000000000000e+02,6.700000000000000000e+01,1.480000000000000000e+02,9.500000000000000000e+01,1.180000000000000000e+02,6.700000000000000400e-01,4.483047600000000000e+09
2.050000000000000000e+02,2.780000000000000000e+02,6.620000000000000000e+02,7.610000000000000000e+02,6.600000000000000000e+01,1.470000000000000000e+02,9.500000000000000000e+01,1.190000000000000000e+02,6.800000000000000488e-01,4.502612600000000000e+09
1.990000000000000000e+02,2.620000000000000000e+02,6.970000000000000000e+02,6.990000000000000000e+02,6.600000000000000000e+01,1.480000000000000000e+02,9.400000000000000000e+01,1.160000000000000000e+02,6.899999999999999467e-01,4.524504400000000000e+09
1.960000000000000000e+02,2.500000000000000000e+02,6.880000000000000000e+02,6.950000000000000000e+02,6.500000000000000000e+01,1.420000000000000000e+02,9.400000000000000000e+01,1.140000000000000000e+02,6.899999999999999467e-01,4.546740300000000000e+09
1.880000000000000000e+02,2.390000000000000000e+02,7.230000000000000000e+02,6.330000000000000000e+02,6.500000000000000000e+01,1.380000000000000000e+02,9.000000000000000000e+01,1.060000000000000000e+02,6.999999999999999556e-01,4.564904700000000000e+09
1.000000000000000000e+02,1.900000000000000000e+02,7.580000000000000000e+02,4.880000000000000000e+02,4.100000000000000000e+01,6.700000000000000000e+01,5.600000000000000000e+01,6.100000000000000000e+01,6.999999999999999556e-01,4.583071600000000000e+09
9.400000000000000000e+01,1.780000000000000000e+02,7.720000000000000000e+02,4.400000000000000000e+02,3.900000000000000000e+01,6.700000000000000000e+01,5.300000000000000000e+01,6.800000000000000000e+01,6.999999999999999556e-01,4.602226000000000000e+09
8.400000000000000000e+01,1.640000000000000000e+02,6.770000000000000000e+02,4.100000000000000000e+02,3.200000000000000000e+01,6.200000000000000000e+01,5.300000000000000000e+01,6.400000000000000000e+01,6.999999999999999556e-01,4.624627300000000000e+09
7.800000000000000000e+01,1.500000000000000000e+02,6.540000000000000000e+02,3.500000000000000000e+02,3.300000000000000000e+01,5.900000000000000000e+01,6.700000000000000000e+01,1.080000000000000000e+02,6.999999999999999556e-01,4.646729800000000000e+09
7.600000000000000000e+01,1.530000000000000000e+02,6.300000000000000000e+02,3.280000000000000000e+02,3.600000000000000000e+01,5.600000000000000000e+01,7.900000000000000000e+01,1.370000000000000000e+02,6.999999999999999556e-01,4.666283300000000000e+09
6.200000000000000000e+01,8.800000000000000000e+01,3.830000000000000000e+02,2.370000000000000000e+02,3.300000000000000000e+01,4.500000000000000000e+01,8.200000000000000000e+01,1.410000000000000000e+02,6.999999999999999556e-01,4.684949900000000000e+09
6.400000000000000000e+01,7.900000000000000000e+01,3.670000000000000000e+02,2.010000000000000000e+02,3.200000000000000000e+01,4.300000000000000000e+01,8.600000000000000000e+01,1.420000000000000000e+02,6.999999999999999556e-01,4.706241700000000000e+09
6.300000000000000000e+01,7.500000000000000000e+01,3.350000000000000000e+02,1.590000000000000000e+02,3.100000000000000000e+01,4.700000000000000000e+01,1.050000000000000000e+02,1.480000000000000000e+02,6.999999999999999556e-01,4.725702200000000000e+09
8.900000000000000000e+01,7.600000000000000000e+01,3.210000000000000000e+02,1.360000000000000000e+02,3.000000000000000000e+01,4.800000000000000000e+01,1.540000000000000000e+02,1.390000000000000000e+02,6.899999999999999467e-01,4.747298500000000000e+09
8.800000000000000000e+01,6.400000000000000000e+01,2.330000000000000000e+02,1.470000000000000000e+02,2.800000000000000000e+01,5.000000000000000000e+01,1.580000000000000000e+02,1.160000000000000000e+02,6.899999999999999467e-01,4.765967200000000000e+09
8.700000000000000000e+01,7.300000000000000000e+01,2.640000000000000000e+02,2.050000000000000000e+02,3.000000000000000000e+01,5.800000000000000000e+01,1.830000000000000000e+02,1.350000000000000000e+02,6.800000000000000488e-01,4.785289300000000000e+09
8.800000000000000000e+01,7.400000000000000000e+01,2.110000000000000000e+02,2.050000000000000000e+02,2.900000000000000000e+01,3.980000000000000000e+02,1.950000000000000000e+02,1.780000000000000000e+02,6.899999999999999467e-01,4.803650000000000000e+09
9.000000000000000000e+01,7.600000000000000000e+01,2.050000000000000000e+02,2.070000000000000000e+02,3.200000000000000000e+01,4.620000000000000000e+02,1.900000000000000000e+02,2.210000000000000000e+02,6.899999999999999467e-01,4.822348800000000000e+09
7.600000000000000000e+01,7.500000000000000000e+01,2.000000000000000000e+02,2.040000000000000000e+02,3.800000000000000000e+01,4.660000000000000000e+02,1.550000000000000000e+02,2.130000000000000000e+02,6.899999999999999467e-01,4.842248400000000000e+09
1.040000000000000000e+02,7.200000000000000000e+01,2.010000000000000000e+02,1.920000000000000000e+02,3.600000000000000000e+01,4.720000000000000000e+02,1.630000000000000000e+02,2.230000000000000000e+02,6.899999999999999467e-01,4.863376800000000000e+09
1.170000000000000000e+02,6.900000000000000000e+01,2.030000000000000000e+02,1.160000000000000000e+02,3.400000000000000000e+01,4.770000000000000000e+02,1.400000000000000000e+02,2.150000000000000000e+02,6.800000000000000488e-01,4.882252400000000000e+09
1.160000000000000000e+02,6.600000000000000000e+01,2.420000000000000000e+02,1.180000000000000000e+02,4.000000000000000000e+01,2.720000000000000000e+02,1.230000000000000000e+02,1.780000000000000000e+02,6.800000000000000488e-01,4.903457800000000000e+09
1.450000000000000000e+02,7.100000000000000000e+01,3.240000000000000000e+02,1.670000000000000000e+02,4.200000000000000000e+01,2.000000000000000000e+02,1.260000000000000000e+02,1.210000000000000000e+02,6.700000000000000400e-01,4.925799900000000000e+09
1.410000000000000000e+02,7.100000000000000000e+01,4.080000000000000000e+02,1.960000000000000000e+02,3.800000000000000000e+01,4.400000000000000000e+02,1.470000000000000000e+02,1.570000000000000000e+02,6.800000000000000488e-01,4.945956300000000000e+09
1.220000000000000000e+02,7.100000000000000000e+01,4.300000000000000000e+02,1.900000000000000000e+02,4.000000000000000000e+01,4.660000000000000000e+02,1.440000000000000000e+02,1.440000000000000000e+02,6.899999999999999467e-01,4.964765500000000000e+09
1.090000000000000000e+02,6.300000000000000000e+01,4.570000000000000000e+02,1.890000000000000000e+02,4.100000000000000000e+01,4.970000000000000000e+02,1.540000000000000000e+02,1.490000000000000000e+02,6.999999999999999556e-01,4.983992200000000000e+09
1.160000000000000000e+02,6.500000000000000000e+01,5.380000000000000000e+02,1.810000000000000000e+02,3.700000000000000000e+01,5.220000000000000000e+02,2.340000000000000000e+02,1.710000000000000000e+02,6.999999999999999556e-01,5.002980800000000000e+09
8.100000000000000000e+01,5.900000000000000000e+01,6.280000000000000000e+02,1.340000000000000000e+02,3.200000000000000000e+01,5.140000000000000000e+02,2.420000000000000000e+02,1.670000000000000000e+02,7.099999999999999645e-01,5.024223100000000000e+09
7.400000000000000000e+01,5.300000000000000000e+01,6.580000000000000000e+02,9.000000000000000000e+01,3.300000000000000000e+01,3.960000000000000000e+02,2.340000000000000000e+02,1.300000000000000000e+02,6.999999999999999556e-01,5.046587300000000000e+09
7.400000000000000000e+01,5.600000000000000000e+01,6.490000000000000000e+02,8.400000000000000000e+01,3.200000000000000000e+01,3.800000000000000000e+02,2.300000000000000000e+02,1.310000000000000000e+02,6.999999999999999556e-01,5.065605100000000000e+09
7.000000000000000000e+01,5.600000000000000000e+01,6.230000000000000000e+02,7.200000000000000000e+01,3.100000000000000000e+01,3.380000000000000000e+02,2.200000000000000000e+02,1.110000000000000000e+02,6.899999999999999467e-01,5.084997500000000000e+09
5.300000000000000000e+01,5.200000000000000000e+01,5.340000000000000000e+02,6.500000000000000000e+01,3.100000000000000000e+01,2.960000000000000000e+02,1.340000000000000000e+02,6.900000000000000000e+01,6.800000000000000488e-01,5.103437100000000000e+09
4.100000000000000000e+01,4.500000000000000000e+01,3.660000000000000000e+02,8.900000000000000000e+01,3.500000000000000000e+01,2.750000000000000000e+02,1.140000000000000000e+02,6.600000000000000000e+01,6.800000000000000488e-01,5.124376400000000000e+09
4.700000000000000000e+01,4.600000000000000000e+01,1.820000000000000000e+02,8.300000000000000000e+01,3.300000000000000000e+01,1.600000000000000000e+02,9.900000000000000000e+01,7.900000000000000000e+01,6.800000000000000488e-01,5.146554900000000000e+09
9.000000000000000000e+01,4.200000000000000000e+01,1.870000000000000000e+02,1.040000000000000000e+02,3.200000000000000000e+01,1.100000000000000000e+02,9.800000000000000000e+01,7.900000000000000000e+01,6.800000000000000488e-01,5.166945300000000000e+09
9.100000000000000000e+01,4.200000000000000000e+01,1.730000000000000000e+02,1.060000000000000000e+02,3.400000000000000000e+01,8.700000000000000000e+01,9.500000000000000000e+01,7.800000000000000000e+01,6.700000000000000400e-01,5.188333000000000000e+09
9.100000000000000000e+01,4.200000000000000000e+01,1.670000000000000000e+02,1.080000000000000000e+02,3.400000000000000000e+01,8.700000000000000000e+01,9.700000000000000000e+01,7.800000000000000000e+01,6.600000000000000311e-01,5.207206900000000000e+09
9.000000000000000000e+01,4.600000000000000000e+01,1.550000000000000000e+02,8.200000000000000000e+01,3.200000000000000000e+01,8.400000000000000000e+01,9.400000000000000000e+01,7.900000000000000000e+01,6.400000000000000133e-01,5.225093900000000000e+09
8.700000000000000000e+01,4.400000000000000000e+01,1.530000000000000000e+02,8.200000000000000000e+01,3.300000000000000000e+01,8.300000000000000000e+01,8.500000000000000000e+01,6.500000000000000000e+01,6.300000000000000044e-01,5.246483200000000000e+09
3.900000000000000000e+01,4.400000000000000000e+01,1.200000000000000000e+02,5.400000000000000000e+01,3.500000000000000000e+01,6.000000000000000000e+01,8.000000000000000000e+01,6.000000000000000000e+01,6.099999999999999867e-01,5.265829700000000000e+09
4.400000000000000000e+01,4.400000000000000000e+01,2.010000000000000000e+02,5.200000000000000000e+01,3.200000000000000000e+01,5.800000000000000000e+01,8.000000000000000000e+01,6.500000000000000000e+01,5.999999999999999778e-01,5.284254900000000000e+09
4.500000000000000000e+01,4.500000000000000000e+01,2.150000000000000000e+02,5.000000000000000000e+01,3.200000000000000000e+01,5.900000000000000000e+01,6.800000000000000000e+01,6.300000000000000000e+01,5.999999999999999778e-01,5.302512200000000000e+09
4.500000000000000000e+01,4.200000000000000000e+01,2.410000000000000000e+02,5.100000000000000000e+01,3.000000000000000000e+01,5.600000000000000000e+01,6.500000000000000000e+01,5.800000000000000000e+01,5.899999999999999689e-01,5.324447600000000000e+09
4.600000000000000000e+01,4.200000000000000000e+01,2.400000000000000000e+02,5.200000000000000000e+01,2.900000000000000000e+01,5.400000000000000000e+01,6.200000000000000000e+01,5.400000000000000000e+01,5.799999999999999600e-01,5.346722000000000000e+09
4.800000000000000000e+01,4.100000000000000000e+01,2.310000000000000000e+02,4.800000000000000000e+01,3.000000000000000000e+01,5.200000000000000000e+01,4.900000000000000000e+01,4.300000000000000000e+01,5.799999999999999600e-01,5.366200600000000000e+09
4.100000000000000000e+01,4.000000000000000000e+01,1.590000000000000000e+02,4.500000000000000000e+01,2.900000000000000000e+01,4.900000000000000000e+01,4.000000000000000000e+01,3.000000000000000000e+01,5.699999999999999512e-01,5.384737400000000000e+09
4.200000000000000000e+01,4.400000000000000000e+01,1.390000000000000000e+02,4.000000000000000000e+01,3.000000000000000000e+01,4.700000000000000000e+01,4.400000000000000000e+01,3.300000000000000000e+01,5.600000000000000533e-01,5.403068300000000000e+09
3.900000000000000000e+01,4.500000000000000000e+01,8.800000000000000000e+01,3.700000000000000000e+01,2.800000000000000000e+01,4.800000000000000000e+01,4.100000000000000000e+01,3.200000000000000000e+01,5.500000000000000444e-01,5.424427400000000000e+09
3.700000000000000000e+01,4.700000000000000000e+01,9.100000000000000000e+01,4.100000000000000000e+01,2.700000000000000000e+01,4.600000000000000000e+01,4.200000000000000000e+01,2.900000000000000000e+01,5.400000000000000355e-01,5.446525300000000000e+09
3.600000000000000000e+01,4.700000000000000000e+01,8.900000000000000000e+01,4.400000000000000000e+01,2.500000000000000000e+01,4.500000000000000000e+01,3.700000000000000000e+01,3.000000000000000000e+01,5.400000000000000355e-01,5.465019300000000000e+09
3.400000000000000000e+01,4.700000000000000000e+01,8.000000000000000000e+01,4.300000000000000000e+01,2.500000000000000000e+01,4.400000000000000000e+01,3.800000000000000000e+01,3.600000000000000000e+01,5.300000000000000266e-01,5.483436300000000000e+09
3.200000000000000000e+01,4.000000000000000000e+01,7.400000000000000000e+01,4.500000000000000000e+01,2.500000000000000000e+01,4.600000000000000000e+01,3.400000000000000000e+01,3.200000000000000000e+01,5.300000000000000266e-01,5.502130800000000000e+09
3.400000000000000000e+01,4.100000000000000000e+01,7.600000000000000000e+01,4.800000000000000000e+01,2.600000000000000000e+01,4.500000000000000000e+01,3.400000000000000000e+01,3.300000000000000000e+01,5.200000000000000178e-01,5.524356800000000000e+09
3.600000000000000000e+01,3.700000000000000000e+01,6.500000000000000000e+01,4.000000000000000000e+01,2.800000000000000000e+01,4.900000000000000000e+01,3.500000000000000000e+01,3.200000000000000000e+01,5.200000000000000178e-01,5.546848600000000000e+09
3.300000000000000000e+01,3.600000000000000000e+01,7.600000000000000000e+01,4.100000000000000000e+01,3.000000000000000000e+01,4.700000000000000000e+01,3.700000000000000000e+01,3.400000000000000000e+01,5.200000000000000178e-01,5.565134600000000000e+09
3.100000000000000000e+01,3.400000000000000000e+01,8.700000000000000000e+01,5.100000000000000000e+01,3.100000000000000000e+01,4.700000000000000000e+01,3.800000000000000000e+01,3.000000000000000000e+01,5.100000000000000089e-01,5.583937400000000000e+09
2.900000000000000000e+01,3.900000000000000000e+01,1.020000000000000000e+02,4.900000000000000000e+01,3.200000000000000000e+01,4.200000000000000000e+01,3.600000000000000000e+01,3.100000000000000000e+01,5.100000000000000089e-01,5.603547600000000000e+09
3.100000000000000000e+01,5.400000000000000000e+01,2.130000000000000000e+02,1.550000000000000000e+02,3.300000000000000000e+01,4.300000000000000000e+01,3.500000000000000000e+01,3.100000000000000000e+01,5.100000000000000089e-01,5.626132300000000000e+09
3.500000000000000000e+01,6.400000000000000000e+01,2.380000000000000000e+02,2.030000000000000000e+02,3.600000000000000000e+01,4.500000000000000000e+01,3.400000000000000000e+01,3.600000000000000000e+01,5.200000000000000178e-01,5.644580000000000000e+09
4.500000000000000000e+01,8.000000000000000000e+01,3.020000000000000000e+02,2.470000000000000000e+02,3.600000000000000000e+01,4.900000000000000000e+01,3.200000000000000000e+01,3.600000000000000000e+01,5.300000000000000266e-01,5.664529500000000000e+09
5.200000000000000000e+01,9.800000000000000000e+01,3.530000000000000000e+02,2.630000000000000000e+02,3.600000000000000000e+01,5.000000000000000000e+01,4.000000000000000000e+01,3.600000000000000000e+01,5.400000000000000355e-01,5.683753500000000000e+09
6.800000000000000000e+01,1.120000000000000000e+02,3.990000000000000000e+02,2.950000000000000000e+02,3.900000000000000000e+01,5.600000000000000000e+01,4.200000000000000000e+01,4.300000000000000000e+01,5.500000000000000444e-01,5.703953600000000000e+09
8.300000000000000000e+01,1.510000000000000000e+02,4.310000000000000000e+02,2.870000000000000000e+02,4.500000000000000000e+01,5.800000000000000000e+01,4.100000000000000000e+01,4.600000000000000000e+01,5.600000000000000533e-01,5.725922100000000000e+09
9.600000000000000000e+01,1.780000000000000000e+02,4.830000000000000000e+02,3.440000000000000000e+02,4.400000000000000000e+01,5.500000000000000000e+01,4.500000000000000000e+01,4.700000000000000000e+01,5.799999999999999600e-01,5.744500300000000000e+09
1.000000000000000000e+02,1.880000000000000000e+02,5.350000000000000000e+02,3.840000000000000000e+02,4.700000000000000000e+01,5.300000000000000000e+01,4.600000000000000000e+01,5.600000000000000000e+01,5.899999999999999689e-01,5.763164600000000000e+09
9.900000000000000000e+01,1.880000000000000000e+02,5.470000000000000000e+02,4.190000000000000000e+02,4.800000000000000000e+01,5.400000000000000000e+01,3.700000000000000000e+01,5.800000000000000000e+01,6.099999999999999867e-01,5.782880000000000000e+09
1.000000000000000000e+02,1.980000000000000000e+02,6.220000000000000000e+02,4.410000000000000000e+02,4.600000000000000000e+01,5.000000000000000000e+01,3.700000000000000000e+01,5.500000000000000000e+01,6.199999999999999956e-01,5.804551200000000000e+09
8.900000000000000000e+01,1.730000000000000000e+02,6.350000000000000000e+02,4.760000000000000000e+02,4.100000000000000000e+01,4.700000000000000000e+01,4.500000000000000000e+01,5.500000000000000000e+01,6.400000000000000133e-01,5.822891900000000000e+09
1.270000000000000000e+02,2.200000000000000000e+02,7.330000000000000000e+02,6.010000000000000000e+02,4.600000000000000000e+01,4.900000000000000000e+01,4.500000000000000000e+01,7.700000000000000000e+01,6.500000000000000222e-01,5.842703400000000000e+09
1.240000000000000000e+02,2.140000000000000000e+02,7.890000000000000000e+02,6.440000000000000000e+02,4.500000000000000000e+01,4.800000000000000000e+01,4.300000000000000000e+01,7.000000000000000000e+01,6.600000000000000311e-01,5.866350500000000000e+09
5.470000000000000000e+02,2.580000000000000000e+02,9.580000000000000000e+02,9.230000000000000000e+02,2.000000000000000000e+02,5.040000000000000000e+02,5.370000000000000000e+02,4.050000000000000000e+02,6.600000000000000311e-01,5.886018600000000000e+09
6.290000000000000000e+02,2.840000000000000000e+02,1.104000000000000000e+03,9.770000000000000000e+02,2.150000000000000000e+02,5.490000000000000000e+02,5.980000000000000000e+02,4.970000000000000000e+02,6.600000000000000311e-01,5.906012500000000000e+09
6.460000000000000000e+02,3.150000000000000000e+02,1.194000000000000000e+03,1.024000000000000000e+03,2.230000000000000000e+02,5.670000000000000000e+02,6.170000000000000000e+02,5.030000000000000000e+02,6.500000000000000222e-01,5.926834400000000000e+09
6.420000000000000000e+02,2.740000000000000000e+02,1.156000000000000000e+03,9.610000000000000000e+02,2.240000000000000000e+02,5.710000000000000000e+02,6.240000000000000000e+02,5.050000000000000000e+02,6.500000000000000222e-01,5.944837800000000000e+09
6.490000000000000000e+02,2.770000000000000000e+02,1.133000000000000000e+03,1.061000000000000000e+03,2.270000000000000000e+02,5.750000000000000000e+02,6.270000000000000000e+02,5.100000000000000000e+02,6.400000000000000133e-01,5.963462400000000000e+09
3.780000000000000000e+02,2.460000000000000000e+02,1.007000000000000000e+03,8.700000000000000000e+02,1.230000000000000000e+02,2.860000000000000000e+02,3.340000000000000000e+02,3.220000000000000000e+02,6.400000000000000133e-01,5.983213400000000000e+09
2.200000000000000000e+02,2.070000000000000000e+02,9.040000000000000000e+02,8.230000000000000000e+02,9.700000000000000000e+01,1.900000000000000000e+02,2.090000000000000000e+02,1.540000000000000000e+02,6.400000000000000133e-01,6.004695100000000000e+09
1.680000000000000000e+02,1.610000000000000000e+02,8.220000000000000000e+02,7.750000000000000000e+02,8.000000000000000000e+01,1.280000000000000000e+02,1.440000000000000000e+02,1.410000000000000000e+02,6.400000000000000133e-01,6.026923900000000000e+09
1.640000000000000000e+02,1.800000000000000000e+02,8.930000000000000000e+02,8.490000000000000000e+02,7.700000000000000000e+01,1.060000000000000000e+02,1.100000000000000000e+02,1.220000000000000000e+02,6.400000000000000133e-01,6.044819300000000000e+09
1.510000000000000000e+02,2.410000000000000000e+02,9.630000000000000000e+02,7.330000000000000000e+02,6.700000000000000000e+01,9.200000000000000000e+01,9.400000000000000000e+01,1.120000000000000000e+02,6.400000000000000133e-01,6.063791700000000000e+09
1.500000000000000000e+02,2.440000000000000000e+02,1.020000000000000000e+03,7.700000000000000000e+02,5.900000000000000000e+01,7.900000000000000000e+01,7.400000000000000000e+01,1.110000000000000000e+02,6.300000000000000044e-01,6.083765000000000000e+09
2.050000000000000000e+02,3.500000000000000000e+02,9.580000000000000000e+02,8.940000000000000000e+02,7.100000000000000000e+01,8.800000000000000000e+01,7.300000000000000000e+01,1.330000000000000000e+02,6.199999999999999956e-01,6.104725200000000000e+09
2.170000000000000000e+02,3.810000000000000000e+02,9.050000000000000000e+02,9.040000000000000000e+02,7.400000000000000000e+01,9.300000000000000000e+01,7.100000000000000000e+01,1.320000000000000000e+02,6.099999999999999867e-01,6.127080700000000000e+09
2.170000000000000000e+02,4.300000000000000000e+02,8.720000000000000000e+02,9.170000000000000000e+02,7.900000000000000000e+01,9.600000000000000000e+01,7.200000000000000000e+01,1.370000000000000000e+02,6.099999999999999867e-01,6.145339100000000000e+09
2.170000000000000000e+02,4.070000000000000000e+02,8.330000000000000000e+02,9.860000000000000000e+02,8.000000000000000000e+01,9.500000000000000000e+01,7.100000000000000000e+01,1.330000000000000000e+02,5.999999999999999778e-01,6.163223800000000000e+09
2.140000000000000000e+02,4.200000000000000000e+02,8.310000000000000000e+02,9.770000000000000000e+02,7.900000000000000000e+01,9.600000000000000000e+01,7.100000000000000000e+01,1.260000000000000000e+02,5.999999999999999778e-01,6.182724300000000000e+09
2.010000000000000000e+02,3.910000000000000000e+02,8.790000000000000000e+02,9.400000000000000000e+02,7.300000000000000000e+01,1.020000000000000000e+02,7.100000000000000000e+01,1.130000000000000000e+02,5.899999999999999689e-01,6.204837000000000000e+09
1.950000000000000000e+02,3.710000000000000000e+02,9.180000000000000000e+02,9.590000000000000000e+02,6.900000000000000000e+01,1.000000000000000000e+02,7.300000000000000000e+01,1.110000000000000000e+02,5.799999999999999600e-01,6.223118200000000000e+09
1.970000000000000000e+02,3.160000000000000000e+02,8.390000000000000000e+02,9.000000000000000000e+02,6.400000000000000000e+01,1.000000000000000000e+02,6.900000000000000000e+01,1.070000000000000000e+02,5.699999999999999512e-01,6.244202100000000000e+09
2.540000000000000000e+02,3.790000000000000000e+02,7.980000000000000000e+02,8.290000000000000000e+02,8.600000000000000000e+01,1.050000000000000000e+02,6.900000000000000000e+01,1.430000000000000000e+02,5.600000000000000533e-01,6.265071200000000000e+09
2.480000000000000000e+02,3.560000000000000000e+02,6.910000000000000000e+02,7.630000000000000000e+02,8.400000000000000000e+01,9.900000000000000000e+01,6.300000000000000000e+01,1.410000000000000000e+02,5.400000000000000355e-01,6.285570800000000000e+09
2.230000000000000000e+02,3.290000000000000000e+02,6.140000000000000000e+02,7.630000000000000000e+02,7.800000000000000000e+01,8.400000000000000000e+01,5.800000000000000000e+01,1.270000000000000000e+02,5.400000000000000355e-01,6.308927700000000000e+09
2.270000000000000000e+02,3.470000000000000000e+02,6.200000000000000000e+02,8.460000000000000000e+02,8.200000000000000000e+01,8.400000000000000000e+01,6.200000000000000000e+01,1.270000000000000000e+02,5.400000000000000355e-01,6.329895500000000000e+09
2.180000000000000000e+02,3.330000000000000000e+02,7.410000000000000000e+02,8.090000000000000000e+02,8.300000000000000000e+01,8.200000000000000000e+01,6.500000000000000000e+01,1.240000000000000000e+02,5.400000000000000355e-01,6.348406800000000000e+09
1.320000000000000000e+02,2.460000000000000000e+02,7.380000000000000000e+02,7.600000000000000000e+02,5.500000000000000000e+01,6.800000000000000000e+01,6.300000000000000000e+01,7.100000000000000000e+01,5.400000000000000355e-01,6.367088100000000000e+09
1.350000000000000000e+02,2.480000000000000000e+02,7.750000000000000000e+02,7.960000000000000000e+02,5.600000000000000000e+01,6.600000000000000000e+01,6.600000000000000000e+01,7.200000000000000000e+01,5.500000000000000444e-01,6.387909500000000000e+09
1.270000000000000000e+02,2.070000000000000000e+02,7.470000000000000000e+02,6.750000000000000000e+02,5.400000000000000000e+01,6.000000000000000000e+01,6.200000000000000000e+01,7.100000000000000000e+01,5.600000000000000533e-01,6.406637600000000000e+09
1.090000000000000000e+02,1.600000000000000000e+02,7.310000000000000000e+02,5.140000000000000000e+02,4.600000000000000000e+01,5.400000000000000000e+01,5.400000000000000000e+01,6.600000000000000000e+01,5.600000000000000533e-01,6.425036100000000000e+09
1.080000000000000000e+02,1.620000000000000000e+02,6.740000000000000000e+02,5.470000000000000000e+02,4.000000000000000000e+01,4.700000000000000000e+01,4.700000000000000000e+01,6.500000000000000000e+01,5.799999999999999600e-01,6.445960500000000000e+09
1.210000000000000000e+02,1.680000000000000000e+02,6.610000000000000000e+02,5.470000000000000000e+02,4.400000000000000000e+01,5.600000000000000000e+01,4.900000000000000000e+01,7.000000000000000000e+01,5.899999999999999689e-01,6.464302700000000000e+09
1.180000000000000000e+02,1.920000000000000000e+02,6.630000000000000000e+02,4.800000000000000000e+02,4.200000000000000000e+01,6.300000000000000000e+01,5.300000000000000000e+01,7.400000000000000000e+01,5.999999999999999778e-01,6.484661100000000000e+09
1.070000000000000000e+02,1.890000000000000000e+02,6.340000000000000000e+02,4.810000000000000000e+02,4.200000000000000000e+01,6.500000000000000000e+01,5.300000000000000000e+01,6.600000000000000000e+01,6.099999999999999867e-01,6.504481900000000000e+09
1.000000000000000000e+02,1.740000000000000000e+02,5.740000000000000000e+02,4.430000000000000000e+02,4.000000000000000000e+01,6.500000000000000000e+01,5.000000000000000000e+01,6.200000000000000000e+01,6.199999999999999956e-01,6.523689300000000000e+09
9.400000000000000000e+01,1.660000000000000000e+02,5.010000000000000000e+02,3.730000000000000000e+02,4.000000000000000000e+01,6.300000000000000000e+01,5.100000000000000000e+01,5.700000000000000000e+01,6.400000000000000133e-01,6.546161600000000000e+09
7.700000000000000000e+01,1.640000000000000000e+02,4.250000000000000000e+02,3.500000000000000000e+02,3.400000000000000000e+01,5.400000000000000000e+01,4.900000000000000000e+01,5.000000000000000000e+01,6.500000000000000222e-01,6.565126600000000000e+09
7.500000000000000000e+01,1.250000000000000000e+02,3.470000000000000000e+02,3.760000000000000000e+02,3.700000000000000000e+01,4.600000000000000000e+01,3.900000000000000000e+01,4.000000000000000000e+01,6.700000000000000400e-01,6.583666500000000000e+09
6.600000000000000000e+01,1.050000000000000000e+02,3.610000000000000000e+02,3.590000000000000000e+02,3.400000000000000000e+01,4.100000000000000000e+01,3.600000000000000000e+01,3.700000000000000000e+01,6.800000000000000488e-01,6.602312600000000000e+09
6.600000000000000000e+01,1.130000000000000000e+02,3.710000000000000000e+02,3.830000000000000000e+02,3.300000000000000000e+01,4.300000000000000000e+01,4.100000000000000000e+01,4.000000000000000000e+01,6.899999999999999467e-01,6.623662200000000000e+09
6.500000000000000000e+01,1.150000000000000000e+02,3.650000000000000000e+02,3.810000000000000000e+02,3.200000000000000000e+01,4.300000000000000000e+01,4.600000000000000000e+01,3.900000000000000000e+01,6.999999999999999556e-01,6.645819500000000000e+09
5.400000000000000000e+01,9.000000000000000000e+01,3.310000000000000000e+02,3.710000000000000000e+02,3.100000000000000000e+01,4.200000000000000000e+01,6.200000000000000000e+01,9.100000000000000000e+01,7.099999999999999645e-01,6.664513300000000000e+09
5.000000000000000000e+01,8.900000000000000000e+01,3.350000000000000000e+02,3.390000000000000000e+02,2.900000000000000000e+01,4.200000000000000000e+01,6.700000000000000000e+01,9.400000000000000000e+01,7.199999999999999734e-01,6.683414300000000000e+09
5.100000000000000000e+01,9.300000000000000000e+01,3.970000000000000000e+02,3.500000000000000000e+02,3.200000000000000000e+01,4.600000000000000000e+01,6.800000000000000000e+01,9.900000000000000000e+01,7.299999999999999822e-01,6.701685700000000000e+09
5.700000000000000000e+01,8.700000000000000000e+01,4.040000000000000000e+02,3.330000000000000000e+02,3.800000000000000000e+01,4.300000000000000000e+01,7.800000000000000000e+01,1.000000000000000000e+02,7.399999999999999911e-01,6.723604300000000000e+09
5.100000000000000000e+01,7.800000000000000000e+01,3.780000000000000000e+02,3.320000000000000000e+02,3.800000000000000000e+01,4.500000000000000000e+01,8.300000000000000000e+01,1.010000000000000000e+02,7.399999999999999911e-01,6.746029400000000000e+09
5.200000000000000000e+01,7.600000000000000000e+01,3.940000000000000000e+02,2.890000000000000000e+02,3.700000000000000000e+01,4.500000000000000000e+01,7.700000000000000000e+01,7.400000000000000000e+01,7.500000000000000000e-01,6.764165400000000000e+09
5.500000000000000000e+01,8.500000000000000000e+01,4.160000000000000000e+02,2.940000000000000000e+02,3.600000000000000000e+01,4.900000000000000000e+01,7.500000000000000000e+01,7.200000000000000000e+01,7.500000000000000000e-01,6.782764400000000000e+09
6.600000000000000000e+01,1.000000000000000000e+02,3.950000000000000000e+02,3.440000000000000000e+02,4.300000000000000000e+01,4.900000000000000000e+01,7.800000000000000000e+01,7.200000000000000000e+01,7.600000000000000089e-01,6.801419400000000000e+09
6.400000000000000000e+01,1.060000000000000000e+02,3.450000000000000000e+02,3.040000000000000000e+02,4.200000000000000000e+01,5.100000000000000000e+01,6.400000000000000000e+01,6.900000000000000000e+01,7.600000000000000089e-01,6.823883200000000000e+09
6.300000000000000000e+01,1.080000000000000000e+02,3.480000000000000000e+02,2.930000000000000000e+02,4.200000000000000000e+01,4.600000000000000000e+01,6.100000000000000000e+01,8.000000000000000000e+01,7.600000000000000089e-01,6.846729600000000000e+09
6.100000000000000000e+01,1.060000000000000000e+02,3.280000000000000000e+02,2.940000000000000000e+02,4.300000000000000000e+01,4.800000000000000000e+01,5.300000000000000000e+01,8.000000000000000000e+01,7.600000000000000089e-01,6.865104400000000000e+09
6.000000000000000000e+01,1.000000000000000000e+02,2.800000000000000000e+02,2.650000000000000000e+02,4.300000000000000000e+01,4.300000000000000000e+01,8.900000000000000000e+01,8.700000000000000000e+01,7.600000000000000089e-01,6.884844900000000000e+09
5.500000000000000000e+01,8.500000000000000000e+01,2.970000000000000000e+02,2.700000000000000000e+02,3.700000000000000000e+01,4.700000000000000000e+01,9.000000000000000000e+01,8.700000000000000000e+01,7.600000000000000089e-01,6.904961200000000000e+09
4.700000000000000000e+01,7.000000000000000000e+01,2.990000000000000000e+02,2.620000000000000000e+02,3.200000000000000000e+01,4.800000000000000000e+01,9.600000000000000000e+01,9.400000000000000000e+01,7.600000000000000089e-01,6.926024200000000000e+09
5.300000000000000000e+01,7.100000000000000000e+01,3.190000000000000000e+02,2.750000000000000000e+02,3.400000000000000000e+01,5.000000000000000000e+01,9.400000000000000000e+01,9.400000000000000000e+01,7.600000000000000089e-01,6.960731200000000000e+09
6.300000000000000000e+01,7.300000000000000000e+01,3.240000000000000000e+02,2.730000000000000000e+02,3.200000000000000000e+01,4.900000000000000000e+01,9.600000000000000000e+01,8.400000000000000000e+01,7.600000000000000089e-01,6.980015600000000000e+09
6.200000000000000000e+01,6.700000000000000000e+01,3.070000000000000000e+02,2.680000000000000000e+02,3.200000000000000000e+01,4.700000000000000000e+01,6.500000000000000000e+01,7.600000000000000000e+01,7.600000000000000089e-01,6.998316000000000000e+09
5.800000000000000000e+01,5.900000000000000000e+01,2.100000000000000000e+02,1.800000000000000000e+02,2.900000000000000000e+01,4.500000000000000000e+01,6.300000000000000000e+01,8.400000000000000000e+01,7.500000000000000000e-01,7.016552300000000000e+09
7.600000000000000000e+01,7.900000000000000000e+01,3.250000000000000000e+02,2.030000000000000000e+02,3.500000000000000000e+01,4.400000000000000000e+01,5.500000000000000000e+01,8.500000000000000000e+01,7.500000000000000000e-01,7.035429600000000000e+09
7.800000000000000000e+01,7.500000000000000000e+01,3.060000000000000000e+02,1.790000000000000000e+02,3.300000000000000000e+01,4.400000000000000000e+01,5.500000000000000000e+01,7.200000000000000000e+01,7.399999999999999911e-01,7.054333000000000000e+09
7.100000000000000000e+01,7.600000000000000000e+01,3.080000000000000000e+02,1.750000000000000000e+02,3.400000000000000000e+01,4.400000000000000000e+01,4.900000000000000000e+01,7.000000000000000000e+01,7.299999999999999822e-01,7.072275500000000000e+09
7.000000000000000000e+01,7.900000000000000000e+01,3.170000000000000000e+02,1.620000000000000000e+02,3.500000000000000000e+01,4.700000000000000000e+01,4.200000000000000000e+01,6.700000000000000000e+01,7.299999999999999822e-01,7.089614300000000000e+09
6.700000000000000000e+01,8.000000000000000000e+01,3.160000000000000000e+02,1.620000000000000000e+02,3.600000000000000000e+01,4.200000000000000000e+01,5.600000000000000000e+01,6.600000000000000000e+01,7.199999999999999734e-01,7.107793700000000000e+09
4.700000000000000000e+01,6.200000000000000000e+01,1.990000000000000000e+02,1.130000000000000000e+02,3.100000000000000000e+01,4.000000000000000000e+01,6.500000000000000000e+01,7.200000000000000000e+01,7.099999999999999645e-01,7.126376600000000000e+09
3.700000000000000000e+01,6.100000000000000000e+01,2.160000000000000000e+02,1.050000000000000000e+02,3.300000000000000000e+01,3.500000000000000000e+01,6.300000000000000000e+01,7.300000000000000000e+01,6.999999999999999556e-01,7.145508100000000000e+09
3.500000000000000000e+01,6.200000000000000000e+01,2.280000000000000000e+02,1.160000000000000000e+02,3.200000000000000000e+01,3.700000000000000000e+01,6.500000000000000000e+01,7.200000000000000000e+01,6.899999999999999467e-01,7.163362700000000000e+09
3.400000000000000000e+01,6.000000000000000000e+01,2.200000000000000000e+02,1.160000000000000000e+02,3.000000000000000000e+01,4.100000000000000000e+01,6.800000000000000000e+01,7.500000000000000000e+01,6.800000000000000488e-01,7.182609300000000000e+09
3.200000000000000000e+01,5.400000000000000000e+01,2.110000000000000000e+02,1.220000000000000000e+02,2.900000000000000000e+01,4.200000000000000000e+01,6.200000000000000000e+01,8.000000000000000000e+01,6.700000000000000400e-01,7.201702300000000000e+09
2.900000000000000000e+01,5.100000000000000000e+01,1.940000000000000000e+02,1.230000000000000000e+02,2.800000000000000000e+01,7.100000000000000000e+01,5.100000000000000000e+01,6.800000000000000000e+01,6.600000000000000311e-01,7.223565300000000000e+09
3.100000000000000000e+01,4.700000000000000000e+01,1.730000000000000000e+02,1.230000000000000000e+02,2.700000000000000000e+01,8.400000000000000000e+01,5.000000000000000000e+01,6.900000000000000000e+01,6.600000000000000311e-01,7.245667600000000000e+09
3.100000000000000000e+01,3.900000000000000000e+01,1.390000000000000000e+02,1.100000000000000000e+02,2.600000000000000000e+01,8.500000000000000000e+01,5.800000000000000000e+01,6.900000000000000000e+01,6.500000000000000222e-01,7.264797400000000000e+09
3.800000000000000000e+01,4.400000000000000000e+01,1.510000000000000000e+02,1.330000000000000000e+02,2.600000000000000000e+01,8.200000000000000000e+01,5.400000000000000000e+01,6.900000000000000000e+01,6.500000000000000222e-01,7.284459100000000000e+09
4.500000000000000000e+01,4.600000000000000000e+01,1.560000000000000000e+02,1.030000000000000000e+02,2.700000000000000000e+01,8.300000000000000000e+01,4.700000000000000000e+01,6.000000000000000000e+01,6.400000000000000133e-01,7.302981600000000000e+09
4.500000000000000000e+01,4.400000000000000000e+01,1.590000000000000000e+02,1.020000000000000000e+02,3.000000000000000000e+01,6.000000000000000000e+01,5.000000000000000000e+01,5.600000000000000000e+01,6.300000000000000044e-01,7.323421800000000000e+09
4.300000000000000000e+01,4.700000000000000000e+01,1.370000000000000000e+02,9.900000000000000000e+01,2.700000000000000000e+01,4.100000000000000000e+01,4.900000000000000000e+01,5.600000000000000000e+01,6.300000000000000044e-01,7.345565400000000000e+09
4.400000000000000000e+01,4.800000000000000000e+01,1.270000000000000000e+02,9.700000000000000000e+01,2.800000000000000000e+01,3.700000000000000000e+01,3.600000000000000000e+01,5.300000000000000000e+01,6.199999999999999956e-01,7.363060100000000000e+09
4.100000000000000000e+01,4.400000000000000000e+01,1.080000000000000000e+02,5.700000000000000000e+01,2.800000000000000000e+01,4.200000000000000000e+01,3.800000000000000000e+01,5.200000000000000000e+01,6.099999999999999867e-01,7.382957500000000000e+09
3.600000000000000000e+01,4.900000000000000000e+01,9.400000000000000000e+01,5.500000000000000000e+01,2.700000000000000000e+01,4.100000000000000000e+01,3.800000000000000000e+01,3.600000000000000000e+01,6.099999999999999867e-01,7.401761300000000000e+09
3.800000000000000000e+01,5.000000000000000000e+01,9.100000000000000000e+01,5.500000000000000000e+01,2.400000000000000000e+01,4.000000000000000000e+01,3.500000000000000000e+01,3.500000000000000000e+01,5.999999999999999778e-01,7.423225700000000000e+09
3.900000000000000000e+01,4.800000000000000000e+01,8.700000000000000000e+01,5.500000000000000000e+01,2.500000000000000000e+01,4.300000000000000000e+01,3.900000000000000000e+01,3.400000000000000000e+01,5.999999999999999778e-01,7.445830400000000000e+09
4.000000000000000000e+01,4.700000000000000000e+01,9.000000000000000000e+01,6.100000000000000000e+01,2.800000000000000000e+01,4.500000000000000000e+01,4.200000000000000000e+01,3.300000000000000000e+01,5.899999999999999689e-01,7.463686100000000000e+09
3.800000000000000000e+01,4.500000000000000000e+01,7.800000000000000000e+01,6.500000000000000000e+01,2.800000000000000000e+01,4.400000000000000000e+01,3.800000000000000000e+01,3.100000000000000000e+01,5.799999999999999600e-01,7.482996700000000000e+09
3.700000000000000000e+01,4.100000000000000000e+01,7.600000000000000000e+01,6.200000000000000000e+01,3.000000000000000000e+01,4.100000000000000000e+01,4.500000000000000000e+01,2.900000000000000000e+01,5.699999999999999512e-01,7.504390500000000000e+09
3.800000000000000000e+01,4.200000000000000000e+01,7.200000000000000000e+01,6.200000000000000000e+01,3.100000000000000000e+01,4.200000000000000000e+01,4.600000000000000000e+01,2.900000000000000000e+01,5.699999999999999512e-01,7.524689400000000000e+09
3.600000000000000000e+01,4.200000000000000000e+01,9.900000000000000000e+01,6.200000000000000000e+01,3.200000000000000000e+01,3.900000000000000000e+01,4.200000000000000000e+01,2.700000000000000000e+01,5.600000000000000533e-01,7.546732300000000000e+09
3.400000000000000000e+01,4.700000000000000000e+01,1.040000000000000000e+02,6.000000000000000000e+01,3.100000000000000000e+01,4.000000000000000000e+01,4.200000000000000000e+01,2.600000000000000000e+01,5.500000000000000444e-01,7.564428000000000000e+09
3.100000000000000000e+01,5.200000000000000000e+01,1.050000000000000000e+02,8.000000000000000000e+01,3.400000000000000000e+01,3.600000000000000000e+01,4.400000000000000000e+01,2.600000000000000000e+01,5.500000000000000444e-01,7.583102000000000000e+09
3.700000000000000000e+01,7.300000000000000000e+01,2.720000000000000000e+02,9.200000000000000000e+01,3.100000000000000000e+01,4.000000000000000000e+01,3.300000000000000000e+01,3.000000000000000000e+01,5.500000000000000444e-01,7.608230100000000000e+09
3.200000000000000000e+01,7.700000000000000000e+01,2.830000000000000000e+02,9.600000000000000000e+01,3.000000000000000000e+01,4.100000000000000000e+01,3.100000000000000000e+01,3.000000000000000000e+01,5.500000000000000444e-01,7.627045200000000000e+09
3.500000000000000000e+01,9.100000000000000000e+01,2.870000000000000000e+02,1.040000000000000000e+02,2.900000000000000000e+01,4.100000000000000000e+01,3.500000000000000000e+01,3.200000000000000000e+01,5.500000000000000444e-01,7.645084000000000000e+09
4.000000000000000000e+01,1.140000000000000000e+02,3.260000000000000000e+02,1.120000000000000000e+02,3.000000000000000000e+01,3.700000000000000000e+01,3.600000000000000000e+01,3.400000000000000000e+01,5.500000000000000444e-01,7.666649300000000000e+09
5.000000000000000000e+01,1.750000000000000000e+02,3.790000000000000000e+02,1.300000000000000000e+02,3.300000000000000000e+01,4.000000000000000000e+01,4.200000000000000000e+01,4.000000000000000000e+01,5.500000000000000444e-01,7.684496500000000000e+09
4.900000000000000000e+01,1.680000000000000000e+02,3.040000000000000000e+02,1.240000000000000000e+02,3.300000000000000000e+01,3.600000000000000000e+01,4.400000000000000000e+01,3.600000000000000000e+01,5.600000000000000533e-01,7.702764300000000000e+09
5.100000000000000000e+01,1.700000000000000000e+02,3.080000000000000000e+02,1.210000000000000000e+02,3.400000000000000000e+01,3.400000000000000000e+01,4.400000000000000000e+01,3.700000000000000000e+01,5.600000000000000533e-01,7.723945300000000000e+09
4.800000000000000000e+01,1.650000000000000000e+02,3.030000000000000000e+02,1.130000000000000000e+02,3.500000000000000000e+01,3.500000000000000000e+01,4.600000000000000000e+01,3.700000000000000000e+01,5.699999999999999512e-01,7.745622000000000000e+09
5.100000000000000000e+01,1.510000000000000000e+02,2.630000000000000000e+02,1.090000000000000000e+02,3.500000000000000000e+01,3.600000000000000000e+01,4.600000000000000000e+01,3.500000000000000000e+01,5.699999999999999512e-01,7.764388200000000000e+09
4.100000000000000000e+01,8.800000000000000000e+01,2.020000000000000000e+02,6.500000000000000000e+01,3.500000000000000000e+01,3.200000000000000000e+01,4.000000000000000000e+01,3.000000000000000000e+01,5.699999999999999512e-01,7.784064500000000000e+09
4.000000000000000000e+01,1.080000000000000000e+02,1.950000000000000000e+02,7.200000000000000000e+01,3.900000000000000000e+01,3.300000000000000000e+01,3.700000000000000000e+01,3.300000000000000000e+01,5.799999999999999600e-01,7.802063700000000000e+09
4.100000000000000000e+01,1.110000000000000000e+02,1.780000000000000000e+02,7.600000000000000000e+01,3.800000000000000000e+01,3.500000000000000000e+01,3.600000000000000000e+01,3.100000000000000000e+01,5.799999999999999600e-01,7.820347200000000000e+09
4.300000000000000000e+01,1.080000000000000000e+02,1.930000000000000000e+02,8.300000000000000000e+01,3.700000000000000000e+01,3.300000000000000000e+01,3.200000000000000000e+01,2.900000000000000000e+01,5.799999999999999600e-01,7.845346100000000000e+09
3.400000000000000000e+01,1.090000000000000000e+02,1.990000000000000000e+02,7.900000000000000000e+01,3.600000000000000000e+01,3.300000000000000000e+01,3.000000000000000000e+01,2.800000000000000000e+01,5.799999999999999600e-01,7.863276600000000000e+09
3.600000000000000000e+01,9.500000000000000000e+01,1.770000000000000000e+02,8.700000000000000000e+01,3.400000000000000000e+01,3.600000000000000000e+01,3.100000000000000000e+01,2.500000000000000000e+01,5.799999999999999600e-01,7.881081600000000000e+09
3.300000000000000000e+01,6.900000000000000000e+01,1.550000000000000000e+02,7.800000000000000000e+01,3.000000000000000000e+01,3.400000000000000000e+01,3.000000000000000000e+01,2.000000000000000000e+01,5.799999999999999600e-01,7.900992200000000000e+09
3.300000000000000000e+01,5.100000000000000000e+01,1.700000000000000000e+02,7.800000000000000000e+01,3.100000000000000000e+01,3.100000000000000000e+01,3.200000000000000000e+01,2.200000000000000000e+01,5.799999999999999600e-01,7.923487000000000000e+09
3.100000000000000000e+01,5.200000000000000000e+01,2.170000000000000000e+02,9.100000000000000000e+01,3.200000000000000000e+01,3.400000000000000000e+01,3.200000000000000000e+01,2.700000000000000000e+01,5.699999999999999512e-01,7.945286200000000000e+09
3.600000000000000000e+01,5.900000000000000000e+01,2.230000000000000000e+02,1.000000000000000000e+02,3.500000000000000000e+01,3.300000000000000000e+01,3.400000000000000000e+01,3.000000000000000000e+01,5.699999999999999512e-01,7.963708000000000000e+09
3.500000000000000000e+01,5.900000000000000000e+01,2.410000000000000000e+02,9.700000000000000000e+01,3.500000000000000000e+01,3.100000000000000000e+01,3.500000000000000000e+01,3.000000000000000000e+01,5.699999999999999512e-01,7.982864200000000000e+09
3.400000000000000000e+01,5.500000000000000000e+01,2.410000000000000000e+02,9.500000000000000000e+01,4.000000000000000000e+01,3.300000000000000000e+01,3.900000000000000000e+01,3.100000000000000000e+01,5.699999999999999512e-01,8.002323300000000000e+09
3.400000000000000000e+01,5.700000000000000000e+01,2.290000000000000000e+02,9.300000000000000000e+01,3.800000000000000000e+01,3.500000000000000000e+01,3.800000000000000000e+01,3.200000000000000000e+01,5.699999999999999512e-01,8.023174800000000000e+09
3.700000000000000000e+01,5.100000000000000000e+01,1.710000000000000000e+02,8.000000000000000000e+01,3.700000000000000000e+01,3.600000000000000000e+01,3.600000000000000000e+01,3.100000000000000000e+01,5.699999999999999512e-01,8.046504500000000000e+09
3.200000000000000000e+01,3.800000000000000000e+01,1.720000000000000000e+02,7.700000000000000000e+01,3.500000000000000000e+01,3.800000000000000000e+01,3.900000000000000000e+01,2.900000000000000000e+01,5.699999999999999512e-01,8.067624600000000000e+09
3.100000000000000000e+01,4.800000000000000000e+01,1.760000000000000000e+02,9.000000000000000000e+01,3.400000000000000000e+01,3.800000000000000000e+01,3.800000000000000000e+01,3.300000000000000000e+01,5.699999999999999512e-01,8.086819600000000000e+09
3.800000000000000000e+01,5.400000000000000000e+01,1.710000000000000000e+02,9.200000000000000000e+01,2.900000000000000000e+01,4.000000000000000000e+01,3.500000000000000000e+01,3.100000000000000000e+01,5.699999999999999512e-01,8.105067200000000000e+09
3.400000000000000000e+01,5.300000000000000000e+01,1.670000000000000000e+02,9.300000000000000000e+01,3.000000000000000000e+01,4.500000000000000000e+01,3.800000000000000000e+01,3.100000000000000000e+01,5.699999999999999512e-01,8.123381400000000000e+09
3.700000000000000000e+01,5.500000000000000000e+01,1.740000000000000000e+02,1.010000000000000000e+02,3.100000000000000000e+01,5.200000000000000000e+01,4.000000000000000000e+01,3.200000000000000000e+01,5.699999999999999512e-01,8.145144700000000000e+09
3.800000000000000000e+01,5.700000000000000000e+01,1.660000000000000000e+02,9.200000000000000000e+01,3.200000000000000000e+01,5.000000000000000000e+01,3.800000000000000000e+01,3.000000000000000000e+01,5.699999999999999512e-01,8.164091600000000000e+09
3.800000000000000000e+01,4.800000000000000000e+01,1.420000000000000000e+02,8.200000000000000000e+01,3.100000000000000000e+01,5.100000000000000000e+01,3.900000000000000000e+01,2.800000000000000000e+01,5.600000000000000533e-01,8.182877500000000000e+09
3.800000000000000000e+01,4.500000000000000000e+01,1.920000000000000000e+02,9.700000000000000000e+01,3.000000000000000000e+01,5.000000000000000000e+01,4.000000000000000000e+01,3.000000000000000000e+01,5.600000000000000533e-01,8.201216700000000000e+09
3.900000000000000000e+01,4.900000000000000000e+01,1.980000000000000000e+02,1.010000000000000000e+02,3.100000000000000000e+01,4.600000000000000000e+01,3.800000000000000000e+01,2.900000000000000000e+01,5.600000000000000533e-01,8.222917700000000000e+09
3.700000000000000000e+01,4.800000000000000000e+01,1.910000000000000000e+02,1.060000000000000000e+02,3.200000000000000000e+01,3.600000000000000000e+01,3.700000000000000000e+01,2.800000000000000000e+01,5.699999999999999512e-01,8.245240400000000000e+09
3.500000000000000000e+01,4.700000000000000000e+01,1.800000000000000000e+02,1.040000000000000000e+02,2.900000000000000000e+01,3.500000000000000000e+01,3.400000000000000000e+01,3.000000000000000000e+01,5.699999999999999512e-01,8.264477800000000000e+09
3.600000000000000000e+01,4.900000000000000000e+01,1.880000000000000000e+02,1.040000000000000000e+02,3.100000000000000000e+01,3.500000000000000000e+01,3.800000000000000000e+01,3.100000000000000000e+01,5.699999999999999512e-01,8.284042500000000000e+09
3.400000000000000000e+01,4.800000000000000000e+01,1.840000000000000000e+02,8.900000000000000000e+01,3.100000000000000000e+01,3.300000000000000000e+01,3.500000000000000000e+01,3.100000000000000000e+01,5.699999999999999512e-01,8.302233500000000000e+09
3.200000000000000000e+01,5.700000000000000000e+01,1.960000000000000000e+02,8.400000000000000000e+01,3.000000000000000000e+01,3.300000000000000000e+01,3.400000000000000000e+01,3.000000000000000000e+01,5.699999999999999512e-01,8.323103200000000000e+09
2.800000000000000000e+01,5.900000000000000000e+01,2.100000000000000000e+02,6.300000000000000000e+01,2.700000000000000000e+01,3.400000000000000000e+01,3.400000000000000000e+01,2.700000000000000000e+01,5.600000000000000533e-01,8.345072000000000000e+09
3.300000000000000000e+01,5.800000000000000000e+01,2.150000000000000000e+02,6.300000000000000000e+01,2.800000000000000000e+01,3.700000000000000000e+01,3.700000000000000000e+01,2.800000000000000000e+01,5.600000000000000533e-01,8.362899000000000000e+09
3.300000000000000000e+01,6.400000000000000000e+01,2.530000000000000000e+02,8.000000000000000000e+01,2.700000000000000000e+01,3.600000000000000000e+01,3.500000000000000000e+01,2.900000000000000000e+01,5.600000000000000533e-01,8.383716600000000000e+09
2.600000000000000000e+01,7.200000000000000000e+01,2.260000000000000000e+02,8.400000000000000000e+01,2.600000000000000000e+01,3.500000000000000000e+01,3.600000000000000000e+01,2.700000000000000000e+01,5.600000000000000533e-01,8.403934400000000000e+09
3.200000000000000000e+01,7.400000000000000000e+01,2.350000000000000000e+02,9.600000000000000000e+01,2.800000000000000000e+01,3.500000000000000000e+01,3.500000000000000000e+01,3.000000000000000000e+01,5.600000000000000533e-01,8.423114900000000000e+09
3.600000000000000000e+01,8.200000000000000000e+01,2.260000000000000000e+02,1.020000000000000000e+02,3.000000000000000000e+01,3.300000000000000000e+01,3.600000000000000000e+01,3.000000000000000000e+01,5.600000000000000533e-01,8.445125500000000000e+09
3.600000000000000000e+01,8.600000000000000000e+01,2.270000000000000000e+02,1.040000000000000000e+02,3.000000000000000000e+01,3.000000000000000000e+01,3.600000000000000000e+01,3.200000000000000000e+01,5.600000000000000533e-01,8.465350200000000000e+09
4.000000000000000000e+01,8.200000000000000000e+01,1.930000000000000000e+02,9.300000000000000000e+01,2.900000000000000000e+01,2.900000000000000000e+01,3.400000000000000000e+01,2.700000000000000000e+01,5.600000000000000533e-01,8.483555600000000000e+09
4.200000000000000000e+01,7.900000000000000000e+01,2.160000000000000000e+02,1.010000000000000000e+02,3.100000000000000000e+01,3.300000000000000000e+01,3.400000000000000000e+01,3.200000000000000000e+01,5.600000000000000533e-01,8.502088700000000000e+09
4.000000000000000000e+01,7.700000000000000000e+01,2.070000000000000000e+02,9.300000000000000000e+01,3.200000000000000000e+01,3.400000000000000000e+01,3.600000000000000000e+01,2.900000000000000000e+01,5.600000000000000533e-01,8.524173500000000000e+09
3.900000000000000000e+01,7.800000000000000000e+01,1.980000000000000000e+02,8.700000000000000000e+01,3.200000000000000000e+01,3.400000000000000000e+01,3.700000000000000000e+01,3.100000000000000000e+01,5.600000000000000533e-01,8.546347100000000000e+09
3.800000000000000000e+01,7.600000000000000000e+01,1.950000000000000000e+02,8.400000000000000000e+01,3.200000000000000000e+01,3.600000000000000000e+01,3.600000000000000000e+01,2.800000000000000000e+01,5.600000000000000533e-01,8.565169000000000000e+09
3.700000000000000000e+01,9.600000000000000000e+01,1.830000000000000000e+02,1.120000000000000000e+02,3.300000000000000000e+01,3.900000000000000000e+01,3.700000000000000000e+01,2.900000000000000000e+01,5.699999999999999512e-01,8.583861700000000000e+09
3.400000000000000000e+01,9.700000000000000000e+01,1.490000000000000000e+02,1.160000000000000000e+02,3.100000000000000000e+01,3.400000000000000000e+01,3.600000000000000000e+01,2.500000000000000000e+01,5.699999999999999512e-01,8.601983900000000000e+09
3.500000000000000000e+01,9.900000000000000000e+01,1.490000000000000000e+02,1.160000000000000000e+02,3.000000000000000000e+01,3.700000000000000000e+01,4.000000000000000000e+01,2.900000000000000000e+01,5.699999999999999512e-01,8.624008100000000000e+09
3.100000000000000000e+01,9.900000000000000000e+01,1.540000000000000000e+02,1.180000000000000000e+02,2.700000000000000000e+01,3.800000000000000000e+01,3.700000000000000000e+01,2.800000000000000000e+01,5.799999999999999600e-01,8.646440300000000000e+09
2.900000000000000000e+01,9.800000000000000000e+01,1.460000000000000000e+02,1.240000000000000000e+02,2.800000000000000000e+01,3.900000000000000000e+01,3.400000000000000000e+01,2.800000000000000000e+01,5.799999999999999600e-01,8.666226000000000000e+09
2.600000000000000000e+01,7.700000000000000000e+01,1.210000000000000000e+02,9.300000000000000000e+01,2.600000000000000000e+01,3.700000000000000000e+01,3.700000000000000000e+01,3.100000000000000000e+01,5.799999999999999600e-01,8.685003500000000000e+09
2.900000000000000000e+01,7.100000000000000000e+01,1.430000000000000000e+02,7.500000000000000000e+01,2.900000000000000000e+01,3.900000000000000000e+01,4.200000000000000000e+01,3.100000000000000000e+01,5.799999999999999600e-01,8.704327800000000000e+09
2.800000000000000000e+01,6.700000000000000000e+01,1.350000000000000000e+02,9.300000000000000000e+01,2.700000000000000000e+01,3.900000000000000000e+01,4.000000000000000000e+01,2.900000000000000000e+01,5.799999999999999600e-01,8.724074100000000000e+09
2.700000000000000000e+01,5.000000000000000000e+01,1.730000000000000000e+02,1.070000000000000000e+02,2.800000000000000000e+01,3.900000000000000000e+01,4.600000000000000000e+01,2.900000000000000000e+01,5.799999999999999600e-01,8.746488300000000000e+09
3.100000000000000000e+01,5.000000000000000000e+01,1.820000000000000000e+02,1.110000000000000000e+02,2.900000000000000000e+01,3.800000000000000000e+01,4.700000000000000000e+01,3.000000000000000000e+01,5.799999999999999600e-01,8.765167700000000000e+09
3.200000000000000000e+01,4.800000000000000000e+01,1.910000000000000000e+02,1.130000000000000000e+02,3.200000000000000000e+01,3.800000000000000000e+01,4.400000000000000000e+01,2.700000000000000000e+01,5.799999999999999600e-01,8.785541400000000000e+09
3.300000000000000000e+01,5.500000000000000000e+01,1.830000000000000000e+02,1.190000000000000000e+02,3.600000000000000000e+01,3.700000000000000000e+01,3.900000000000000000e+01,2.900000000000000000e+01,5.899999999999999689e-01,8.805282200000000000e+09
3.400000000000000000e+01,4.700000000000000000e+01,1.820000000000000000e+02,1.060000000000000000e+02,3.500000000000000000e+01,3.500000000000000000e+01,3.800000000000000000e+01,3.200000000000000000e+01,5.899999999999999689e-01,8.823916100000000000e+09
4.100000000000000000e+01,5.100000000000000000e+01,1.490000000000000000e+02,9.000000000000000000e+01,3.600000000000000000e+01,3.400000000000000000e+01,2.900000000000000000e+01,3.100000000000000000e+01,5.799999999999999600e-01,8.846396700000000000e+09
4.100000000000000000e+01,5.200000000000000000e+01,1.380000000000000000e+02,8.100000000000000000e+01,3.800000000000000000e+01,3.400000000000000000e+01,3.500000000000000000e+01,3.000000000000000000e+01,5.799999999999999600e-01,8.864514300000000000e+09
4.100000000000000000e+01,6.300000000000000000e+01,1.360000000000000000e+02,7.800000000000000000e+01,3.500000000000000000e+01,3.200000000000000000e+01,4.200000000000000000e+01,3.000000000000000000e+01,5.799999999999999600e-01,8.882653800000000000e+09
4.100000000000000000e+01,5.800000000000000000e+01,1.230000000000000000e+02,7.000000000000000000e+01,2.900000000000000000e+01,3.400000000000000000e+01,4.700000000000000000e+01,3.000000000000000000e+01,5.699999999999999512e-01,8.901924100000000000e+09
4.000000000000000000e+01,5.700000000000000000e+01,1.160000000000000000e+02,6.800000000000000000e+01,2.900000000000000000e+01,3.300000000000000000e+01,4.800000000000000000e+01,2.600000000000000000e+01,5.699999999999999512e-01,8.924302800000000000e+09
3.700000000000000000e+01,6.100000000000000000e+01,9.800000000000000000e+01,6.200000000000000000e+01,2.700000000000000000e+01,3.300000000000000000e+01,5.000000000000000000e+01,2.700000000000000000e+01,5.699999999999999512e-01,8.946479000000000000e+09
3.800000000000000000e+01,6.300000000000000000e+01,9.900000000000000000e+01,6.000000000000000000e+01,2.300000000000000000e+01,3.000000000000000000e+01,4.800000000000000000e+01,2.800000000000000000e+01,5.699999999999999512e-01,8.965293100000000000e+09
3.600000000000000000e+01,5.400000000000000000e+01,1.270000000000000000e+02,7.600000000000000000e+01,2.500000000000000000e+01,3.500000000000000000e+01,3.900000000000000000e+01,2.900000000000000000e+01,5.699999999999999512e-01,8.984046200000000000e+09
3.500000000000000000e+01,5.500000000000000000e+01,1.370000000000000000e+02,7.400000000000000000e+01,2.500000000000000000e+01,3.200000000000000000e+01,3.500000000000000000e+01,2.800000000000000000e+01,5.600000000000000533e-01,9.002809500000000000e+09
3.700000000000000000e+01,5.400000000000000000e+01,1.290000000000000000e+02,6.900000000000000000e+01,2.700000000000000000e+01,3.100000000000000000e+01,3.600000000000000000e+01,3.000000000000000000e+01,5.600000000000000533e-01,9.023994400000000000e+09
3.400000000000000000e+01,5.100000000000000000e+01,1.390000000000000000e+02,7.200000000000000000e+01,3.000000000000000000e+01,3.100000000000000000e+01,3.400000000000000000e+01,3.000000000000000000e+01,5.500000000000000444e-01,9.046702500000000000e+09
3.500000000000000000e+01,4.500000000000000000e+01,1.430000000000000000e+02,7.200000000000000000e+01,3.000000000000000000e+01,3.300000000000000000e+01,3.400000000000000000e+01,2.800000000000000000e+01,5.500000000000000444e-01,9.064404600000000000e+09
3.500000000000000000e+01,5.000000000000000000e+01,1.220000000000000000e+02,6.700000000000000000e+01,3.400000000000000000e+01,2.900000000000000000e+01,3.600000000000000000e+01,2.600000000000000000e+01,5.500000000000000444e-01,9.082643100000000000e+09
3.800000000000000000e+01,4.700000000000000000e+01,1.520000000000000000e+02,6.500000000000000000e+01,3.400000000000000000e+01,2.900000000000000000e+01,4.300000000000000000e+01,3.000000000000000000e+01,5.400000000000000355e-01,9.103410300000000000e+09
3.800000000000000000e+01,4.600000000000000000e+01,1.550000000000000000e+02,6.400000000000000000e+01,3.200000000000000000e+01,2.900000000000000000e+01,4.000000000000000000e+01,3.000000000000000000e+01,5.400000000000000355e-01,9.125147500000000000e+09
4.100000000000000000e+01,4.600000000000000000e+01,1.560000000000000000e+02,6.400000000000000000e+01,3.400000000000000000e+01,3.200000000000000000e+01,4.200000000000000000e+01,3.000000000000000000e+01,5.400000000000000355e-01,9.147246300000000000e+09
4.000000000000000000e+01,4.700000000000000000e+01,1.560000000000000000e+02,6.900000000000000000e+01,3.500000000000000000e+01,3.200000000000000000e+01,4.100000000000000000e+01,3.000000000000000000e+01,5.400000000000000355e-01,9.168215500000000000e+09
4.100000000000000000e+01,4.300000000000000000e+01,1.530000000000000000e+02,5.800000000000000000e+01,3.200000000000000000e+01,3.200000000000000000e+01,4.400000000000000000e+01,3.100000000000000000e+01,5.400000000000000355e-01,9.187397100000000000e+09
3.900000000000000000e+01,5.900000000000000000e+01,1.150000000000000000e+02,5.900000000000000000e+01,3.300000000000000000e+01,3.400000000000000000e+01,3.600000000000000000e+01,2.800000000000000000e+01,5.300000000000000266e-01,9.211317500000000000e+09
4.300000000000000000e+01,6.800000000000000000e+01,1.230000000000000000e+02,7.400000000000000000e+01,3.500000000000000000e+01,3.400000000000000000e+01,3.700000000000000000e+01,3.000000000000000000e+01,5.300000000000000266e-01,9.228879400000000000e+09
3.900000000000000000e+01,6.600000000000000000e+01,1.210000000000000000e+02,8.000000000000000000e+01,3.400000000000000000e+01,3.100000000000000000e+01,3.600000000000000000e+01,3.200000000000000000e+01,5.300000000000000266e-01,9.247686800000000000e+09
4.000000000000000000e+01,7.000000000000000000e+01,1.320000000000000000e+02,7.400000000000000000e+01,3.300000000000000000e+01,3.200000000000000000e+01,3.900000000000000000e+01,3.200000000000000000e+01,5.300000000000000266e-01,9.266733300000000000e+09
4.200000000000000000e+01,7.400000000000000000e+01,1.430000000000000000e+02,7.500000000000000000e+01,3.500000000000000000e+01,3.100000000000000000e+01,3.400000000000000000e+01,3.100000000000000000e+01,5.300000000000000266e-01,9.285062700000000000e+09
4.300000000000000000e+01,7.400000000000000000e+01,1.520000000000000000e+02,8.700000000000000000e+01,3.400000000000000000e+01,3.000000000000000000e+01,3.700000000000000000e+01,3.100000000000000000e+01,5.300000000000000266e-01,9.303390400000000000e+09
4.500000000000000000e+01,9.000000000000000000e+01,1.590000000000000000e+02,1.090000000000000000e+02,3.600000000000000000e+01,3.100000000000000000e+01,3.900000000000000000e+01,3.000000000000000000e+01,5.300000000000000266e-01,9.322499000000000000e+09
4.900000000000000000e+01,9.400000000000000000e+01,2.060000000000000000e+02,1.090000000000000000e+02,3.600000000000000000e+01,3.200000000000000000e+01,3.800000000000000000e+01,2.900000000000000000e+01,5.400000000000000355e-01,9.344576600000000000e+09
4.700000000000000000e+01,9.700000000000000000e+01,2.040000000000000000e+02,1.180000000000000000e+02,3.600000000000000000e+01,3.300000000000000000e+01,3.400000000000000000e+01,2.900000000000000000e+01,5.400000000000000355e-01,9.366970000000000000e+09
4.600000000000000000e+01,9.500000000000000000e+01,1.960000000000000000e+02,1.200000000000000000e+02,3.600000000000000000e+01,3.600000000000000000e+01,3.800000000000000000e+01,2.900000000000000000e+01,5.400000000000000355e-01,9.385460600000000000e+09
4.600000000000000000e+01,8.800000000000000000e+01,2.240000000000000000e+02,1.150000000000000000e+02,3.600000000000000000e+01,3.600000000000000000e+01,4.000000000000000000e+01,3.400000000000000000e+01,5.500000000000000444e-01,9.403672600000000000e+09
4.100000000000000000e+01,7.800000000000000000e+01,2.150000000000000000e+02,8.700000000000000000e+01,3.400000000000000000e+01,3.600000000000000000e+01,3.800000000000000000e+01,3.700000000000000000e+01,5.500000000000000444e-01,9.423597700000000000e+09
4.200000000000000000e+01,7.800000000000000000e+01,1.810000000000000000e+02,8.400000000000000000e+01,3.300000000000000000e+01,3.700000000000000000e+01,4.600000000000000000e+01,3.800000000000000000e+01,5.500000000000000444e-01,9.444676900000000000e+09
4.500000000000000000e+01,9.000000000000000000e+01,1.930000000000000000e+02,8.000000000000000000e+01,3.300000000000000000e+01,3.500000000000000000e+01,4.600000000000000000e+01,3.800000000000000000e+01,5.600000000000000533e-01,9.467279600000000000e+09
5.000000000000000000e+01,1.110000000000000000e+02,2.290000000000000000e+02,8.800000000000000000e+01,2.900000000000000000e+01,3.300000000000000000e+01,4.700000000000000000e+01,3.900000000000000000e+01,5.600000000000000533e-01,9.485732100000000000e+09
4.900000000000000000e+01,1.150000000000000000e+02,1.970000000000000000e+02,8.500000000000000000e+01,3.000000000000000000e+01,3.400000000000000000e+01,4.300000000000000000e+01,3.300000000000000000e+01,5.600000000000000533e-01,9.505407200000000000e+09
4.900000000000000000e+01,1.200000000000000000e+02,2.070000000000000000e+02,9.000000000000000000e+01,2.900000000000000000e+01,3.400000000000000000e+01,4.400000000000000000e+01,3.000000000000000000e+01,5.699999999999999512e-01,9.524162400000000000e+09
4.400000000000000000e+01,1.250000000000000000e+02,2.090000000000000000e+02,9.000000000000000000e+01,2.800000000000000000e+01,3.200000000000000000e+01,3.700000000000000000e+01,2.700000000000000000e+01,5.699999999999999512e-01,9.544540800000000000e+09
4.200000000000000000e+01,1.220000000000000000e+02,2.030000000000000000e+02,1.020000000000000000e+02,2.700000000000000000e+01,3.200000000000000000e+01,3.800000000000000000e+01,2.800000000000000000e+01,5.699999999999999512e-01,9.566731900000000000e+09
3.700000000000000000e+01,1.160000000000000000e+02,2.080000000000000000e+02,1.020000000000000000e+02,2.700000000000000000e+01,3.300000000000000000e+01,3.500000000000000000e+01,2.600000000000000000e+01,5.699999999999999512e-01,9.584458600000000000e+09
3.700000000000000000e+01,1.190000000000000000e+02,2.080000000000000000e+02,1.110000000000000000e+02,3.100000000000000000e+01,3.200000000000000000e+01,3.700000000000000000e+01,2.600000000000000000e+01,5.799999999999999600e-01,9.604904200000000000e+09
3.300000000000000000e+01,1.190000000000000000e+02,2.260000000000000000e+02,1.060000000000000000e+02,3.200000000000000000e+01,3.200000000000000000e+01,3.800000000000000000e+01,2.700000000000000000e+01,5.799999999999999600e-01,9.625452900000000000e+09
3.800000000000000000e+01,1.100000000000000000e+02,2.210000000000000000e+02,1.080000000000000000e+02,3.200000000000000000e+01,3.100000000000000000e+01,3.700000000000000000e+01,2.700000000000000000e+01,5.799999999999999600e-01,9.644534200000000000e+09
3.800000000000000000e+01,1.090000000000000000e+02,2.260000000000000000e+02,1.030000000000000000e+02,3.400000000000000000e+01,3.300000000000000000e+01,3.700000000000000000e+01,2.700000000000000000e+01,5.799999999999999600e-01,9.666701500000000000e+09
3.800000000000000000e+01,1.060000000000000000e+02,2.040000000000000000e+02,1.040000000000000000e+02,3.400000000000000000e+01,3.900000000000000000e+01,3.300000000000000000e+01,2.800000000000000000e+01,5.799999999999999600e-01,9.684968700000000000e+09
4.100000000000000000e+01,1.060000000000000000e+02,2.060000000000000000e+02,9.600000000000000000e+01,3.000000000000000000e+01,3.800000000000000000e+01,3.000000000000000000e+01,2.800000000000000000e+01,5.799999999999999600e-01,9.703693900000000000e+09
4.400000000000000000e+01,9.200000000000000000e+01,1.920000000000000000e+02,1.320000000000000000e+02,3.100000000000000000e+01,3.900000000000000000e+01,3.000000000000000000e+01,2.700000000000000000e+01,5.899999999999999689e-01,9.724015000000000000e+09
5.300000000000000000e+01,1.110000000000000000e+02,2.040000000000000000e+02,1.680000000000000000e+02,3.700000000000000000e+01,3.900000000000000000e+01,3.500000000000000000e+01,3.000000000000000000e+01,5.899999999999999689e-01,9.746736600000000000e+09
5.100000000000000000e+01,1.090000000000000000e+02,1.950000000000000000e+02,1.680000000000000000e+02,3.600000000000000000e+01,4.100000000000000000e+01,3.500000000000000000e+01,3.000000000000000000e+01,5.999999999999999778e-01,9.765172300000000000e+09
5.800000000000000000e+01,1.100000000000000000e+02,1.880000000000000000e+02,1.790000000000000000e+02,3.800000000000000000e+01,3.600000000000000000e+01,3.700000000000000000e+01,3.200000000000000000e+01,5.999999999999999778e-01,9.783723500000000000e+09
5.800000000000000000e+01,1.200000000000000000e+02,2.080000000000000000e+02,1.860000000000000000e+02,4.300000000000000000e+01,3.800000000000000000e+01,3.900000000000000000e+01,3.200000000000000000e+01,5.999999999999999778e-01,9.802602500000000000e+09
5.900000000000000000e+01,1.280000000000000000e+02,2.060000000000000000e+02,1.640000000000000000e+02,4.000000000000000000e+01,3.700000000000000000e+01,3.800000000000000000e+01,3.300000000000000000e+01,6.099999999999999867e-01,9.824441700000000000e+09
5.400000000000000000e+01,1.220000000000000000e+02,2.190000000000000000e+02,1.500000000000000000e+02,3.800000000000000000e+01,3.700000000000000000e+01,3.700000000000000000e+01,3.000000000000000000e+01,6.099999999999999867e-01,9.846594100000000000e+09
5.500000000000000000e+01,1.210000000000000000e+02,2.210000000000000000e+02,1.580000000000000000e+02,4.000000000000000000e+01,3.200000000000000000e+01,4.100000000000000000e+01,2.900000000000000000e+01,6.099999999999999867e-01,9.864556500000000000e+09
5.100000000000000000e+01,1.190000000000000000e+02,2.420000000000000000e+02,1.630000000000000000e+02,3.900000000000000000e+01,3.100000000000000000e+01,4.000000000000000000e+01,2.900000000000000000e+01,6.199999999999999956e-01,9.883308200000000000e+09
4.800000000000000000e+01,1.110000000000000000e+02,2.490000000000000000e+02,1.750000000000000000e+02,3.600000000000000000e+01,3.200000000000000000e+01,4.200000000000000000e+01,2.900000000000000000e+01,6.199999999999999956e-01,9.902971100000000000e+09
4.600000000000000000e+01,1.070000000000000000e+02,2.470000000000000000e+02,1.790000000000000000e+02,3.800000000000000000e+01,3.200000000000000000e+01,4.500000000000000000e+01,3.000000000000000000e+01,6.300000000000000044e-01,9.925781700000000000e+09
4.100000000000000000e+01,1.230000000000000000e+02,2.340000000000000000e+02,1.660000000000000000e+02,3.600000000000000000e+01,3.300000000000000000e+01,4.400000000000000000e+01,3.100000000000000000e+01,6.300000000000000044e-01,9.944027000000000000e+09
4.000000000000000000e+01,1.260000000000000000e+02,2.510000000000000000e+02,1.560000000000000000e+02,3.300000000000000000e+01,3.400000000000000000e+01,4.600000000000000000e+01,3.300000000000000000e+01,6.300000000000000044e-01,9.963198800000000000e+09
3.300000000000000000e+01,1.200000000000000000e+02,2.200000000000000000e+02,1.350000000000000000e+02,3.300000000000000000e+01,3.400000000000000000e+01,4.400000000000000000e+01,3.100000000000000000e+01,6.300000000000000044e-01,9.980872400000000000e+09
4.400000000000000000e+01,1.170000000000000000e+02,2.280000000000000000e+02,1.270000000000000000e+02,3.000000000000000000e+01,3.100000000000000000e+01,4.500000000000000000e+01,3.300000000000000000e+01,6.400000000000000133e-01,1.000319100000000000e+10
4.400000000000000000e+01,1.210000000000000000e+02,2.510000000000000000e+02,1.390000000000000000e+02,2.800000000000000000e+01,3.000000000000000000e+01,4.300000000000000000e+01,3.600000000000000000e+01,6.400000000000000133e-01,1.002533440000000000e+10
4.400000000000000000e+01,9.700000000000000000e+01,2.430000000000000000e+02,1.310000000000000000e+02,3.000000000000000000e+01,2.700000000000000000e+01,4.000000000000000000e+01,3.400000000000000000e+01,6.400000000000000133e-01,1.004466080000000000e+10
4.700000000000000000e+01,9.400000000000000000e+01,2.240000000000000000e+02,1.240000000000000000e+02,3.100000000000000000e+01,3.000000000000000000e+01,3.300000000000000000e+01,3.300000000000000000e+01,6.400000000000000133e-01,1.006240530000000000e+10
5.100000000000000000e+01,1.050000000000000000e+02,2.300000000000000000e+02,1.270000000000000000e+02,3.200000000000000000e+01,3.300000000000000000e+01,3.700000000000000000e+01,3.300000000000000000e+01,6.400000000000000133e-01,1.008127150000000000e+10
4.600000000000000000e+01,1.210000000000000000e+02,2.030000000000000000e+02,1.170000000000000000e+02,3.200000000000000000e+01,3.300000000000000000e+01,3.000000000000000000e+01,3.400000000000000000e+01,6.400000000000000133e-01,1.010166490000000000e+10
4.800000000000000000e+01,1.240000000000000000e+02,1.830000000000000000e+02,1.060000000000000000e+02,3.300000000000000000e+01,3.500000000000000000e+01,3.300000000000000000e+01,3.000000000000000000e+01,6.400000000000000133e-01,1.012396480000000000e+10
4.700000000000000000e+01,1.340000000000000000e+02,2.150000000000000000e+02,1.080000000000000000e+02,3.100000000000000000e+01,3.700000000000000000e+01,3.500000000000000000e+01,3.000000000000000000e+01,6.300000000000000044e-01,1.014628550000000000e+10
4.600000000000000000e+01,1.330000000000000000e+02,2.260000000000000000e+02,1.260000000000000000e+02,2.900000000000000000e+01,3.300000000000000000e+01,3.700000000000000000e+01,3.100000000000000000e+01,6.300000000000000044e-01,1.016440600000000000e+10
4.300000000000000000e+01,1.270000000000000000e+02,2.490000000000000000e+02,1.240000000000000000e+02,2.900000000000000000e+01,3.400000000000000000e+01,3.300000000000000000e+01,3.100000000000000000e+01,6.300000000000000044e-01,1.018196780000000000e+10
4.200000000000000000e+01,1.140000000000000000e+02,2.740000000000000000e+02,1.200000000000000000e+02,2.700000000000000000e+01,3.400000000000000000e+01,4.000000000000000000e+01,3.100000000000000000e+01,6.300000000000000044e-01,1.020196920000000000e+10
3.500000000000000000e+01,1.010000000000000000e+02,2.740000000000000000e+02,1.050000000000000000e+02,2.900000000000000000e+01,3.200000000000000000e+01,3.800000000000000000e+01,3.000000000000000000e+01,6.300000000000000044e-01,1.022568610000000000e+10
3.500000000000000000e+01,9.100000000000000000e+01,2.590000000000000000e+02,1.150000000000000000e+02,3.200000000000000000e+01,3.100000000000000000e+01,3.600000000000000000e+01,3.300000000000000000e+01,6.300000000000000044e-01,1.025005370000000000e+10
3.600000000000000000e+01,1.080000000000000000e+02,2.480000000000000000e+02,1.010000000000000000e+02,3.100000000000000000e+01,3.500000000000000000e+01,4.400000000000000000e+01,3.300000000000000000e+01,6.199999999999999956e-01,1.027011330000000000e+10
4.100000000000000000e+01,1.080000000000000000e+02,2.350000000000000000e+02,1.090000000000000000e+02,3.300000000000000000e+01,3.300000000000000000e+01,4.700000000000000000e+01,3.300000000000000000e+01,6.199999999999999956e-01,1.028754100000000000e+10
3.900000000000000000e+01,1.160000000000000000e+02,2.010000000000000000e+02,1.090000000000000000e+02,3.400000000000000000e+01,3.200000000000000000e+01,4.500000000000000000e+01,3.100000000000000000e+01,6.199999999999999956e-01,1.030680790000000000e+10
3.900000000000000000e+01,1.320000000000000000e+02,2.440000000000000000e+02,1.400000000000000000e+02,3.400000000000000000e+01,3.500000000000000000e+01,4.500000000000000000e+01,3.300000000000000000e+01,6.199999999999999956e-01,1.032506070000000000e+10
4.100000000000000000e+01,1.330000000000000000e+02,2.690000000000000000e+02,1.330000000000000000e+02,3.100000000000000000e+01,3.500000000000000000e+01,4.400000000000000000e+01,2.900000000000000000e+01,6.199999999999999956e-01,1.034428780000000000e+10
4.200000000000000000e+01,1.280000000000000000e+02,2.810000000000000000e+02,1.320000000000000000e+02,3.100000000000000000e+01,3.300000000000000000e+01,3.600000000000000000e+01,2.900000000000000000e+01,6.199999999999999956e-01,1.036644500000000000e+10
3.900000000000000000e+01,1.550000000000000000e+02,3.260000000000000000e+02,1.280000000000000000e+02,2.700000000000000000e+01,3.200000000000000000e+01,3.500000000000000000e+01,2.900000000000000000e+01,6.199999999999999956e-01,1.038549970000000000e+10
3.900000000000000000e+01,1.500000000000000000e+02,3.400000000000000000e+02,1.290000000000000000e+02,2.700000000000000000e+01,3.500000000000000000e+01,3.300000000000000000e+01,2.800000000000000000e+01,6.199999999999999956e-01,1.040386620000000000e+10
4.000000000000000000e+01,1.440000000000000000e+02,3.290000000000000000e+02,1.050000000000000000e+02,2.500000000000000000e+01,3.300000000000000000e+01,3.000000000000000000e+01,3.000000000000000000e+01,6.199999999999999956e-01,1.042207820000000000e+10
3.900000000000000000e+01,1.430000000000000000e+02,3.050000000000000000e+02,1.080000000000000000e+02,3.000000000000000000e+01,3.200000000000000000e+01,3.000000000000000000e+01,2.800000000000000000e+01,6.199999999999999956e-01,1.044426750000000000e+10
3.800000000000000000e+01,1.500000000000000000e+02,3.000000000000000000e+02,1.040000000000000000e+02,3.300000000000000000e+01,3.300000000000000000e+01,3.300000000000000000e+01,3.100000000000000000e+01,6.199999999999999956e-01,1.046656550000000000e+10
3.800000000000000000e+01,1.450000000000000000e+02,2.640000000000000000e+02,9.500000000000000000e+01,3.400000000000000000e+01,3.400000000000000000e+01,3.200000000000000000e+01,2.900000000000000000e+01,6.199999999999999956e-01,1.048558730000000000e+10
3.700000000000000000e+01,1.440000000000000000e+02,2.520000000000000000e+02,9.600000000000000000e+01,3.400000000000000000e+01,3.100000000000000000e+01,3.800000000000000000e+01,3.000000000000000000e+01,6.199999999999999956e-01,1.051257350000000000e+10
4.200000000000000000e+01,1.490000000000000000e+02,2.190000000000000000e+02,9.100000000000000000e+01,3.400000000000000000e+01,3.100000000000000000e+01,3.700000000000000000e+01,3.100000000000000000e+01,6.199999999999999956e-01,1.053163430000000000e+10
4.000000000000000000e+01,1.520000000000000000e+02,2.190000000000000000e+02,8.000000000000000000e+01,3.200000000000000000e+01,3.300000000000000000e+01,4.000000000000000000e+01,3.100000000000000000e+01,6.199999999999999956e-01,1.055063950000000000e+10
4.200000000000000000e+01,1.390000000000000000e+02,2.230000000000000000e+02,8.300000000000000000e+01,3.100000000000000000e+01,3.400000000000000000e+01,4.100000000000000000e+01,3.100000000000000000e+01,6.199999999999999956e-01,1.056886830000000000e+10
