2.100000000000000000e+01,2.100000000000000000e+01,2.200000000000000000e+01,2.300000000000000000e+01,2.400000000000000000e+01,2.400000000000000000e+01,2.400000000000000000e+01,2.100000000000000000e+01,4.500000000000000111e-01,5.292739000000000000e+08
2.000000000000000000e+01,2.000000000000000000e+01,2.300000000000000000e+01,2.400000000000000000e+01,2.500000000000000000e+01,2.400000000000000000e+01,2.400000000000000000e+01,2.100000000000000000e+01,4.500000000000000111e-01,5.634553000000000000e+08
2.000000000000000000e+01,2.300000000000000000e+01,2.300000000000000000e+01,2.300000000000000000e+01,2.600000000000000000e+01,2.600000000000000000e+01,2.400000000000000000e+01,2.100000000000000000e+01,4.500000000000000111e-01,1.269734400000000000e+09
1.900000000000000000e+01,2.200000000000000000e+01,2.200000000000000000e+01,2.200000000000000000e+01,2.500000000000000000e+01,2.700000000000000000e+01,2.700000000000000000e+01,2.200000000000000000e+01,4.500000000000000111e-01,1.287909600000000000e+09
1.900000000000000000e+01,2.400000000000000000e+01,2.300000000000000000e+01,2.300000000000000000e+01,2.500000000000000000e+01,2.500000000000000000e+01,2.500000000000000000e+01,2.100000000000000000e+01,4.500000000000000111e-01,1.306286800000000000e+09
1.900000000000000000e+01,2.600000000000000000e+01,2.300000000000000000e+01,2.500000000000000000e+01,2.500000000000000000e+01,2.600000000000000000e+01,2.300000000000000000e+01,2.000000000000000000e+01,4.500000000000000111e-01,1.326647200000000000e+09
2.000000000000000000e+01,2.900000000000000000e+01,2.300000000000000000e+01,2.600000000000000000e+01,2.600000000000000000e+01,2.700000000000000000e+01,2.300000000000000000e+01,2.100000000000000000e+01,4.500000000000000111e-01,1.344317400000000000e+09
1.900000000000000000e+01,2.600000000000000000e+01,2.300000000000000000e+01,2.600000000000000000e+01,2.700000000000000000e+01,2.600000000000000000e+01,2.300000000000000000e+01,2.300000000000000000e+01,4.500000000000000111e-01,1.362778700000000000e+09
1.800000000000000000e+01,2.700000000000000000e+01,2.300000000000000000e+01,2.700000000000000000e+01,2.500000000000000000e+01,2.500000000000000000e+01,2.100000000000000000e+01,2.200000000000000000e+01,4.500000000000000111e-01,1.382194900000000000e+09
1.900000000000000000e+01,2.700000000000000000e+01,2.300000000000000000e+01,2.500000000000000000e+01,2.700000000000000000e+01,2.600000000000000000e+01,2.400000000000000000e+01,2.400000000000000000e+01,4.500000000000000111e-01,1.401197900000000000e+09
1.800000000000000000e+01,2.600000000000000000e+01,2.300000000000000000e+01,2.300000000000000000e+01,2.700000000000000000e+01,2.400000000000000000e+01,2.400000000000000000e+01,2.400000000000000000e+01,4.500000000000000111e-01,1.419616500000000000e+09
1.700000000000000000e+01,2.400000000000000000e+01,2.200000000000000000e+01,2.400000000000000000e+01,2.700000000000000000e+01,2.600000000000000000e+01,2.500000000000000000e+01,2.400000000000000000e+01,4.500000000000000111e-01,1.437359500000000000e+09
1.700000000000000000e+01,2.400000000000000000e+01,2.200000000000000000e+01,2.600000000000000000e+01,2.500000000000000000e+01,2.600000000000000000e+01,2.300000000000000000e+01,2.500000000000000000e+01,4.500000000000000111e-01,1.456719300000000000e+09
1.900000000000000000e+01,2.600000000000000000e+01,2.200000000000000000e+01,2.500000000000000000e+01,2.600000000000000000e+01,2.800000000000000000e+01,2.700000000000000000e+01,2.500000000000000000e+01,4.500000000000000111e-01,1.475291100000000000e+09
1.900000000000000000e+01,2.500000000000000000e+01,2.000000000000000000e+01,2.400000000000000000e+01,2.500000000000000000e+01,2.800000000000000000e+01,2.400000000000000000e+01,2.500000000000000000e+01,4.500000000000000111e-01,1.494218100000000000e+09
2.000000000000000000e+01,2.500000000000000000e+01,2.300000000000000000e+01,2.400000000000000000e+01,2.200000000000000000e+01,2.800000000000000000e+01,2.500000000000000000e+01,2.600000000000000000e+01,4.500000000000000111e-01,1.512329400000000000e+09
2.100000000000000000e+01,2.500000000000000000e+01,2.400000000000000000e+01,2.300000000000000000e+01,2.200000000000000000e+01,2.500000000000000000e+01,2.300000000000000000e+01,2.500000000000000000e+01,4.500000000000000111e-01,1.530604500000000000e+09
2.000000000000000000e+01,2.400000000000000000e+01,2.400000000000000000e+01,2.100000000000000000e+01,2.100000000000000000e+01,2.500000000000000000e+01,2.300000000000000000e+01,2.300000000000000000e+01,4.500000000000000111e-01,1.548716600000000000e+09
2.000000000000000000e+01,2.100000000000000000e+01,2.500000000000000000e+01,2.100000000000000000e+01,2.300000000000000000e+01,2.400000000000000000e+01,1.800000000000000000e+01,2.300000000000000000e+01,4.500000000000000111e-01,1.600516500000000000e+09
2.000000000000000000e+01,2.100000000000000000e+01,2.700000000000000000e+01,2.200000000000000000e+01,2.300000000000000000e+01,2.400000000000000000e+01,1.900000000000000000e+01,2.200000000000000000e+01,4.500000000000000111e-01,1.620035000000000000e+09
2.100000000000000000e+01,2.300000000000000000e+01,2.500000000000000000e+01,2.300000000000000000e+01,2.600000000000000000e+01,2.500000000000000000e+01,1.900000000000000000e+01,2.200000000000000000e+01,4.500000000000000111e-01,1.638873100000000000e+09
2.100000000000000000e+01,2.300000000000000000e+01,2.500000000000000000e+01,2.400000000000000000e+01,2.400000000000000000e+01,2.400000000000000000e+01,2.200000000000000000e+01,2.200000000000000000e+01,4.500000000000000111e-01,1.658164900000000000e+09
2.200000000000000000e+01,2.400000000000000000e+01,2.400000000000000000e+01,2.700000000000000000e+01,2.700000000000000000e+01,2.800000000000000000e+01,2.200000000000000000e+01,2.200000000000000000e+01,4.500000000000000111e-01,1.676873500000000000e+09
2.200000000000000000e+01,2.200000000000000000e+01,2.400000000000000000e+01,2.600000000000000000e+01,2.600000000000000000e+01,2.700000000000000000e+01,2.200000000000000000e+01,2.200000000000000000e+01,4.500000000000000111e-01,1.695012500000000000e+09
2.200000000000000000e+01,2.200000000000000000e+01,2.300000000000000000e+01,2.700000000000000000e+01,2.800000000000000000e+01,2.700000000000000000e+01,2.300000000000000000e+01,2.200000000000000000e+01,4.500000000000000111e-01,1.712962600000000000e+09
2.100000000000000000e+01,2.200000000000000000e+01,2.200000000000000000e+01,2.700000000000000000e+01,2.800000000000000000e+01,2.700000000000000000e+01,2.100000000000000000e+01,2.200000000000000000e+01,4.500000000000000111e-01,1.732196500000000000e+09
2.200000000000000000e+01,2.400000000000000000e+01,2.200000000000000000e+01,2.700000000000000000e+01,3.000000000000000000e+01,2.600000000000000000e+01,2.100000000000000000e+01,2.300000000000000000e+01,4.500000000000000111e-01,1.750778000000000000e+09
2.200000000000000000e+01,2.300000000000000000e+01,2.200000000000000000e+01,2.500000000000000000e+01,2.900000000000000000e+01,2.500000000000000000e+01,2.300000000000000000e+01,2.300000000000000000e+01,4.500000000000000111e-01,1.770070300000000000e+09
2.300000000000000000e+01,2.600000000000000000e+01,2.200000000000000000e+01,2.500000000000000000e+01,2.700000000000000000e+01,2.500000000000000000e+01,2.300000000000000000e+01,2.200000000000000000e+01,4.500000000000000111e-01,1.789113600000000000e+09
2.300000000000000000e+01,2.600000000000000000e+01,2.200000000000000000e+01,2.500000000000000000e+01,2.600000000000000000e+01,2.500000000000000000e+01,2.200000000000000000e+01,2.200000000000000000e+01,4.500000000000000111e-01,1.807777200000000000e+09
2.200000000000000000e+01,2.500000000000000000e+01,2.200000000000000000e+01,2.400000000000000000e+01,2.600000000000000000e+01,2.800000000000000000e+01,2.400000000000000000e+01,2.100000000000000000e+01,4.500000000000000111e-01,1.825947200000000000e+09
2.400000000000000000e+01,2.300000000000000000e+01,2.000000000000000000e+01,2.300000000000000000e+01,2.300000000000000000e+01,2.900000000000000000e+01,2.400000000000000000e+01,2.100000000000000000e+01,4.500000000000000111e-01,1.843996800000000000e+09
2.200000000000000000e+01,2.600000000000000000e+01,2.100000000000000000e+01,2.400000000000000000e+01,2.400000000000000000e+01,2.700000000000000000e+01,2.300000000000000000e+01,2.200000000000000000e+01,4.500000000000000111e-01,1.862083200000000000e+09
2.200000000000000000e+01,2.500000000000000000e+01,2.200000000000000000e+01,2.600000000000000000e+01,2.600000000000000000e+01,2.800000000000000000e+01,2.300000000000000000e+01,2.200000000000000000e+01,4.500000000000000111e-01,1.880685300000000000e+09
2.200000000000000000e+01,2.400000000000000000e+01,2.200000000000000000e+01,2.400000000000000000e+01,2.500000000000000000e+01,2.800000000000000000e+01,2.400000000000000000e+01,2.200000000000000000e+01,4.500000000000000111e-01,1.898589000000000000e+09
2.200000000000000000e+01,2.500000000000000000e+01,2.100000000000000000e+01,2.400000000000000000e+01,2.500000000000000000e+01,2.500000000000000000e+01,2.300000000000000000e+01,2.200000000000000000e+01,4.500000000000000111e-01,1.919627100000000000e+09
1.900000000000000000e+01,2.500000000000000000e+01,2.300000000000000000e+01,2.600000000000000000e+01,2.600000000000000000e+01,2.500000000000000000e+01,2.400000000000000000e+01,2.100000000000000000e+01,4.500000000000000111e-01,1.939984800000000000e+09
1.900000000000000000e+01,2.200000000000000000e+01,2.200000000000000000e+01,2.300000000000000000e+01,2.700000000000000000e+01,2.400000000000000000e+01,2.500000000000000000e+01,2.100000000000000000e+01,4.500000000000000111e-01,1.958753700000000000e+09
1.800000000000000000e+01,2.100000000000000000e+01,2.000000000000000000e+01,2.300000000000000000e+01,2.600000000000000000e+01,2.300000000000000000e+01,2.400000000000000000e+01,2.000000000000000000e+01,4.500000000000000111e-01,1.977465900000000000e+09
1.800000000000000000e+01,2.300000000000000000e+01,1.900000000000000000e+01,2.500000000000000000e+01,2.800000000000000000e+01,2.600000000000000000e+01,2.300000000000000000e+01,1.900000000000000000e+01,4.500000000000000111e-01,1.996013400000000000e+09
1.900000000000000000e+01,2.100000000000000000e+01,2.200000000000000000e+01,2.400000000000000000e+01,2.700000000000000000e+01,2.500000000000000000e+01,2.300000000000000000e+01,1.900000000000000000e+01,4.500000000000000111e-01,2.014603400000000000e+09
1.900000000000000000e+01,2.100000000000000000e+01,2.200000000000000000e+01,2.300000000000000000e+01,2.500000000000000000e+01,2.400000000000000000e+01,2.300000000000000000e+01,2.300000000000000000e+01,4.500000000000000111e-01,2.032712300000000000e+09
2.000000000000000000e+01,2.200000000000000000e+01,2.300000000000000000e+01,2.500000000000000000e+01,2.300000000000000000e+01,2.500000000000000000e+01,2.100000000000000000e+01,2.100000000000000000e+01,4.500000000000000111e-01,2.052091700000000000e+09
2.200000000000000000e+01,2.100000000000000000e+01,2.400000000000000000e+01,2.400000000000000000e+01,2.300000000000000000e+01,2.700000000000000000e+01,2.300000000000000000e+01,2.100000000000000000e+01,4.500000000000000111e-01,2.070372000000000000e+09
2.200000000000000000e+01,2.000000000000000000e+01,2.300000000000000000e+01,2.300000000000000000e+01,2.400000000000000000e+01,2.500000000000000000e+01,2.400000000000000000e+01,2.200000000000000000e+01,4.500000000000000111e-01,2.088466300000000000e+09
2.200000000000000000e+01,2.100000000000000000e+01,2.400000000000000000e+01,2.300000000000000000e+01,2.500000000000000000e+01,2.600000000000000000e+01,2.400000000000000000e+01,2.100000000000000000e+01,4.500000000000000111e-01,2.106867500000000000e+09
2.200000000000000000e+01,2.200000000000000000e+01,2.300000000000000000e+01,2.300000000000000000e+01,2.800000000000000000e+01,2.800000000000000000e+01,2.400000000000000000e+01,1.700000000000000000e+01,4.500000000000000111e-01,2.123647200000000000e+09
2.300000000000000000e+01,2.300000000000000000e+01,2.300000000000000000e+01,2.100000000000000000e+01,2.700000000000000000e+01,2.700000000000000000e+01,2.400000000000000000e+01,1.900000000000000000e+01,4.500000000000000111e-01,2.140874300000000000e+09
2.200000000000000000e+01,2.300000000000000000e+01,2.500000000000000000e+01,2.300000000000000000e+01,2.700000000000000000e+01,2.600000000000000000e+01,2.400000000000000000e+01,1.900000000000000000e+01,4.500000000000000111e-01,2.157852700000000000e+09
2.100000000000000000e+01,2.300000000000000000e+01,2.500000000000000000e+01,2.200000000000000000e+01,2.600000000000000000e+01,2.200000000000000000e+01,2.400000000000000000e+01,2.100000000000000000e+01,4.500000000000000111e-01,2.174499400000000000e+09
1.900000000000000000e+01,2.500000000000000000e+01,2.300000000000000000e+01,2.300000000000000000e+01,2.600000000000000000e+01,2.300000000000000000e+01,2.400000000000000000e+01,2.200000000000000000e+01,4.500000000000000111e-01,2.191551100000000000e+09
2.000000000000000000e+01,2.500000000000000000e+01,2.300000000000000000e+01,2.400000000000000000e+01,2.500000000000000000e+01,2.500000000000000000e+01,2.300000000000000000e+01,2.300000000000000000e+01,4.500000000000000111e-01,2.208875900000000000e+09
1.900000000000000000e+01,2.300000000000000000e+01,2.300000000000000000e+01,2.500000000000000000e+01,2.400000000000000000e+01,2.600000000000000000e+01,2.300000000000000000e+01,2.200000000000000000e+01,4.500000000000000111e-01,2.227013400000000000e+09
1.800000000000000000e+01,2.300000000000000000e+01,2.100000000000000000e+01,2.300000000000000000e+01,2.500000000000000000e+01,2.600000000000000000e+01,2.300000000000000000e+01,2.200000000000000000e+01,4.500000000000000111e-01,2.244403400000000000e+09
2.200000000000000000e+01,2.500000000000000000e+01,2.300000000000000000e+01,2.400000000000000000e+01,2.500000000000000000e+01,2.900000000000000000e+01,2.600000000000000000e+01,2.000000000000000000e+01,4.500000000000000111e-01,2.262230800000000000e+09
2.300000000000000000e+01,2.300000000000000000e+01,2.500000000000000000e+01,2.300000000000000000e+01,2.300000000000000000e+01,2.900000000000000000e+01,2.600000000000000000e+01,1.900000000000000000e+01,4.500000000000000111e-01,2.279211700000000000e+09
2.200000000000000000e+01,2.400000000000000000e+01,2.300000000000000000e+01,2.300000000000000000e+01,2.400000000000000000e+01,2.600000000000000000e+01,2.500000000000000000e+01,2.100000000000000000e+01,4.500000000000000111e-01,2.296550400000000000e+09
2.200000000000000000e+01,2.700000000000000000e+01,2.400000000000000000e+01,2.100000000000000000e+01,2.300000000000000000e+01,2.600000000000000000e+01,2.500000000000000000e+01,2.100000000000000000e+01,4.500000000000000111e-01,2.313738500000000000e+09
2.200000000000000000e+01,2.700000000000000000e+01,2.300000000000000000e+01,2.200000000000000000e+01,2.300000000000000000e+01,2.600000000000000000e+01,2.300000000000000000e+01,2.200000000000000000e+01,4.500000000000000111e-01,2.330665300000000000e+09
1.900000000000000000e+01,2.600000000000000000e+01,2.100000000000000000e+01,2.200000000000000000e+01,2.100000000000000000e+01,2.400000000000000000e+01,2.100000000000000000e+01,2.300000000000000000e+01,4.500000000000000111e-01,2.348283400000000000e+09
2.100000000000000000e+01,2.600000000000000000e+01,1.900000000000000000e+01,2.400000000000000000e+01,2.300000000000000000e+01,2.500000000000000000e+01,2.100000000000000000e+01,2.300000000000000000e+01,4.500000000000000111e-01,2.364942300000000000e+09
2.200000000000000000e+01,2.500000000000000000e+01,1.900000000000000000e+01,2.500000000000000000e+01,2.000000000000000000e+01,2.500000000000000000e+01,2.100000000000000000e+01,2.400000000000000000e+01,4.500000000000000111e-01,2.381790100000000000e+09
2.100000000000000000e+01,2.500000000000000000e+01,2.300000000000000000e+01,2.600000000000000000e+01,2.300000000000000000e+01,2.700000000000000000e+01,2.500000000000000000e+01,2.300000000000000000e+01,4.500000000000000111e-01,2.398814600000000000e+09
2.200000000000000000e+01,2.500000000000000000e+01,2.200000000000000000e+01,2.500000000000000000e+01,2.300000000000000000e+01,2.700000000000000000e+01,2.500000000000000000e+01,2.400000000000000000e+01,4.500000000000000111e-01,2.416312900000000000e+09
2.100000000000000000e+01,2.200000000000000000e+01,2.600000000000000000e+01,2.300000000000000000e+01,2.300000000000000000e+01,2.700000000000000000e+01,2.400000000000000000e+01,2.400000000000000000e+01,4.500000000000000111e-01,2.433221000000000000e+09
2.000000000000000000e+01,2.400000000000000000e+01,2.600000000000000000e+01,2.300000000000000000e+01,2.500000000000000000e+01,2.500000000000000000e+01,2.400000000000000000e+01,2.300000000000000000e+01,4.500000000000000111e-01,2.451483500000000000e+09
2.000000000000000000e+01,2.400000000000000000e+01,2.700000000000000000e+01,2.100000000000000000e+01,2.500000000000000000e+01,2.500000000000000000e+01,2.400000000000000000e+01,2.200000000000000000e+01,4.500000000000000111e-01,2.469374200000000000e+09
1.800000000000000000e+01,2.500000000000000000e+01,2.300000000000000000e+01,2.000000000000000000e+01,2.400000000000000000e+01,2.300000000000000000e+01,2.200000000000000000e+01,2.200000000000000000e+01,4.500000000000000111e-01,2.486741000000000000e+09
1.800000000000000000e+01,2.500000000000000000e+01,2.500000000000000000e+01,2.100000000000000000e+01,2.300000000000000000e+01,2.400000000000000000e+01,2.000000000000000000e+01,2.200000000000000000e+01,4.500000000000000111e-01,2.504642400000000000e+09
1.900000000000000000e+01,2.500000000000000000e+01,2.200000000000000000e+01,2.200000000000000000e+01,2.400000000000000000e+01,2.400000000000000000e+01,2.200000000000000000e+01,2.200000000000000000e+01,4.500000000000000111e-01,2.521386300000000000e+09
1.800000000000000000e+01,2.400000000000000000e+01,2.300000000000000000e+01,2.300000000000000000e+01,2.000000000000000000e+01,2.300000000000000000e+01,2.100000000000000000e+01,2.200000000000000000e+01,4.500000000000000111e-01,2.538719700000000000e+09
1.800000000000000000e+01,2.500000000000000000e+01,2.400000000000000000e+01,2.300000000000000000e+01,2.200000000000000000e+01,2.100000000000000000e+01,2.100000000000000000e+01,2.100000000000000000e+01,4.500000000000000111e-01,2.555129500000000000e+09
1.900000000000000000e+01,2.200000000000000000e+01,2.400000000000000000e+01,2.400000000000000000e+01,2.100000000000000000e+01,2.100000000000000000e+01,2.000000000000000000e+01,2.100000000000000000e+01,4.500000000000000111e-01,2.572578200000000000e+09
2.000000000000000000e+01,2.300000000000000000e+01,2.400000000000000000e+01,2.600000000000000000e+01,2.400000000000000000e+01,1.900000000000000000e+01,2.100000000000000000e+01,2.100000000000000000e+01,4.500000000000000111e-01,2.591151600000000000e+09
1.900000000000000000e+01,2.300000000000000000e+01,2.500000000000000000e+01,2.600000000000000000e+01,2.400000000000000000e+01,1.900000000000000000e+01,2.100000000000000000e+01,1.900000000000000000e+01,4.500000000000000111e-01,2.609466100000000000e+09
1.900000000000000000e+01,2.300000000000000000e+01,2.400000000000000000e+01,2.500000000000000000e+01,2.600000000000000000e+01,2.000000000000000000e+01,2.100000000000000000e+01,2.200000000000000000e+01,4.500000000000000111e-01,2.626585900000000000e+09
1.900000000000000000e+01,2.400000000000000000e+01,2.500000000000000000e+01,2.700000000000000000e+01,2.500000000000000000e+01,2.300000000000000000e+01,2.000000000000000000e+01,2.100000000000000000e+01,4.500000000000000111e-01,2.643478300000000000e+09
1.900000000000000000e+01,2.400000000000000000e+01,2.500000000000000000e+01,2.600000000000000000e+01,2.600000000000000000e+01,2.300000000000000000e+01,2.000000000000000000e+01,2.100000000000000000e+01,4.500000000000000111e-01,2.661690600000000000e+09
1.600000000000000000e+01,2.300000000000000000e+01,2.700000000000000000e+01,2.400000000000000000e+01,2.500000000000000000e+01,2.600000000000000000e+01,2.300000000000000000e+01,2.100000000000000000e+01,4.500000000000000111e-01,2.679350500000000000e+09
1.700000000000000000e+01,2.200000000000000000e+01,2.700000000000000000e+01,2.400000000000000000e+01,2.500000000000000000e+01,2.800000000000000000e+01,2.100000000000000000e+01,2.200000000000000000e+01,4.500000000000000111e-01,2.696091400000000000e+09
1.900000000000000000e+01,2.400000000000000000e+01,2.700000000000000000e+01,2.200000000000000000e+01,2.500000000000000000e+01,2.900000000000000000e+01,2.100000000000000000e+01,1.900000000000000000e+01,4.500000000000000111e-01,2.713051900000000000e+09
2.000000000000000000e+01,2.600000000000000000e+01,2.500000000000000000e+01,2.100000000000000000e+01,2.800000000000000000e+01,2.700000000000000000e+01,2.300000000000000000e+01,2.200000000000000000e+01,4.500000000000000111e-01,2.729960200000000000e+09
2.000000000000000000e+01,2.500000000000000000e+01,2.500000000000000000e+01,2.000000000000000000e+01,2.700000000000000000e+01,2.800000000000000000e+01,2.200000000000000000e+01,2.200000000000000000e+01,4.500000000000000111e-01,2.746598400000000000e+09
2.100000000000000000e+01,2.600000000000000000e+01,2.200000000000000000e+01,2.300000000000000000e+01,2.800000000000000000e+01,2.700000000000000000e+01,2.400000000000000000e+01,2.300000000000000000e+01,4.500000000000000111e-01,2.763381000000000000e+09
2.200000000000000000e+01,2.700000000000000000e+01,2.100000000000000000e+01,2.300000000000000000e+01,2.800000000000000000e+01,2.600000000000000000e+01,2.500000000000000000e+01,2.300000000000000000e+01,4.500000000000000111e-01,2.780077900000000000e+09
2.100000000000000000e+01,2.600000000000000000e+01,2.000000000000000000e+01,2.500000000000000000e+01,2.900000000000000000e+01,2.800000000000000000e+01,2.500000000000000000e+01,2.500000000000000000e+01,4.500000000000000111e-01,2.797143700000000000e+09
2.100000000000000000e+01,2.300000000000000000e+01,2.100000000000000000e+01,2.500000000000000000e+01,2.900000000000000000e+01,2.900000000000000000e+01,2.300000000000000000e+01,2.300000000000000000e+01,4.500000000000000111e-01,2.814779800000000000e+09
2.100000000000000000e+01,2.200000000000000000e+01,2.300000000000000000e+01,2.500000000000000000e+01,2.900000000000000000e+01,2.800000000000000000e+01,2.500000000000000000e+01,2.300000000000000000e+01,4.500000000000000111e-01,2.832595900000000000e+09
2.100000000000000000e+01,2.200000000000000000e+01,2.600000000000000000e+01,2.300000000000000000e+01,2.600000000000000000e+01,2.800000000000000000e+01,2.300000000000000000e+01,2.300000000000000000e+01,4.500000000000000111e-01,2.849928000000000000e+09
1.900000000000000000e+01,2.300000000000000000e+01,2.700000000000000000e+01,2.400000000000000000e+01,2.800000000000000000e+01,2.700000000000000000e+01,2.200000000000000000e+01,2.300000000000000000e+01,4.500000000000000111e-01,2.866916700000000000e+09
2.000000000000000000e+01,2.200000000000000000e+01,2.700000000000000000e+01,2.500000000000000000e+01,2.600000000000000000e+01,2.600000000000000000e+01,2.200000000000000000e+01,2.100000000000000000e+01,4.500000000000000111e-01,2.884410800000000000e+09
2.000000000000000000e+01,2.200000000000000000e+01,2.600000000000000000e+01,2.500000000000000000e+01,2.200000000000000000e+01,2.400000000000000000e+01,2.600000000000000000e+01,2.100000000000000000e+01,4.500000000000000111e-01,2.901193100000000000e+09
2.000000000000000000e+01,2.400000000000000000e+01,2.400000000000000000e+01,2.500000000000000000e+01,2.300000000000000000e+01,2.500000000000000000e+01,2.400000000000000000e+01,2.100000000000000000e+01,4.500000000000000111e-01,2.918321800000000000e+09
1.900000000000000000e+01,2.200000000000000000e+01,2.000000000000000000e+01,2.500000000000000000e+01,2.500000000000000000e+01,2.600000000000000000e+01,2.400000000000000000e+01,2.000000000000000000e+01,4.500000000000000111e-01,2.935427500000000000e+09
2.100000000000000000e+01,2.100000000000000000e+01,2.100000000000000000e+01,2.600000000000000000e+01,2.400000000000000000e+01,2.500000000000000000e+01,2.400000000000000000e+01,1.900000000000000000e+01,4.500000000000000111e-01,2.952623100000000000e+09
2.200000000000000000e+01,2.300000000000000000e+01,2.000000000000000000e+01,2.600000000000000000e+01,2.500000000000000000e+01,2.600000000000000000e+01,2.300000000000000000e+01,1.900000000000000000e+01,4.500000000000000111e-01,2.970846600000000000e+09
2.100000000000000000e+01,2.500000000000000000e+01,2.000000000000000000e+01,2.600000000000000000e+01,2.500000000000000000e+01,2.600000000000000000e+01,2.200000000000000000e+01,2.000000000000000000e+01,4.500000000000000111e-01,2.988851400000000000e+09
2.300000000000000000e+01,2.200000000000000000e+01,2.200000000000000000e+01,2.700000000000000000e+01,2.600000000000000000e+01,2.600000000000000000e+01,2.300000000000000000e+01,2.100000000000000000e+01,4.500000000000000111e-01,3.006850500000000000e+09
2.400000000000000000e+01,2.500000000000000000e+01,2.100000000000000000e+01,2.700000000000000000e+01,2.700000000000000000e+01,2.800000000000000000e+01,2.500000000000000000e+01,2.100000000000000000e+01,4.500000000000000111e-01,3.024644800000000000e+09
2.300000000000000000e+01,2.600000000000000000e+01,2.100000000000000000e+01,2.600000000000000000e+01,2.700000000000000000e+01,2.700000000000000000e+01,2.400000000000000000e+01,2.200000000000000000e+01,4.500000000000000111e-01,3.042067200000000000e+09
2.100000000000000000e+01,2.500000000000000000e+01,2.100000000000000000e+01,2.400000000000000000e+01,2.600000000000000000e+01,2.600000000000000000e+01,2.500000000000000000e+01,2.100000000000000000e+01,4.500000000000000111e-01,3.058610100000000000e+09
2.100000000000000000e+01,2.200000000000000000e+01,2.100000000000000000e+01,2.400000000000000000e+01,2.600000000000000000e+01,2.600000000000000000e+01,2.400000000000000000e+01,1.900000000000000000e+01,4.500000000000000111e-01,3.075365100000000000e+09
1.900000000000000000e+01,2.200000000000000000e+01,2.200000000000000000e+01,2.300000000000000000e+01,2.500000000000000000e+01,2.500000000000000000e+01,2.300000000000000000e+01,1.900000000000000000e+01,4.500000000000000111e-01,3.091627400000000000e+09
1.900000000000000000e+01,2.400000000000000000e+01,2.500000000000000000e+01,2.200000000000000000e+01,2.400000000000000000e+01,2.200000000000000000e+01,1.900000000000000000e+01,1.800000000000000000e+01,4.500000000000000111e-01,3.108831100000000000e+09
1.800000000000000000e+01,2.400000000000000000e+01,2.600000000000000000e+01,2.300000000000000000e+01,2.300000000000000000e+01,2.500000000000000000e+01,2.000000000000000000e+01,2.100000000000000000e+01,4.500000000000000111e-01,3.127924500000000000e+09
2.200000000000000000e+01,2.500000000000000000e+01,2.500000000000000000e+01,2.300000000000000000e+01,2.100000000000000000e+01,2.600000000000000000e+01,1.900000000000000000e+01,2.200000000000000000e+01,4.500000000000000111e-01,3.146481700000000000e+09
2.100000000000000000e+01,2.700000000000000000e+01,2.500000000000000000e+01,2.300000000000000000e+01,2.200000000000000000e+01,2.600000000000000000e+01,1.900000000000000000e+01,2.200000000000000000e+01,4.500000000000000111e-01,3.171446600000000000e+09
2.200000000000000000e+01,2.900000000000000000e+01,2.300000000000000000e+01,2.400000000000000000e+01,2.300000000000000000e+01,2.400000000000000000e+01,2.000000000000000000e+01,2.200000000000000000e+01,4.500000000000000111e-01,3.189669300000000000e+09
2.200000000000000000e+01,2.900000000000000000e+01,1.800000000000000000e+01,2.500000000000000000e+01,2.400000000000000000e+01,2.500000000000000000e+01,2.100000000000000000e+01,2.300000000000000000e+01,4.500000000000000111e-01,3.207017700000000000e+09
2.700000000000000000e+01,3.400000000000000000e+01,2.000000000000000000e+01,2.500000000000000000e+01,2.400000000000000000e+01,2.400000000000000000e+01,2.300000000000000000e+01,2.300000000000000000e+01,4.500000000000000111e-01,3.223938600000000000e+09
2.700000000000000000e+01,4.000000000000000000e+01,2.500000000000000000e+01,2.500000000000000000e+01,2.700000000000000000e+01,2.400000000000000000e+01,2.800000000000000000e+01,2.900000000000000000e+01,4.500000000000000111e-01,3.241582800000000000e+09
3.400000000000000000e+01,5.300000000000000000e+01,3.300000000000000000e+01,2.400000000000000000e+01,2.600000000000000000e+01,2.700000000000000000e+01,3.400000000000000000e+01,3.400000000000000000e+01,4.500000000000000111e-01,3.261840300000000000e+09
4.000000000000000000e+01,6.300000000000000000e+01,3.700000000000000000e+01,2.300000000000000000e+01,2.700000000000000000e+01,2.800000000000000000e+01,4.000000000000000000e+01,4.000000000000000000e+01,4.500000000000000111e-01,3.279688000000000000e+09
5.900000000000000000e+01,1.130000000000000000e+02,5.400000000000000000e+01,2.500000000000000000e+01,2.700000000000000000e+01,3.800000000000000000e+01,5.200000000000000000e+01,5.600000000000000000e+01,4.600000000000000200e-01,3.297005000000000000e+09
7.000000000000000000e+01,1.280000000000000000e+02,6.000000000000000000e+01,2.600000000000000000e+01,2.800000000000000000e+01,4.300000000000000000e+01,5.800000000000000000e+01,6.200000000000000000e+01,4.600000000000000200e-01,3.314802200000000000e+09
7.100000000000000000e+01,1.300000000000000000e+02,6.000000000000000000e+01,2.700000000000000000e+01,2.800000000000000000e+01,4.800000000000000000e+01,5.700000000000000000e+01,6.100000000000000000e+01,4.600000000000000200e-01,3.331559900000000000e+09
6.900000000000000000e+01,1.270000000000000000e+02,5.700000000000000000e+01,2.500000000000000000e+01,2.800000000000000000e+01,4.500000000000000000e+01,5.600000000000000000e+01,5.900000000000000000e+01,4.600000000000000200e-01,3.349067200000000000e+09
6.700000000000000000e+01,1.220000000000000000e+02,5.400000000000000000e+01,2.700000000000000000e+01,3.000000000000000000e+01,4.900000000000000000e+01,5.200000000000000000e+01,5.600000000000000000e+01,4.600000000000000200e-01,3.366889000000000000e+09
5.000000000000000000e+01,7.800000000000000000e+01,4.000000000000000000e+01,2.700000000000000000e+01,3.000000000000000000e+01,4.300000000000000000e+01,3.900000000000000000e+01,3.900000000000000000e+01,4.699999999999999734e-01,3.384551600000000000e+09
3.000000000000000000e+01,6.300000000000000000e+01,3.000000000000000000e+01,2.500000000000000000e+01,3.000000000000000000e+01,3.800000000000000000e+01,3.000000000000000000e+01,2.700000000000000000e+01,4.699999999999999734e-01,3.401910300000000000e+09
2.400000000000000000e+01,5.500000000000000000e+01,3.100000000000000000e+01,2.500000000000000000e+01,2.900000000000000000e+01,3.500000000000000000e+01,2.700000000000000000e+01,2.500000000000000000e+01,4.699999999999999734e-01,3.418392700000000000e+09
2.500000000000000000e+01,5.300000000000000000e+01,3.300000000000000000e+01,2.500000000000000000e+01,2.900000000000000000e+01,3.600000000000000000e+01,2.500000000000000000e+01,2.300000000000000000e+01,4.699999999999999734e-01,3.436251500000000000e+09
2.500000000000000000e+01,5.300000000000000000e+01,3.300000000000000000e+01,2.600000000000000000e+01,2.700000000000000000e+01,3.200000000000000000e+01,2.500000000000000000e+01,2.400000000000000000e+01,4.699999999999999734e-01,3.453440100000000000e+09
2.700000000000000000e+01,5.600000000000000000e+01,3.300000000000000000e+01,2.400000000000000000e+01,2.600000000000000000e+01,3.200000000000000000e+01,2.700000000000000000e+01,2.700000000000000000e+01,4.699999999999999734e-01,3.471634900000000000e+09
2.800000000000000000e+01,3.800000000000000000e+01,3.300000000000000000e+01,2.300000000000000000e+01,2.500000000000000000e+01,3.100000000000000000e+01,3.000000000000000000e+01,2.800000000000000000e+01,4.699999999999999734e-01,3.489498100000000000e+09
2.600000000000000000e+01,3.800000000000000000e+01,3.000000000000000000e+01,2.400000000000000000e+01,2.300000000000000000e+01,2.600000000000000000e+01,3.200000000000000000e+01,2.700000000000000000e+01,4.699999999999999734e-01,3.506435400000000000e+09
2.200000000000000000e+01,3.700000000000000000e+01,2.600000000000000000e+01,2.500000000000000000e+01,2.400000000000000000e+01,2.700000000000000000e+01,3.000000000000000000e+01,2.700000000000000000e+01,4.699999999999999734e-01,3.523273700000000000e+09
2.200000000000000000e+01,3.500000000000000000e+01,2.700000000000000000e+01,2.400000000000000000e+01,2.300000000000000000e+01,2.700000000000000000e+01,3.000000000000000000e+01,2.700000000000000000e+01,4.699999999999999734e-01,3.540095600000000000e+09
2.600000000000000000e+01,5.100000000000000000e+01,3.400000000000000000e+01,2.300000000000000000e+01,2.200000000000000000e+01,2.600000000000000000e+01,3.300000000000000000e+01,2.700000000000000000e+01,4.699999999999999734e-01,3.558248500000000000e+09
2.900000000000000000e+01,5.000000000000000000e+01,3.300000000000000000e+01,2.300000000000000000e+01,2.200000000000000000e+01,2.500000000000000000e+01,3.100000000000000000e+01,2.900000000000000000e+01,4.699999999999999734e-01,3.575146400000000000e+09
2.900000000000000000e+01,5.000000000000000000e+01,3.300000000000000000e+01,2.100000000000000000e+01,2.400000000000000000e+01,2.700000000000000000e+01,3.100000000000000000e+01,2.700000000000000000e+01,4.699999999999999734e-01,3.592540800000000000e+09
3.100000000000000000e+01,4.900000000000000000e+01,3.300000000000000000e+01,1.900000000000000000e+01,2.300000000000000000e+01,2.700000000000000000e+01,3.100000000000000000e+01,2.700000000000000000e+01,4.600000000000000200e-01,3.609794600000000000e+09
3.000000000000000000e+01,5.000000000000000000e+01,3.100000000000000000e+01,2.200000000000000000e+01,2.300000000000000000e+01,2.700000000000000000e+01,3.000000000000000000e+01,2.600000000000000000e+01,4.600000000000000200e-01,3.628248900000000000e+09
2.400000000000000000e+01,2.800000000000000000e+01,2.200000000000000000e+01,2.400000000000000000e+01,2.300000000000000000e+01,2.700000000000000000e+01,2.500000000000000000e+01,2.700000000000000000e+01,4.600000000000000200e-01,3.646112800000000000e+09
1.900000000000000000e+01,2.500000000000000000e+01,2.000000000000000000e+01,2.400000000000000000e+01,2.400000000000000000e+01,2.700000000000000000e+01,2.000000000000000000e+01,2.300000000000000000e+01,4.600000000000000200e-01,3.664218600000000000e+09
2.200000000000000000e+01,2.600000000000000000e+01,2.100000000000000000e+01,2.500000000000000000e+01,2.300000000000000000e+01,2.700000000000000000e+01,2.000000000000000000e+01,2.400000000000000000e+01,4.600000000000000200e-01,3.681403700000000000e+09
1.900000000000000000e+01,2.300000000000000000e+01,2.100000000000000000e+01,2.700000000000000000e+01,2.400000000000000000e+01,2.700000000000000000e+01,2.100000000000000000e+01,2.400000000000000000e+01,4.600000000000000200e-01,3.698889000000000000e+09
2.000000000000000000e+01,2.100000000000000000e+01,2.300000000000000000e+01,2.400000000000000000e+01,2.300000000000000000e+01,2.600000000000000000e+01,2.100000000000000000e+01,2.500000000000000000e+01,4.600000000000000200e-01,3.716693000000000000e+09
2.200000000000000000e+01,2.200000000000000000e+01,2.500000000000000000e+01,2.300000000000000000e+01,2.400000000000000000e+01,2.600000000000000000e+01,2.300000000000000000e+01,2.300000000000000000e+01,4.600000000000000200e-01,3.734379600000000000e+09
2.100000000000000000e+01,2.200000000000000000e+01,2.400000000000000000e+01,2.200000000000000000e+01,2.600000000000000000e+01,2.500000000000000000e+01,2.200000000000000000e+01,2.200000000000000000e+01,4.600000000000000200e-01,3.751811500000000000e+09
2.000000000000000000e+01,2.200000000000000000e+01,2.300000000000000000e+01,2.300000000000000000e+01,2.500000000000000000e+01,2.600000000000000000e+01,2.400000000000000000e+01,2.000000000000000000e+01,4.600000000000000200e-01,3.769159100000000000e+09
2.000000000000000000e+01,2.300000000000000000e+01,2.500000000000000000e+01,2.300000000000000000e+01,2.300000000000000000e+01,2.600000000000000000e+01,2.200000000000000000e+01,1.900000000000000000e+01,4.600000000000000200e-01,3.786581400000000000e+09
1.800000000000000000e+01,2.300000000000000000e+01,2.600000000000000000e+01,2.400000000000000000e+01,2.500000000000000000e+01,2.600000000000000000e+01,2.200000000000000000e+01,1.800000000000000000e+01,4.600000000000000200e-01,3.804200000000000000e+09
1.800000000000000000e+01,2.300000000000000000e+01,2.400000000000000000e+01,2.400000000000000000e+01,2.600000000000000000e+01,2.700000000000000000e+01,2.000000000000000000e+01,2.000000000000000000e+01,4.600000000000000200e-01,3.821928900000000000e+09
1.900000000000000000e+01,2.400000000000000000e+01,2.500000000000000000e+01,2.400000000000000000e+01,2.500000000000000000e+01,2.700000000000000000e+01,2.000000000000000000e+01,2.000000000000000000e+01,4.600000000000000200e-01,3.839609800000000000e+09
2.000000000000000000e+01,2.400000000000000000e+01,2.700000000000000000e+01,2.200000000000000000e+01,2.600000000000000000e+01,2.600000000000000000e+01,2.000000000000000000e+01,2.200000000000000000e+01,4.600000000000000200e-01,3.857258500000000000e+09
2.100000000000000000e+01,2.400000000000000000e+01,2.500000000000000000e+01,2.200000000000000000e+01,2.700000000000000000e+01,2.700000000000000000e+01,2.200000000000000000e+01,2.200000000000000000e+01,4.600000000000000200e-01,3.875596800000000000e+09
2.100000000000000000e+01,2.400000000000000000e+01,2.200000000000000000e+01,2.200000000000000000e+01,2.500000000000000000e+01,2.500000000000000000e+01,2.300000000000000000e+01,2.100000000000000000e+01,4.500000000000000111e-01,3.893437600000000000e+09
2.100000000000000000e+01,2.400000000000000000e+01,2.400000000000000000e+01,2.300000000000000000e+01,2.400000000000000000e+01,2.500000000000000000e+01,2.600000000000000000e+01,2.200000000000000000e+01,4.500000000000000111e-01,3.911637400000000000e+09
2.100000000000000000e+01,2.400000000000000000e+01,2.400000000000000000e+01,2.300000000000000000e+01,2.600000000000000000e+01,2.600000000000000000e+01,2.500000000000000000e+01,2.200000000000000000e+01,4.500000000000000111e-01,3.929862400000000000e+09
2.000000000000000000e+01,2.400000000000000000e+01,2.300000000000000000e+01,2.500000000000000000e+01,2.500000000000000000e+01,2.800000000000000000e+01,2.500000000000000000e+01,2.100000000000000000e+01,4.500000000000000111e-01,3.947863700000000000e+09
2.100000000000000000e+01,2.500000000000000000e+01,2.200000000000000000e+01,2.300000000000000000e+01,2.600000000000000000e+01,2.700000000000000000e+01,2.500000000000000000e+01,2.100000000000000000e+01,4.500000000000000111e-01,3.965979600000000000e+09
2.100000000000000000e+01,2.400000000000000000e+01,2.100000000000000000e+01,2.500000000000000000e+01,2.600000000000000000e+01,2.700000000000000000e+01,2.500000000000000000e+01,2.200000000000000000e+01,4.500000000000000111e-01,3.984710100000000000e+09
2.000000000000000000e+01,2.500000000000000000e+01,1.900000000000000000e+01,2.400000000000000000e+01,2.500000000000000000e+01,2.700000000000000000e+01,2.200000000000000000e+01,1.900000000000000000e+01,4.500000000000000111e-01,4.002006300000000000e+09
2.100000000000000000e+01,2.600000000000000000e+01,2.100000000000000000e+01,2.800000000000000000e+01,2.300000000000000000e+01,2.800000000000000000e+01,2.400000000000000000e+01,2.100000000000000000e+01,4.500000000000000111e-01,4.019634000000000000e+09
2.300000000000000000e+01,2.600000000000000000e+01,2.200000000000000000e+01,2.700000000000000000e+01,2.300000000000000000e+01,2.600000000000000000e+01,2.300000000000000000e+01,2.000000000000000000e+01,4.500000000000000111e-01,4.038222500000000000e+09
2.200000000000000000e+01,2.500000000000000000e+01,2.400000000000000000e+01,2.800000000000000000e+01,2.300000000000000000e+01,2.900000000000000000e+01,2.100000000000000000e+01,2.100000000000000000e+01,4.500000000000000111e-01,4.056600100000000000e+09
2.300000000000000000e+01,2.500000000000000000e+01,2.500000000000000000e+01,2.900000000000000000e+01,2.300000000000000000e+01,3.000000000000000000e+01,2.100000000000000000e+01,2.000000000000000000e+01,4.500000000000000111e-01,4.074630500000000000e+09
2.200000000000000000e+01,2.300000000000000000e+01,2.500000000000000000e+01,2.900000000000000000e+01,2.300000000000000000e+01,3.000000000000000000e+01,2.000000000000000000e+01,2.200000000000000000e+01,4.500000000000000111e-01,4.092600200000000000e+09
2.200000000000000000e+01,2.200000000000000000e+01,2.500000000000000000e+01,2.500000000000000000e+01,2.400000000000000000e+01,2.800000000000000000e+01,2.000000000000000000e+01,2.100000000000000000e+01,4.500000000000000111e-01,4.110947800000000000e+09
2.100000000000000000e+01,2.200000000000000000e+01,2.300000000000000000e+01,2.500000000000000000e+01,2.300000000000000000e+01,2.600000000000000000e+01,1.900000000000000000e+01,2.200000000000000000e+01,4.500000000000000111e-01,4.129093700000000000e+09
2.200000000000000000e+01,2.100000000000000000e+01,2.100000000000000000e+01,2.400000000000000000e+01,2.300000000000000000e+01,2.500000000000000000e+01,2.300000000000000000e+01,2.200000000000000000e+01,4.500000000000000111e-01,4.146815700000000000e+09
2.200000000000000000e+01,2.200000000000000000e+01,2.100000000000000000e+01,2.300000000000000000e+01,2.400000000000000000e+01,2.500000000000000000e+01,2.300000000000000000e+01,2.200000000000000000e+01,4.500000000000000111e-01,4.164631200000000000e+09
2.300000000000000000e+01,2.200000000000000000e+01,2.100000000000000000e+01,2.500000000000000000e+01,2.600000000000000000e+01,2.500000000000000000e+01,2.500000000000000000e+01,2.000000000000000000e+01,4.500000000000000111e-01,4.181901300000000000e+09
2.400000000000000000e+01,2.300000000000000000e+01,2.200000000000000000e+01,2.600000000000000000e+01,2.700000000000000000e+01,2.600000000000000000e+01,2.400000000000000000e+01,2.000000000000000000e+01,4.500000000000000111e-01,4.201182500000000000e+09
2.200000000000000000e+01,2.500000000000000000e+01,2.200000000000000000e+01,2.700000000000000000e+01,3.000000000000000000e+01,2.800000000000000000e+01,2.500000000000000000e+01,2.000000000000000000e+01,4.500000000000000111e-01,4.219941700000000000e+09
2.300000000000000000e+01,2.400000000000000000e+01,2.300000000000000000e+01,2.800000000000000000e+01,3.100000000000000000e+01,2.600000000000000000e+01,2.200000000000000000e+01,1.800000000000000000e+01,4.500000000000000111e-01,4.241403600000000000e+09
2.200000000000000000e+01,2.400000000000000000e+01,2.200000000000000000e+01,2.600000000000000000e+01,3.100000000000000000e+01,2.500000000000000000e+01,2.200000000000000000e+01,1.800000000000000000e+01,4.500000000000000111e-01,4.265579100000000000e+09
2.300000000000000000e+01,2.400000000000000000e+01,2.300000000000000000e+01,2.400000000000000000e+01,2.900000000000000000e+01,2.600000000000000000e+01,2.000000000000000000e+01,1.900000000000000000e+01,4.500000000000000111e-01,4.285505600000000000e+09
2.200000000000000000e+01,2.200000000000000000e+01,2.200000000000000000e+01,2.500000000000000000e+01,2.800000000000000000e+01,2.500000000000000000e+01,2.100000000000000000e+01,2.000000000000000000e+01,4.500000000000000111e-01,4.310421800000000000e+09
2.500000000000000000e+01,2.200000000000000000e+01,2.300000000000000000e+01,2.600000000000000000e+01,2.600000000000000000e+01,2.500000000000000000e+01,2.000000000000000000e+01,1.900000000000000000e+01,4.500000000000000111e-01,4.329002700000000000e+09
2.300000000000000000e+01,2.200000000000000000e+01,2.400000000000000000e+01,2.500000000000000000e+01,2.500000000000000000e+01,2.800000000000000000e+01,2.300000000000000000e+01,2.000000000000000000e+01,4.500000000000000111e-01,4.346689300000000000e+09
2.500000000000000000e+01,2.200000000000000000e+01,2.500000000000000000e+01,2.500000000000000000e+01,2.400000000000000000e+01,2.800000000000000000e+01,2.200000000000000000e+01,2.200000000000000000e+01,4.500000000000000111e-01,4.365029300000000000e+09
2.300000000000000000e+01,2.100000000000000000e+01,2.400000000000000000e+01,2.600000000000000000e+01,2.500000000000000000e+01,2.700000000000000000e+01,2.200000000000000000e+01,2.100000000000000000e+01,4.500000000000000111e-01,4.383083400000000000e+09
2.400000000000000000e+01,2.400000000000000000e+01,2.700000000000000000e+01,3.000000000000000000e+01,3.700000000000000000e+01,3.300000000000000000e+01,2.500000000000000000e+01,2.300000000000000000e+01,4.500000000000000111e-01,4.402937000000000000e+09
2.200000000000000000e+01,2.300000000000000000e+01,2.600000000000000000e+01,3.200000000000000000e+01,4.700000000000000000e+01,3.700000000000000000e+01,2.700000000000000000e+01,2.300000000000000000e+01,4.500000000000000111e-01,4.422738400000000000e+09
2.400000000000000000e+01,2.200000000000000000e+01,2.500000000000000000e+01,3.700000000000000000e+01,6.900000000000000000e+01,4.400000000000000000e+01,2.700000000000000000e+01,2.300000000000000000e+01,4.500000000000000111e-01,4.440877200000000000e+09
2.400000000000000000e+01,2.200000000000000000e+01,2.600000000000000000e+01,3.900000000000000000e+01,7.200000000000000000e+01,5.000000000000000000e+01,2.900000000000000000e+01,2.200000000000000000e+01,4.500000000000000111e-01,4.463171200000000000e+09
2.600000000000000000e+01,2.600000000000000000e+01,2.800000000000000000e+01,4.000000000000000000e+01,7.800000000000000000e+01,5.400000000000000000e+01,3.100000000000000000e+01,2.400000000000000000e+01,4.500000000000000111e-01,4.485231800000000000e+09
2.400000000000000000e+01,2.400000000000000000e+01,2.600000000000000000e+01,3.600000000000000000e+01,7.700000000000000000e+01,5.700000000000000000e+01,2.800000000000000000e+01,2.100000000000000000e+01,4.500000000000000111e-01,4.503350400000000000e+09
2.600000000000000000e+01,2.800000000000000000e+01,3.000000000000000000e+01,4.000000000000000000e+01,8.600000000000000000e+01,5.600000000000000000e+01,2.900000000000000000e+01,2.300000000000000000e+01,4.500000000000000111e-01,4.521884100000000000e+09
2.600000000000000000e+01,2.800000000000000000e+01,3.300000000000000000e+01,4.700000000000000000e+01,8.300000000000000000e+01,5.700000000000000000e+01,3.000000000000000000e+01,2.200000000000000000e+01,4.500000000000000111e-01,4.540853300000000000e+09
2.700000000000000000e+01,2.900000000000000000e+01,3.300000000000000000e+01,4.900000000000000000e+01,9.400000000000000000e+01,6.000000000000000000e+01,3.100000000000000000e+01,2.400000000000000000e+01,4.500000000000000111e-01,4.562972200000000000e+09
2.500000000000000000e+01,2.800000000000000000e+01,3.100000000000000000e+01,5.200000000000000000e+01,9.500000000000000000e+01,6.100000000000000000e+01,3.000000000000000000e+01,2.200000000000000000e+01,4.500000000000000111e-01,4.585379300000000000e+09
2.600000000000000000e+01,2.900000000000000000e+01,3.500000000000000000e+01,5.900000000000000000e+01,1.020000000000000000e+02,6.200000000000000000e+01,3.300000000000000000e+01,2.500000000000000000e+01,4.400000000000000022e-01,4.602936700000000000e+09
2.700000000000000000e+01,2.800000000000000000e+01,4.100000000000000000e+01,6.000000000000000000e+01,9.000000000000000000e+01,6.200000000000000000e+01,3.400000000000000000e+01,2.500000000000000000e+01,4.400000000000000022e-01,4.626426000000000000e+09
2.700000000000000000e+01,2.800000000000000000e+01,4.000000000000000000e+01,5.700000000000000000e+01,8.500000000000000000e+01,5.800000000000000000e+01,3.200000000000000000e+01,2.500000000000000000e+01,4.400000000000000022e-01,4.645453200000000000e+09
2.800000000000000000e+01,2.900000000000000000e+01,4.600000000000000000e+01,6.100000000000000000e+01,9.000000000000000000e+01,6.300000000000000000e+01,3.500000000000000000e+01,2.700000000000000000e+01,4.400000000000000022e-01,4.663747000000000000e+09
2.800000000000000000e+01,2.800000000000000000e+01,4.700000000000000000e+01,5.900000000000000000e+01,8.900000000000000000e+01,6.400000000000000000e+01,3.500000000000000000e+01,2.700000000000000000e+01,4.400000000000000022e-01,4.685237400000000000e+09
2.700000000000000000e+01,2.900000000000000000e+01,4.900000000000000000e+01,6.000000000000000000e+01,9.400000000000000000e+01,6.300000000000000000e+01,3.500000000000000000e+01,2.500000000000000000e+01,4.400000000000000022e-01,4.703591200000000000e+09
2.600000000000000000e+01,2.800000000000000000e+01,4.500000000000000000e+01,6.400000000000000000e+01,1.010000000000000000e+02,6.600000000000000000e+01,3.500000000000000000e+01,2.500000000000000000e+01,4.400000000000000022e-01,4.721905100000000000e+09
2.500000000000000000e+01,3.000000000000000000e+01,4.700000000000000000e+01,6.200000000000000000e+01,9.700000000000000000e+01,6.800000000000000000e+01,3.700000000000000000e+01,2.600000000000000000e+01,4.500000000000000111e-01,4.741805500000000000e+09
2.200000000000000000e+01,3.000000000000000000e+01,4.500000000000000000e+01,6.500000000000000000e+01,8.900000000000000000e+01,6.100000000000000000e+01,3.200000000000000000e+01,2.400000000000000000e+01,4.500000000000000111e-01,4.763051400000000000e+09
2.300000000000000000e+01,3.100000000000000000e+01,4.800000000000000000e+01,6.600000000000000000e+01,8.900000000000000000e+01,5.900000000000000000e+01,3.200000000000000000e+01,2.500000000000000000e+01,4.500000000000000111e-01,4.785157500000000000e+09
2.200000000000000000e+01,2.600000000000000000e+01,4.300000000000000000e+01,5.900000000000000000e+01,7.600000000000000000e+01,5.400000000000000000e+01,2.700000000000000000e+01,2.400000000000000000e+01,4.500000000000000111e-01,4.803845400000000000e+09
2.300000000000000000e+01,2.600000000000000000e+01,4.100000000000000000e+01,5.300000000000000000e+01,7.000000000000000000e+01,5.100000000000000000e+01,2.600000000000000000e+01,2.400000000000000000e+01,4.500000000000000111e-01,4.822452400000000000e+09
2.200000000000000000e+01,2.600000000000000000e+01,4.400000000000000000e+01,5.700000000000000000e+01,6.900000000000000000e+01,4.600000000000000000e+01,2.400000000000000000e+01,2.400000000000000000e+01,4.500000000000000111e-01,4.840814400000000000e+09
2.400000000000000000e+01,2.700000000000000000e+01,4.000000000000000000e+01,4.700000000000000000e+01,6.000000000000000000e+01,4.300000000000000000e+01,2.500000000000000000e+01,2.400000000000000000e+01,4.500000000000000111e-01,4.862768500000000000e+09
2.400000000000000000e+01,2.800000000000000000e+01,3.700000000000000000e+01,5.000000000000000000e+01,6.300000000000000000e+01,4.300000000000000000e+01,2.400000000000000000e+01,2.200000000000000000e+01,4.500000000000000111e-01,4.885087300000000000e+09
2.500000000000000000e+01,3.100000000000000000e+01,4.300000000000000000e+01,5.700000000000000000e+01,6.400000000000000000e+01,4.700000000000000000e+01,2.700000000000000000e+01,2.400000000000000000e+01,4.500000000000000111e-01,4.904113700000000000e+09
2.400000000000000000e+01,3.000000000000000000e+01,4.200000000000000000e+01,5.600000000000000000e+01,7.300000000000000000e+01,5.000000000000000000e+01,2.800000000000000000e+01,2.200000000000000000e+01,4.600000000000000200e-01,4.922296800000000000e+09
2.500000000000000000e+01,2.900000000000000000e+01,3.800000000000000000e+01,5.200000000000000000e+01,7.500000000000000000e+01,5.200000000000000000e+01,2.800000000000000000e+01,2.400000000000000000e+01,4.600000000000000200e-01,4.940782400000000000e+09
2.300000000000000000e+01,3.000000000000000000e+01,4.600000000000000000e+01,6.600000000000000000e+01,8.000000000000000000e+01,5.500000000000000000e+01,3.100000000000000000e+01,2.300000000000000000e+01,4.600000000000000200e-01,4.963092000000000000e+09
2.300000000000000000e+01,3.000000000000000000e+01,4.500000000000000000e+01,6.400000000000000000e+01,7.300000000000000000e+01,5.300000000000000000e+01,3.200000000000000000e+01,2.300000000000000000e+01,4.600000000000000200e-01,4.985303700000000000e+09
2.200000000000000000e+01,3.100000000000000000e+01,4.100000000000000000e+01,5.800000000000000000e+01,6.700000000000000000e+01,4.800000000000000000e+01,3.100000000000000000e+01,2.200000000000000000e+01,4.600000000000000200e-01,5.004490300000000000e+09
2.100000000000000000e+01,3.100000000000000000e+01,4.000000000000000000e+01,5.500000000000000000e+01,5.600000000000000000e+01,4.200000000000000000e+01,3.000000000000000000e+01,2.400000000000000000e+01,4.600000000000000200e-01,5.022469600000000000e+09
2.200000000000000000e+01,3.200000000000000000e+01,4.300000000000000000e+01,5.400000000000000000e+01,5.600000000000000000e+01,4.200000000000000000e+01,3.000000000000000000e+01,2.200000000000000000e+01,4.600000000000000200e-01,5.041841900000000000e+09
2.000000000000000000e+01,3.000000000000000000e+01,3.300000000000000000e+01,3.400000000000000000e+01,4.300000000000000000e+01,3.500000000000000000e+01,2.500000000000000000e+01,2.200000000000000000e+01,4.600000000000000200e-01,5.064402200000000000e+09
1.900000000000000000e+01,2.900000000000000000e+01,3.800000000000000000e+01,3.100000000000000000e+01,4.100000000000000000e+01,3.300000000000000000e+01,2.300000000000000000e+01,2.300000000000000000e+01,4.600000000000000200e-01,5.083159800000000000e+09
2.100000000000000000e+01,2.800000000000000000e+01,3.600000000000000000e+01,3.000000000000000000e+01,4.100000000000000000e+01,3.300000000000000000e+01,2.100000000000000000e+01,2.200000000000000000e+01,4.600000000000000200e-01,5.104106100000000000e+09
2.200000000000000000e+01,2.700000000000000000e+01,3.600000000000000000e+01,3.000000000000000000e+01,3.700000000000000000e+01,3.300000000000000000e+01,2.300000000000000000e+01,2.100000000000000000e+01,4.600000000000000200e-01,5.122849700000000000e+09
2.200000000000000000e+01,2.500000000000000000e+01,3.200000000000000000e+01,2.900000000000000000e+01,2.900000000000000000e+01,2.900000000000000000e+01,2.200000000000000000e+01,2.200000000000000000e+01,4.600000000000000200e-01,5.143090300000000000e+09
2.400000000000000000e+01,2.500000000000000000e+01,3.500000000000000000e+01,3.000000000000000000e+01,3.100000000000000000e+01,2.800000000000000000e+01,2.200000000000000000e+01,2.200000000000000000e+01,4.600000000000000200e-01,5.165277800000000000e+09
2.600000000000000000e+01,2.400000000000000000e+01,2.800000000000000000e+01,2.700000000000000000e+01,3.100000000000000000e+01,2.900000000000000000e+01,2.200000000000000000e+01,2.000000000000000000e+01,4.600000000000000200e-01,5.183466400000000000e+09
2.500000000000000000e+01,2.400000000000000000e+01,2.800000000000000000e+01,2.700000000000000000e+01,3.000000000000000000e+01,2.800000000000000000e+01,2.400000000000000000e+01,2.100000000000000000e+01,4.600000000000000200e-01,5.202828800000000000e+09
2.500000000000000000e+01,2.400000000000000000e+01,2.900000000000000000e+01,2.600000000000000000e+01,2.800000000000000000e+01,2.700000000000000000e+01,2.100000000000000000e+01,2.100000000000000000e+01,4.600000000000000200e-01,5.222180400000000000e+09
2.300000000000000000e+01,2.400000000000000000e+01,2.800000000000000000e+01,2.500000000000000000e+01,3.000000000000000000e+01,2.700000000000000000e+01,2.300000000000000000e+01,1.900000000000000000e+01,4.600000000000000200e-01,5.242959100000000000e+09
2.300000000000000000e+01,2.500000000000000000e+01,2.400000000000000000e+01,2.400000000000000000e+01,2.600000000000000000e+01,2.500000000000000000e+01,2.300000000000000000e+01,2.000000000000000000e+01,4.600000000000000200e-01,5.265184700000000000e+09
2.100000000000000000e+01,2.600000000000000000e+01,2.300000000000000000e+01,2.300000000000000000e+01,2.400000000000000000e+01,2.500000000000000000e+01,2.300000000000000000e+01,2.000000000000000000e+01,4.600000000000000200e-01,5.284104000000000000e+09
2.100000000000000000e+01,2.500000000000000000e+01,2.400000000000000000e+01,2.400000000000000000e+01,2.600000000000000000e+01,2.600000000000000000e+01,2.400000000000000000e+01,1.900000000000000000e+01,4.600000000000000200e-01,5.303993400000000000e+09
2.200000000000000000e+01,2.600000000000000000e+01,2.200000000000000000e+01,2.500000000000000000e+01,2.700000000000000000e+01,2.700000000000000000e+01,2.400000000000000000e+01,2.000000000000000000e+01,4.600000000000000200e-01,5.325005200000000000e+09
2.400000000000000000e+01,2.500000000000000000e+01,2.500000000000000000e+01,2.600000000000000000e+01,2.700000000000000000e+01,2.800000000000000000e+01,2.300000000000000000e+01,2.200000000000000000e+01,4.600000000000000200e-01,5.346360900000000000e+09
2.500000000000000000e+01,2.500000000000000000e+01,2.500000000000000000e+01,2.400000000000000000e+01,2.700000000000000000e+01,2.500000000000000000e+01,2.400000000000000000e+01,2.100000000000000000e+01,4.600000000000000200e-01,5.365369200000000000e+09
2.400000000000000000e+01,2.400000000000000000e+01,2.500000000000000000e+01,2.500000000000000000e+01,2.700000000000000000e+01,2.500000000000000000e+01,2.300000000000000000e+01,2.200000000000000000e+01,4.600000000000000200e-01,5.387655600000000000e+09
2.400000000000000000e+01,2.500000000000000000e+01,2.400000000000000000e+01,2.300000000000000000e+01,2.600000000000000000e+01,2.500000000000000000e+01,2.300000000000000000e+01,2.300000000000000000e+01,4.500000000000000111e-01,5.406129200000000000e+09
2.300000000000000000e+01,2.600000000000000000e+01,2.400000000000000000e+01,2.500000000000000000e+01,2.700000000000000000e+01,2.400000000000000000e+01,2.300000000000000000e+01,2.200000000000000000e+01,4.500000000000000111e-01,5.427268200000000000e+09
2.100000000000000000e+01,2.500000000000000000e+01,2.100000000000000000e+01,2.300000000000000000e+01,2.600000000000000000e+01,2.400000000000000000e+01,2.200000000000000000e+01,2.200000000000000000e+01,4.500000000000000111e-01,5.446214900000000000e+09
1.900000000000000000e+01,2.400000000000000000e+01,2.100000000000000000e+01,2.500000000000000000e+01,2.600000000000000000e+01,2.600000000000000000e+01,2.400000000000000000e+01,2.200000000000000000e+01,4.500000000000000111e-01,5.466339900000000000e+09
2.000000000000000000e+01,2.300000000000000000e+01,2.400000000000000000e+01,2.300000000000000000e+01,2.600000000000000000e+01,2.500000000000000000e+01,2.400000000000000000e+01,2.200000000000000000e+01,4.500000000000000111e-01,5.484852100000000000e+09
1.900000000000000000e+01,2.200000000000000000e+01,2.400000000000000000e+01,2.500000000000000000e+01,2.600000000000000000e+01,2.500000000000000000e+01,2.200000000000000000e+01,2.200000000000000000e+01,4.500000000000000111e-01,5.502825300000000000e+09
1.800000000000000000e+01,2.200000000000000000e+01,2.400000000000000000e+01,2.400000000000000000e+01,2.500000000000000000e+01,2.500000000000000000e+01,2.300000000000000000e+01,2.200000000000000000e+01,4.500000000000000111e-01,5.521374100000000000e+09
2.100000000000000000e+01,2.400000000000000000e+01,2.400000000000000000e+01,2.600000000000000000e+01,2.600000000000000000e+01,2.600000000000000000e+01,2.300000000000000000e+01,2.300000000000000000e+01,4.500000000000000111e-01,5.540450000000000000e+09
2.100000000000000000e+01,2.600000000000000000e+01,2.600000000000000000e+01,2.800000000000000000e+01,2.600000000000000000e+01,2.500000000000000000e+01,2.100000000000000000e+01,2.300000000000000000e+01,4.500000000000000111e-01,5.562598300000000000e+09
2.200000000000000000e+01,2.500000000000000000e+01,2.300000000000000000e+01,2.900000000000000000e+01,2.600000000000000000e+01,2.600000000000000000e+01,2.200000000000000000e+01,2.300000000000000000e+01,4.500000000000000111e-01,5.584891400000000000e+09
2.100000000000000000e+01,2.700000000000000000e+01,2.200000000000000000e+01,2.900000000000000000e+01,3.200000000000000000e+01,2.600000000000000000e+01,2.400000000000000000e+01,2.400000000000000000e+01,4.500000000000000111e-01,5.604703900000000000e+09
2.200000000000000000e+01,2.600000000000000000e+01,2.400000000000000000e+01,2.700000000000000000e+01,3.200000000000000000e+01,2.700000000000000000e+01,2.300000000000000000e+01,2.300000000000000000e+01,4.500000000000000111e-01,5.622524100000000000e+09
2.000000000000000000e+01,2.500000000000000000e+01,2.400000000000000000e+01,2.500000000000000000e+01,3.000000000000000000e+01,3.100000000000000000e+01,2.400000000000000000e+01,2.100000000000000000e+01,4.500000000000000111e-01,5.640955400000000000e+09
2.100000000000000000e+01,2.400000000000000000e+01,2.200000000000000000e+01,2.500000000000000000e+01,3.000000000000000000e+01,3.200000000000000000e+01,2.300000000000000000e+01,2.300000000000000000e+01,4.500000000000000111e-01,5.662620300000000000e+09
1.900000000000000000e+01,2.500000000000000000e+01,2.300000000000000000e+01,2.400000000000000000e+01,3.200000000000000000e+01,3.400000000000000000e+01,2.300000000000000000e+01,2.500000000000000000e+01,4.500000000000000111e-01,5.684780200000000000e+09
2.100000000000000000e+01,2.500000000000000000e+01,2.400000000000000000e+01,2.400000000000000000e+01,2.700000000000000000e+01,3.300000000000000000e+01,2.200000000000000000e+01,2.400000000000000000e+01,4.500000000000000111e-01,5.702850900000000000e+09
2.200000000000000000e+01,2.500000000000000000e+01,2.400000000000000000e+01,2.700000000000000000e+01,2.900000000000000000e+01,3.200000000000000000e+01,2.200000000000000000e+01,2.500000000000000000e+01,4.500000000000000111e-01,5.722022100000000000e+09
2.100000000000000000e+01,2.500000000000000000e+01,2.500000000000000000e+01,2.600000000000000000e+01,3.000000000000000000e+01,2.900000000000000000e+01,2.300000000000000000e+01,2.500000000000000000e+01,4.500000000000000111e-01,5.740352600000000000e+09
2.300000000000000000e+01,2.400000000000000000e+01,2.300000000000000000e+01,2.400000000000000000e+01,3.200000000000000000e+01,3.200000000000000000e+01,2.600000000000000000e+01,2.400000000000000000e+01,4.500000000000000111e-01,5.762649600000000000e+09
2.300000000000000000e+01,2.300000000000000000e+01,2.400000000000000000e+01,2.200000000000000000e+01,3.100000000000000000e+01,3.000000000000000000e+01,2.500000000000000000e+01,2.000000000000000000e+01,4.500000000000000111e-01,5.784999400000000000e+09
2.300000000000000000e+01,2.400000000000000000e+01,2.100000000000000000e+01,2.500000000000000000e+01,3.100000000000000000e+01,3.200000000000000000e+01,2.700000000000000000e+01,2.100000000000000000e+01,4.500000000000000111e-01,5.805989200000000000e+09
2.300000000000000000e+01,2.500000000000000000e+01,2.000000000000000000e+01,2.200000000000000000e+01,3.000000000000000000e+01,3.200000000000000000e+01,2.600000000000000000e+01,2.100000000000000000e+01,4.500000000000000111e-01,5.825816800000000000e+09
2.400000000000000000e+01,2.400000000000000000e+01,1.900000000000000000e+01,2.300000000000000000e+01,3.300000000000000000e+01,3.000000000000000000e+01,2.500000000000000000e+01,2.000000000000000000e+01,4.500000000000000111e-01,5.844200000000000000e+09
2.200000000000000000e+01,2.600000000000000000e+01,2.400000000000000000e+01,2.600000000000000000e+01,3.600000000000000000e+01,3.300000000000000000e+01,2.300000000000000000e+01,2.200000000000000000e+01,4.500000000000000111e-01,5.864426600000000000e+09
2.400000000000000000e+01,2.600000000000000000e+01,2.300000000000000000e+01,2.700000000000000000e+01,3.800000000000000000e+01,3.300000000000000000e+01,2.400000000000000000e+01,2.200000000000000000e+01,4.500000000000000111e-01,5.884792100000000000e+09
2.300000000000000000e+01,2.500000000000000000e+01,2.500000000000000000e+01,2.700000000000000000e+01,3.900000000000000000e+01,3.200000000000000000e+01,2.300000000000000000e+01,2.200000000000000000e+01,4.500000000000000111e-01,5.903302700000000000e+09
2.200000000000000000e+01,2.500000000000000000e+01,2.600000000000000000e+01,2.900000000000000000e+01,4.100000000000000000e+01,3.100000000000000000e+01,2.500000000000000000e+01,2.100000000000000000e+01,4.500000000000000111e-01,5.923324200000000000e+09
2.100000000000000000e+01,2.600000000000000000e+01,2.600000000000000000e+01,3.000000000000000000e+01,3.800000000000000000e+01,3.100000000000000000e+01,2.500000000000000000e+01,2.200000000000000000e+01,4.500000000000000111e-01,5.941062300000000000e+09
2.100000000000000000e+01,2.600000000000000000e+01,2.300000000000000000e+01,2.500000000000000000e+01,3.300000000000000000e+01,2.500000000000000000e+01,2.400000000000000000e+01,2.100000000000000000e+01,4.500000000000000111e-01,5.962584100000000000e+09
2.000000000000000000e+01,2.600000000000000000e+01,2.400000000000000000e+01,2.600000000000000000e+01,3.100000000000000000e+01,2.500000000000000000e+01,2.300000000000000000e+01,2.100000000000000000e+01,4.500000000000000111e-01,5.984674600000000000e+09
2.000000000000000000e+01,2.600000000000000000e+01,2.200000000000000000e+01,2.400000000000000000e+01,3.000000000000000000e+01,2.500000000000000000e+01,2.200000000000000000e+01,2.100000000000000000e+01,4.500000000000000111e-01,6.004514600000000000e+09
2.000000000000000000e+01,2.500000000000000000e+01,2.100000000000000000e+01,2.100000000000000000e+01,2.700000000000000000e+01,2.600000000000000000e+01,2.300000000000000000e+01,2.200000000000000000e+01,4.500000000000000111e-01,6.023600000000000000e+09
1.900000000000000000e+01,2.500000000000000000e+01,2.000000000000000000e+01,2.100000000000000000e+01,2.700000000000000000e+01,2.800000000000000000e+01,2.200000000000000000e+01,2.200000000000000000e+01,4.500000000000000111e-01,6.042216300000000000e+09
2.000000000000000000e+01,2.500000000000000000e+01,2.200000000000000000e+01,2.600000000000000000e+01,2.900000000000000000e+01,2.600000000000000000e+01,2.200000000000000000e+01,2.100000000000000000e+01,4.500000000000000111e-01,6.062386200000000000e+09
1.900000000000000000e+01,2.700000000000000000e+01,2.200000000000000000e+01,2.600000000000000000e+01,3.000000000000000000e+01,3.100000000000000000e+01,2.300000000000000000e+01,2.300000000000000000e+01,4.500000000000000111e-01,6.084708300000000000e+09
1.800000000000000000e+01,2.500000000000000000e+01,2.300000000000000000e+01,2.500000000000000000e+01,2.600000000000000000e+01,2.900000000000000000e+01,2.100000000000000000e+01,2.300000000000000000e+01,4.500000000000000111e-01,6.103683100000000000e+09
1.800000000000000000e+01,2.600000000000000000e+01,2.400000000000000000e+01,2.700000000000000000e+01,2.600000000000000000e+01,2.900000000000000000e+01,2.000000000000000000e+01,2.200000000000000000e+01,4.500000000000000111e-01,6.122109300000000000e+09
1.800000000000000000e+01,2.500000000000000000e+01,2.300000000000000000e+01,2.800000000000000000e+01,2.400000000000000000e+01,2.800000000000000000e+01,1.900000000000000000e+01,2.100000000000000000e+01,4.500000000000000111e-01,6.140873300000000000e+09
1.800000000000000000e+01,2.500000000000000000e+01,2.200000000000000000e+01,2.700000000000000000e+01,2.400000000000000000e+01,2.800000000000000000e+01,2.300000000000000000e+01,2.200000000000000000e+01,4.500000000000000111e-01,6.162318100000000000e+09
1.800000000000000000e+01,2.100000000000000000e+01,2.200000000000000000e+01,2.600000000000000000e+01,2.400000000000000000e+01,2.300000000000000000e+01,2.200000000000000000e+01,2.000000000000000000e+01,4.500000000000000111e-01,6.184836900000000000e+09
1.900000000000000000e+01,2.300000000000000000e+01,2.200000000000000000e+01,3.000000000000000000e+01,2.600000000000000000e+01,2.600000000000000000e+01,2.600000000000000000e+01,1.900000000000000000e+01,4.500000000000000111e-01,6.203847000000000000e+09
2.000000000000000000e+01,2.300000000000000000e+01,2.100000000000000000e+01,2.900000000000000000e+01,2.900000000000000000e+01,2.400000000000000000e+01,2.300000000000000000e+01,1.900000000000000000e+01,4.500000000000000111e-01,6.221728500000000000e+09
2.300000000000000000e+01,2.400000000000000000e+01,2.100000000000000000e+01,2.900000000000000000e+01,3.000000000000000000e+01,2.400000000000000000e+01,2.700000000000000000e+01,1.900000000000000000e+01,4.500000000000000111e-01,6.241500800000000000e+09
2.300000000000000000e+01,2.500000000000000000e+01,2.100000000000000000e+01,2.600000000000000000e+01,2.800000000000000000e+01,2.500000000000000000e+01,2.600000000000000000e+01,1.900000000000000000e+01,4.500000000000000111e-01,6.263659900000000000e+09
2.200000000000000000e+01,2.600000000000000000e+01,2.300000000000000000e+01,2.800000000000000000e+01,3.100000000000000000e+01,2.600000000000000000e+01,2.800000000000000000e+01,2.200000000000000000e+01,4.500000000000000111e-01,6.285662100000000000e+09
2.400000000000000000e+01,2.400000000000000000e+01,2.300000000000000000e+01,2.400000000000000000e+01,3.200000000000000000e+01,2.500000000000000000e+01,2.600000000000000000e+01,2.200000000000000000e+01,4.500000000000000111e-01,6.304151100000000000e+09
2.400000000000000000e+01,2.400000000000000000e+01,2.600000000000000000e+01,2.100000000000000000e+01,3.100000000000000000e+01,2.700000000000000000e+01,2.800000000000000000e+01,2.400000000000000000e+01,4.500000000000000111e-01,6.323797800000000000e+09
2.200000000000000000e+01,2.300000000000000000e+01,2.600000000000000000e+01,2.100000000000000000e+01,3.100000000000000000e+01,2.900000000000000000e+01,2.500000000000000000e+01,2.300000000000000000e+01,4.500000000000000111e-01,6.341969000000000000e+09
2.000000000000000000e+01,2.200000000000000000e+01,2.900000000000000000e+01,2.300000000000000000e+01,3.200000000000000000e+01,2.900000000000000000e+01,2.700000000000000000e+01,2.400000000000000000e+01,4.500000000000000111e-01,6.363528600000000000e+09
2.100000000000000000e+01,2.300000000000000000e+01,2.800000000000000000e+01,2.200000000000000000e+01,2.800000000000000000e+01,2.800000000000000000e+01,2.400000000000000000e+01,2.100000000000000000e+01,4.500000000000000111e-01,6.386136900000000000e+09
2.100000000000000000e+01,2.400000000000000000e+01,2.800000000000000000e+01,2.100000000000000000e+01,2.800000000000000000e+01,2.800000000000000000e+01,2.400000000000000000e+01,2.200000000000000000e+01,4.500000000000000111e-01,6.405577800000000000e+09
2.200000000000000000e+01,2.400000000000000000e+01,2.600000000000000000e+01,2.300000000000000000e+01,2.600000000000000000e+01,2.900000000000000000e+01,2.600000000000000000e+01,2.000000000000000000e+01,4.500000000000000111e-01,6.425174800000000000e+09
2.200000000000000000e+01,2.400000000000000000e+01,2.600000000000000000e+01,2.300000000000000000e+01,2.600000000000000000e+01,2.800000000000000000e+01,2.700000000000000000e+01,2.100000000000000000e+01,4.500000000000000111e-01,6.444752700000000000e+09
2.200000000000000000e+01,2.300000000000000000e+01,2.300000000000000000e+01,2.500000000000000000e+01,3.100000000000000000e+01,3.100000000000000000e+01,2.400000000000000000e+01,2.200000000000000000e+01,4.500000000000000111e-01,6.465008700000000000e+09
2.400000000000000000e+01,2.200000000000000000e+01,2.100000000000000000e+01,2.500000000000000000e+01,3.200000000000000000e+01,3.200000000000000000e+01,2.400000000000000000e+01,2.200000000000000000e+01,4.500000000000000111e-01,6.486759000000000000e+09
2.200000000000000000e+01,2.300000000000000000e+01,2.200000000000000000e+01,2.600000000000000000e+01,3.000000000000000000e+01,3.000000000000000000e+01,2.500000000000000000e+01,2.300000000000000000e+01,4.500000000000000111e-01,6.504513100000000000e+09
2.100000000000000000e+01,2.400000000000000000e+01,2.100000000000000000e+01,2.500000000000000000e+01,3.000000000000000000e+01,2.700000000000000000e+01,2.100000000000000000e+01,2.400000000000000000e+01,4.500000000000000111e-01,6.528697800000000000e+09
2.100000000000000000e+01,2.400000000000000000e+01,2.100000000000000000e+01,2.700000000000000000e+01,3.000000000000000000e+01,2.700000000000000000e+01,2.200000000000000000e+01,2.400000000000000000e+01,4.500000000000000111e-01,6.548623900000000000e+09
2.200000000000000000e+01,2.600000000000000000e+01,2.300000000000000000e+01,2.500000000000000000e+01,2.400000000000000000e+01,2.600000000000000000e+01,2.400000000000000000e+01,2.300000000000000000e+01,4.500000000000000111e-01,6.566825900000000000e+09
1.900000000000000000e+01,2.700000000000000000e+01,2.200000000000000000e+01,2.500000000000000000e+01,2.300000000000000000e+01,2.500000000000000000e+01,2.300000000000000000e+01,2.200000000000000000e+01,4.500000000000000111e-01,6.584503900000000000e+09
2.100000000000000000e+01,2.600000000000000000e+01,2.000000000000000000e+01,2.400000000000000000e+01,2.400000000000000000e+01,2.600000000000000000e+01,2.400000000000000000e+01,2.400000000000000000e+01,4.500000000000000111e-01,6.603129900000000000e+09
2.100000000000000000e+01,2.400000000000000000e+01,2.100000000000000000e+01,2.400000000000000000e+01,2.500000000000000000e+01,2.700000000000000000e+01,2.400000000000000000e+01,2.100000000000000000e+01,4.500000000000000111e-01,6.621945900000000000e+09
2.100000000000000000e+01,2.500000000000000000e+01,2.100000000000000000e+01,2.200000000000000000e+01,2.900000000000000000e+01,2.700000000000000000e+01,2.300000000000000000e+01,1.900000000000000000e+01,4.500000000000000111e-01,6.641539000000000000e+09
2.000000000000000000e+01,2.600000000000000000e+01,2.000000000000000000e+01,2.000000000000000000e+01,2.900000000000000000e+01,2.400000000000000000e+01,2.100000000000000000e+01,2.100000000000000000e+01,4.500000000000000111e-01,6.662175500000000000e+09
2.000000000000000000e+01,2.500000000000000000e+01,2.300000000000000000e+01,2.300000000000000000e+01,3.300000000000000000e+01,2.800000000000000000e+01,2.500000000000000000e+01,2.100000000000000000e+01,4.500000000000000111e-01,6.684308700000000000e+09
1.900000000000000000e+01,2.700000000000000000e+01,2.300000000000000000e+01,2.200000000000000000e+01,3.200000000000000000e+01,3.000000000000000000e+01,2.500000000000000000e+01,1.800000000000000000e+01,4.500000000000000111e-01,6.702789700000000000e+09
1.900000000000000000e+01,3.000000000000000000e+01,2.400000000000000000e+01,2.300000000000000000e+01,3.200000000000000000e+01,3.000000000000000000e+01,2.500000000000000000e+01,2.100000000000000000e+01,4.500000000000000111e-01,6.722083900000000000e+09
2.100000000000000000e+01,2.900000000000000000e+01,2.600000000000000000e+01,2.300000000000000000e+01,2.900000000000000000e+01,3.000000000000000000e+01,2.600000000000000000e+01,2.200000000000000000e+01,4.500000000000000111e-01,6.740045100000000000e+09
2.200000000000000000e+01,2.800000000000000000e+01,2.600000000000000000e+01,2.700000000000000000e+01,3.300000000000000000e+01,3.400000000000000000e+01,2.700000000000000000e+01,2.100000000000000000e+01,4.500000000000000111e-01,6.762195300000000000e+09
2.300000000000000000e+01,2.700000000000000000e+01,2.600000000000000000e+01,2.600000000000000000e+01,3.300000000000000000e+01,3.200000000000000000e+01,2.700000000000000000e+01,2.300000000000000000e+01,4.500000000000000111e-01,6.784299000000000000e+09
2.300000000000000000e+01,2.500000000000000000e+01,2.600000000000000000e+01,2.800000000000000000e+01,3.600000000000000000e+01,3.200000000000000000e+01,2.600000000000000000e+01,2.500000000000000000e+01,4.500000000000000111e-01,6.802202600000000000e+09
2.500000000000000000e+01,2.200000000000000000e+01,2.800000000000000000e+01,3.100000000000000000e+01,6.400000000000000000e+01,4.500000000000000000e+01,2.800000000000000000e+01,2.500000000000000000e+01,4.500000000000000111e-01,6.820512900000000000e+09
2.400000000000000000e+01,2.300000000000000000e+01,2.900000000000000000e+01,4.400000000000000000e+01,8.600000000000000000e+01,5.800000000000000000e+01,3.100000000000000000e+01,2.600000000000000000e+01,4.500000000000000111e-01,6.840050100000000000e+09
2.500000000000000000e+01,2.300000000000000000e+01,3.000000000000000000e+01,4.900000000000000000e+01,8.700000000000000000e+01,5.800000000000000000e+01,3.300000000000000000e+01,2.700000000000000000e+01,4.500000000000000111e-01,6.862057800000000000e+09
2.600000000000000000e+01,2.300000000000000000e+01,3.000000000000000000e+01,4.900000000000000000e+01,9.000000000000000000e+01,6.000000000000000000e+01,3.200000000000000000e+01,2.600000000000000000e+01,4.500000000000000111e-01,6.884292800000000000e+09
2.600000000000000000e+01,2.500000000000000000e+01,3.400000000000000000e+01,5.500000000000000000e+01,1.020000000000000000e+02,6.900000000000000000e+01,3.300000000000000000e+01,2.800000000000000000e+01,4.500000000000000111e-01,6.902797900000000000e+09
2.400000000000000000e+01,2.400000000000000000e+01,3.400000000000000000e+01,6.200000000000000000e+01,9.500000000000000000e+01,6.600000000000000000e+01,3.100000000000000000e+01,2.600000000000000000e+01,4.500000000000000111e-01,6.921871900000000000e+09
2.200000000000000000e+01,2.300000000000000000e+01,3.200000000000000000e+01,5.900000000000000000e+01,8.200000000000000000e+01,5.400000000000000000e+01,2.900000000000000000e+01,2.600000000000000000e+01,4.500000000000000111e-01,6.941436700000000000e+09
2.200000000000000000e+01,2.400000000000000000e+01,3.300000000000000000e+01,5.900000000000000000e+01,9.100000000000000000e+01,6.200000000000000000e+01,2.900000000000000000e+01,2.500000000000000000e+01,4.500000000000000111e-01,6.963671600000000000e+09
2.100000000000000000e+01,2.500000000000000000e+01,3.300000000000000000e+01,6.000000000000000000e+01,1.060000000000000000e+02,7.900000000000000000e+01,3.400000000000000000e+01,2.600000000000000000e+01,4.500000000000000111e-01,6.983681700000000000e+09
2.400000000000000000e+01,2.500000000000000000e+01,2.900000000000000000e+01,6.700000000000000000e+01,1.070000000000000000e+02,7.500000000000000000e+01,3.200000000000000000e+01,2.700000000000000000e+01,4.400000000000000022e-01,7.002638400000000000e+09
2.300000000000000000e+01,2.700000000000000000e+01,4.100000000000000000e+01,7.000000000000000000e+01,1.050000000000000000e+02,7.200000000000000000e+01,3.300000000000000000e+01,2.700000000000000000e+01,4.400000000000000022e-01,7.021953600000000000e+09
2.600000000000000000e+01,2.800000000000000000e+01,4.600000000000000000e+01,7.100000000000000000e+01,1.020000000000000000e+02,7.600000000000000000e+01,3.100000000000000000e+01,2.600000000000000000e+01,4.400000000000000022e-01,7.041663300000000000e+09
2.600000000000000000e+01,2.700000000000000000e+01,4.600000000000000000e+01,6.900000000000000000e+01,9.400000000000000000e+01,6.900000000000000000e+01,3.000000000000000000e+01,2.700000000000000000e+01,4.500000000000000111e-01,7.063854500000000000e+09
2.500000000000000000e+01,2.800000000000000000e+01,5.300000000000000000e+01,7.200000000000000000e+01,7.700000000000000000e+01,4.700000000000000000e+01,2.600000000000000000e+01,2.600000000000000000e+01,4.500000000000000111e-01,7.082239900000000000e+09
2.400000000000000000e+01,3.000000000000000000e+01,5.400000000000000000e+01,6.400000000000000000e+01,7.800000000000000000e+01,5.300000000000000000e+01,2.900000000000000000e+01,2.400000000000000000e+01,4.500000000000000111e-01,7.103600700000000000e+09
2.600000000000000000e+01,3.000000000000000000e+01,4.600000000000000000e+01,5.500000000000000000e+01,7.800000000000000000e+01,5.200000000000000000e+01,2.800000000000000000e+01,2.200000000000000000e+01,4.500000000000000111e-01,7.121849800000000000e+09
2.300000000000000000e+01,3.100000000000000000e+01,4.100000000000000000e+01,4.700000000000000000e+01,9.000000000000000000e+01,5.300000000000000000e+01,3.200000000000000000e+01,2.400000000000000000e+01,4.500000000000000111e-01,7.141444200000000000e+09
2.400000000000000000e+01,3.300000000000000000e+01,4.100000000000000000e+01,5.100000000000000000e+01,1.010000000000000000e+02,5.800000000000000000e+01,3.500000000000000000e+01,2.600000000000000000e+01,4.500000000000000111e-01,7.163777200000000000e+09
2.500000000000000000e+01,3.300000000000000000e+01,4.200000000000000000e+01,5.700000000000000000e+01,1.080000000000000000e+02,5.900000000000000000e+01,3.400000000000000000e+01,2.600000000000000000e+01,4.500000000000000111e-01,7.181953700000000000e+09
2.400000000000000000e+01,3.000000000000000000e+01,4.600000000000000000e+01,5.700000000000000000e+01,1.030000000000000000e+02,5.300000000000000000e+01,3.100000000000000000e+01,2.400000000000000000e+01,4.500000000000000111e-01,7.201178400000000000e+09
2.400000000000000000e+01,3.400000000000000000e+01,4.600000000000000000e+01,6.000000000000000000e+01,1.090000000000000000e+02,5.800000000000000000e+01,3.400000000000000000e+01,2.700000000000000000e+01,4.500000000000000111e-01,7.220090600000000000e+09
2.500000000000000000e+01,3.100000000000000000e+01,4.800000000000000000e+01,6.400000000000000000e+01,1.150000000000000000e+02,6.100000000000000000e+01,3.400000000000000000e+01,2.700000000000000000e+01,4.500000000000000111e-01,7.241496600000000000e+09
2.300000000000000000e+01,3.300000000000000000e+01,5.200000000000000000e+01,7.000000000000000000e+01,1.250000000000000000e+02,8.500000000000000000e+01,3.600000000000000000e+01,2.700000000000000000e+01,4.500000000000000111e-01,7.263807500000000000e+09
2.400000000000000000e+01,3.600000000000000000e+01,4.900000000000000000e+01,7.100000000000000000e+01,1.240000000000000000e+02,9.800000000000000000e+01,4.500000000000000000e+01,2.800000000000000000e+01,4.500000000000000111e-01,7.285942600000000000e+09
2.400000000000000000e+01,3.500000000000000000e+01,4.500000000000000000e+01,7.300000000000000000e+01,1.210000000000000000e+02,9.900000000000000000e+01,4.700000000000000000e+01,2.900000000000000000e+01,4.500000000000000111e-01,7.306259900000000000e+09
2.400000000000000000e+01,3.200000000000000000e+01,4.600000000000000000e+01,8.000000000000000000e+01,1.150000000000000000e+02,9.800000000000000000e+01,4.800000000000000000e+01,3.100000000000000000e+01,4.500000000000000111e-01,7.325056800000000000e+09
2.300000000000000000e+01,3.400000000000000000e+01,4.800000000000000000e+01,7.900000000000000000e+01,1.010000000000000000e+02,9.200000000000000000e+01,4.700000000000000000e+01,3.100000000000000000e+01,4.500000000000000111e-01,7.343750300000000000e+09
2.500000000000000000e+01,3.000000000000000000e+01,4.700000000000000000e+01,7.100000000000000000e+01,7.800000000000000000e+01,6.900000000000000000e+01,4.200000000000000000e+01,2.800000000000000000e+01,4.500000000000000111e-01,7.363146000000000000e+09
2.300000000000000000e+01,2.900000000000000000e+01,5.000000000000000000e+01,7.000000000000000000e+01,8.100000000000000000e+01,5.100000000000000000e+01,3.200000000000000000e+01,2.700000000000000000e+01,4.500000000000000111e-01,7.385438400000000000e+09
2.400000000000000000e+01,3.300000000000000000e+01,5.700000000000000000e+01,9.200000000000000000e+01,1.040000000000000000e+02,5.700000000000000000e+01,3.300000000000000000e+01,2.900000000000000000e+01,4.500000000000000111e-01,7.404130100000000000e+09
2.400000000000000000e+01,3.200000000000000000e+01,5.700000000000000000e+01,8.700000000000000000e+01,1.070000000000000000e+02,6.600000000000000000e+01,3.700000000000000000e+01,2.900000000000000000e+01,4.500000000000000111e-01,7.422990100000000000e+09
2.700000000000000000e+01,3.400000000000000000e+01,6.000000000000000000e+01,1.060000000000000000e+02,1.590000000000000000e+02,9.000000000000000000e+01,4.500000000000000000e+01,3.100000000000000000e+01,4.500000000000000111e-01,7.441362800000000000e+09
2.700000000000000000e+01,3.600000000000000000e+01,5.800000000000000000e+01,1.150000000000000000e+02,1.750000000000000000e+02,9.900000000000000000e+01,5.000000000000000000e+01,3.500000000000000000e+01,4.600000000000000200e-01,7.462987900000000000e+09
2.800000000000000000e+01,3.800000000000000000e+01,6.800000000000000000e+01,1.180000000000000000e+02,1.860000000000000000e+02,1.080000000000000000e+02,5.600000000000000000e+01,3.800000000000000000e+01,4.600000000000000200e-01,7.485037500000000000e+09
2.700000000000000000e+01,3.600000000000000000e+01,6.300000000000000000e+01,9.900000000000000000e+01,1.790000000000000000e+02,1.070000000000000000e+02,5.400000000000000000e+01,3.700000000000000000e+01,4.600000000000000200e-01,7.506080600000000000e+09
2.900000000000000000e+01,3.700000000000000000e+01,6.300000000000000000e+01,9.700000000000000000e+01,1.800000000000000000e+02,1.060000000000000000e+02,5.000000000000000000e+01,3.500000000000000000e+01,4.600000000000000200e-01,7.525538100000000000e+09
2.800000000000000000e+01,3.600000000000000000e+01,6.800000000000000000e+01,9.900000000000000000e+01,1.420000000000000000e+02,9.100000000000000000e+01,4.500000000000000000e+01,3.400000000000000000e+01,4.600000000000000200e-01,7.546310200000000000e+09
2.700000000000000000e+01,3.500000000000000000e+01,7.700000000000000000e+01,1.010000000000000000e+02,1.380000000000000000e+02,9.200000000000000000e+01,4.400000000000000000e+01,3.000000000000000000e+01,4.600000000000000200e-01,7.575419800000000000e+09
2.700000000000000000e+01,3.500000000000000000e+01,6.900000000000000000e+01,1.060000000000000000e+02,1.390000000000000000e+02,9.400000000000000000e+01,4.500000000000000000e+01,3.100000000000000000e+01,4.600000000000000200e-01,7.595390700000000000e+09
2.900000000000000000e+01,4.100000000000000000e+01,8.600000000000000000e+01,1.160000000000000000e+02,1.380000000000000000e+02,9.500000000000000000e+01,4.600000000000000000e+01,3.200000000000000000e+01,4.600000000000000200e-01,7.614220400000000000e+09
3.000000000000000000e+01,4.100000000000000000e+01,9.000000000000000000e+01,1.340000000000000000e+02,1.480000000000000000e+02,1.000000000000000000e+02,4.800000000000000000e+01,3.200000000000000000e+01,4.600000000000000200e-01,7.632846600000000000e+09
3.000000000000000000e+01,4.100000000000000000e+01,9.000000000000000000e+01,1.310000000000000000e+02,1.530000000000000000e+02,1.000000000000000000e+02,4.700000000000000000e+01,3.100000000000000000e+01,4.600000000000000200e-01,7.650223600000000000e+09
3.100000000000000000e+01,4.100000000000000000e+01,8.200000000000000000e+01,1.240000000000000000e+02,1.470000000000000000e+02,9.100000000000000000e+01,4.600000000000000000e+01,3.000000000000000000e+01,4.699999999999999734e-01,7.669955200000000000e+09
3.200000000000000000e+01,3.700000000000000000e+01,7.900000000000000000e+01,1.150000000000000000e+02,1.340000000000000000e+02,8.400000000000000000e+01,4.000000000000000000e+01,2.400000000000000000e+01,4.699999999999999734e-01,7.688107600000000000e+09
3.100000000000000000e+01,3.900000000000000000e+01,8.900000000000000000e+01,1.330000000000000000e+02,1.450000000000000000e+02,8.200000000000000000e+01,4.100000000000000000e+01,2.800000000000000000e+01,4.699999999999999734e-01,7.706483700000000000e+09
3.400000000000000000e+01,4.100000000000000000e+01,9.700000000000000000e+01,1.240000000000000000e+02,1.360000000000000000e+02,7.200000000000000000e+01,4.100000000000000000e+01,3.000000000000000000e+01,4.699999999999999734e-01,7.724555200000000000e+09
3.200000000000000000e+01,4.300000000000000000e+01,9.400000000000000000e+01,1.190000000000000000e+02,1.350000000000000000e+02,8.000000000000000000e+01,4.100000000000000000e+01,3.000000000000000000e+01,4.799999999999999822e-01,7.744523600000000000e+09
3.200000000000000000e+01,4.500000000000000000e+01,1.090000000000000000e+02,1.320000000000000000e+02,1.400000000000000000e+02,9.400000000000000000e+01,4.600000000000000000e+01,3.200000000000000000e+01,4.799999999999999822e-01,7.764584900000000000e+09
2.900000000000000000e+01,4.300000000000000000e+01,1.090000000000000000e+02,1.300000000000000000e+02,1.450000000000000000e+02,1.080000000000000000e+02,5.300000000000000000e+01,3.300000000000000000e+01,4.899999999999999911e-01,7.783907400000000000e+09
2.900000000000000000e+01,4.400000000000000000e+01,8.700000000000000000e+01,1.030000000000000000e+02,1.310000000000000000e+02,1.070000000000000000e+02,5.100000000000000000e+01,3.000000000000000000e+01,4.899999999999999911e-01,7.802139000000000000e+09
2.200000000000000000e+01,4.400000000000000000e+01,7.900000000000000000e+01,9.900000000000000000e+01,1.270000000000000000e+02,1.060000000000000000e+02,5.200000000000000000e+01,2.600000000000000000e+01,4.899999999999999911e-01,7.820466900000000000e+09
2.300000000000000000e+01,4.200000000000000000e+01,8.800000000000000000e+01,9.900000000000000000e+01,1.330000000000000000e+02,1.030000000000000000e+02,5.100000000000000000e+01,2.600000000000000000e+01,4.899999999999999911e-01,7.839695600000000000e+09
2.300000000000000000e+01,4.000000000000000000e+01,7.100000000000000000e+01,8.200000000000000000e+01,1.280000000000000000e+02,9.500000000000000000e+01,4.600000000000000000e+01,2.600000000000000000e+01,4.899999999999999911e-01,7.861611100000000000e+09
2.500000000000000000e+01,4.100000000000000000e+01,7.800000000000000000e+01,8.600000000000000000e+01,1.160000000000000000e+02,7.500000000000000000e+01,3.800000000000000000e+01,2.400000000000000000e+01,4.899999999999999911e-01,7.883837200000000000e+09
2.600000000000000000e+01,3.400000000000000000e+01,8.300000000000000000e+01,9.600000000000000000e+01,1.280000000000000000e+02,7.700000000000000000e+01,4.000000000000000000e+01,2.300000000000000000e+01,4.899999999999999911e-01,7.901695900000000000e+09
2.800000000000000000e+01,3.400000000000000000e+01,8.100000000000000000e+01,9.400000000000000000e+01,1.310000000000000000e+02,7.800000000000000000e+01,3.900000000000000000e+01,2.500000000000000000e+01,4.899999999999999911e-01,7.921429100000000000e+09
2.700000000000000000e+01,4.000000000000000000e+01,7.200000000000000000e+01,8.700000000000000000e+01,1.190000000000000000e+02,7.700000000000000000e+01,3.900000000000000000e+01,2.800000000000000000e+01,4.899999999999999911e-01,7.941651300000000000e+09
2.900000000000000000e+01,5.700000000000000000e+01,7.600000000000000000e+01,8.500000000000000000e+01,1.200000000000000000e+02,8.400000000000000000e+01,4.100000000000000000e+01,2.900000000000000000e+01,4.899999999999999911e-01,7.961776300000000000e+09
2.900000000000000000e+01,6.700000000000000000e+01,7.500000000000000000e+01,8.800000000000000000e+01,1.190000000000000000e+02,8.200000000000000000e+01,4.500000000000000000e+01,3.300000000000000000e+01,4.899999999999999911e-01,7.983956500000000000e+09
3.000000000000000000e+01,7.000000000000000000e+01,8.700000000000000000e+01,8.200000000000000000e+01,1.030000000000000000e+02,7.900000000000000000e+01,4.200000000000000000e+01,3.300000000000000000e+01,4.899999999999999911e-01,8.003308900000000000e+09
2.800000000000000000e+01,6.800000000000000000e+01,8.300000000000000000e+01,7.600000000000000000e+01,9.500000000000000000e+01,7.700000000000000000e+01,4.400000000000000000e+01,3.200000000000000000e+01,4.899999999999999911e-01,8.023014300000000000e+09
3.000000000000000000e+01,6.900000000000000000e+01,1.160000000000000000e+02,8.300000000000000000e+01,8.800000000000000000e+01,7.000000000000000000e+01,4.200000000000000000e+01,3.000000000000000000e+01,4.899999999999999911e-01,8.042223500000000000e+09
2.800000000000000000e+01,5.500000000000000000e+01,1.180000000000000000e+02,9.100000000000000000e+01,7.600000000000000000e+01,5.700000000000000000e+01,4.000000000000000000e+01,2.800000000000000000e+01,4.899999999999999911e-01,8.061590300000000000e+09
3.600000000000000000e+01,7.000000000000000000e+01,1.460000000000000000e+02,1.000000000000000000e+02,7.000000000000000000e+01,6.200000000000000000e+01,3.400000000000000000e+01,2.800000000000000000e+01,5.000000000000000000e-01,8.083835100000000000e+09
3.600000000000000000e+01,7.100000000000000000e+01,1.580000000000000000e+02,1.050000000000000000e+02,7.900000000000000000e+01,7.100000000000000000e+01,3.700000000000000000e+01,2.800000000000000000e+01,5.000000000000000000e-01,8.106010800000000000e+09
3.600000000000000000e+01,7.200000000000000000e+01,1.640000000000000000e+02,1.060000000000000000e+02,8.000000000000000000e+01,7.100000000000000000e+01,3.500000000000000000e+01,2.800000000000000000e+01,5.000000000000000000e-01,8.124764100000000000e+09
3.400000000000000000e+01,7.200000000000000000e+01,1.540000000000000000e+02,1.020000000000000000e+02,7.600000000000000000e+01,7.100000000000000000e+01,3.400000000000000000e+01,2.700000000000000000e+01,5.000000000000000000e-01,8.142984200000000000e+09
3.500000000000000000e+01,7.400000000000000000e+01,1.580000000000000000e+02,9.700000000000000000e+01,6.300000000000000000e+01,6.600000000000000000e+01,3.100000000000000000e+01,2.700000000000000000e+01,5.100000000000000089e-01,8.162305600000000000e+09
2.900000000000000000e+01,5.700000000000000000e+01,1.430000000000000000e+02,9.400000000000000000e+01,6.400000000000000000e+01,6.000000000000000000e+01,3.100000000000000000e+01,2.400000000000000000e+01,5.100000000000000089e-01,8.184975800000000000e+09
2.800000000000000000e+01,5.300000000000000000e+01,1.230000000000000000e+02,8.200000000000000000e+01,5.400000000000000000e+01,5.100000000000000000e+01,2.900000000000000000e+01,2.400000000000000000e+01,5.200000000000000178e-01,8.203189000000000000e+09
2.800000000000000000e+01,5.600000000000000000e+01,1.210000000000000000e+02,8.300000000000000000e+01,5.600000000000000000e+01,4.900000000000000000e+01,2.900000000000000000e+01,2.400000000000000000e+01,5.200000000000000178e-01,8.221890800000000000e+09
2.900000000000000000e+01,5.200000000000000000e+01,1.180000000000000000e+02,8.000000000000000000e+01,6.000000000000000000e+01,4.900000000000000000e+01,3.100000000000000000e+01,2.500000000000000000e+01,5.200000000000000178e-01,8.240540800000000000e+09
3.200000000000000000e+01,5.500000000000000000e+01,1.240000000000000000e+02,1.120000000000000000e+02,6.400000000000000000e+01,4.800000000000000000e+01,3.000000000000000000e+01,2.500000000000000000e+01,5.300000000000000266e-01,8.262728500000000000e+09
3.000000000000000000e+01,4.600000000000000000e+01,1.140000000000000000e+02,1.070000000000000000e+02,5.900000000000000000e+01,4.200000000000000000e+01,2.900000000000000000e+01,2.400000000000000000e+01,5.300000000000000266e-01,8.284847700000000000e+09
3.000000000000000000e+01,4.500000000000000000e+01,1.110000000000000000e+02,1.080000000000000000e+02,5.500000000000000000e+01,3.800000000000000000e+01,2.900000000000000000e+01,2.300000000000000000e+01,5.300000000000000266e-01,8.303309400000000000e+09
3.000000000000000000e+01,4.200000000000000000e+01,1.150000000000000000e+02,1.130000000000000000e+02,5.500000000000000000e+01,4.400000000000000000e+01,2.700000000000000000e+01,2.300000000000000000e+01,5.400000000000000355e-01,8.322136800000000000e+09
2.800000000000000000e+01,6.300000000000000000e+01,1.010000000000000000e+02,1.110000000000000000e+02,5.800000000000000000e+01,5.500000000000000000e+01,2.600000000000000000e+01,2.300000000000000000e+01,5.400000000000000355e-01,8.340770800000000000e+09
2.900000000000000000e+01,6.100000000000000000e+01,8.000000000000000000e+01,8.000000000000000000e+01,6.300000000000000000e+01,5.900000000000000000e+01,3.000000000000000000e+01,2.100000000000000000e+01,5.400000000000000355e-01,8.362673000000000000e+09
2.900000000000000000e+01,6.600000000000000000e+01,7.800000000000000000e+01,7.800000000000000000e+01,6.600000000000000000e+01,6.000000000000000000e+01,3.300000000000000000e+01,2.100000000000000000e+01,5.400000000000000355e-01,8.385350100000000000e+09
3.000000000000000000e+01,6.700000000000000000e+01,8.100000000000000000e+01,8.200000000000000000e+01,6.800000000000000000e+01,6.300000000000000000e+01,3.300000000000000000e+01,2.200000000000000000e+01,5.400000000000000355e-01,8.404089900000000000e+09
2.900000000000000000e+01,6.900000000000000000e+01,6.500000000000000000e+01,6.800000000000000000e+01,6.800000000000000000e+01,6.600000000000000000e+01,3.200000000000000000e+01,2.200000000000000000e+01,5.400000000000000355e-01,8.422668700000000000e+09
2.900000000000000000e+01,5.200000000000000000e+01,6.500000000000000000e+01,7.300000000000000000e+01,7.900000000000000000e+01,6.200000000000000000e+01,3.400000000000000000e+01,2.200000000000000000e+01,5.400000000000000355e-01,8.441902400000000000e+09
2.400000000000000000e+01,5.000000000000000000e+01,6.500000000000000000e+01,6.800000000000000000e+01,7.500000000000000000e+01,6.100000000000000000e+01,3.300000000000000000e+01,2.300000000000000000e+01,5.400000000000000355e-01,8.464553700000000000e+09
2.500000000000000000e+01,4.400000000000000000e+01,6.100000000000000000e+01,6.200000000000000000e+01,7.600000000000000000e+01,6.700000000000000000e+01,3.400000000000000000e+01,2.400000000000000000e+01,5.400000000000000355e-01,8.483389400000000000e+09
2.400000000000000000e+01,4.200000000000000000e+01,6.000000000000000000e+01,5.400000000000000000e+01,7.400000000000000000e+01,6.400000000000000000e+01,3.300000000000000000e+01,2.400000000000000000e+01,5.300000000000000266e-01,8.502223000000000000e+09
2.300000000000000000e+01,3.500000000000000000e+01,6.000000000000000000e+01,5.300000000000000000e+01,6.900000000000000000e+01,5.600000000000000000e+01,3.300000000000000000e+01,2.200000000000000000e+01,5.300000000000000266e-01,8.520384600000000000e+09
2.400000000000000000e+01,2.900000000000000000e+01,5.900000000000000000e+01,4.300000000000000000e+01,4.900000000000000000e+01,4.700000000000000000e+01,3.000000000000000000e+01,2.200000000000000000e+01,5.200000000000000178e-01,8.541387900000000000e+09
2.500000000000000000e+01,2.800000000000000000e+01,5.800000000000000000e+01,4.500000000000000000e+01,5.100000000000000000e+01,5.000000000000000000e+01,3.000000000000000000e+01,2.400000000000000000e+01,5.200000000000000178e-01,8.563584500000000000e+09
2.300000000000000000e+01,2.700000000000000000e+01,5.200000000000000000e+01,4.400000000000000000e+01,4.800000000000000000e+01,4.400000000000000000e+01,3.000000000000000000e+01,2.400000000000000000e+01,5.100000000000000089e-01,8.585852600000000000e+09
2.300000000000000000e+01,2.700000000000000000e+01,4.600000000000000000e+01,4.600000000000000000e+01,5.900000000000000000e+01,5.100000000000000000e+01,3.100000000000000000e+01,2.100000000000000000e+01,5.100000000000000089e-01,8.604669100000000000e+09
2.500000000000000000e+01,3.000000000000000000e+01,4.900000000000000000e+01,5.400000000000000000e+01,7.400000000000000000e+01,5.800000000000000000e+01,3.600000000000000000e+01,2.500000000000000000e+01,5.000000000000000000e-01,8.626479200000000000e+09
2.500000000000000000e+01,3.700000000000000000e+01,4.700000000000000000e+01,6.100000000000000000e+01,8.500000000000000000e+01,6.700000000000000000e+01,4.100000000000000000e+01,2.400000000000000000e+01,5.000000000000000000e-01,8.647495200000000000e+09
2.600000000000000000e+01,3.500000000000000000e+01,4.000000000000000000e+01,6.000000000000000000e+01,8.600000000000000000e+01,6.300000000000000000e+01,4.100000000000000000e+01,2.500000000000000000e+01,4.899999999999999911e-01,8.666421100000000000e+09
2.500000000000000000e+01,3.400000000000000000e+01,3.800000000000000000e+01,5.800000000000000000e+01,8.400000000000000000e+01,6.000000000000000000e+01,4.100000000000000000e+01,2.700000000000000000e+01,4.899999999999999911e-01,8.696247400000000000e+09
2.400000000000000000e+01,3.300000000000000000e+01,3.400000000000000000e+01,5.500000000000000000e+01,7.700000000000000000e+01,5.500000000000000000e+01,3.800000000000000000e+01,2.800000000000000000e+01,4.899999999999999911e-01,8.714082600000000000e+09
2.200000000000000000e+01,3.100000000000000000e+01,3.000000000000000000e+01,4.600000000000000000e+01,6.200000000000000000e+01,4.700000000000000000e+01,3.400000000000000000e+01,2.500000000000000000e+01,4.799999999999999822e-01,8.733123800000000000e+09
2.200000000000000000e+01,2.500000000000000000e+01,2.700000000000000000e+01,3.500000000000000000e+01,5.200000000000000000e+01,3.700000000000000000e+01,2.900000000000000000e+01,2.600000000000000000e+01,4.799999999999999822e-01,8.751198800000000000e+09
2.100000000000000000e+01,2.600000000000000000e+01,2.600000000000000000e+01,3.300000000000000000e+01,4.700000000000000000e+01,3.300000000000000000e+01,2.600000000000000000e+01,2.300000000000000000e+01,4.799999999999999822e-01,8.768884200000000000e+09
2.000000000000000000e+01,2.700000000000000000e+01,2.300000000000000000e+01,3.100000000000000000e+01,4.300000000000000000e+01,3.200000000000000000e+01,2.400000000000000000e+01,2.200000000000000000e+01,4.799999999999999822e-01,8.787032500000000000e+09
2.200000000000000000e+01,2.900000000000000000e+01,2.400000000000000000e+01,3.100000000000000000e+01,4.100000000000000000e+01,3.200000000000000000e+01,2.400000000000000000e+01,2.100000000000000000e+01,4.699999999999999734e-01,8.805710400000000000e+09
2.300000000000000000e+01,3.000000000000000000e+01,2.300000000000000000e+01,3.400000000000000000e+01,4.700000000000000000e+01,3.400000000000000000e+01,2.700000000000000000e+01,2.000000000000000000e+01,4.699999999999999734e-01,8.823695800000000000e+09
2.300000000000000000e+01,2.800000000000000000e+01,2.400000000000000000e+01,3.500000000000000000e+01,4.600000000000000000e+01,3.400000000000000000e+01,2.600000000000000000e+01,2.100000000000000000e+01,4.699999999999999734e-01,8.843786600000000000e+09
2.500000000000000000e+01,2.900000000000000000e+01,2.800000000000000000e+01,3.500000000000000000e+01,4.400000000000000000e+01,3.900000000000000000e+01,2.500000000000000000e+01,2.100000000000000000e+01,4.699999999999999734e-01,8.861557800000000000e+09
2.600000000000000000e+01,2.900000000000000000e+01,2.900000000000000000e+01,3.500000000000000000e+01,4.600000000000000000e+01,4.200000000000000000e+01,2.500000000000000000e+01,2.000000000000000000e+01,4.699999999999999734e-01,8.883652100000000000e+09
2.300000000000000000e+01,2.600000000000000000e+01,3.000000000000000000e+01,3.500000000000000000e+01,4.700000000000000000e+01,4.200000000000000000e+01,2.700000000000000000e+01,2.100000000000000000e+01,4.699999999999999734e-01,8.905842200000000000e+09
2.300000000000000000e+01,2.400000000000000000e+01,3.000000000000000000e+01,3.400000000000000000e+01,4.100000000000000000e+01,4.200000000000000000e+01,2.300000000000000000e+01,2.300000000000000000e+01,4.600000000000000200e-01,8.925382700000000000e+09
2.200000000000000000e+01,3.400000000000000000e+01,3.000000000000000000e+01,3.300000000000000000e+01,4.600000000000000000e+01,4.200000000000000000e+01,2.400000000000000000e+01,2.100000000000000000e+01,4.600000000000000200e-01,8.946201900000000000e+09
2.000000000000000000e+01,4.100000000000000000e+01,2.700000000000000000e+01,3.400000000000000000e+01,5.800000000000000000e+01,4.000000000000000000e+01,2.600000000000000000e+01,2.200000000000000000e+01,4.600000000000000200e-01,8.966196200000000000e+09
2.000000000000000000e+01,4.500000000000000000e+01,2.800000000000000000e+01,3.500000000000000000e+01,6.100000000000000000e+01,4.000000000000000000e+01,2.700000000000000000e+01,2.300000000000000000e+01,4.600000000000000200e-01,8.984271900000000000e+09
2.200000000000000000e+01,4.900000000000000000e+01,2.900000000000000000e+01,3.600000000000000000e+01,6.200000000000000000e+01,4.300000000000000000e+01,2.400000000000000000e+01,2.300000000000000000e+01,4.600000000000000200e-01,9.003501000000000000e+09
2.200000000000000000e+01,4.900000000000000000e+01,3.100000000000000000e+01,3.400000000000000000e+01,6.400000000000000000e+01,4.500000000000000000e+01,2.600000000000000000e+01,2.300000000000000000e+01,4.600000000000000200e-01,9.024999900000000000e+09
2.200000000000000000e+01,7.000000000000000000e+01,3.700000000000000000e+01,4.500000000000000000e+01,5.800000000000000000e+01,4.200000000000000000e+01,2.600000000000000000e+01,2.200000000000000000e+01,4.600000000000000200e-01,9.043410400000000000e+09
2.500000000000000000e+01,8.600000000000000000e+01,6.800000000000000000e+01,6.700000000000000000e+01,6.200000000000000000e+01,4.700000000000000000e+01,2.900000000000000000e+01,2.300000000000000000e+01,4.600000000000000200e-01,9.062408500000000000e+09
2.600000000000000000e+01,9.000000000000000000e+01,9.500000000000000000e+01,8.600000000000000000e+01,7.700000000000000000e+01,6.600000000000000000e+01,3.600000000000000000e+01,2.200000000000000000e+01,4.699999999999999734e-01,9.083307300000000000e+09
3.200000000000000000e+01,9.400000000000000000e+01,1.280000000000000000e+02,1.480000000000000000e+02,8.600000000000000000e+01,6.800000000000000000e+01,4.000000000000000000e+01,2.500000000000000000e+01,4.699999999999999734e-01,9.105432400000000000e+09
3.700000000000000000e+01,1.060000000000000000e+02,1.560000000000000000e+02,1.730000000000000000e+02,8.900000000000000000e+01,6.900000000000000000e+01,4.200000000000000000e+01,2.700000000000000000e+01,4.799999999999999822e-01,9.124569400000000000e+09
4.600000000000000000e+01,9.800000000000000000e+01,1.900000000000000000e+02,2.270000000000000000e+02,1.150000000000000000e+02,8.400000000000000000e+01,4.700000000000000000e+01,3.300000000000000000e+01,4.899999999999999911e-01,9.143433500000000000e+09
4.600000000000000000e+01,8.500000000000000000e+01,2.050000000000000000e+02,2.430000000000000000e+02,1.140000000000000000e+02,8.100000000000000000e+01,4.400000000000000000e+01,3.300000000000000000e+01,4.899999999999999911e-01,9.161915000000000000e+09
5.100000000000000000e+01,9.300000000000000000e+01,2.530000000000000000e+02,2.860000000000000000e+02,1.190000000000000000e+02,7.100000000000000000e+01,4.300000000000000000e+01,3.800000000000000000e+01,5.000000000000000000e-01,9.183266800000000000e+09
4.700000000000000000e+01,8.900000000000000000e+01,2.480000000000000000e+02,2.720000000000000000e+02,1.150000000000000000e+02,6.800000000000000000e+01,4.100000000000000000e+01,3.800000000000000000e+01,5.100000000000000089e-01,9.205449000000000000e+09
4.400000000000000000e+01,7.600000000000000000e+01,2.350000000000000000e+02,2.610000000000000000e+02,1.130000000000000000e+02,6.500000000000000000e+01,3.800000000000000000e+01,3.700000000000000000e+01,5.100000000000000089e-01,9.224508900000000000e+09
3.600000000000000000e+01,6.700000000000000000e+01,2.100000000000000000e+02,2.170000000000000000e+02,8.700000000000000000e+01,4.700000000000000000e+01,3.200000000000000000e+01,3.400000000000000000e+01,5.200000000000000178e-01,9.243622500000000000e+09
3.800000000000000000e+01,6.700000000000000000e+01,1.900000000000000000e+02,1.940000000000000000e+02,7.600000000000000000e+01,4.500000000000000000e+01,3.300000000000000000e+01,3.200000000000000000e+01,5.300000000000000266e-01,9.262845700000000000e+09
3.000000000000000000e+01,4.400000000000000000e+01,9.900000000000000000e+01,1.090000000000000000e+02,4.400000000000000000e+01,3.700000000000000000e+01,2.700000000000000000e+01,2.600000000000000000e+01,5.400000000000000355e-01,9.283248400000000000e+09
2.800000000000000000e+01,4.000000000000000000e+01,7.100000000000000000e+01,7.400000000000000000e+01,3.400000000000000000e+01,3.500000000000000000e+01,2.700000000000000000e+01,2.400000000000000000e+01,5.400000000000000355e-01,9.305543300000000000e+09
2.700000000000000000e+01,3.900000000000000000e+01,5.500000000000000000e+01,5.500000000000000000e+01,3.200000000000000000e+01,3.400000000000000000e+01,2.600000000000000000e+01,2.500000000000000000e+01,5.500000000000000444e-01,9.324483700000000000e+09
2.500000000000000000e+01,3.400000000000000000e+01,4.500000000000000000e+01,4.600000000000000000e+01,2.900000000000000000e+01,2.800000000000000000e+01,2.400000000000000000e+01,2.200000000000000000e+01,5.400000000000000355e-01,9.343922400000000000e+09
1.800000000000000000e+01,2.400000000000000000e+01,3.500000000000000000e+01,3.800000000000000000e+01,2.700000000000000000e+01,2.800000000000000000e+01,2.300000000000000000e+01,2.200000000000000000e+01,5.400000000000000355e-01,9.363190500000000000e+09
2.100000000000000000e+01,2.400000000000000000e+01,2.500000000000000000e+01,3.500000000000000000e+01,2.600000000000000000e+01,2.600000000000000000e+01,2.300000000000000000e+01,2.300000000000000000e+01,5.400000000000000355e-01,9.383189300000000000e+09
2.200000000000000000e+01,2.600000000000000000e+01,2.300000000000000000e+01,3.100000000000000000e+01,2.300000000000000000e+01,2.300000000000000000e+01,2.100000000000000000e+01,2.400000000000000000e+01,5.300000000000000266e-01,9.405638200000000000e+09
2.200000000000000000e+01,3.200000000000000000e+01,2.300000000000000000e+01,2.900000000000000000e+01,2.200000000000000000e+01,2.200000000000000000e+01,2.600000000000000000e+01,2.400000000000000000e+01,5.300000000000000266e-01,9.425017100000000000e+09
2.200000000000000000e+01,3.300000000000000000e+01,2.400000000000000000e+01,2.500000000000000000e+01,2.100000000000000000e+01,2.300000000000000000e+01,2.800000000000000000e+01,2.400000000000000000e+01,5.300000000000000266e-01,9.443606000000000000e+09
2.500000000000000000e+01,3.300000000000000000e+01,2.400000000000000000e+01,2.400000000000000000e+01,2.200000000000000000e+01,2.200000000000000000e+01,2.800000000000000000e+01,2.500000000000000000e+01,5.200000000000000178e-01,9.462244200000000000e+09
2.300000000000000000e+01,3.400000000000000000e+01,2.500000000000000000e+01,2.000000000000000000e+01,2.200000000000000000e+01,2.100000000000000000e+01,2.700000000000000000e+01,2.500000000000000000e+01,5.100000000000000089e-01,9.484794300000000000e+09
2.400000000000000000e+01,3.100000000000000000e+01,2.600000000000000000e+01,2.200000000000000000e+01,2.200000000000000000e+01,2.100000000000000000e+01,2.600000000000000000e+01,2.200000000000000000e+01,5.000000000000000000e-01,9.503860000000000000e+09
2.500000000000000000e+01,2.300000000000000000e+01,2.400000000000000000e+01,2.000000000000000000e+01,2.000000000000000000e+01,2.200000000000000000e+01,2.300000000000000000e+01,2.200000000000000000e+01,5.000000000000000000e-01,9.522743200000000000e+09
2.700000000000000000e+01,2.200000000000000000e+01,2.200000000000000000e+01,2.200000000000000000e+01,2.200000000000000000e+01,2.000000000000000000e+01,2.100000000000000000e+01,2.100000000000000000e+01,4.899999999999999911e-01,9.542995900000000000e+09
2.400000000000000000e+01,2.000000000000000000e+01,2.100000000000000000e+01,2.200000000000000000e+01,1.900000000000000000e+01,2.200000000000000000e+01,2.100000000000000000e+01,2.200000000000000000e+01,4.899999999999999911e-01,9.562792100000000000e+09
2.300000000000000000e+01,2.100000000000000000e+01,2.100000000000000000e+01,2.200000000000000000e+01,2.000000000000000000e+01,2.300000000000000000e+01,2.200000000000000000e+01,2.100000000000000000e+01,4.799999999999999822e-01,9.585204100000000000e+09
2.100000000000000000e+01,2.200000000000000000e+01,2.100000000000000000e+01,2.100000000000000000e+01,2.000000000000000000e+01,2.100000000000000000e+01,2.100000000000000000e+01,2.200000000000000000e+01,4.799999999999999822e-01,9.603967100000000000e+09
2.100000000000000000e+01,2.300000000000000000e+01,2.000000000000000000e+01,2.200000000000000000e+01,1.900000000000000000e+01,2.200000000000000000e+01,2.200000000000000000e+01,2.300000000000000000e+01,4.799999999999999822e-01,9.622429400000000000e+09
2.000000000000000000e+01,2.300000000000000000e+01,2.100000000000000000e+01,1.900000000000000000e+01,1.800000000000000000e+01,2.300000000000000000e+01,2.200000000000000000e+01,2.500000000000000000e+01,4.799999999999999822e-01,9.641029400000000000e+09
1.800000000000000000e+01,2.400000000000000000e+01,2.100000000000000000e+01,1.900000000000000000e+01,1.900000000000000000e+01,2.400000000000000000e+01,2.200000000000000000e+01,2.500000000000000000e+01,4.699999999999999734e-01,9.662661600000000000e+09
1.900000000000000000e+01,2.900000000000000000e+01,2.600000000000000000e+01,2.100000000000000000e+01,1.900000000000000000e+01,2.300000000000000000e+01,2.400000000000000000e+01,2.600000000000000000e+01,4.699999999999999734e-01,9.684995000000000000e+09
2.000000000000000000e+01,3.400000000000000000e+01,2.500000000000000000e+01,2.100000000000000000e+01,1.800000000000000000e+01,2.300000000000000000e+01,2.300000000000000000e+01,2.400000000000000000e+01,4.699999999999999734e-01,9.704401400000000000e+09
1.900000000000000000e+01,3.400000000000000000e+01,2.700000000000000000e+01,2.100000000000000000e+01,2.000000000000000000e+01,2.200000000000000000e+01,2.300000000000000000e+01,2.400000000000000000e+01,4.699999999999999734e-01,9.726703100000000000e+09
2.000000000000000000e+01,3.400000000000000000e+01,2.700000000000000000e+01,2.200000000000000000e+01,2.000000000000000000e+01,2.300000000000000000e+01,2.600000000000000000e+01,2.300000000000000000e+01,4.699999999999999734e-01,9.746060300000000000e+09
2.200000000000000000e+01,3.300000000000000000e+01,2.700000000000000000e+01,2.200000000000000000e+01,2.100000000000000000e+01,2.200000000000000000e+01,2.500000000000000000e+01,2.200000000000000000e+01,4.699999999999999734e-01,9.771952500000000000e+09
2.100000000000000000e+01,2.800000000000000000e+01,2.300000000000000000e+01,2.200000000000000000e+01,1.900000000000000000e+01,2.400000000000000000e+01,2.500000000000000000e+01,2.100000000000000000e+01,4.600000000000000200e-01,9.789948000000000000e+09
2.100000000000000000e+01,2.300000000000000000e+01,2.500000000000000000e+01,2.400000000000000000e+01,2.200000000000000000e+01,2.600000000000000000e+01,2.500000000000000000e+01,2.200000000000000000e+01,4.600000000000000200e-01,9.808216200000000000e+09
2.200000000000000000e+01,2.300000000000000000e+01,2.300000000000000000e+01,2.300000000000000000e+01,2.100000000000000000e+01,2.500000000000000000e+01,2.400000000000000000e+01,2.100000000000000000e+01,4.600000000000000200e-01,9.825888800000000000e+09
2.100000000000000000e+01,2.300000000000000000e+01,2.400000000000000000e+01,2.400000000000000000e+01,2.300000000000000000e+01,2.400000000000000000e+01,2.200000000000000000e+01,2.200000000000000000e+01,4.600000000000000200e-01,9.845910000000000000e+09
2.100000000000000000e+01,2.500000000000000000e+01,2.300000000000000000e+01,2.500000000000000000e+01,2.300000000000000000e+01,2.400000000000000000e+01,2.100000000000000000e+01,2.300000000000000000e+01,4.600000000000000200e-01,9.865140500000000000e+09
2.100000000000000000e+01,2.300000000000000000e+01,2.500000000000000000e+01,2.500000000000000000e+01,2.300000000000000000e+01,2.400000000000000000e+01,2.000000000000000000e+01,2.300000000000000000e+01,4.600000000000000200e-01,9.886514600000000000e+09
2.300000000000000000e+01,2.400000000000000000e+01,2.400000000000000000e+01,2.400000000000000000e+01,2.200000000000000000e+01,2.100000000000000000e+01,2.000000000000000000e+01,2.200000000000000000e+01,4.600000000000000200e-01,9.905073400000000000e+09
2.300000000000000000e+01,2.200000000000000000e+01,2.300000000000000000e+01,2.400000000000000000e+01,2.100000000000000000e+01,2.200000000000000000e+01,2.100000000000000000e+01,2.200000000000000000e+01,4.600000000000000200e-01,9.923852400000000000e+09
2.200000000000000000e+01,2.100000000000000000e+01,2.300000000000000000e+01,2.200000000000000000e+01,2.400000000000000000e+01,2.400000000000000000e+01,1.900000000000000000e+01,2.000000000000000000e+01,4.600000000000000200e-01,9.942864100000000000e+09
2.200000000000000000e+01,2.100000000000000000e+01,2.400000000000000000e+01,2.200000000000000000e+01,2.300000000000000000e+01,2.200000000000000000e+01,2.000000000000000000e+01,2.200000000000000000e+01,4.600000000000000200e-01,9.963337000000000000e+09
2.200000000000000000e+01,2.100000000000000000e+01,2.200000000000000000e+01,2.000000000000000000e+01,2.400000000000000000e+01,2.200000000000000000e+01,1.900000000000000000e+01,2.100000000000000000e+01,4.600000000000000200e-01,9.983143500000000000e+09
2.100000000000000000e+01,2.100000000000000000e+01,2.200000000000000000e+01,2.300000000000000000e+01,2.300000000000000000e+01,2.400000000000000000e+01,2.100000000000000000e+01,2.100000000000000000e+01,4.600000000000000200e-01,1.000513580000000000e+10
2.200000000000000000e+01,2.300000000000000000e+01,2.500000000000000000e+01,2.200000000000000000e+01,2.400000000000000000e+01,2.300000000000000000e+01,1.900000000000000000e+01,2.200000000000000000e+01,4.600000000000000200e-01,1.002497320000000000e+10
2.200000000000000000e+01,2.400000000000000000e+01,2.600000000000000000e+01,2.300000000000000000e+01,2.100000000000000000e+01,2.300000000000000000e+01,2.100000000000000000e+01,2.200000000000000000e+01,4.600000000000000200e-01,1.004317490000000000e+10
2.000000000000000000e+01,2.400000000000000000e+01,2.500000000000000000e+01,2.200000000000000000e+01,2.200000000000000000e+01,2.400000000000000000e+01,2.100000000000000000e+01,2.100000000000000000e+01,4.600000000000000200e-01,1.006162490000000000e+10
1.900000000000000000e+01,2.500000000000000000e+01,2.700000000000000000e+01,2.400000000000000000e+01,2.200000000000000000e+01,2.100000000000000000e+01,2.100000000000000000e+01,2.000000000000000000e+01,4.500000000000000111e-01,1.008322780000000000e+10
1.900000000000000000e+01,2.600000000000000000e+01,2.900000000000000000e+01,2.200000000000000000e+01,2.100000000000000000e+01,2.200000000000000000e+01,2.100000000000000000e+01,2.000000000000000000e+01,4.500000000000000111e-01,1.010504440000000000e+10
1.900000000000000000e+01,2.500000000000000000e+01,2.700000000000000000e+01,2.100000000000000000e+01,2.300000000000000000e+01,2.300000000000000000e+01,2.200000000000000000e+01,2.000000000000000000e+01,4.500000000000000111e-01,1.012390240000000000e+10
1.800000000000000000e+01,2.500000000000000000e+01,2.600000000000000000e+01,2.300000000000000000e+01,2.100000000000000000e+01,2.200000000000000000e+01,2.100000000000000000e+01,2.100000000000000000e+01,4.500000000000000111e-01,1.014685570000000000e+10
2.000000000000000000e+01,2.400000000000000000e+01,2.600000000000000000e+01,2.400000000000000000e+01,2.000000000000000000e+01,2.200000000000000000e+01,2.100000000000000000e+01,2.000000000000000000e+01,4.500000000000000111e-01,1.016758270000000000e+10
2.200000000000000000e+01,2.300000000000000000e+01,2.400000000000000000e+01,2.200000000000000000e+01,1.900000000000000000e+01,2.400000000000000000e+01,2.100000000000000000e+01,2.100000000000000000e+01,4.500000000000000111e-01,1.018604880000000000e+10
2.100000000000000000e+01,2.200000000000000000e+01,2.200000000000000000e+01,2.500000000000000000e+01,2.400000000000000000e+01,2.200000000000000000e+01,2.200000000000000000e+01,2.200000000000000000e+01,4.500000000000000111e-01,1.020543260000000000e+10
2.100000000000000000e+01,2.300000000000000000e+01,2.600000000000000000e+01,2.900000000000000000e+01,2.200000000000000000e+01,2.300000000000000000e+01,2.200000000000000000e+01,2.100000000000000000e+01,4.500000000000000111e-01,1.022359220000000000e+10
2.400000000000000000e+01,2.400000000000000000e+01,2.600000000000000000e+01,2.700000000000000000e+01,2.600000000000000000e+01,2.300000000000000000e+01,2.200000000000000000e+01,2.000000000000000000e+01,4.500000000000000111e-01,1.024229330000000000e+10
2.200000000000000000e+01,2.300000000000000000e+01,2.700000000000000000e+01,2.700000000000000000e+01,2.500000000000000000e+01,2.400000000000000000e+01,2.100000000000000000e+01,2.000000000000000000e+01,4.500000000000000111e-01,1.026193380000000000e+10
2.400000000000000000e+01,2.500000000000000000e+01,2.700000000000000000e+01,3.600000000000000000e+01,3.100000000000000000e+01,2.500000000000000000e+01,2.400000000000000000e+01,2.200000000000000000e+01,4.500000000000000111e-01,1.028280150000000000e+10
2.500000000000000000e+01,2.400000000000000000e+01,3.400000000000000000e+01,4.900000000000000000e+01,3.800000000000000000e+01,2.500000000000000000e+01,2.200000000000000000e+01,2.200000000000000000e+01,4.600000000000000200e-01,1.030493710000000000e+10
2.500000000000000000e+01,3.000000000000000000e+01,4.400000000000000000e+01,7.700000000000000000e+01,7.200000000000000000e+01,3.400000000000000000e+01,2.300000000000000000e+01,2.400000000000000000e+01,4.600000000000000200e-01,1.032336440000000000e+10
2.400000000000000000e+01,3.000000000000000000e+01,4.700000000000000000e+01,8.400000000000000000e+01,8.400000000000000000e+01,4.000000000000000000e+01,2.700000000000000000e+01,2.600000000000000000e+01,4.600000000000000200e-01,1.034299010000000000e+10
2.500000000000000000e+01,3.100000000000000000e+01,4.800000000000000000e+01,8.500000000000000000e+01,8.500000000000000000e+01,4.200000000000000000e+01,2.800000000000000000e+01,2.600000000000000000e+01,4.600000000000000200e-01,1.036155290000000000e+10
2.600000000000000000e+01,3.200000000000000000e+01,5.100000000000000000e+01,8.500000000000000000e+01,8.500000000000000000e+01,4.300000000000000000e+01,2.800000000000000000e+01,2.500000000000000000e+01,4.600000000000000200e-01,1.038276900000000000e+10
2.600000000000000000e+01,3.400000000000000000e+01,5.100000000000000000e+01,9.400000000000000000e+01,8.900000000000000000e+01,4.700000000000000000e+01,2.900000000000000000e+01,2.500000000000000000e+01,4.699999999999999734e-01,1.040509350000000000e+10
2.700000000000000000e+01,3.200000000000000000e+01,5.600000000000000000e+01,9.900000000000000000e+01,8.500000000000000000e+01,5.000000000000000000e+01,3.200000000000000000e+01,2.600000000000000000e+01,4.699999999999999734e-01,1.042390800000000000e+10
2.800000000000000000e+01,4.100000000000000000e+01,6.000000000000000000e+01,9.900000000000000000e+01,7.600000000000000000e+01,4.700000000000000000e+01,2.900000000000000000e+01,2.800000000000000000e+01,4.699999999999999734e-01,1.044277170000000000e+10
3.400000000000000000e+01,5.400000000000000000e+01,1.170000000000000000e+02,1.520000000000000000e+02,9.200000000000000000e+01,5.300000000000000000e+01,3.100000000000000000e+01,2.900000000000000000e+01,4.799999999999999822e-01,1.046113910000000000e+10
3.500000000000000000e+01,7.000000000000000000e+01,1.230000000000000000e+02,1.550000000000000000e+02,9.300000000000000000e+01,5.300000000000000000e+01,3.100000000000000000e+01,3.000000000000000000e+01,4.799999999999999822e-01,1.048269580000000000e+10
4.400000000000000000e+01,9.100000000000000000e+01,1.760000000000000000e+02,1.530000000000000000e+02,1.000000000000000000e+02,6.600000000000000000e+01,3.800000000000000000e+01,3.300000000000000000e+01,4.899999999999999911e-01,1.050494520000000000e+10
