3.500000000000000000e+01,6.000000000000000000e+01,2.600000000000000000e+01,3.800000000000000000e+01,3.600000000000000000e+01,7.400000000000000000e+01,7.300000000000000000e+01,6.500000000000000000e+01,4.699999999999999734e-01,7.485170000000000000e+08
3.400000000000000000e+01,6.200000000000000000e+01,2.700000000000000000e+01,3.400000000000000000e+01,3.600000000000000000e+01,7.300000000000000000e+01,7.500000000000000000e+01,6.200000000000000000e+01,4.699999999999999734e-01,9.089822000000000000e+08
3.400000000000000000e+01,6.400000000000000000e+01,2.700000000000000000e+01,3.400000000000000000e+01,3.500000000000000000e+01,7.500000000000000000e+01,6.900000000000000000e+01,6.200000000000000000e+01,4.699999999999999734e-01,1.630908900000000000e+09
3.500000000000000000e+01,6.300000000000000000e+01,2.600000000000000000e+01,3.300000000000000000e+01,3.000000000000000000e+01,7.400000000000000000e+01,6.800000000000000000e+01,5.900000000000000000e+01,4.699999999999999734e-01,1.649068500000000000e+09
3.100000000000000000e+01,4.800000000000000000e+01,2.200000000000000000e+01,3.100000000000000000e+01,3.100000000000000000e+01,5.100000000000000000e+01,5.000000000000000000e+01,3.400000000000000000e+01,4.699999999999999734e-01,1.671083900000000000e+09
3.400000000000000000e+01,6.400000000000000000e+01,2.300000000000000000e+01,2.800000000000000000e+01,3.000000000000000000e+01,5.100000000000000000e+01,4.700000000000000000e+01,5.800000000000000000e+01,4.699999999999999734e-01,1.689408600000000000e+09
3.500000000000000000e+01,6.300000000000000000e+01,2.600000000000000000e+01,3.200000000000000000e+01,3.200000000000000000e+01,4.900000000000000000e+01,4.700000000000000000e+01,5.800000000000000000e+01,4.699999999999999734e-01,1.708176800000000000e+09
3.700000000000000000e+01,6.400000000000000000e+01,2.300000000000000000e+01,3.100000000000000000e+01,3.400000000000000000e+01,5.000000000000000000e+01,5.700000000000000000e+01,7.000000000000000000e+01,4.699999999999999734e-01,1.726599900000000000e+09
3.700000000000000000e+01,6.500000000000000000e+01,2.600000000000000000e+01,3.400000000000000000e+01,3.500000000000000000e+01,5.100000000000000000e+01,6.200000000000000000e+01,7.200000000000000000e+01,4.699999999999999734e-01,1.744760000000000000e+09
4.100000000000000000e+01,7.000000000000000000e+01,2.700000000000000000e+01,3.900000000000000000e+01,3.800000000000000000e+01,4.900000000000000000e+01,6.100000000000000000e+01,7.500000000000000000e+01,4.699999999999999734e-01,1.764566600000000000e+09
3.900000000000000000e+01,5.400000000000000000e+01,2.800000000000000000e+01,4.100000000000000000e+01,4.000000000000000000e+01,4.600000000000000000e+01,6.000000000000000000e+01,5.700000000000000000e+01,4.699999999999999734e-01,1.784385200000000000e+09
3.500000000000000000e+01,5.200000000000000000e+01,2.600000000000000000e+01,3.800000000000000000e+01,3.800000000000000000e+01,4.600000000000000000e+01,5.600000000000000000e+01,5.600000000000000000e+01,4.699999999999999734e-01,1.802702700000000000e+09
3.300000000000000000e+01,4.800000000000000000e+01,2.700000000000000000e+01,4.200000000000000000e+01,3.800000000000000000e+01,4.600000000000000000e+01,5.500000000000000000e+01,4.300000000000000000e+01,4.699999999999999734e-01,1.820672700000000000e+09
3.300000000000000000e+01,4.500000000000000000e+01,2.600000000000000000e+01,4.000000000000000000e+01,3.700000000000000000e+01,4.500000000000000000e+01,4.800000000000000000e+01,3.900000000000000000e+01,4.699999999999999734e-01,1.838468600000000000e+09
3.900000000000000000e+01,5.500000000000000000e+01,2.600000000000000000e+01,3.900000000000000000e+01,3.400000000000000000e+01,4.700000000000000000e+01,5.000000000000000000e+01,8.200000000000000000e+01,4.699999999999999734e-01,1.855892900000000000e+09
4.200000000000000000e+01,6.200000000000000000e+01,2.700000000000000000e+01,3.800000000000000000e+01,3.200000000000000000e+01,4.700000000000000000e+01,4.900000000000000000e+01,8.900000000000000000e+01,4.699999999999999734e-01,1.875775900000000000e+09
4.100000000000000000e+01,6.000000000000000000e+01,2.600000000000000000e+01,3.900000000000000000e+01,3.600000000000000000e+01,5.900000000000000000e+01,5.700000000000000000e+01,9.300000000000000000e+01,4.699999999999999734e-01,1.893238400000000000e+09
4.200000000000000000e+01,6.900000000000000000e+01,2.600000000000000000e+01,3.500000000000000000e+01,3.700000000000000000e+01,6.300000000000000000e+01,5.200000000000000000e+01,9.500000000000000000e+01,4.699999999999999734e-01,1.912049100000000000e+09
4.200000000000000000e+01,6.900000000000000000e+01,2.700000000000000000e+01,3.400000000000000000e+01,3.800000000000000000e+01,6.600000000000000000e+01,5.900000000000000000e+01,9.800000000000000000e+01,4.699999999999999734e-01,1.989596500000000000e+09
3.300000000000000000e+01,5.900000000000000000e+01,2.600000000000000000e+01,3.000000000000000000e+01,3.800000000000000000e+01,8.200000000000000000e+01,8.700000000000000000e+01,6.700000000000000000e+01,4.699999999999999734e-01,2.008421500000000000e+09
2.800000000000000000e+01,5.000000000000000000e+01,2.300000000000000000e+01,2.800000000000000000e+01,3.600000000000000000e+01,8.400000000000000000e+01,8.900000000000000000e+01,5.700000000000000000e+01,4.699999999999999734e-01,2.025503200000000000e+09
2.800000000000000000e+01,5.300000000000000000e+01,2.400000000000000000e+01,2.700000000000000000e+01,3.100000000000000000e+01,7.700000000000000000e+01,8.500000000000000000e+01,5.100000000000000000e+01,4.699999999999999734e-01,2.042557700000000000e+09
3.200000000000000000e+01,5.900000000000000000e+01,2.700000000000000000e+01,2.800000000000000000e+01,3.000000000000000000e+01,7.300000000000000000e+01,8.300000000000000000e+01,4.300000000000000000e+01,4.699999999999999734e-01,2.061334300000000000e+09
3.400000000000000000e+01,6.000000000000000000e+01,2.700000000000000000e+01,2.800000000000000000e+01,2.800000000000000000e+01,7.800000000000000000e+01,8.800000000000000000e+01,3.700000000000000000e+01,4.699999999999999734e-01,2.078829800000000000e+09
3.500000000000000000e+01,6.400000000000000000e+01,2.800000000000000000e+01,2.800000000000000000e+01,3.100000000000000000e+01,6.300000000000000000e+01,6.500000000000000000e+01,2.800000000000000000e+01,4.699999999999999734e-01,2.097154400000000000e+09
3.600000000000000000e+01,6.700000000000000000e+01,3.000000000000000000e+01,3.100000000000000000e+01,3.600000000000000000e+01,7.000000000000000000e+01,6.400000000000000000e+01,2.400000000000000000e+01,4.699999999999999734e-01,2.116214600000000000e+09
3.600000000000000000e+01,6.600000000000000000e+01,3.000000000000000000e+01,3.100000000000000000e+01,3.500000000000000000e+01,7.000000000000000000e+01,6.400000000000000000e+01,2.500000000000000000e+01,4.699999999999999734e-01,2.135840400000000000e+09
3.400000000000000000e+01,6.100000000000000000e+01,2.700000000000000000e+01,3.000000000000000000e+01,3.500000000000000000e+01,7.500000000000000000e+01,7.000000000000000000e+01,2.900000000000000000e+01,4.699999999999999734e-01,2.155949800000000000e+09
3.100000000000000000e+01,6.500000000000000000e+01,2.700000000000000000e+01,3.100000000000000000e+01,3.700000000000000000e+01,7.200000000000000000e+01,6.000000000000000000e+01,2.700000000000000000e+01,4.699999999999999734e-01,2.175714900000000000e+09
2.800000000000000000e+01,6.000000000000000000e+01,2.600000000000000000e+01,3.100000000000000000e+01,3.400000000000000000e+01,8.400000000000000000e+01,6.200000000000000000e+01,2.700000000000000000e+01,4.699999999999999734e-01,2.193807400000000000e+09
3.500000000000000000e+01,6.800000000000000000e+01,2.600000000000000000e+01,3.000000000000000000e+01,3.200000000000000000e+01,9.400000000000000000e+01,6.500000000000000000e+01,2.900000000000000000e+01,4.699999999999999734e-01,2.211156500000000000e+09
3.600000000000000000e+01,6.700000000000000000e+01,2.700000000000000000e+01,2.900000000000000000e+01,3.300000000000000000e+01,9.100000000000000000e+01,6.400000000000000000e+01,2.700000000000000000e+01,4.699999999999999734e-01,2.228772400000000000e+09
3.300000000000000000e+01,6.100000000000000000e+01,2.800000000000000000e+01,2.800000000000000000e+01,3.100000000000000000e+01,8.600000000000000000e+01,6.500000000000000000e+01,2.300000000000000000e+01,4.699999999999999734e-01,2.246745400000000000e+09
3.400000000000000000e+01,6.000000000000000000e+01,2.600000000000000000e+01,2.700000000000000000e+01,3.000000000000000000e+01,8.600000000000000000e+01,6.600000000000000000e+01,2.500000000000000000e+01,4.799999999999999822e-01,2.265189700000000000e+09
3.400000000000000000e+01,5.600000000000000000e+01,2.600000000000000000e+01,2.600000000000000000e+01,2.900000000000000000e+01,7.300000000000000000e+01,6.400000000000000000e+01,2.600000000000000000e+01,4.799999999999999822e-01,2.284103300000000000e+09
2.900000000000000000e+01,5.200000000000000000e+01,2.700000000000000000e+01,2.500000000000000000e+01,2.900000000000000000e+01,5.500000000000000000e+01,6.700000000000000000e+01,2.400000000000000000e+01,4.799999999999999822e-01,2.313247200000000000e+09
2.700000000000000000e+01,5.500000000000000000e+01,2.500000000000000000e+01,2.500000000000000000e+01,2.900000000000000000e+01,6.200000000000000000e+01,7.000000000000000000e+01,2.500000000000000000e+01,4.799999999999999822e-01,2.331725900000000000e+09
2.700000000000000000e+01,5.300000000000000000e+01,2.400000000000000000e+01,2.800000000000000000e+01,3.100000000000000000e+01,6.300000000000000000e+01,6.300000000000000000e+01,2.300000000000000000e+01,4.799999999999999822e-01,2.349008200000000000e+09
2.600000000000000000e+01,5.100000000000000000e+01,2.300000000000000000e+01,2.900000000000000000e+01,3.000000000000000000e+01,6.400000000000000000e+01,6.900000000000000000e+01,2.100000000000000000e+01,4.799999999999999822e-01,2.366499400000000000e+09
3.700000000000000000e+01,7.500000000000000000e+01,2.800000000000000000e+01,3.100000000000000000e+01,3.100000000000000000e+01,7.100000000000000000e+01,7.400000000000000000e+01,2.500000000000000000e+01,4.799999999999999822e-01,2.383342000000000000e+09
3.500000000000000000e+01,6.900000000000000000e+01,2.600000000000000000e+01,3.100000000000000000e+01,3.200000000000000000e+01,7.100000000000000000e+01,6.800000000000000000e+01,2.500000000000000000e+01,4.799999999999999822e-01,2.400478000000000000e+09
3.700000000000000000e+01,7.100000000000000000e+01,2.800000000000000000e+01,3.200000000000000000e+01,3.400000000000000000e+01,6.600000000000000000e+01,6.700000000000000000e+01,2.500000000000000000e+01,4.799999999999999822e-01,2.416982900000000000e+09
3.700000000000000000e+01,7.100000000000000000e+01,2.900000000000000000e+01,3.100000000000000000e+01,3.500000000000000000e+01,6.500000000000000000e+01,6.600000000000000000e+01,2.500000000000000000e+01,4.799999999999999822e-01,2.435020600000000000e+09
4.300000000000000000e+01,7.500000000000000000e+01,3.200000000000000000e+01,3.100000000000000000e+01,3.400000000000000000e+01,5.800000000000000000e+01,5.700000000000000000e+01,2.600000000000000000e+01,4.799999999999999822e-01,2.451878200000000000e+09
3.500000000000000000e+01,5.700000000000000000e+01,2.900000000000000000e+01,3.100000000000000000e+01,3.500000000000000000e+01,4.800000000000000000e+01,4.200000000000000000e+01,2.000000000000000000e+01,4.799999999999999822e-01,2.469216100000000000e+09
3.400000000000000000e+01,6.000000000000000000e+01,3.000000000000000000e+01,3.000000000000000000e+01,3.200000000000000000e+01,4.200000000000000000e+01,4.100000000000000000e+01,2.100000000000000000e+01,4.799999999999999822e-01,2.486775400000000000e+09
3.400000000000000000e+01,5.600000000000000000e+01,2.800000000000000000e+01,3.200000000000000000e+01,3.200000000000000000e+01,4.300000000000000000e+01,4.100000000000000000e+01,2.000000000000000000e+01,4.799999999999999822e-01,2.504315500000000000e+09
3.700000000000000000e+01,6.800000000000000000e+01,2.900000000000000000e+01,3.000000000000000000e+01,2.900000000000000000e+01,4.400000000000000000e+01,4.600000000000000000e+01,2.100000000000000000e+01,4.799999999999999822e-01,2.521488000000000000e+09
3.200000000000000000e+01,6.500000000000000000e+01,2.800000000000000000e+01,3.100000000000000000e+01,2.900000000000000000e+01,4.700000000000000000e+01,5.800000000000000000e+01,2.300000000000000000e+01,4.799999999999999822e-01,2.538692700000000000e+09
2.900000000000000000e+01,6.500000000000000000e+01,2.700000000000000000e+01,3.000000000000000000e+01,3.000000000000000000e+01,5.300000000000000000e+01,6.000000000000000000e+01,2.400000000000000000e+01,4.799999999999999822e-01,2.555124900000000000e+09
2.900000000000000000e+01,6.200000000000000000e+01,2.700000000000000000e+01,3.100000000000000000e+01,3.300000000000000000e+01,5.600000000000000000e+01,6.000000000000000000e+01,2.500000000000000000e+01,4.799999999999999822e-01,2.573029100000000000e+09
3.000000000000000000e+01,7.400000000000000000e+01,2.600000000000000000e+01,3.000000000000000000e+01,3.200000000000000000e+01,5.700000000000000000e+01,6.000000000000000000e+01,2.600000000000000000e+01,4.799999999999999822e-01,2.593327200000000000e+09
2.900000000000000000e+01,6.200000000000000000e+01,2.400000000000000000e+01,3.100000000000000000e+01,3.200000000000000000e+01,5.700000000000000000e+01,6.000000000000000000e+01,2.500000000000000000e+01,4.799999999999999822e-01,2.617321400000000000e+09
2.800000000000000000e+01,6.600000000000000000e+01,2.400000000000000000e+01,2.900000000000000000e+01,3.100000000000000000e+01,7.700000000000000000e+01,6.200000000000000000e+01,2.500000000000000000e+01,4.799999999999999822e-01,2.637351000000000000e+09
2.900000000000000000e+01,6.200000000000000000e+01,2.400000000000000000e+01,2.900000000000000000e+01,3.100000000000000000e+01,9.600000000000000000e+01,7.100000000000000000e+01,2.700000000000000000e+01,4.799999999999999822e-01,2.657735800000000000e+09
3.300000000000000000e+01,7.500000000000000000e+01,2.600000000000000000e+01,2.800000000000000000e+01,2.800000000000000000e+01,1.000000000000000000e+02,7.400000000000000000e+01,2.700000000000000000e+01,4.799999999999999822e-01,2.676587800000000000e+09
3.700000000000000000e+01,6.200000000000000000e+01,2.600000000000000000e+01,2.600000000000000000e+01,2.800000000000000000e+01,9.900000000000000000e+01,7.000000000000000000e+01,2.700000000000000000e+01,4.799999999999999822e-01,2.695053800000000000e+09
3.600000000000000000e+01,6.300000000000000000e+01,2.700000000000000000e+01,2.700000000000000000e+01,2.800000000000000000e+01,1.020000000000000000e+02,7.500000000000000000e+01,2.800000000000000000e+01,4.799999999999999822e-01,2.712831400000000000e+09
4.400000000000000000e+01,6.600000000000000000e+01,2.500000000000000000e+01,3.000000000000000000e+01,3.400000000000000000e+01,9.000000000000000000e+01,6.700000000000000000e+01,2.900000000000000000e+01,4.799999999999999822e-01,2.730060700000000000e+09
4.400000000000000000e+01,6.600000000000000000e+01,2.800000000000000000e+01,2.900000000000000000e+01,3.500000000000000000e+01,6.200000000000000000e+01,5.900000000000000000e+01,2.700000000000000000e+01,4.799999999999999822e-01,2.747609300000000000e+09
4.600000000000000000e+01,5.100000000000000000e+01,2.700000000000000000e+01,3.100000000000000000e+01,3.700000000000000000e+01,5.200000000000000000e+01,5.500000000000000000e+01,2.800000000000000000e+01,4.799999999999999822e-01,2.764537500000000000e+09
4.100000000000000000e+01,5.400000000000000000e+01,2.700000000000000000e+01,3.400000000000000000e+01,3.800000000000000000e+01,5.600000000000000000e+01,5.700000000000000000e+01,2.900000000000000000e+01,4.799999999999999822e-01,2.782378300000000000e+09
4.500000000000000000e+01,7.500000000000000000e+01,2.700000000000000000e+01,3.500000000000000000e+01,3.900000000000000000e+01,5.700000000000000000e+01,5.300000000000000000e+01,3.000000000000000000e+01,4.799999999999999822e-01,2.800320900000000000e+09
3.600000000000000000e+01,6.700000000000000000e+01,2.700000000000000000e+01,3.400000000000000000e+01,3.700000000000000000e+01,5.400000000000000000e+01,5.300000000000000000e+01,2.800000000000000000e+01,4.799999999999999822e-01,2.816983900000000000e+09
3.700000000000000000e+01,6.700000000000000000e+01,2.400000000000000000e+01,3.400000000000000000e+01,3.500000000000000000e+01,5.300000000000000000e+01,4.900000000000000000e+01,3.000000000000000000e+01,4.799999999999999822e-01,2.834676100000000000e+09
3.100000000000000000e+01,6.800000000000000000e+01,2.400000000000000000e+01,3.500000000000000000e+01,3.500000000000000000e+01,6.900000000000000000e+01,7.100000000000000000e+01,2.900000000000000000e+01,4.799999999999999822e-01,2.851995500000000000e+09
3.400000000000000000e+01,7.200000000000000000e+01,2.500000000000000000e+01,3.300000000000000000e+01,3.500000000000000000e+01,6.500000000000000000e+01,7.100000000000000000e+01,2.900000000000000000e+01,4.799999999999999822e-01,2.871841100000000000e+09
4.300000000000000000e+01,4.900000000000000000e+01,2.500000000000000000e+01,3.300000000000000000e+01,3.600000000000000000e+01,6.300000000000000000e+01,7.000000000000000000e+01,2.700000000000000000e+01,4.799999999999999822e-01,2.889183800000000000e+09
4.300000000000000000e+01,5.200000000000000000e+01,2.500000000000000000e+01,3.200000000000000000e+01,3.500000000000000000e+01,6.200000000000000000e+01,7.300000000000000000e+01,2.700000000000000000e+01,4.799999999999999822e-01,2.906332100000000000e+09
4.400000000000000000e+01,5.400000000000000000e+01,2.800000000000000000e+01,3.200000000000000000e+01,3.400000000000000000e+01,6.600000000000000000e+01,7.900000000000000000e+01,2.600000000000000000e+01,4.799999999999999822e-01,2.925257000000000000e+09
4.700000000000000000e+01,7.000000000000000000e+01,2.500000000000000000e+01,3.000000000000000000e+01,3.300000000000000000e+01,5.600000000000000000e+01,7.200000000000000000e+01,2.500000000000000000e+01,4.799999999999999822e-01,2.943159700000000000e+09
4.300000000000000000e+01,6.300000000000000000e+01,2.500000000000000000e+01,3.200000000000000000e+01,3.500000000000000000e+01,6.100000000000000000e+01,7.400000000000000000e+01,2.400000000000000000e+01,4.799999999999999822e-01,2.961308500000000000e+09
3.500000000000000000e+01,6.800000000000000000e+01,2.600000000000000000e+01,3.000000000000000000e+01,3.400000000000000000e+01,6.000000000000000000e+01,7.000000000000000000e+01,2.300000000000000000e+01,4.799999999999999822e-01,2.979838400000000000e+09
3.500000000000000000e+01,6.900000000000000000e+01,2.600000000000000000e+01,3.200000000000000000e+01,3.600000000000000000e+01,5.700000000000000000e+01,6.300000000000000000e+01,2.300000000000000000e+01,4.799999999999999822e-01,3.001284400000000000e+09
3.500000000000000000e+01,7.900000000000000000e+01,2.500000000000000000e+01,3.500000000000000000e+01,3.600000000000000000e+01,5.400000000000000000e+01,5.500000000000000000e+01,2.400000000000000000e+01,4.799999999999999822e-01,3.030371100000000000e+09
3.400000000000000000e+01,6.400000000000000000e+01,2.800000000000000000e+01,3.800000000000000000e+01,3.900000000000000000e+01,5.000000000000000000e+01,4.400000000000000000e+01,2.400000000000000000e+01,4.799999999999999822e-01,3.060457700000000000e+09
3.400000000000000000e+01,6.500000000000000000e+01,2.700000000000000000e+01,3.400000000000000000e+01,3.400000000000000000e+01,5.400000000000000000e+01,5.200000000000000000e+01,2.400000000000000000e+01,4.799999999999999822e-01,3.080977000000000000e+09
3.300000000000000000e+01,6.100000000000000000e+01,2.600000000000000000e+01,3.700000000000000000e+01,3.600000000000000000e+01,5.700000000000000000e+01,5.600000000000000000e+01,2.700000000000000000e+01,4.799999999999999822e-01,3.101092100000000000e+09
4.400000000000000000e+01,5.900000000000000000e+01,2.900000000000000000e+01,3.500000000000000000e+01,3.300000000000000000e+01,5.700000000000000000e+01,5.700000000000000000e+01,2.900000000000000000e+01,4.799999999999999822e-01,3.123915200000000000e+09
4.200000000000000000e+01,4.400000000000000000e+01,2.800000000000000000e+01,3.300000000000000000e+01,3.400000000000000000e+01,5.600000000000000000e+01,6.100000000000000000e+01,2.700000000000000000e+01,4.799999999999999822e-01,3.145183200000000000e+09
4.200000000000000000e+01,4.300000000000000000e+01,2.900000000000000000e+01,3.100000000000000000e+01,3.300000000000000000e+01,5.500000000000000000e+01,6.000000000000000000e+01,2.700000000000000000e+01,4.799999999999999822e-01,3.161937500000000000e+09
4.400000000000000000e+01,4.700000000000000000e+01,2.900000000000000000e+01,3.200000000000000000e+01,3.100000000000000000e+01,4.500000000000000000e+01,5.200000000000000000e+01,2.700000000000000000e+01,4.799999999999999822e-01,3.179199700000000000e+09
4.400000000000000000e+01,8.700000000000000000e+01,3.100000000000000000e+01,3.200000000000000000e+01,3.300000000000000000e+01,4.300000000000000000e+01,5.400000000000000000e+01,2.700000000000000000e+01,4.799999999999999822e-01,3.196861400000000000e+09
3.500000000000000000e+01,8.900000000000000000e+01,2.700000000000000000e+01,3.400000000000000000e+01,3.300000000000000000e+01,4.400000000000000000e+01,5.500000000000000000e+01,2.400000000000000000e+01,4.799999999999999822e-01,3.214588400000000000e+09
4.100000000000000000e+01,9.000000000000000000e+01,2.900000000000000000e+01,3.400000000000000000e+01,3.400000000000000000e+01,4.200000000000000000e+01,5.100000000000000000e+01,2.600000000000000000e+01,4.799999999999999822e-01,3.235125000000000000e+09
4.100000000000000000e+01,9.700000000000000000e+01,2.600000000000000000e+01,3.300000000000000000e+01,3.300000000000000000e+01,4.000000000000000000e+01,4.900000000000000000e+01,2.700000000000000000e+01,4.799999999999999822e-01,3.255662600000000000e+09
4.200000000000000000e+01,9.700000000000000000e+01,2.600000000000000000e+01,3.500000000000000000e+01,3.500000000000000000e+01,4.200000000000000000e+01,5.000000000000000000e+01,2.700000000000000000e+01,4.799999999999999822e-01,3.276316900000000000e+09
4.000000000000000000e+01,6.400000000000000000e+01,2.600000000000000000e+01,3.400000000000000000e+01,3.100000000000000000e+01,3.800000000000000000e+01,4.600000000000000000e+01,2.600000000000000000e+01,4.799999999999999822e-01,3.294546000000000000e+09
3.900000000000000000e+01,6.100000000000000000e+01,2.700000000000000000e+01,3.100000000000000000e+01,3.400000000000000000e+01,4.400000000000000000e+01,4.900000000000000000e+01,2.800000000000000000e+01,4.799999999999999822e-01,3.313284400000000000e+09
4.000000000000000000e+01,6.600000000000000000e+01,2.600000000000000000e+01,3.100000000000000000e+01,3.000000000000000000e+01,4.500000000000000000e+01,5.200000000000000000e+01,2.900000000000000000e+01,4.799999999999999822e-01,3.332952300000000000e+09
4.300000000000000000e+01,5.800000000000000000e+01,2.700000000000000000e+01,3.300000000000000000e+01,3.200000000000000000e+01,4.500000000000000000e+01,5.100000000000000000e+01,2.800000000000000000e+01,4.799999999999999822e-01,3.353904800000000000e+09
4.000000000000000000e+01,5.800000000000000000e+01,2.700000000000000000e+01,2.900000000000000000e+01,3.000000000000000000e+01,4.400000000000000000e+01,5.100000000000000000e+01,3.100000000000000000e+01,4.799999999999999822e-01,3.372619900000000000e+09
3.800000000000000000e+01,5.700000000000000000e+01,2.600000000000000000e+01,2.900000000000000000e+01,3.100000000000000000e+01,4.300000000000000000e+01,4.800000000000000000e+01,2.800000000000000000e+01,4.799999999999999822e-01,3.392555400000000000e+09
3.800000000000000000e+01,5.700000000000000000e+01,2.700000000000000000e+01,3.000000000000000000e+01,2.900000000000000000e+01,4.000000000000000000e+01,4.100000000000000000e+01,2.700000000000000000e+01,4.799999999999999822e-01,3.412745300000000000e+09
3.200000000000000000e+01,5.500000000000000000e+01,2.700000000000000000e+01,3.100000000000000000e+01,3.000000000000000000e+01,4.300000000000000000e+01,4.900000000000000000e+01,2.700000000000000000e+01,4.799999999999999822e-01,3.430192700000000000e+09
3.600000000000000000e+01,5.300000000000000000e+01,3.000000000000000000e+01,3.100000000000000000e+01,3.200000000000000000e+01,5.200000000000000000e+01,5.200000000000000000e+01,2.800000000000000000e+01,4.799999999999999822e-01,3.448297800000000000e+09
3.800000000000000000e+01,5.200000000000000000e+01,3.000000000000000000e+01,3.200000000000000000e+01,3.300000000000000000e+01,5.700000000000000000e+01,5.500000000000000000e+01,2.400000000000000000e+01,4.799999999999999822e-01,3.466233800000000000e+09
4.000000000000000000e+01,5.400000000000000000e+01,2.800000000000000000e+01,3.100000000000000000e+01,3.400000000000000000e+01,5.700000000000000000e+01,5.800000000000000000e+01,2.400000000000000000e+01,4.799999999999999822e-01,3.483046500000000000e+09
4.100000000000000000e+01,7.800000000000000000e+01,3.000000000000000000e+01,3.100000000000000000e+01,3.400000000000000000e+01,5.700000000000000000e+01,6.500000000000000000e+01,2.400000000000000000e+01,4.799999999999999822e-01,3.500934400000000000e+09
3.900000000000000000e+01,7.200000000000000000e+01,3.100000000000000000e+01,2.900000000000000000e+01,3.300000000000000000e+01,5.600000000000000000e+01,5.700000000000000000e+01,2.100000000000000000e+01,4.799999999999999822e-01,3.519610300000000000e+09
3.600000000000000000e+01,7.200000000000000000e+01,2.700000000000000000e+01,2.500000000000000000e+01,3.000000000000000000e+01,5.200000000000000000e+01,5.600000000000000000e+01,2.200000000000000000e+01,4.799999999999999822e-01,3.540386500000000000e+09
3.500000000000000000e+01,7.600000000000000000e+01,3.000000000000000000e+01,3.000000000000000000e+01,3.200000000000000000e+01,4.800000000000000000e+01,5.200000000000000000e+01,2.300000000000000000e+01,4.799999999999999822e-01,3.559002600000000000e+09
3.700000000000000000e+01,8.000000000000000000e+01,3.200000000000000000e+01,3.100000000000000000e+01,3.200000000000000000e+01,5.000000000000000000e+01,5.200000000000000000e+01,2.500000000000000000e+01,4.799999999999999822e-01,3.576305500000000000e+09
3.700000000000000000e+01,6.100000000000000000e+01,2.900000000000000000e+01,3.000000000000000000e+01,3.100000000000000000e+01,5.500000000000000000e+01,4.600000000000000000e+01,2.500000000000000000e+01,4.799999999999999822e-01,3.596853300000000000e+09
3.700000000000000000e+01,6.300000000000000000e+01,2.800000000000000000e+01,3.200000000000000000e+01,3.200000000000000000e+01,5.700000000000000000e+01,4.600000000000000000e+01,2.600000000000000000e+01,4.799999999999999822e-01,3.623025700000000000e+09
3.600000000000000000e+01,6.400000000000000000e+01,3.200000000000000000e+01,3.200000000000000000e+01,3.000000000000000000e+01,5.400000000000000000e+01,4.300000000000000000e+01,2.500000000000000000e+01,4.799999999999999822e-01,3.642128700000000000e+09
3.900000000000000000e+01,6.600000000000000000e+01,3.000000000000000000e+01,3.100000000000000000e+01,2.900000000000000000e+01,5.500000000000000000e+01,4.400000000000000000e+01,2.700000000000000000e+01,4.799999999999999822e-01,3.661004600000000000e+09
3.600000000000000000e+01,5.900000000000000000e+01,3.000000000000000000e+01,3.100000000000000000e+01,3.100000000000000000e+01,5.400000000000000000e+01,4.600000000000000000e+01,2.500000000000000000e+01,4.799999999999999822e-01,3.680134600000000000e+09
3.500000000000000000e+01,6.200000000000000000e+01,3.100000000000000000e+01,3.100000000000000000e+01,3.300000000000000000e+01,5.200000000000000000e+01,4.900000000000000000e+01,2.500000000000000000e+01,4.799999999999999822e-01,3.697900500000000000e+09
3.600000000000000000e+01,5.900000000000000000e+01,3.000000000000000000e+01,3.000000000000000000e+01,3.200000000000000000e+01,5.200000000000000000e+01,4.700000000000000000e+01,2.600000000000000000e+01,4.799999999999999822e-01,3.716810100000000000e+09
3.900000000000000000e+01,7.200000000000000000e+01,2.700000000000000000e+01,3.500000000000000000e+01,3.900000000000000000e+01,5.400000000000000000e+01,5.300000000000000000e+01,2.600000000000000000e+01,4.799999999999999822e-01,3.737397600000000000e+09
3.700000000000000000e+01,6.900000000000000000e+01,2.600000000000000000e+01,3.200000000000000000e+01,3.900000000000000000e+01,5.100000000000000000e+01,5.000000000000000000e+01,2.600000000000000000e+01,4.799999999999999822e-01,3.755427700000000000e+09
3.700000000000000000e+01,7.200000000000000000e+01,2.400000000000000000e+01,3.500000000000000000e+01,3.700000000000000000e+01,5.500000000000000000e+01,4.800000000000000000e+01,2.700000000000000000e+01,4.799999999999999822e-01,3.776125100000000000e+09
3.900000000000000000e+01,7.200000000000000000e+01,2.700000000000000000e+01,3.700000000000000000e+01,4.500000000000000000e+01,5.500000000000000000e+01,5.300000000000000000e+01,2.800000000000000000e+01,4.799999999999999822e-01,3.793689200000000000e+09
3.900000000000000000e+01,8.400000000000000000e+01,3.400000000000000000e+01,4.100000000000000000e+01,5.600000000000000000e+01,5.200000000000000000e+01,5.400000000000000000e+01,2.800000000000000000e+01,4.799999999999999822e-01,3.811170600000000000e+09
3.400000000000000000e+01,9.200000000000000000e+01,4.200000000000000000e+01,3.800000000000000000e+01,5.300000000000000000e+01,5.400000000000000000e+01,5.700000000000000000e+01,3.100000000000000000e+01,4.799999999999999822e-01,3.828856500000000000e+09
3.300000000000000000e+01,9.900000000000000000e+01,4.300000000000000000e+01,3.600000000000000000e+01,5.200000000000000000e+01,6.200000000000000000e+01,6.700000000000000000e+01,3.000000000000000000e+01,4.799999999999999822e-01,3.846677800000000000e+09
3.400000000000000000e+01,1.040000000000000000e+02,4.400000000000000000e+01,3.300000000000000000e+01,5.400000000000000000e+01,6.100000000000000000e+01,6.800000000000000000e+01,2.900000000000000000e+01,4.799999999999999822e-01,3.866203700000000000e+09
3.300000000000000000e+01,9.900000000000000000e+01,4.200000000000000000e+01,3.100000000000000000e+01,4.600000000000000000e+01,5.600000000000000000e+01,6.500000000000000000e+01,2.800000000000000000e+01,4.799999999999999822e-01,3.883277800000000000e+09
3.100000000000000000e+01,9.000000000000000000e+01,3.900000000000000000e+01,2.500000000000000000e+01,3.100000000000000000e+01,5.800000000000000000e+01,6.700000000000000000e+01,2.700000000000000000e+01,4.799999999999999822e-01,3.900729000000000000e+09
2.900000000000000000e+01,7.200000000000000000e+01,3.000000000000000000e+01,2.600000000000000000e+01,3.000000000000000000e+01,5.800000000000000000e+01,6.700000000000000000e+01,2.400000000000000000e+01,4.799999999999999822e-01,3.917981400000000000e+09
3.400000000000000000e+01,8.100000000000000000e+01,2.900000000000000000e+01,2.900000000000000000e+01,3.200000000000000000e+01,4.700000000000000000e+01,5.900000000000000000e+01,2.600000000000000000e+01,4.799999999999999822e-01,3.935015800000000000e+09
3.500000000000000000e+01,7.500000000000000000e+01,2.600000000000000000e+01,3.000000000000000000e+01,2.800000000000000000e+01,4.100000000000000000e+01,5.500000000000000000e+01,2.700000000000000000e+01,4.799999999999999822e-01,3.955769600000000000e+09
3.600000000000000000e+01,7.900000000000000000e+01,2.600000000000000000e+01,3.000000000000000000e+01,3.000000000000000000e+01,5.700000000000000000e+01,6.300000000000000000e+01,2.800000000000000000e+01,4.799999999999999822e-01,3.973180100000000000e+09
3.600000000000000000e+01,8.000000000000000000e+01,2.300000000000000000e+01,3.300000000000000000e+01,3.200000000000000000e+01,5.800000000000000000e+01,6.500000000000000000e+01,2.800000000000000000e+01,4.799999999999999822e-01,3.990503400000000000e+09
3.900000000000000000e+01,9.000000000000000000e+01,2.500000000000000000e+01,3.200000000000000000e+01,3.200000000000000000e+01,5.200000000000000000e+01,5.600000000000000000e+01,2.800000000000000000e+01,4.799999999999999822e-01,4.008014600000000000e+09
4.100000000000000000e+01,7.700000000000000000e+01,2.600000000000000000e+01,3.100000000000000000e+01,3.100000000000000000e+01,5.600000000000000000e+01,5.700000000000000000e+01,2.700000000000000000e+01,4.799999999999999822e-01,4.027875400000000000e+09
4.100000000000000000e+01,7.200000000000000000e+01,2.900000000000000000e+01,3.400000000000000000e+01,3.300000000000000000e+01,5.900000000000000000e+01,5.800000000000000000e+01,2.500000000000000000e+01,4.799999999999999822e-01,4.045152100000000000e+09
4.200000000000000000e+01,7.500000000000000000e+01,3.100000000000000000e+01,3.400000000000000000e+01,3.200000000000000000e+01,5.400000000000000000e+01,5.500000000000000000e+01,2.600000000000000000e+01,4.899999999999999911e-01,4.063700600000000000e+09
4.200000000000000000e+01,7.300000000000000000e+01,3.000000000000000000e+01,3.200000000000000000e+01,3.100000000000000000e+01,5.000000000000000000e+01,5.200000000000000000e+01,2.400000000000000000e+01,4.899999999999999911e-01,4.092621700000000000e+09
4.300000000000000000e+01,6.300000000000000000e+01,3.000000000000000000e+01,3.100000000000000000e+01,3.000000000000000000e+01,5.300000000000000000e+01,5.700000000000000000e+01,2.700000000000000000e+01,4.899999999999999911e-01,4.110964200000000000e+09
3.600000000000000000e+01,5.600000000000000000e+01,2.900000000000000000e+01,3.500000000000000000e+01,3.000000000000000000e+01,5.200000000000000000e+01,6.000000000000000000e+01,2.600000000000000000e+01,4.799999999999999822e-01,4.141959500000000000e+09
3.700000000000000000e+01,6.300000000000000000e+01,2.700000000000000000e+01,3.400000000000000000e+01,3.200000000000000000e+01,5.200000000000000000e+01,6.000000000000000000e+01,2.900000000000000000e+01,4.799999999999999822e-01,4.160647200000000000e+09
3.300000000000000000e+01,5.700000000000000000e+01,2.500000000000000000e+01,3.500000000000000000e+01,3.300000000000000000e+01,5.000000000000000000e+01,5.600000000000000000e+01,3.000000000000000000e+01,4.799999999999999822e-01,4.179729000000000000e+09
3.900000000000000000e+01,5.800000000000000000e+01,2.500000000000000000e+01,3.500000000000000000e+01,3.200000000000000000e+01,5.200000000000000000e+01,5.300000000000000000e+01,3.200000000000000000e+01,4.799999999999999822e-01,4.200069800000000000e+09
3.400000000000000000e+01,5.500000000000000000e+01,2.400000000000000000e+01,3.800000000000000000e+01,3.500000000000000000e+01,5.600000000000000000e+01,5.100000000000000000e+01,2.800000000000000000e+01,4.799999999999999822e-01,4.219382400000000000e+09
3.800000000000000000e+01,6.400000000000000000e+01,2.400000000000000000e+01,3.600000000000000000e+01,3.600000000000000000e+01,5.800000000000000000e+01,4.800000000000000000e+01,3.000000000000000000e+01,4.799999999999999822e-01,4.242417300000000000e+09
3.800000000000000000e+01,6.000000000000000000e+01,2.300000000000000000e+01,3.400000000000000000e+01,3.500000000000000000e+01,5.900000000000000000e+01,5.000000000000000000e+01,2.800000000000000000e+01,4.799999999999999822e-01,4.262811300000000000e+09
4.100000000000000000e+01,6.300000000000000000e+01,2.500000000000000000e+01,3.200000000000000000e+01,3.200000000000000000e+01,5.200000000000000000e+01,4.600000000000000000e+01,2.600000000000000000e+01,4.799999999999999822e-01,4.292160600000000000e+09
3.900000000000000000e+01,7.300000000000000000e+01,2.700000000000000000e+01,3.400000000000000000e+01,3.400000000000000000e+01,5.000000000000000000e+01,4.800000000000000000e+01,2.300000000000000000e+01,4.799999999999999822e-01,4.313470200000000000e+09
4.000000000000000000e+01,7.300000000000000000e+01,2.800000000000000000e+01,3.500000000000000000e+01,3.300000000000000000e+01,5.700000000000000000e+01,5.200000000000000000e+01,2.500000000000000000e+01,4.799999999999999822e-01,4.332767000000000000e+09
3.800000000000000000e+01,6.300000000000000000e+01,2.800000000000000000e+01,3.400000000000000000e+01,3.200000000000000000e+01,5.700000000000000000e+01,5.800000000000000000e+01,2.400000000000000000e+01,4.799999999999999822e-01,4.352980300000000000e+09
3.500000000000000000e+01,6.700000000000000000e+01,3.000000000000000000e+01,3.500000000000000000e+01,3.400000000000000000e+01,5.800000000000000000e+01,5.500000000000000000e+01,2.600000000000000000e+01,4.799999999999999822e-01,4.375030400000000000e+09
4.300000000000000000e+01,7.300000000000000000e+01,2.900000000000000000e+01,3.800000000000000000e+01,3.500000000000000000e+01,5.800000000000000000e+01,5.300000000000000000e+01,2.700000000000000000e+01,4.799999999999999822e-01,4.397328000000000000e+09
3.900000000000000000e+01,6.100000000000000000e+01,2.700000000000000000e+01,3.700000000000000000e+01,3.500000000000000000e+01,5.900000000000000000e+01,5.300000000000000000e+01,2.800000000000000000e+01,4.799999999999999822e-01,4.421688800000000000e+09
3.900000000000000000e+01,5.900000000000000000e+01,2.600000000000000000e+01,3.500000000000000000e+01,3.500000000000000000e+01,5.500000000000000000e+01,5.100000000000000000e+01,2.700000000000000000e+01,4.799999999999999822e-01,4.440006700000000000e+09
3.900000000000000000e+01,6.100000000000000000e+01,2.700000000000000000e+01,3.600000000000000000e+01,3.400000000000000000e+01,5.200000000000000000e+01,4.300000000000000000e+01,2.700000000000000000e+01,4.799999999999999822e-01,4.458464800000000000e+09
3.800000000000000000e+01,5.700000000000000000e+01,2.700000000000000000e+01,3.800000000000000000e+01,3.500000000000000000e+01,4.900000000000000000e+01,4.700000000000000000e+01,2.600000000000000000e+01,4.799999999999999822e-01,4.480305900000000000e+09
3.200000000000000000e+01,4.600000000000000000e+01,2.900000000000000000e+01,3.500000000000000000e+01,3.500000000000000000e+01,5.000000000000000000e+01,4.900000000000000000e+01,2.600000000000000000e+01,4.799999999999999822e-01,4.499596300000000000e+09
3.300000000000000000e+01,4.600000000000000000e+01,2.900000000000000000e+01,3.400000000000000000e+01,3.300000000000000000e+01,5.500000000000000000e+01,5.400000000000000000e+01,2.600000000000000000e+01,4.799999999999999822e-01,4.519879000000000000e+09
3.300000000000000000e+01,5.000000000000000000e+01,2.800000000000000000e+01,3.400000000000000000e+01,3.000000000000000000e+01,5.300000000000000000e+01,5.900000000000000000e+01,2.600000000000000000e+01,4.799999999999999822e-01,4.538241400000000000e+09
3.500000000000000000e+01,5.800000000000000000e+01,2.800000000000000000e+01,3.400000000000000000e+01,3.100000000000000000e+01,5.300000000000000000e+01,6.200000000000000000e+01,2.500000000000000000e+01,4.799999999999999822e-01,4.558624100000000000e+09
3.600000000000000000e+01,6.000000000000000000e+01,3.000000000000000000e+01,3.200000000000000000e+01,2.700000000000000000e+01,5.600000000000000000e+01,7.200000000000000000e+01,2.400000000000000000e+01,4.799999999999999822e-01,4.578135400000000000e+09
3.900000000000000000e+01,5.900000000000000000e+01,2.700000000000000000e+01,3.700000000000000000e+01,3.000000000000000000e+01,5.700000000000000000e+01,7.400000000000000000e+01,2.400000000000000000e+01,4.799999999999999822e-01,4.600537700000000000e+09
3.800000000000000000e+01,6.300000000000000000e+01,2.700000000000000000e+01,3.700000000000000000e+01,3.000000000000000000e+01,5.900000000000000000e+01,7.700000000000000000e+01,2.300000000000000000e+01,4.799999999999999822e-01,4.621381200000000000e+09
3.900000000000000000e+01,6.500000000000000000e+01,2.700000000000000000e+01,3.700000000000000000e+01,3.100000000000000000e+01,5.600000000000000000e+01,7.000000000000000000e+01,2.300000000000000000e+01,4.799999999999999822e-01,4.646088500000000000e+09
3.900000000000000000e+01,5.400000000000000000e+01,3.200000000000000000e+01,3.700000000000000000e+01,3.200000000000000000e+01,5.500000000000000000e+01,6.700000000000000000e+01,2.400000000000000000e+01,4.799999999999999822e-01,4.664523200000000000e+09
4.300000000000000000e+01,4.900000000000000000e+01,2.900000000000000000e+01,3.600000000000000000e+01,3.100000000000000000e+01,5.100000000000000000e+01,5.600000000000000000e+01,2.700000000000000000e+01,4.799999999999999822e-01,4.692079700000000000e+09
3.700000000000000000e+01,6.100000000000000000e+01,3.100000000000000000e+01,3.400000000000000000e+01,2.800000000000000000e+01,5.200000000000000000e+01,5.500000000000000000e+01,2.700000000000000000e+01,4.799999999999999822e-01,4.724434400000000000e+09
3.600000000000000000e+01,5.700000000000000000e+01,3.100000000000000000e+01,3.300000000000000000e+01,2.900000000000000000e+01,4.800000000000000000e+01,6.100000000000000000e+01,2.800000000000000000e+01,4.799999999999999822e-01,4.751216200000000000e+09
3.300000000000000000e+01,5.400000000000000000e+01,3.000000000000000000e+01,3.000000000000000000e+01,2.900000000000000000e+01,4.700000000000000000e+01,6.800000000000000000e+01,2.800000000000000000e+01,4.799999999999999822e-01,4.770853200000000000e+09
3.100000000000000000e+01,6.200000000000000000e+01,2.600000000000000000e+01,3.100000000000000000e+01,3.000000000000000000e+01,5.500000000000000000e+01,7.000000000000000000e+01,2.700000000000000000e+01,4.799999999999999822e-01,4.789578800000000000e+09
3.400000000000000000e+01,6.800000000000000000e+01,2.500000000000000000e+01,3.200000000000000000e+01,3.200000000000000000e+01,5.900000000000000000e+01,7.300000000000000000e+01,2.500000000000000000e+01,4.799999999999999822e-01,4.808648500000000000e+09
3.200000000000000000e+01,5.900000000000000000e+01,2.600000000000000000e+01,3.400000000000000000e+01,3.200000000000000000e+01,5.600000000000000000e+01,7.200000000000000000e+01,2.500000000000000000e+01,4.799999999999999822e-01,4.825508700000000000e+09
3.600000000000000000e+01,6.200000000000000000e+01,2.500000000000000000e+01,3.400000000000000000e+01,3.300000000000000000e+01,5.600000000000000000e+01,5.800000000000000000e+01,2.600000000000000000e+01,4.799999999999999822e-01,4.842867200000000000e+09
3.600000000000000000e+01,6.100000000000000000e+01,2.500000000000000000e+01,3.400000000000000000e+01,3.100000000000000000e+01,5.400000000000000000e+01,5.100000000000000000e+01,2.600000000000000000e+01,4.799999999999999822e-01,4.860422900000000000e+09
3.900000000000000000e+01,5.500000000000000000e+01,2.500000000000000000e+01,3.700000000000000000e+01,3.400000000000000000e+01,5.100000000000000000e+01,4.600000000000000000e+01,2.700000000000000000e+01,4.799999999999999822e-01,4.878751900000000000e+09
3.700000000000000000e+01,6.700000000000000000e+01,2.600000000000000000e+01,3.700000000000000000e+01,3.200000000000000000e+01,5.400000000000000000e+01,4.700000000000000000e+01,2.600000000000000000e+01,4.799999999999999822e-01,4.896789200000000000e+09
3.900000000000000000e+01,6.800000000000000000e+01,2.300000000000000000e+01,3.400000000000000000e+01,3.300000000000000000e+01,5.500000000000000000e+01,4.500000000000000000e+01,2.700000000000000000e+01,4.799999999999999822e-01,4.913468900000000000e+09
3.700000000000000000e+01,6.500000000000000000e+01,2.500000000000000000e+01,3.700000000000000000e+01,3.500000000000000000e+01,5.600000000000000000e+01,4.300000000000000000e+01,2.800000000000000000e+01,4.799999999999999822e-01,4.930966700000000000e+09
4.600000000000000000e+01,7.700000000000000000e+01,2.500000000000000000e+01,4.500000000000000000e+01,4.300000000000000000e+01,7.300000000000000000e+01,7.100000000000000000e+01,3.000000000000000000e+01,4.799999999999999822e-01,4.948225500000000000e+09
4.500000000000000000e+01,7.700000000000000000e+01,2.600000000000000000e+01,4.400000000000000000e+01,4.000000000000000000e+01,8.600000000000000000e+01,9.800000000000000000e+01,3.200000000000000000e+01,4.799999999999999822e-01,4.965305700000000000e+09
4.200000000000000000e+01,6.000000000000000000e+01,2.800000000000000000e+01,4.400000000000000000e+01,4.500000000000000000e+01,8.900000000000000000e+01,1.030000000000000000e+02,3.400000000000000000e+01,4.799999999999999822e-01,4.983503600000000000e+09
4.000000000000000000e+01,6.200000000000000000e+01,2.800000000000000000e+01,4.400000000000000000e+01,4.400000000000000000e+01,9.000000000000000000e+01,1.050000000000000000e+02,3.400000000000000000e+01,4.799999999999999822e-01,5.001950900000000000e+09
4.300000000000000000e+01,6.500000000000000000e+01,2.800000000000000000e+01,4.300000000000000000e+01,4.700000000000000000e+01,9.500000000000000000e+01,1.140000000000000000e+02,3.300000000000000000e+01,4.799999999999999822e-01,5.020742800000000000e+09
3.700000000000000000e+01,5.700000000000000000e+01,2.800000000000000000e+01,3.700000000000000000e+01,4.400000000000000000e+01,8.200000000000000000e+01,9.800000000000000000e+01,3.200000000000000000e+01,4.799999999999999822e-01,5.038985600000000000e+09
4.000000000000000000e+01,7.200000000000000000e+01,3.100000000000000000e+01,3.400000000000000000e+01,4.600000000000000000e+01,6.700000000000000000e+01,7.400000000000000000e+01,3.000000000000000000e+01,4.799999999999999822e-01,5.057914100000000000e+09
4.000000000000000000e+01,7.400000000000000000e+01,3.000000000000000000e+01,3.300000000000000000e+01,4.200000000000000000e+01,5.800000000000000000e+01,6.100000000000000000e+01,2.700000000000000000e+01,4.799999999999999822e-01,5.075200600000000000e+09
4.000000000000000000e+01,7.100000000000000000e+01,3.100000000000000000e+01,3.400000000000000000e+01,4.300000000000000000e+01,6.700000000000000000e+01,6.600000000000000000e+01,2.700000000000000000e+01,4.799999999999999822e-01,5.093288800000000000e+09
3.900000000000000000e+01,6.700000000000000000e+01,2.900000000000000000e+01,3.200000000000000000e+01,3.900000000000000000e+01,6.500000000000000000e+01,6.400000000000000000e+01,3.000000000000000000e+01,4.799999999999999822e-01,5.111146200000000000e+09
4.000000000000000000e+01,7.500000000000000000e+01,2.700000000000000000e+01,3.300000000000000000e+01,3.500000000000000000e+01,6.500000000000000000e+01,6.400000000000000000e+01,2.900000000000000000e+01,4.799999999999999822e-01,5.128373200000000000e+09
3.700000000000000000e+01,6.200000000000000000e+01,2.600000000000000000e+01,3.100000000000000000e+01,3.300000000000000000e+01,6.400000000000000000e+01,6.300000000000000000e+01,2.800000000000000000e+01,4.799999999999999822e-01,5.146082200000000000e+09
3.600000000000000000e+01,6.000000000000000000e+01,2.700000000000000000e+01,3.000000000000000000e+01,3.200000000000000000e+01,7.700000000000000000e+01,7.300000000000000000e+01,2.800000000000000000e+01,4.799999999999999822e-01,5.165473400000000000e+09
3.700000000000000000e+01,6.000000000000000000e+01,2.900000000000000000e+01,3.100000000000000000e+01,3.100000000000000000e+01,6.800000000000000000e+01,7.000000000000000000e+01,2.800000000000000000e+01,4.799999999999999822e-01,5.184149400000000000e+09
4.300000000000000000e+01,6.700000000000000000e+01,3.000000000000000000e+01,3.000000000000000000e+01,2.900000000000000000e+01,6.400000000000000000e+01,6.400000000000000000e+01,2.700000000000000000e+01,4.799999999999999822e-01,5.205360900000000000e+09
3.900000000000000000e+01,5.300000000000000000e+01,3.100000000000000000e+01,3.200000000000000000e+01,3.100000000000000000e+01,6.600000000000000000e+01,6.600000000000000000e+01,2.800000000000000000e+01,4.799999999999999822e-01,5.223303300000000000e+09
3.800000000000000000e+01,5.000000000000000000e+01,2.700000000000000000e+01,3.100000000000000000e+01,3.400000000000000000e+01,6.900000000000000000e+01,6.900000000000000000e+01,2.900000000000000000e+01,4.799999999999999822e-01,5.242711900000000000e+09
3.900000000000000000e+01,4.800000000000000000e+01,3.100000000000000000e+01,3.100000000000000000e+01,3.300000000000000000e+01,5.000000000000000000e+01,6.500000000000000000e+01,2.800000000000000000e+01,4.799999999999999822e-01,5.260927800000000000e+09
3.800000000000000000e+01,4.800000000000000000e+01,2.700000000000000000e+01,3.000000000000000000e+01,3.300000000000000000e+01,5.000000000000000000e+01,6.900000000000000000e+01,2.900000000000000000e+01,4.799999999999999822e-01,5.277916600000000000e+09
2.800000000000000000e+01,3.800000000000000000e+01,2.800000000000000000e+01,3.200000000000000000e+01,3.200000000000000000e+01,5.100000000000000000e+01,6.600000000000000000e+01,2.700000000000000000e+01,4.799999999999999822e-01,5.295135900000000000e+09
2.900000000000000000e+01,5.900000000000000000e+01,3.000000000000000000e+01,2.800000000000000000e+01,3.000000000000000000e+01,5.100000000000000000e+01,6.900000000000000000e+01,2.400000000000000000e+01,4.799999999999999822e-01,5.312578000000000000e+09
2.600000000000000000e+01,5.800000000000000000e+01,3.300000000000000000e+01,2.900000000000000000e+01,3.200000000000000000e+01,6.100000000000000000e+01,7.200000000000000000e+01,2.600000000000000000e+01,4.799999999999999822e-01,5.329337500000000000e+09
3.600000000000000000e+01,5.800000000000000000e+01,3.000000000000000000e+01,2.900000000000000000e+01,3.200000000000000000e+01,6.300000000000000000e+01,6.800000000000000000e+01,2.700000000000000000e+01,4.799999999999999822e-01,5.347435500000000000e+09
3.600000000000000000e+01,5.500000000000000000e+01,2.800000000000000000e+01,2.900000000000000000e+01,3.300000000000000000e+01,6.500000000000000000e+01,7.100000000000000000e+01,2.700000000000000000e+01,4.799999999999999822e-01,5.364324000000000000e+09
3.600000000000000000e+01,5.300000000000000000e+01,2.600000000000000000e+01,2.600000000000000000e+01,3.400000000000000000e+01,6.300000000000000000e+01,6.800000000000000000e+01,2.600000000000000000e+01,4.799999999999999822e-01,5.381321500000000000e+09
3.800000000000000000e+01,2.500000000000000000e+01,2.600000000000000000e+01,2.300000000000000000e+01,3.300000000000000000e+01,6.700000000000000000e+01,6.900000000000000000e+01,2.800000000000000000e+01,4.799999999999999822e-01,5.399968000000000000e+09
3.900000000000000000e+01,2.200000000000000000e+01,2.300000000000000000e+01,2.500000000000000000e+01,3.300000000000000000e+01,7.400000000000000000e+01,7.000000000000000000e+01,2.700000000000000000e+01,4.699999999999999734e-01,5.417878900000000000e+09
2.900000000000000000e+01,2.100000000000000000e+01,2.200000000000000000e+01,2.500000000000000000e+01,3.400000000000000000e+01,7.500000000000000000e+01,6.900000000000000000e+01,2.600000000000000000e+01,4.699999999999999734e-01,5.437002300000000000e+09
2.700000000000000000e+01,4.900000000000000000e+01,2.500000000000000000e+01,2.300000000000000000e+01,3.100000000000000000e+01,7.200000000000000000e+01,5.800000000000000000e+01,2.400000000000000000e+01,4.699999999999999734e-01,5.455743100000000000e+09
2.600000000000000000e+01,5.400000000000000000e+01,3.000000000000000000e+01,2.400000000000000000e+01,3.200000000000000000e+01,9.000000000000000000e+01,7.900000000000000000e+01,2.400000000000000000e+01,4.699999999999999734e-01,5.472599100000000000e+09
2.300000000000000000e+01,5.300000000000000000e+01,3.100000000000000000e+01,2.600000000000000000e+01,3.600000000000000000e+01,8.900000000000000000e+01,8.500000000000000000e+01,2.300000000000000000e+01,4.699999999999999734e-01,5.489581700000000000e+09
2.400000000000000000e+01,5.300000000000000000e+01,3.000000000000000000e+01,2.500000000000000000e+01,3.000000000000000000e+01,7.500000000000000000e+01,8.100000000000000000e+01,2.200000000000000000e+01,4.699999999999999734e-01,5.506904700000000000e+09
2.300000000000000000e+01,5.300000000000000000e+01,3.100000000000000000e+01,2.500000000000000000e+01,2.800000000000000000e+01,7.200000000000000000e+01,8.200000000000000000e+01,2.200000000000000000e+01,4.699999999999999734e-01,5.523724900000000000e+09
2.300000000000000000e+01,3.000000000000000000e+01,2.900000000000000000e+01,2.400000000000000000e+01,2.800000000000000000e+01,7.500000000000000000e+01,8.400000000000000000e+01,2.400000000000000000e+01,4.699999999999999734e-01,5.540493800000000000e+09
2.600000000000000000e+01,2.000000000000000000e+01,2.500000000000000000e+01,2.600000000000000000e+01,3.300000000000000000e+01,6.300000000000000000e+01,7.400000000000000000e+01,2.500000000000000000e+01,4.699999999999999734e-01,5.557711300000000000e+09
2.500000000000000000e+01,2.100000000000000000e+01,2.400000000000000000e+01,2.600000000000000000e+01,2.800000000000000000e+01,5.800000000000000000e+01,6.300000000000000000e+01,2.400000000000000000e+01,4.699999999999999734e-01,5.575327000000000000e+09
2.600000000000000000e+01,2.400000000000000000e+01,2.400000000000000000e+01,2.700000000000000000e+01,2.900000000000000000e+01,5.900000000000000000e+01,6.100000000000000000e+01,2.600000000000000000e+01,4.699999999999999734e-01,5.592438400000000000e+09
3.200000000000000000e+01,2.400000000000000000e+01,2.400000000000000000e+01,2.500000000000000000e+01,3.000000000000000000e+01,6.100000000000000000e+01,5.900000000000000000e+01,2.500000000000000000e+01,4.699999999999999734e-01,5.610448200000000000e+09
3.400000000000000000e+01,2.600000000000000000e+01,2.900000000000000000e+01,2.800000000000000000e+01,3.300000000000000000e+01,7.600000000000000000e+01,9.400000000000000000e+01,2.900000000000000000e+01,4.699999999999999734e-01,5.628545100000000000e+09
3.300000000000000000e+01,2.800000000000000000e+01,2.700000000000000000e+01,2.600000000000000000e+01,2.700000000000000000e+01,6.900000000000000000e+01,9.000000000000000000e+01,2.600000000000000000e+01,4.699999999999999734e-01,5.645466800000000000e+09
3.400000000000000000e+01,2.800000000000000000e+01,2.700000000000000000e+01,2.500000000000000000e+01,2.700000000000000000e+01,6.800000000000000000e+01,8.900000000000000000e+01,2.700000000000000000e+01,4.699999999999999734e-01,5.662753500000000000e+09
3.300000000000000000e+01,2.700000000000000000e+01,2.700000000000000000e+01,2.400000000000000000e+01,2.700000000000000000e+01,7.000000000000000000e+01,9.100000000000000000e+01,2.500000000000000000e+01,4.699999999999999734e-01,5.679676300000000000e+09
2.800000000000000000e+01,2.900000000000000000e+01,2.700000000000000000e+01,2.500000000000000000e+01,2.500000000000000000e+01,6.900000000000000000e+01,9.200000000000000000e+01,2.600000000000000000e+01,4.699999999999999734e-01,5.697548100000000000e+09
3.400000000000000000e+01,2.700000000000000000e+01,2.400000000000000000e+01,2.400000000000000000e+01,2.200000000000000000e+01,5.200000000000000000e+01,7.200000000000000000e+01,2.300000000000000000e+01,4.699999999999999734e-01,5.713895100000000000e+09
3.300000000000000000e+01,2.500000000000000000e+01,2.400000000000000000e+01,2.700000000000000000e+01,2.600000000000000000e+01,6.500000000000000000e+01,8.100000000000000000e+01,2.600000000000000000e+01,4.699999999999999734e-01,5.731841800000000000e+09
3.400000000000000000e+01,2.600000000000000000e+01,2.700000000000000000e+01,2.800000000000000000e+01,2.700000000000000000e+01,6.600000000000000000e+01,8.900000000000000000e+01,2.700000000000000000e+01,4.699999999999999734e-01,5.748856300000000000e+09
3.400000000000000000e+01,2.900000000000000000e+01,2.800000000000000000e+01,2.600000000000000000e+01,2.600000000000000000e+01,6.300000000000000000e+01,8.700000000000000000e+01,2.700000000000000000e+01,4.699999999999999734e-01,5.765976100000000000e+09
3.300000000000000000e+01,2.700000000000000000e+01,2.900000000000000000e+01,2.700000000000000000e+01,2.800000000000000000e+01,6.000000000000000000e+01,8.600000000000000000e+01,2.600000000000000000e+01,4.699999999999999734e-01,5.782524600000000000e+09
3.500000000000000000e+01,2.800000000000000000e+01,3.000000000000000000e+01,2.600000000000000000e+01,2.700000000000000000e+01,5.700000000000000000e+01,6.900000000000000000e+01,2.600000000000000000e+01,4.699999999999999734e-01,5.799360800000000000e+09
3.600000000000000000e+01,2.700000000000000000e+01,3.000000000000000000e+01,2.500000000000000000e+01,2.600000000000000000e+01,3.800000000000000000e+01,5.400000000000000000e+01,2.500000000000000000e+01,4.699999999999999734e-01,5.816045700000000000e+09
3.500000000000000000e+01,2.700000000000000000e+01,2.700000000000000000e+01,2.600000000000000000e+01,3.000000000000000000e+01,3.800000000000000000e+01,4.400000000000000000e+01,2.300000000000000000e+01,4.699999999999999734e-01,5.833100600000000000e+09
3.500000000000000000e+01,2.600000000000000000e+01,2.900000000000000000e+01,2.700000000000000000e+01,3.300000000000000000e+01,4.000000000000000000e+01,4.600000000000000000e+01,2.200000000000000000e+01,4.699999999999999734e-01,5.850106800000000000e+09
3.400000000000000000e+01,2.400000000000000000e+01,2.900000000000000000e+01,2.700000000000000000e+01,3.300000000000000000e+01,4.300000000000000000e+01,4.600000000000000000e+01,2.200000000000000000e+01,4.699999999999999734e-01,5.868582900000000000e+09
2.500000000000000000e+01,2.400000000000000000e+01,2.800000000000000000e+01,2.800000000000000000e+01,3.300000000000000000e+01,4.300000000000000000e+01,4.500000000000000000e+01,2.200000000000000000e+01,4.699999999999999734e-01,5.885990400000000000e+09
2.300000000000000000e+01,2.500000000000000000e+01,2.800000000000000000e+01,2.500000000000000000e+01,3.200000000000000000e+01,3.900000000000000000e+01,4.300000000000000000e+01,2.000000000000000000e+01,4.699999999999999734e-01,5.902689300000000000e+09
2.200000000000000000e+01,2.700000000000000000e+01,2.900000000000000000e+01,2.600000000000000000e+01,2.600000000000000000e+01,3.400000000000000000e+01,5.100000000000000000e+01,2.000000000000000000e+01,4.699999999999999734e-01,5.919524500000000000e+09
2.900000000000000000e+01,2.400000000000000000e+01,2.800000000000000000e+01,2.600000000000000000e+01,2.400000000000000000e+01,4.600000000000000000e+01,5.600000000000000000e+01,2.100000000000000000e+01,4.699999999999999734e-01,5.935971100000000000e+09
2.900000000000000000e+01,2.600000000000000000e+01,5.700000000000000000e+01,2.600000000000000000e+01,2.400000000000000000e+01,4.600000000000000000e+01,5.900000000000000000e+01,2.300000000000000000e+01,4.699999999999999734e-01,5.954126100000000000e+09
2.800000000000000000e+01,2.900000000000000000e+01,1.060000000000000000e+02,2.800000000000000000e+01,2.200000000000000000e+01,4.600000000000000000e+01,5.900000000000000000e+01,2.200000000000000000e+01,4.699999999999999734e-01,5.971570700000000000e+09
3.100000000000000000e+01,3.800000000000000000e+01,1.520000000000000000e+02,3.500000000000000000e+01,2.400000000000000000e+01,4.800000000000000000e+01,6.200000000000000000e+01,2.600000000000000000e+01,4.699999999999999734e-01,5.988899100000000000e+09
3.000000000000000000e+01,3.500000000000000000e+01,1.630000000000000000e+02,3.400000000000000000e+01,2.300000000000000000e+01,4.900000000000000000e+01,5.100000000000000000e+01,2.500000000000000000e+01,4.699999999999999734e-01,6.005708000000000000e+09
3.700000000000000000e+01,4.100000000000000000e+01,1.950000000000000000e+02,4.200000000000000000e+01,2.400000000000000000e+01,3.500000000000000000e+01,4.100000000000000000e+01,2.500000000000000000e+01,4.699999999999999734e-01,6.022054900000000000e+09
4.000000000000000000e+01,5.500000000000000000e+01,2.110000000000000000e+02,4.900000000000000000e+01,2.900000000000000000e+01,3.000000000000000000e+01,3.500000000000000000e+01,2.700000000000000000e+01,4.699999999999999734e-01,6.039011400000000000e+09
4.400000000000000000e+01,6.800000000000000000e+01,2.180000000000000000e+02,5.200000000000000000e+01,3.200000000000000000e+01,3.100000000000000000e+01,3.400000000000000000e+01,2.800000000000000000e+01,4.699999999999999734e-01,6.057256700000000000e+09
5.700000000000000000e+01,9.900000000000000000e+01,2.030000000000000000e+02,5.500000000000000000e+01,3.300000000000000000e+01,3.100000000000000000e+01,2.900000000000000000e+01,3.000000000000000000e+01,4.799999999999999822e-01,6.074812900000000000e+09
6.100000000000000000e+01,1.190000000000000000e+02,2.090000000000000000e+02,6.400000000000000000e+01,3.600000000000000000e+01,3.100000000000000000e+01,2.600000000000000000e+01,3.100000000000000000e+01,4.799999999999999822e-01,6.091560000000000000e+09
6.300000000000000000e+01,1.430000000000000000e+02,1.870000000000000000e+02,6.000000000000000000e+01,3.700000000000000000e+01,3.200000000000000000e+01,2.400000000000000000e+01,3.100000000000000000e+01,4.799999999999999822e-01,6.108000600000000000e+09
6.800000000000000000e+01,1.630000000000000000e+02,1.790000000000000000e+02,5.600000000000000000e+01,3.400000000000000000e+01,3.200000000000000000e+01,2.700000000000000000e+01,3.100000000000000000e+01,4.899999999999999911e-01,6.124926500000000000e+09
7.500000000000000000e+01,2.080000000000000000e+02,2.100000000000000000e+02,5.500000000000000000e+01,3.600000000000000000e+01,3.400000000000000000e+01,2.700000000000000000e+01,3.600000000000000000e+01,4.899999999999999911e-01,6.142096300000000000e+09
7.000000000000000000e+01,2.100000000000000000e+02,2.050000000000000000e+02,4.900000000000000000e+01,3.400000000000000000e+01,3.200000000000000000e+01,2.500000000000000000e+01,3.300000000000000000e+01,5.000000000000000000e-01,6.159391600000000000e+09
7.000000000000000000e+01,2.020000000000000000e+02,2.070000000000000000e+02,3.900000000000000000e+01,3.200000000000000000e+01,3.400000000000000000e+01,3.700000000000000000e+01,4.300000000000000000e+01,5.000000000000000000e-01,6.176159100000000000e+09
6.600000000000000000e+01,1.960000000000000000e+02,2.170000000000000000e+02,4.000000000000000000e+01,3.400000000000000000e+01,4.000000000000000000e+01,4.100000000000000000e+01,4.700000000000000000e+01,5.000000000000000000e-01,6.192878900000000000e+09
5.900000000000000000e+01,1.850000000000000000e+02,2.200000000000000000e+02,3.900000000000000000e+01,3.300000000000000000e+01,4.200000000000000000e+01,4.200000000000000000e+01,7.500000000000000000e+01,5.100000000000000089e-01,6.210104900000000000e+09
5.100000000000000000e+01,1.340000000000000000e+02,1.740000000000000000e+02,3.600000000000000000e+01,2.900000000000000000e+01,3.900000000000000000e+01,4.200000000000000000e+01,8.600000000000000000e+01,5.100000000000000089e-01,6.227592600000000000e+09
4.300000000000000000e+01,1.200000000000000000e+02,1.720000000000000000e+02,3.600000000000000000e+01,2.700000000000000000e+01,3.800000000000000000e+01,4.200000000000000000e+01,8.700000000000000000e+01,5.100000000000000089e-01,6.245853500000000000e+09
4.100000000000000000e+01,1.190000000000000000e+02,1.620000000000000000e+02,3.700000000000000000e+01,2.800000000000000000e+01,3.500000000000000000e+01,3.100000000000000000e+01,8.500000000000000000e+01,5.100000000000000089e-01,6.263921100000000000e+09
3.500000000000000000e+01,1.070000000000000000e+02,1.390000000000000000e+02,3.700000000000000000e+01,2.700000000000000000e+01,2.900000000000000000e+01,2.800000000000000000e+01,8.300000000000000000e+01,5.100000000000000089e-01,6.282108500000000000e+09
3.400000000000000000e+01,1.100000000000000000e+02,1.240000000000000000e+02,3.600000000000000000e+01,2.800000000000000000e+01,2.800000000000000000e+01,2.400000000000000000e+01,6.000000000000000000e+01,5.100000000000000089e-01,6.298890300000000000e+09
3.000000000000000000e+01,1.040000000000000000e+02,1.120000000000000000e+02,3.900000000000000000e+01,2.700000000000000000e+01,2.800000000000000000e+01,2.400000000000000000e+01,3.800000000000000000e+01,5.100000000000000089e-01,6.316956900000000000e+09
3.000000000000000000e+01,9.200000000000000000e+01,1.070000000000000000e+02,4.200000000000000000e+01,3.000000000000000000e+01,3.000000000000000000e+01,2.500000000000000000e+01,3.600000000000000000e+01,5.100000000000000089e-01,6.336901400000000000e+09
2.900000000000000000e+01,9.100000000000000000e+01,9.300000000000000000e+01,4.000000000000000000e+01,2.900000000000000000e+01,3.000000000000000000e+01,2.600000000000000000e+01,3.000000000000000000e+01,5.100000000000000089e-01,6.353670000000000000e+09
3.000000000000000000e+01,9.000000000000000000e+01,9.400000000000000000e+01,3.700000000000000000e+01,2.700000000000000000e+01,2.600000000000000000e+01,2.400000000000000000e+01,2.900000000000000000e+01,5.000000000000000000e-01,6.372158900000000000e+09
2.800000000000000000e+01,6.900000000000000000e+01,1.100000000000000000e+02,4.000000000000000000e+01,2.700000000000000000e+01,3.000000000000000000e+01,2.700000000000000000e+01,2.400000000000000000e+01,5.000000000000000000e-01,6.389973700000000000e+09
2.700000000000000000e+01,6.000000000000000000e+01,1.000000000000000000e+02,3.600000000000000000e+01,3.200000000000000000e+01,3.500000000000000000e+01,2.600000000000000000e+01,2.300000000000000000e+01,5.000000000000000000e-01,6.406944200000000000e+09
2.500000000000000000e+01,5.900000000000000000e+01,1.050000000000000000e+02,3.100000000000000000e+01,3.100000000000000000e+01,3.400000000000000000e+01,2.600000000000000000e+01,2.200000000000000000e+01,5.000000000000000000e-01,6.424460000000000000e+09
2.700000000000000000e+01,5.800000000000000000e+01,1.080000000000000000e+02,3.300000000000000000e+01,3.100000000000000000e+01,3.500000000000000000e+01,2.400000000000000000e+01,2.400000000000000000e+01,5.000000000000000000e-01,6.443769200000000000e+09
2.400000000000000000e+01,5.800000000000000000e+01,1.090000000000000000e+02,3.200000000000000000e+01,3.200000000000000000e+01,3.600000000000000000e+01,2.600000000000000000e+01,2.300000000000000000e+01,5.000000000000000000e-01,6.460914400000000000e+09
2.600000000000000000e+01,5.900000000000000000e+01,1.250000000000000000e+02,4.400000000000000000e+01,3.500000000000000000e+01,3.200000000000000000e+01,2.400000000000000000e+01,2.500000000000000000e+01,5.000000000000000000e-01,6.478697300000000000e+09
2.700000000000000000e+01,6.400000000000000000e+01,1.430000000000000000e+02,4.700000000000000000e+01,3.400000000000000000e+01,2.900000000000000000e+01,2.600000000000000000e+01,2.700000000000000000e+01,5.000000000000000000e-01,6.495545000000000000e+09
2.800000000000000000e+01,6.000000000000000000e+01,1.400000000000000000e+02,4.600000000000000000e+01,3.500000000000000000e+01,2.700000000000000000e+01,2.700000000000000000e+01,2.600000000000000000e+01,5.000000000000000000e-01,6.513584600000000000e+09
2.700000000000000000e+01,5.500000000000000000e+01,1.420000000000000000e+02,4.500000000000000000e+01,3.500000000000000000e+01,2.700000000000000000e+01,2.800000000000000000e+01,2.300000000000000000e+01,4.899999999999999911e-01,6.530265900000000000e+09
2.500000000000000000e+01,4.700000000000000000e+01,1.410000000000000000e+02,4.800000000000000000e+01,3.700000000000000000e+01,3.200000000000000000e+01,2.900000000000000000e+01,2.400000000000000000e+01,4.899999999999999911e-01,6.547535100000000000e+09
2.400000000000000000e+01,4.900000000000000000e+01,1.240000000000000000e+02,3.600000000000000000e+01,3.600000000000000000e+01,3.500000000000000000e+01,3.100000000000000000e+01,2.300000000000000000e+01,4.899999999999999911e-01,6.564762700000000000e+09
2.100000000000000000e+01,4.400000000000000000e+01,1.100000000000000000e+02,3.000000000000000000e+01,3.300000000000000000e+01,3.400000000000000000e+01,3.000000000000000000e+01,2.200000000000000000e+01,4.899999999999999911e-01,6.583738700000000000e+09
2.200000000000000000e+01,4.700000000000000000e+01,1.060000000000000000e+02,3.500000000000000000e+01,3.500000000000000000e+01,3.700000000000000000e+01,3.100000000000000000e+01,2.300000000000000000e+01,4.899999999999999911e-01,6.602846600000000000e+09
3.100000000000000000e+01,6.600000000000000000e+01,1.260000000000000000e+02,3.300000000000000000e+01,3.500000000000000000e+01,3.900000000000000000e+01,3.100000000000000000e+01,2.700000000000000000e+01,4.899999999999999911e-01,6.620660400000000000e+09
3.200000000000000000e+01,6.400000000000000000e+01,1.250000000000000000e+02,3.400000000000000000e+01,3.200000000000000000e+01,3.400000000000000000e+01,3.300000000000000000e+01,2.700000000000000000e+01,4.899999999999999911e-01,6.639548300000000000e+09
3.100000000000000000e+01,6.000000000000000000e+01,1.180000000000000000e+02,3.700000000000000000e+01,2.900000000000000000e+01,3.200000000000000000e+01,3.200000000000000000e+01,2.600000000000000000e+01,4.899999999999999911e-01,6.658159800000000000e+09
3.300000000000000000e+01,6.200000000000000000e+01,1.610000000000000000e+02,4.000000000000000000e+01,2.800000000000000000e+01,3.100000000000000000e+01,3.200000000000000000e+01,2.700000000000000000e+01,4.899999999999999911e-01,6.678168500000000000e+09
3.200000000000000000e+01,6.100000000000000000e+01,1.650000000000000000e+02,3.700000000000000000e+01,2.500000000000000000e+01,2.800000000000000000e+01,3.200000000000000000e+01,2.700000000000000000e+01,4.899999999999999911e-01,6.697466700000000000e+09
2.500000000000000000e+01,4.400000000000000000e+01,1.510000000000000000e+02,3.600000000000000000e+01,2.500000000000000000e+01,2.600000000000000000e+01,3.000000000000000000e+01,2.600000000000000000e+01,4.899999999999999911e-01,6.716599000000000000e+09
2.400000000000000000e+01,4.800000000000000000e+01,1.810000000000000000e+02,3.300000000000000000e+01,2.500000000000000000e+01,2.800000000000000000e+01,2.800000000000000000e+01,2.700000000000000000e+01,4.899999999999999911e-01,6.734931600000000000e+09
2.500000000000000000e+01,5.100000000000000000e+01,1.710000000000000000e+02,2.800000000000000000e+01,2.300000000000000000e+01,2.900000000000000000e+01,2.700000000000000000e+01,2.600000000000000000e+01,4.899999999999999911e-01,6.761629100000000000e+09
2.900000000000000000e+01,6.100000000000000000e+01,1.300000000000000000e+02,2.800000000000000000e+01,2.600000000000000000e+01,3.200000000000000000e+01,3.000000000000000000e+01,3.100000000000000000e+01,4.899999999999999911e-01,6.783892300000000000e+09
2.900000000000000000e+01,5.800000000000000000e+01,1.470000000000000000e+02,2.600000000000000000e+01,2.400000000000000000e+01,3.200000000000000000e+01,2.900000000000000000e+01,3.700000000000000000e+01,4.899999999999999911e-01,6.802710600000000000e+09
3.100000000000000000e+01,7.000000000000000000e+01,1.500000000000000000e+02,2.600000000000000000e+01,2.500000000000000000e+01,3.300000000000000000e+01,2.900000000000000000e+01,5.800000000000000000e+01,4.899999999999999911e-01,6.821928200000000000e+09
3.800000000000000000e+01,7.900000000000000000e+01,1.120000000000000000e+02,2.700000000000000000e+01,2.700000000000000000e+01,3.100000000000000000e+01,3.100000000000000000e+01,1.000000000000000000e+02,4.899999999999999911e-01,6.839459700000000000e+09
3.800000000000000000e+01,7.700000000000000000e+01,1.120000000000000000e+02,2.800000000000000000e+01,2.700000000000000000e+01,2.900000000000000000e+01,3.000000000000000000e+01,1.040000000000000000e+02,4.899999999999999911e-01,6.859122900000000000e+09
3.400000000000000000e+01,7.000000000000000000e+01,1.060000000000000000e+02,2.600000000000000000e+01,2.700000000000000000e+01,2.500000000000000000e+01,3.000000000000000000e+01,1.050000000000000000e+02,4.799999999999999822e-01,6.878262300000000000e+09
3.400000000000000000e+01,7.400000000000000000e+01,1.020000000000000000e+02,2.700000000000000000e+01,2.900000000000000000e+01,2.600000000000000000e+01,2.800000000000000000e+01,1.030000000000000000e+02,4.799999999999999822e-01,6.897465800000000000e+09
3.200000000000000000e+01,6.200000000000000000e+01,9.000000000000000000e+01,2.700000000000000000e+01,2.800000000000000000e+01,2.300000000000000000e+01,2.900000000000000000e+01,9.400000000000000000e+01,4.799999999999999822e-01,6.916878400000000000e+09
2.500000000000000000e+01,4.400000000000000000e+01,9.300000000000000000e+01,2.600000000000000000e+01,2.600000000000000000e+01,2.200000000000000000e+01,2.800000000000000000e+01,6.200000000000000000e+01,4.799999999999999822e-01,6.939290300000000000e+09
2.600000000000000000e+01,4.200000000000000000e+01,9.200000000000000000e+01,2.600000000000000000e+01,2.600000000000000000e+01,2.200000000000000000e+01,2.900000000000000000e+01,5.800000000000000000e+01,4.799999999999999822e-01,6.961365900000000000e+09
3.500000000000000000e+01,3.900000000000000000e+01,9.200000000000000000e+01,2.500000000000000000e+01,2.500000000000000000e+01,2.200000000000000000e+01,2.700000000000000000e+01,6.700000000000000000e+01,4.699999999999999734e-01,6.983630500000000000e+09
3.600000000000000000e+01,3.300000000000000000e+01,5.500000000000000000e+01,2.900000000000000000e+01,2.300000000000000000e+01,2.500000000000000000e+01,2.700000000000000000e+01,6.900000000000000000e+01,4.699999999999999734e-01,7.001734800000000000e+09
3.600000000000000000e+01,3.200000000000000000e+01,5.300000000000000000e+01,2.700000000000000000e+01,2.200000000000000000e+01,2.700000000000000000e+01,2.700000000000000000e+01,6.700000000000000000e+01,4.699999999999999734e-01,7.020756700000000000e+09
3.700000000000000000e+01,3.500000000000000000e+01,5.300000000000000000e+01,2.700000000000000000e+01,2.400000000000000000e+01,2.600000000000000000e+01,2.500000000000000000e+01,6.800000000000000000e+01,4.699999999999999734e-01,7.038861000000000000e+09
3.800000000000000000e+01,3.500000000000000000e+01,5.100000000000000000e+01,2.900000000000000000e+01,2.500000000000000000e+01,2.900000000000000000e+01,3.100000000000000000e+01,9.600000000000000000e+01,4.600000000000000200e-01,7.058447100000000000e+09
2.800000000000000000e+01,3.300000000000000000e+01,5.000000000000000000e+01,3.000000000000000000e+01,2.600000000000000000e+01,3.400000000000000000e+01,3.700000000000000000e+01,8.800000000000000000e+01,4.600000000000000200e-01,7.076767400000000000e+09
2.800000000000000000e+01,3.400000000000000000e+01,5.000000000000000000e+01,2.600000000000000000e+01,2.700000000000000000e+01,3.800000000000000000e+01,4.000000000000000000e+01,8.900000000000000000e+01,4.600000000000000200e-01,7.095776800000000000e+09
2.900000000000000000e+01,3.400000000000000000e+01,5.000000000000000000e+01,3.000000000000000000e+01,2.900000000000000000e+01,4.200000000000000000e+01,4.600000000000000000e+01,9.600000000000000000e+01,4.600000000000000200e-01,7.116899000000000000e+09
2.700000000000000000e+01,3.700000000000000000e+01,6.300000000000000000e+01,3.300000000000000000e+01,2.800000000000000000e+01,4.200000000000000000e+01,4.800000000000000000e+01,8.700000000000000000e+01,4.600000000000000200e-01,7.139062600000000000e+09
2.500000000000000000e+01,3.900000000000000000e+01,6.300000000000000000e+01,3.100000000000000000e+01,2.600000000000000000e+01,4.100000000000000000e+01,4.500000000000000000e+01,5.500000000000000000e+01,4.600000000000000200e-01,7.161361900000000000e+09
2.700000000000000000e+01,5.100000000000000000e+01,1.030000000000000000e+02,3.300000000000000000e+01,2.600000000000000000e+01,3.800000000000000000e+01,4.000000000000000000e+01,5.400000000000000000e+01,4.600000000000000200e-01,7.180050600000000000e+09
2.500000000000000000e+01,4.800000000000000000e+01,1.050000000000000000e+02,3.300000000000000000e+01,2.500000000000000000e+01,3.500000000000000000e+01,3.600000000000000000e+01,5.200000000000000000e+01,4.600000000000000200e-01,7.199218200000000000e+09
2.400000000000000000e+01,4.700000000000000000e+01,1.050000000000000000e+02,3.000000000000000000e+01,2.300000000000000000e+01,3.100000000000000000e+01,3.100000000000000000e+01,3.500000000000000000e+01,4.600000000000000200e-01,7.216830700000000000e+09
2.300000000000000000e+01,4.300000000000000000e+01,9.900000000000000000e+01,2.800000000000000000e+01,2.200000000000000000e+01,3.100000000000000000e+01,2.900000000000000000e+01,3.500000000000000000e+01,4.600000000000000200e-01,7.235400400000000000e+09
2.300000000000000000e+01,4.000000000000000000e+01,9.800000000000000000e+01,2.600000000000000000e+01,2.400000000000000000e+01,2.800000000000000000e+01,2.700000000000000000e+01,3.000000000000000000e+01,4.600000000000000200e-01,7.255077800000000000e+09
2.100000000000000000e+01,2.300000000000000000e+01,5.400000000000000000e+01,2.300000000000000000e+01,2.500000000000000000e+01,2.800000000000000000e+01,2.600000000000000000e+01,2.700000000000000000e+01,4.600000000000000200e-01,7.274350300000000000e+09
2.300000000000000000e+01,2.900000000000000000e+01,6.200000000000000000e+01,2.500000000000000000e+01,2.500000000000000000e+01,2.400000000000000000e+01,2.700000000000000000e+01,2.400000000000000000e+01,4.600000000000000200e-01,7.293626300000000000e+09
2.400000000000000000e+01,3.100000000000000000e+01,7.400000000000000000e+01,2.500000000000000000e+01,2.600000000000000000e+01,2.300000000000000000e+01,2.100000000000000000e+01,2.500000000000000000e+01,4.600000000000000200e-01,7.312724100000000000e+09
2.500000000000000000e+01,4.300000000000000000e+01,8.200000000000000000e+01,2.500000000000000000e+01,2.600000000000000000e+01,2.200000000000000000e+01,2.000000000000000000e+01,2.100000000000000000e+01,4.600000000000000200e-01,7.334800100000000000e+09
3.000000000000000000e+01,6.100000000000000000e+01,1.010000000000000000e+02,5.800000000000000000e+01,3.600000000000000000e+01,2.400000000000000000e+01,2.100000000000000000e+01,2.300000000000000000e+01,4.600000000000000200e-01,7.353743700000000000e+09
3.300000000000000000e+01,1.030000000000000000e+02,1.040000000000000000e+02,7.200000000000000000e+01,4.300000000000000000e+01,2.600000000000000000e+01,1.900000000000000000e+01,2.300000000000000000e+01,4.699999999999999734e-01,7.372603300000000000e+09
3.900000000000000000e+01,1.250000000000000000e+02,1.110000000000000000e+02,7.500000000000000000e+01,4.700000000000000000e+01,2.700000000000000000e+01,2.300000000000000000e+01,2.500000000000000000e+01,4.699999999999999734e-01,7.391441800000000000e+09
3.900000000000000000e+01,1.410000000000000000e+02,1.360000000000000000e+02,7.900000000000000000e+01,5.000000000000000000e+01,2.700000000000000000e+01,2.300000000000000000e+01,2.400000000000000000e+01,4.799999999999999822e-01,7.413055200000000000e+09
3.800000000000000000e+01,1.490000000000000000e+02,1.330000000000000000e+02,8.100000000000000000e+01,5.200000000000000000e+01,2.700000000000000000e+01,2.300000000000000000e+01,2.300000000000000000e+01,4.799999999999999822e-01,7.433445300000000000e+09
3.500000000000000000e+01,1.460000000000000000e+02,1.280000000000000000e+02,6.400000000000000000e+01,4.500000000000000000e+01,2.800000000000000000e+01,2.300000000000000000e+01,2.100000000000000000e+01,4.899999999999999911e-01,7.454037700000000000e+09
3.200000000000000000e+01,1.230000000000000000e+02,1.270000000000000000e+02,4.700000000000000000e+01,3.800000000000000000e+01,2.700000000000000000e+01,2.300000000000000000e+01,2.100000000000000000e+01,4.899999999999999911e-01,7.474449200000000000e+09
2.900000000000000000e+01,1.060000000000000000e+02,1.180000000000000000e+02,4.200000000000000000e+01,3.500000000000000000e+01,2.600000000000000000e+01,2.200000000000000000e+01,2.100000000000000000e+01,4.899999999999999911e-01,7.494575400000000000e+09
2.900000000000000000e+01,8.800000000000000000e+01,7.800000000000000000e+01,3.400000000000000000e+01,2.900000000000000000e+01,2.900000000000000000e+01,2.200000000000000000e+01,2.000000000000000000e+01,5.000000000000000000e-01,7.512429500000000000e+09
3.700000000000000000e+01,7.400000000000000000e+01,9.400000000000000000e+01,3.200000000000000000e+01,2.900000000000000000e+01,3.000000000000000000e+01,2.400000000000000000e+01,2.200000000000000000e+01,5.000000000000000000e-01,7.531962400000000000e+09
3.800000000000000000e+01,6.900000000000000000e+01,8.800000000000000000e+01,3.200000000000000000e+01,2.900000000000000000e+01,2.900000000000000000e+01,2.500000000000000000e+01,2.200000000000000000e+01,5.000000000000000000e-01,7.550884200000000000e+09
3.800000000000000000e+01,7.100000000000000000e+01,8.800000000000000000e+01,3.300000000000000000e+01,2.900000000000000000e+01,2.900000000000000000e+01,2.700000000000000000e+01,2.300000000000000000e+01,5.000000000000000000e-01,7.572227200000000000e+09
3.500000000000000000e+01,6.100000000000000000e+01,1.000000000000000000e+02,3.400000000000000000e+01,2.800000000000000000e+01,2.900000000000000000e+01,2.700000000000000000e+01,2.500000000000000000e+01,5.100000000000000089e-01,7.591840800000000000e+09
3.300000000000000000e+01,5.400000000000000000e+01,1.270000000000000000e+02,3.900000000000000000e+01,3.200000000000000000e+01,2.700000000000000000e+01,2.600000000000000000e+01,2.600000000000000000e+01,5.000000000000000000e-01,7.612940600000000000e+09
2.500000000000000000e+01,5.800000000000000000e+01,1.120000000000000000e+02,3.700000000000000000e+01,3.100000000000000000e+01,2.800000000000000000e+01,2.700000000000000000e+01,2.700000000000000000e+01,5.000000000000000000e-01,7.632072500000000000e+09
2.400000000000000000e+01,6.800000000000000000e+01,1.160000000000000000e+02,3.600000000000000000e+01,2.900000000000000000e+01,2.600000000000000000e+01,2.500000000000000000e+01,2.800000000000000000e+01,5.000000000000000000e-01,7.650146700000000000e+09
2.500000000000000000e+01,6.600000000000000000e+01,1.190000000000000000e+02,3.700000000000000000e+01,2.900000000000000000e+01,2.700000000000000000e+01,2.300000000000000000e+01,2.800000000000000000e+01,5.000000000000000000e-01,7.672170300000000000e+09
2.500000000000000000e+01,7.300000000000000000e+01,1.140000000000000000e+02,3.400000000000000000e+01,2.800000000000000000e+01,2.500000000000000000e+01,2.200000000000000000e+01,2.600000000000000000e+01,4.899999999999999911e-01,7.690906000000000000e+09
2.600000000000000000e+01,8.300000000000000000e+01,8.300000000000000000e+01,2.800000000000000000e+01,2.500000000000000000e+01,2.500000000000000000e+01,2.300000000000000000e+01,2.600000000000000000e+01,4.899999999999999911e-01,7.709405000000000000e+09
2.700000000000000000e+01,7.800000000000000000e+01,8.200000000000000000e+01,2.700000000000000000e+01,2.300000000000000000e+01,2.700000000000000000e+01,2.200000000000000000e+01,2.300000000000000000e+01,4.899999999999999911e-01,7.728447200000000000e+09
2.600000000000000000e+01,6.900000000000000000e+01,6.900000000000000000e+01,2.600000000000000000e+01,2.300000000000000000e+01,2.800000000000000000e+01,2.100000000000000000e+01,2.300000000000000000e+01,4.899999999999999911e-01,7.750059500000000000e+09
2.600000000000000000e+01,6.900000000000000000e+01,6.100000000000000000e+01,2.500000000000000000e+01,2.200000000000000000e+01,2.800000000000000000e+01,2.400000000000000000e+01,2.300000000000000000e+01,4.899999999999999911e-01,7.772042400000000000e+09
2.600000000000000000e+01,6.100000000000000000e+01,6.100000000000000000e+01,2.400000000000000000e+01,2.400000000000000000e+01,2.900000000000000000e+01,2.300000000000000000e+01,2.200000000000000000e+01,4.899999999999999911e-01,7.790550700000000000e+09
2.500000000000000000e+01,6.100000000000000000e+01,6.000000000000000000e+01,2.600000000000000000e+01,2.300000000000000000e+01,2.800000000000000000e+01,2.100000000000000000e+01,2.000000000000000000e+01,4.899999999999999911e-01,7.809339900000000000e+09
2.200000000000000000e+01,5.800000000000000000e+01,6.000000000000000000e+01,2.500000000000000000e+01,2.500000000000000000e+01,2.500000000000000000e+01,2.200000000000000000e+01,2.100000000000000000e+01,4.899999999999999911e-01,7.827892400000000000e+09
2.300000000000000000e+01,5.900000000000000000e+01,6.000000000000000000e+01,2.400000000000000000e+01,2.500000000000000000e+01,2.400000000000000000e+01,2.400000000000000000e+01,2.200000000000000000e+01,4.899999999999999911e-01,7.849834000000000000e+09
2.000000000000000000e+01,5.500000000000000000e+01,5.700000000000000000e+01,2.400000000000000000e+01,2.500000000000000000e+01,2.500000000000000000e+01,2.200000000000000000e+01,2.100000000000000000e+01,4.899999999999999911e-01,7.872062500000000000e+09
2.000000000000000000e+01,5.400000000000000000e+01,3.800000000000000000e+01,2.400000000000000000e+01,2.500000000000000000e+01,2.500000000000000000e+01,2.300000000000000000e+01,2.100000000000000000e+01,4.899999999999999911e-01,7.891483700000000000e+09
2.100000000000000000e+01,3.600000000000000000e+01,3.500000000000000000e+01,2.500000000000000000e+01,2.700000000000000000e+01,2.800000000000000000e+01,2.700000000000000000e+01,2.400000000000000000e+01,4.799999999999999822e-01,7.910720200000000000e+09
1.900000000000000000e+01,3.500000000000000000e+01,3.100000000000000000e+01,2.400000000000000000e+01,2.500000000000000000e+01,2.800000000000000000e+01,2.600000000000000000e+01,2.500000000000000000e+01,4.799999999999999822e-01,7.929834500000000000e+09
2.300000000000000000e+01,2.800000000000000000e+01,2.800000000000000000e+01,2.500000000000000000e+01,2.600000000000000000e+01,3.000000000000000000e+01,2.700000000000000000e+01,2.500000000000000000e+01,4.799999999999999822e-01,7.950797900000000000e+09
2.300000000000000000e+01,2.500000000000000000e+01,2.600000000000000000e+01,2.400000000000000000e+01,2.500000000000000000e+01,2.900000000000000000e+01,2.800000000000000000e+01,2.500000000000000000e+01,4.799999999999999822e-01,7.974022100000000000e+09
2.400000000000000000e+01,2.700000000000000000e+01,3.100000000000000000e+01,2.500000000000000000e+01,2.600000000000000000e+01,2.900000000000000000e+01,2.800000000000000000e+01,2.300000000000000000e+01,4.799999999999999822e-01,7.992755800000000000e+09
2.500000000000000000e+01,2.300000000000000000e+01,3.000000000000000000e+01,2.300000000000000000e+01,2.200000000000000000e+01,2.600000000000000000e+01,2.500000000000000000e+01,2.300000000000000000e+01,4.699999999999999734e-01,8.014954300000000000e+09
2.600000000000000000e+01,2.400000000000000000e+01,2.800000000000000000e+01,2.400000000000000000e+01,2.500000000000000000e+01,2.700000000000000000e+01,2.800000000000000000e+01,2.300000000000000000e+01,4.699999999999999734e-01,8.034213600000000000e+09
2.300000000000000000e+01,2.600000000000000000e+01,3.000000000000000000e+01,2.500000000000000000e+01,2.500000000000000000e+01,2.400000000000000000e+01,2.700000000000000000e+01,2.200000000000000000e+01,4.699999999999999734e-01,8.053797900000000000e+09
2.400000000000000000e+01,2.600000000000000000e+01,3.000000000000000000e+01,2.600000000000000000e+01,2.500000000000000000e+01,2.500000000000000000e+01,2.600000000000000000e+01,2.300000000000000000e+01,4.699999999999999734e-01,8.073968300000000000e+09
2.300000000000000000e+01,2.400000000000000000e+01,2.500000000000000000e+01,2.400000000000000000e+01,2.500000000000000000e+01,2.600000000000000000e+01,2.600000000000000000e+01,2.700000000000000000e+01,4.699999999999999734e-01,8.092290100000000000e+09
2.100000000000000000e+01,2.400000000000000000e+01,2.600000000000000000e+01,2.600000000000000000e+01,2.700000000000000000e+01,2.800000000000000000e+01,2.700000000000000000e+01,2.500000000000000000e+01,4.699999999999999734e-01,8.112394700000000000e+09
2.000000000000000000e+01,2.600000000000000000e+01,2.700000000000000000e+01,2.600000000000000000e+01,2.500000000000000000e+01,2.700000000000000000e+01,2.200000000000000000e+01,2.500000000000000000e+01,4.600000000000000200e-01,8.132148300000000000e+09
2.300000000000000000e+01,2.400000000000000000e+01,2.400000000000000000e+01,2.500000000000000000e+01,2.500000000000000000e+01,2.800000000000000000e+01,2.200000000000000000e+01,2.700000000000000000e+01,4.600000000000000200e-01,8.151758100000000000e+09
2.200000000000000000e+01,2.700000000000000000e+01,2.700000000000000000e+01,2.300000000000000000e+01,2.700000000000000000e+01,2.900000000000000000e+01,2.200000000000000000e+01,2.600000000000000000e+01,4.600000000000000200e-01,8.169801000000000000e+09
2.200000000000000000e+01,2.700000000000000000e+01,2.600000000000000000e+01,2.400000000000000000e+01,2.800000000000000000e+01,2.600000000000000000e+01,2.200000000000000000e+01,2.400000000000000000e+01,4.600000000000000200e-01,8.189157200000000000e+09
2.400000000000000000e+01,2.600000000000000000e+01,2.500000000000000000e+01,2.400000000000000000e+01,2.500000000000000000e+01,2.500000000000000000e+01,2.200000000000000000e+01,2.500000000000000000e+01,4.600000000000000200e-01,8.207448400000000000e+09
2.500000000000000000e+01,2.400000000000000000e+01,2.400000000000000000e+01,2.300000000000000000e+01,2.600000000000000000e+01,2.700000000000000000e+01,2.500000000000000000e+01,2.500000000000000000e+01,4.600000000000000200e-01,8.229591800000000000e+09
2.400000000000000000e+01,4.800000000000000000e+01,2.400000000000000000e+01,2.500000000000000000e+01,2.600000000000000000e+01,2.600000000000000000e+01,2.300000000000000000e+01,5.200000000000000000e+01,4.600000000000000200e-01,8.251644800000000000e+09
3.400000000000000000e+01,4.900000000000000000e+01,2.300000000000000000e+01,2.900000000000000000e+01,2.500000000000000000e+01,2.300000000000000000e+01,3.200000000000000000e+01,1.010000000000000000e+02,4.600000000000000200e-01,8.273838300000000000e+09
3.500000000000000000e+01,5.900000000000000000e+01,2.200000000000000000e+01,3.000000000000000000e+01,2.500000000000000000e+01,2.500000000000000000e+01,3.300000000000000000e+01,1.060000000000000000e+02,4.600000000000000200e-01,8.292612600000000000e+09
3.500000000000000000e+01,7.900000000000000000e+01,2.800000000000000000e+01,2.900000000000000000e+01,2.600000000000000000e+01,2.400000000000000000e+01,3.400000000000000000e+01,1.090000000000000000e+02,4.500000000000000111e-01,8.312711900000000000e+09
3.800000000000000000e+01,8.300000000000000000e+01,2.900000000000000000e+01,2.900000000000000000e+01,2.600000000000000000e+01,2.200000000000000000e+01,3.400000000000000000e+01,1.100000000000000000e+02,4.500000000000000111e-01,8.331416400000000000e+09
3.700000000000000000e+01,8.100000000000000000e+01,3.000000000000000000e+01,2.800000000000000000e+01,2.600000000000000000e+01,2.300000000000000000e+01,3.500000000000000000e+01,1.100000000000000000e+02,4.500000000000000111e-01,8.351321300000000000e+09
3.200000000000000000e+01,8.600000000000000000e+01,2.800000000000000000e+01,2.600000000000000000e+01,2.500000000000000000e+01,2.500000000000000000e+01,2.800000000000000000e+01,7.500000000000000000e+01,4.500000000000000111e-01,8.373606200000000000e+09
3.700000000000000000e+01,8.400000000000000000e+01,3.000000000000000000e+01,2.500000000000000000e+01,2.200000000000000000e+01,2.500000000000000000e+01,3.200000000000000000e+01,9.400000000000000000e+01,4.500000000000000111e-01,8.391390200000000000e+09
3.700000000000000000e+01,6.600000000000000000e+01,2.400000000000000000e+01,2.500000000000000000e+01,2.400000000000000000e+01,3.000000000000000000e+01,3.000000000000000000e+01,9.300000000000000000e+01,4.500000000000000111e-01,8.410194800000000000e+09
3.500000000000000000e+01,6.000000000000000000e+01,2.400000000000000000e+01,3.000000000000000000e+01,2.700000000000000000e+01,3.000000000000000000e+01,2.800000000000000000e+01,9.800000000000000000e+01,4.500000000000000111e-01,8.429074000000000000e+09
3.500000000000000000e+01,6.100000000000000000e+01,2.200000000000000000e+01,3.000000000000000000e+01,2.400000000000000000e+01,2.900000000000000000e+01,2.800000000000000000e+01,8.900000000000000000e+01,4.500000000000000111e-01,8.451255300000000000e+09
3.500000000000000000e+01,5.300000000000000000e+01,2.200000000000000000e+01,3.100000000000000000e+01,2.500000000000000000e+01,2.700000000000000000e+01,2.900000000000000000e+01,8.500000000000000000e+01,4.500000000000000111e-01,8.471758000000000000e+09
2.800000000000000000e+01,5.500000000000000000e+01,2.300000000000000000e+01,3.100000000000000000e+01,2.500000000000000000e+01,2.600000000000000000e+01,2.200000000000000000e+01,5.900000000000000000e+01,4.500000000000000111e-01,8.490617500000000000e+09
2.500000000000000000e+01,5.400000000000000000e+01,2.300000000000000000e+01,3.000000000000000000e+01,2.300000000000000000e+01,2.200000000000000000e+01,2.200000000000000000e+01,5.400000000000000000e+01,4.500000000000000111e-01,8.512267900000000000e+09
2.600000000000000000e+01,6.400000000000000000e+01,2.500000000000000000e+01,2.600000000000000000e+01,1.900000000000000000e+01,2.200000000000000000e+01,2.400000000000000000e+01,4.500000000000000000e+01,4.500000000000000111e-01,8.533373400000000000e+09
2.700000000000000000e+01,5.200000000000000000e+01,2.600000000000000000e+01,2.400000000000000000e+01,2.200000000000000000e+01,2.100000000000000000e+01,2.400000000000000000e+01,6.100000000000000000e+01,4.500000000000000111e-01,8.552297000000000000e+09
3.100000000000000000e+01,5.800000000000000000e+01,2.800000000000000000e+01,2.300000000000000000e+01,2.200000000000000000e+01,2.400000000000000000e+01,2.500000000000000000e+01,6.200000000000000000e+01,4.500000000000000111e-01,8.573402100000000000e+09
3.000000000000000000e+01,5.900000000000000000e+01,2.900000000000000000e+01,2.200000000000000000e+01,2.300000000000000000e+01,2.400000000000000000e+01,2.600000000000000000e+01,5.900000000000000000e+01,4.500000000000000111e-01,8.593212300000000000e+09
3.000000000000000000e+01,6.000000000000000000e+01,3.100000000000000000e+01,2.300000000000000000e+01,2.300000000000000000e+01,2.200000000000000000e+01,2.600000000000000000e+01,6.100000000000000000e+01,4.500000000000000111e-01,8.611837900000000000e+09
3.300000000000000000e+01,6.300000000000000000e+01,3.100000000000000000e+01,2.300000000000000000e+01,2.400000000000000000e+01,2.500000000000000000e+01,2.700000000000000000e+01,6.100000000000000000e+01,4.500000000000000111e-01,8.629618700000000000e+09
3.300000000000000000e+01,6.300000000000000000e+01,3.100000000000000000e+01,2.400000000000000000e+01,2.200000000000000000e+01,2.700000000000000000e+01,2.600000000000000000e+01,4.000000000000000000e+01,4.500000000000000111e-01,8.649996400000000000e+09
2.600000000000000000e+01,5.800000000000000000e+01,2.800000000000000000e+01,2.400000000000000000e+01,2.300000000000000000e+01,2.700000000000000000e+01,2.400000000000000000e+01,5.200000000000000000e+01,4.500000000000000111e-01,8.672300300000000000e+09
3.100000000000000000e+01,5.000000000000000000e+01,2.700000000000000000e+01,2.300000000000000000e+01,2.200000000000000000e+01,2.500000000000000000e+01,2.300000000000000000e+01,5.400000000000000000e+01,4.500000000000000111e-01,8.690550200000000000e+09
3.700000000000000000e+01,6.300000000000000000e+01,2.700000000000000000e+01,2.500000000000000000e+01,2.200000000000000000e+01,2.800000000000000000e+01,2.300000000000000000e+01,5.200000000000000000e+01,4.500000000000000111e-01,8.711178100000000000e+09
3.500000000000000000e+01,5.400000000000000000e+01,2.600000000000000000e+01,2.500000000000000000e+01,2.400000000000000000e+01,2.500000000000000000e+01,2.100000000000000000e+01,5.200000000000000000e+01,4.500000000000000111e-01,8.732790200000000000e+09
3.500000000000000000e+01,6.100000000000000000e+01,2.700000000000000000e+01,2.700000000000000000e+01,2.500000000000000000e+01,2.600000000000000000e+01,2.300000000000000000e+01,7.500000000000000000e+01,4.500000000000000111e-01,8.751764500000000000e+09
3.500000000000000000e+01,6.000000000000000000e+01,2.800000000000000000e+01,2.700000000000000000e+01,2.600000000000000000e+01,2.400000000000000000e+01,2.400000000000000000e+01,6.300000000000000000e+01,4.500000000000000111e-01,8.772096500000000000e+09
3.100000000000000000e+01,6.200000000000000000e+01,2.700000000000000000e+01,2.600000000000000000e+01,2.700000000000000000e+01,2.500000000000000000e+01,2.400000000000000000e+01,6.200000000000000000e+01,4.500000000000000111e-01,8.791894200000000000e+09
2.900000000000000000e+01,5.900000000000000000e+01,2.600000000000000000e+01,2.600000000000000000e+01,2.500000000000000000e+01,2.300000000000000000e+01,2.300000000000000000e+01,6.300000000000000000e+01,4.500000000000000111e-01,8.810935000000000000e+09
3.000000000000000000e+01,5.900000000000000000e+01,2.800000000000000000e+01,2.700000000000000000e+01,2.300000000000000000e+01,2.400000000000000000e+01,2.300000000000000000e+01,6.300000000000000000e+01,4.500000000000000111e-01,8.828897000000000000e+09
3.100000000000000000e+01,5.700000000000000000e+01,2.700000000000000000e+01,2.600000000000000000e+01,2.400000000000000000e+01,2.200000000000000000e+01,2.100000000000000000e+01,3.500000000000000000e+01,4.500000000000000111e-01,8.849853300000000000e+09
3.600000000000000000e+01,6.800000000000000000e+01,2.700000000000000000e+01,2.900000000000000000e+01,2.200000000000000000e+01,2.400000000000000000e+01,2.000000000000000000e+01,5.700000000000000000e+01,4.500000000000000111e-01,8.872433500000000000e+09
3.700000000000000000e+01,7.100000000000000000e+01,2.600000000000000000e+01,3.100000000000000000e+01,2.100000000000000000e+01,2.300000000000000000e+01,1.900000000000000000e+01,5.900000000000000000e+01,4.500000000000000111e-01,8.891179900000000000e+09
3.200000000000000000e+01,7.100000000000000000e+01,2.600000000000000000e+01,2.900000000000000000e+01,2.400000000000000000e+01,2.400000000000000000e+01,2.000000000000000000e+01,5.700000000000000000e+01,4.500000000000000111e-01,8.909943400000000000e+09
3.000000000000000000e+01,7.100000000000000000e+01,2.400000000000000000e+01,2.700000000000000000e+01,2.300000000000000000e+01,2.600000000000000000e+01,2.300000000000000000e+01,5.700000000000000000e+01,4.500000000000000111e-01,8.927729300000000000e+09
3.500000000000000000e+01,7.800000000000000000e+01,2.500000000000000000e+01,2.700000000000000000e+01,2.500000000000000000e+01,2.500000000000000000e+01,2.400000000000000000e+01,6.100000000000000000e+01,4.500000000000000111e-01,8.950036200000000000e+09
3.200000000000000000e+01,7.300000000000000000e+01,2.500000000000000000e+01,2.600000000000000000e+01,2.500000000000000000e+01,2.400000000000000000e+01,2.500000000000000000e+01,6.000000000000000000e+01,4.500000000000000111e-01,8.972834300000000000e+09
3.100000000000000000e+01,7.100000000000000000e+01,2.600000000000000000e+01,2.400000000000000000e+01,2.400000000000000000e+01,2.400000000000000000e+01,2.500000000000000000e+01,6.000000000000000000e+01,4.500000000000000111e-01,8.991356600000000000e+09
3.500000000000000000e+01,6.500000000000000000e+01,2.700000000000000000e+01,2.600000000000000000e+01,2.200000000000000000e+01,2.400000000000000000e+01,2.500000000000000000e+01,6.000000000000000000e+01,4.600000000000000200e-01,9.011876800000000000e+09
5.100000000000000000e+01,7.900000000000000000e+01,2.600000000000000000e+01,2.600000000000000000e+01,2.400000000000000000e+01,2.300000000000000000e+01,2.400000000000000000e+01,6.600000000000000000e+01,4.600000000000000200e-01,9.030226100000000000e+09
5.000000000000000000e+01,7.600000000000000000e+01,2.600000000000000000e+01,2.600000000000000000e+01,2.200000000000000000e+01,2.300000000000000000e+01,2.400000000000000000e+01,7.500000000000000000e+01,4.600000000000000200e-01,9.051217900000000000e+09
5.000000000000000000e+01,7.300000000000000000e+01,2.400000000000000000e+01,2.600000000000000000e+01,2.300000000000000000e+01,2.400000000000000000e+01,2.300000000000000000e+01,6.000000000000000000e+01,4.600000000000000200e-01,9.073162100000000000e+09
5.100000000000000000e+01,7.100000000000000000e+01,2.400000000000000000e+01,2.600000000000000000e+01,2.400000000000000000e+01,2.300000000000000000e+01,2.400000000000000000e+01,6.000000000000000000e+01,4.600000000000000200e-01,9.091304300000000000e+09
4.900000000000000000e+01,7.200000000000000000e+01,2.400000000000000000e+01,2.600000000000000000e+01,2.300000000000000000e+01,2.200000000000000000e+01,2.300000000000000000e+01,6.100000000000000000e+01,4.500000000000000111e-01,9.109884400000000000e+09
3.100000000000000000e+01,5.400000000000000000e+01,2.300000000000000000e+01,2.500000000000000000e+01,2.400000000000000000e+01,2.400000000000000000e+01,2.300000000000000000e+01,5.600000000000000000e+01,4.500000000000000111e-01,9.129067300000000000e+09
2.600000000000000000e+01,4.200000000000000000e+01,2.400000000000000000e+01,2.500000000000000000e+01,2.200000000000000000e+01,2.500000000000000000e+01,2.400000000000000000e+01,3.900000000000000000e+01,4.500000000000000111e-01,9.150973400000000000e+09
3.200000000000000000e+01,4.500000000000000000e+01,2.300000000000000000e+01,2.700000000000000000e+01,2.400000000000000000e+01,2.400000000000000000e+01,2.400000000000000000e+01,4.000000000000000000e+01,4.500000000000000111e-01,9.173639900000000000e+09
3.100000000000000000e+01,4.300000000000000000e+01,2.500000000000000000e+01,2.600000000000000000e+01,2.400000000000000000e+01,2.500000000000000000e+01,2.500000000000000000e+01,4.200000000000000000e+01,4.500000000000000111e-01,9.192633400000000000e+09
3.200000000000000000e+01,4.200000000000000000e+01,2.600000000000000000e+01,2.600000000000000000e+01,2.900000000000000000e+01,2.600000000000000000e+01,2.500000000000000000e+01,6.200000000000000000e+01,4.500000000000000111e-01,9.212015200000000000e+09
3.500000000000000000e+01,5.000000000000000000e+01,2.700000000000000000e+01,2.500000000000000000e+01,2.700000000000000000e+01,2.500000000000000000e+01,2.500000000000000000e+01,6.100000000000000000e+01,4.500000000000000111e-01,9.230713800000000000e+09
3.500000000000000000e+01,4.800000000000000000e+01,2.700000000000000000e+01,2.500000000000000000e+01,2.700000000000000000e+01,2.400000000000000000e+01,2.100000000000000000e+01,6.000000000000000000e+01,4.500000000000000111e-01,9.251266300000000000e+09
3.000000000000000000e+01,4.700000000000000000e+01,2.700000000000000000e+01,2.200000000000000000e+01,2.700000000000000000e+01,2.500000000000000000e+01,2.200000000000000000e+01,6.000000000000000000e+01,4.500000000000000111e-01,9.273479600000000000e+09
3.000000000000000000e+01,4.900000000000000000e+01,2.800000000000000000e+01,2.300000000000000000e+01,2.800000000000000000e+01,2.600000000000000000e+01,2.200000000000000000e+01,5.800000000000000000e+01,4.500000000000000111e-01,9.291710100000000000e+09
2.900000000000000000e+01,4.500000000000000000e+01,2.700000000000000000e+01,2.200000000000000000e+01,2.200000000000000000e+01,2.600000000000000000e+01,2.200000000000000000e+01,3.400000000000000000e+01,4.500000000000000111e-01,9.312304400000000000e+09
2.800000000000000000e+01,5.000000000000000000e+01,2.700000000000000000e+01,2.400000000000000000e+01,2.400000000000000000e+01,2.500000000000000000e+01,2.100000000000000000e+01,3.500000000000000000e+01,4.500000000000000111e-01,9.331620700000000000e+09
2.700000000000000000e+01,4.900000000000000000e+01,2.800000000000000000e+01,2.400000000000000000e+01,2.400000000000000000e+01,2.700000000000000000e+01,2.300000000000000000e+01,5.200000000000000000e+01,4.500000000000000111e-01,9.351448500000000000e+09
2.500000000000000000e+01,4.900000000000000000e+01,2.800000000000000000e+01,2.200000000000000000e+01,2.300000000000000000e+01,2.800000000000000000e+01,2.400000000000000000e+01,5.200000000000000000e+01,4.500000000000000111e-01,9.373533300000000000e+09
2.600000000000000000e+01,4.600000000000000000e+01,2.600000000000000000e+01,2.600000000000000000e+01,2.300000000000000000e+01,2.500000000000000000e+01,2.200000000000000000e+01,5.000000000000000000e+01,4.500000000000000111e-01,9.391896300000000000e+09
2.700000000000000000e+01,4.500000000000000000e+01,2.700000000000000000e+01,2.600000000000000000e+01,2.300000000000000000e+01,2.500000000000000000e+01,2.400000000000000000e+01,5.100000000000000000e+01,4.500000000000000111e-01,9.411421900000000000e+09
2.600000000000000000e+01,4.200000000000000000e+01,2.900000000000000000e+01,2.400000000000000000e+01,2.300000000000000000e+01,2.500000000000000000e+01,2.400000000000000000e+01,5.100000000000000000e+01,4.500000000000000111e-01,9.430452600000000000e+09
2.500000000000000000e+01,4.600000000000000000e+01,2.800000000000000000e+01,2.400000000000000000e+01,2.400000000000000000e+01,2.500000000000000000e+01,2.300000000000000000e+01,6.000000000000000000e+01,4.500000000000000111e-01,9.451180400000000000e+09
2.500000000000000000e+01,5.200000000000000000e+01,2.800000000000000000e+01,2.400000000000000000e+01,2.300000000000000000e+01,2.400000000000000000e+01,2.100000000000000000e+01,5.900000000000000000e+01,4.500000000000000111e-01,9.473436000000000000e+09
2.500000000000000000e+01,5.500000000000000000e+01,2.800000000000000000e+01,2.000000000000000000e+01,2.100000000000000000e+01,2.400000000000000000e+01,2.200000000000000000e+01,6.000000000000000000e+01,4.500000000000000111e-01,9.492546700000000000e+09
2.100000000000000000e+01,5.400000000000000000e+01,2.700000000000000000e+01,2.100000000000000000e+01,2.200000000000000000e+01,2.600000000000000000e+01,2.000000000000000000e+01,6.000000000000000000e+01,4.500000000000000111e-01,9.516710300000000000e+09
2.000000000000000000e+01,4.500000000000000000e+01,2.600000000000000000e+01,2.200000000000000000e+01,2.100000000000000000e+01,2.400000000000000000e+01,2.000000000000000000e+01,5.800000000000000000e+01,4.500000000000000111e-01,9.538071600000000000e+09
2.100000000000000000e+01,4.400000000000000000e+01,2.600000000000000000e+01,2.400000000000000000e+01,2.200000000000000000e+01,2.600000000000000000e+01,2.100000000000000000e+01,3.100000000000000000e+01,4.500000000000000111e-01,9.556574400000000000e+09
2.300000000000000000e+01,3.700000000000000000e+01,3.000000000000000000e+01,2.600000000000000000e+01,2.100000000000000000e+01,2.500000000000000000e+01,2.200000000000000000e+01,2.900000000000000000e+01,4.500000000000000111e-01,9.575228600000000000e+09
2.400000000000000000e+01,3.100000000000000000e+01,2.800000000000000000e+01,2.500000000000000000e+01,2.200000000000000000e+01,2.700000000000000000e+01,2.000000000000000000e+01,2.500000000000000000e+01,4.500000000000000111e-01,9.593404600000000000e+09
2.300000000000000000e+01,3.300000000000000000e+01,3.000000000000000000e+01,2.600000000000000000e+01,2.300000000000000000e+01,2.600000000000000000e+01,2.000000000000000000e+01,2.400000000000000000e+01,4.500000000000000111e-01,9.611796000000000000e+09
2.300000000000000000e+01,3.000000000000000000e+01,3.000000000000000000e+01,2.700000000000000000e+01,2.300000000000000000e+01,2.800000000000000000e+01,2.300000000000000000e+01,5.000000000000000000e+01,4.500000000000000111e-01,9.630519300000000000e+09
2.300000000000000000e+01,2.700000000000000000e+01,3.000000000000000000e+01,2.400000000000000000e+01,2.400000000000000000e+01,2.700000000000000000e+01,2.100000000000000000e+01,5.000000000000000000e+01,4.500000000000000111e-01,9.649023400000000000e+09
2.100000000000000000e+01,2.700000000000000000e+01,2.700000000000000000e+01,2.400000000000000000e+01,2.600000000000000000e+01,2.800000000000000000e+01,2.200000000000000000e+01,5.100000000000000000e+01,4.500000000000000111e-01,9.671414800000000000e+09
2.000000000000000000e+01,2.600000000000000000e+01,2.700000000000000000e+01,2.400000000000000000e+01,2.500000000000000000e+01,2.400000000000000000e+01,2.300000000000000000e+01,5.400000000000000000e+01,4.500000000000000111e-01,9.693455100000000000e+09
2.400000000000000000e+01,2.500000000000000000e+01,2.600000000000000000e+01,2.100000000000000000e+01,2.500000000000000000e+01,2.900000000000000000e+01,2.600000000000000000e+01,5.600000000000000000e+01,4.500000000000000111e-01,9.711735500000000000e+09
2.400000000000000000e+01,2.800000000000000000e+01,2.400000000000000000e+01,2.000000000000000000e+01,2.400000000000000000e+01,2.600000000000000000e+01,2.400000000000000000e+01,3.400000000000000000e+01,4.500000000000000111e-01,9.730029300000000000e+09
2.300000000000000000e+01,2.700000000000000000e+01,2.300000000000000000e+01,2.200000000000000000e+01,2.100000000000000000e+01,2.600000000000000000e+01,2.500000000000000000e+01,3.400000000000000000e+01,4.500000000000000111e-01,9.749317400000000000e+09
2.500000000000000000e+01,2.600000000000000000e+01,2.500000000000000000e+01,2.200000000000000000e+01,2.000000000000000000e+01,2.400000000000000000e+01,2.400000000000000000e+01,3.300000000000000000e+01,4.500000000000000111e-01,9.771177400000000000e+09
2.500000000000000000e+01,2.800000000000000000e+01,2.700000000000000000e+01,2.100000000000000000e+01,1.900000000000000000e+01,2.500000000000000000e+01,2.400000000000000000e+01,2.700000000000000000e+01,4.500000000000000111e-01,9.793518000000000000e+09
2.300000000000000000e+01,2.700000000000000000e+01,2.700000000000000000e+01,2.300000000000000000e+01,2.100000000000000000e+01,2.200000000000000000e+01,2.200000000000000000e+01,4.800000000000000000e+01,4.500000000000000111e-01,9.811603600000000000e+09
2.200000000000000000e+01,2.300000000000000000e+01,2.700000000000000000e+01,2.400000000000000000e+01,2.200000000000000000e+01,2.200000000000000000e+01,2.300000000000000000e+01,5.000000000000000000e+01,4.500000000000000111e-01,9.830510200000000000e+09
2.300000000000000000e+01,2.400000000000000000e+01,2.900000000000000000e+01,2.600000000000000000e+01,2.100000000000000000e+01,2.000000000000000000e+01,2.200000000000000000e+01,5.100000000000000000e+01,4.500000000000000111e-01,9.848954000000000000e+09
2.300000000000000000e+01,2.500000000000000000e+01,2.500000000000000000e+01,2.700000000000000000e+01,2.300000000000000000e+01,1.900000000000000000e+01,2.100000000000000000e+01,5.100000000000000000e+01,4.500000000000000111e-01,9.871281000000000000e+09
2.300000000000000000e+01,2.700000000000000000e+01,2.500000000000000000e+01,2.600000000000000000e+01,2.300000000000000000e+01,2.300000000000000000e+01,2.100000000000000000e+01,5.200000000000000000e+01,4.500000000000000111e-01,9.889964700000000000e+09
2.200000000000000000e+01,2.600000000000000000e+01,2.700000000000000000e+01,2.900000000000000000e+01,2.200000000000000000e+01,2.200000000000000000e+01,2.300000000000000000e+01,3.100000000000000000e+01,4.500000000000000111e-01,9.910726300000000000e+09
2.200000000000000000e+01,2.700000000000000000e+01,2.700000000000000000e+01,2.900000000000000000e+01,2.200000000000000000e+01,2.300000000000000000e+01,2.100000000000000000e+01,2.900000000000000000e+01,4.500000000000000111e-01,9.929947300000000000e+09
2.200000000000000000e+01,2.900000000000000000e+01,2.700000000000000000e+01,2.700000000000000000e+01,2.400000000000000000e+01,2.300000000000000000e+01,2.200000000000000000e+01,2.700000000000000000e+01,4.500000000000000111e-01,9.949088800000000000e+09
2.200000000000000000e+01,2.900000000000000000e+01,2.800000000000000000e+01,2.600000000000000000e+01,2.200000000000000000e+01,2.500000000000000000e+01,2.300000000000000000e+01,2.500000000000000000e+01,4.500000000000000111e-01,9.971128600000000000e+09
2.400000000000000000e+01,2.700000000000000000e+01,2.500000000000000000e+01,2.600000000000000000e+01,2.300000000000000000e+01,2.100000000000000000e+01,2.500000000000000000e+01,2.400000000000000000e+01,4.500000000000000111e-01,9.993972500000000000e+09
2.500000000000000000e+01,2.800000000000000000e+01,2.400000000000000000e+01,2.300000000000000000e+01,2.300000000000000000e+01,2.100000000000000000e+01,2.300000000000000000e+01,2.200000000000000000e+01,4.500000000000000111e-01,1.001322190000000000e+10
2.500000000000000000e+01,2.700000000000000000e+01,2.300000000000000000e+01,2.300000000000000000e+01,2.300000000000000000e+01,2.300000000000000000e+01,2.300000000000000000e+01,3.000000000000000000e+01,4.500000000000000111e-01,1.003207260000000000e+10
2.400000000000000000e+01,2.600000000000000000e+01,2.200000000000000000e+01,2.300000000000000000e+01,2.200000000000000000e+01,2.300000000000000000e+01,2.300000000000000000e+01,5.300000000000000000e+01,4.500000000000000111e-01,1.005200960000000000e+10
2.400000000000000000e+01,2.500000000000000000e+01,2.300000000000000000e+01,2.400000000000000000e+01,2.100000000000000000e+01,2.200000000000000000e+01,2.400000000000000000e+01,5.600000000000000000e+01,4.500000000000000111e-01,1.007271740000000000e+10
2.400000000000000000e+01,2.400000000000000000e+01,2.600000000000000000e+01,2.400000000000000000e+01,2.300000000000000000e+01,2.400000000000000000e+01,2.200000000000000000e+01,5.700000000000000000e+01,4.500000000000000111e-01,1.009382960000000000e+10
2.500000000000000000e+01,2.500000000000000000e+01,2.500000000000000000e+01,2.300000000000000000e+01,2.300000000000000000e+01,2.400000000000000000e+01,2.100000000000000000e+01,5.700000000000000000e+01,4.500000000000000111e-01,1.011434980000000000e+10
2.500000000000000000e+01,2.700000000000000000e+01,2.800000000000000000e+01,2.400000000000000000e+01,2.300000000000000000e+01,2.300000000000000000e+01,2.200000000000000000e+01,5.500000000000000000e+01,4.500000000000000111e-01,1.013387380000000000e+10
2.600000000000000000e+01,2.700000000000000000e+01,2.900000000000000000e+01,2.500000000000000000e+01,2.400000000000000000e+01,2.400000000000000000e+01,2.200000000000000000e+01,3.400000000000000000e+01,4.500000000000000111e-01,1.015247780000000000e+10
2.500000000000000000e+01,2.600000000000000000e+01,2.700000000000000000e+01,2.200000000000000000e+01,2.500000000000000000e+01,2.500000000000000000e+01,2.200000000000000000e+01,3.000000000000000000e+01,4.500000000000000111e-01,1.017123490000000000e+10
2.400000000000000000e+01,2.900000000000000000e+01,2.700000000000000000e+01,2.400000000000000000e+01,2.400000000000000000e+01,2.500000000000000000e+01,2.300000000000000000e+01,2.800000000000000000e+01,4.500000000000000111e-01,1.019346910000000000e+10
2.400000000000000000e+01,2.700000000000000000e+01,2.800000000000000000e+01,2.600000000000000000e+01,2.400000000000000000e+01,2.400000000000000000e+01,2.400000000000000000e+01,2.800000000000000000e+01,4.500000000000000111e-01,1.021200390000000000e+10
2.400000000000000000e+01,2.700000000000000000e+01,2.700000000000000000e+01,2.600000000000000000e+01,2.300000000000000000e+01,2.400000000000000000e+01,2.300000000000000000e+01,2.400000000000000000e+01,4.500000000000000111e-01,1.023248910000000000e+10
2.400000000000000000e+01,2.500000000000000000e+01,2.500000000000000000e+01,2.700000000000000000e+01,2.300000000000000000e+01,2.300000000000000000e+01,2.300000000000000000e+01,2.300000000000000000e+01,4.500000000000000111e-01,1.025216910000000000e+10
2.600000000000000000e+01,2.700000000000000000e+01,3.000000000000000000e+01,2.800000000000000000e+01,2.200000000000000000e+01,2.200000000000000000e+01,2.300000000000000000e+01,2.200000000000000000e+01,4.500000000000000111e-01,1.027119730000000000e+10
2.600000000000000000e+01,2.700000000000000000e+01,2.900000000000000000e+01,2.700000000000000000e+01,2.300000000000000000e+01,2.100000000000000000e+01,2.200000000000000000e+01,2.400000000000000000e+01,4.500000000000000111e-01,1.029334530000000000e+10
2.700000000000000000e+01,2.800000000000000000e+01,2.800000000000000000e+01,2.600000000000000000e+01,2.400000000000000000e+01,2.100000000000000000e+01,2.100000000000000000e+01,2.200000000000000000e+01,4.500000000000000111e-01,1.031245090000000000e+10
2.800000000000000000e+01,2.800000000000000000e+01,3.000000000000000000e+01,2.300000000000000000e+01,2.400000000000000000e+01,2.100000000000000000e+01,2.100000000000000000e+01,2.200000000000000000e+01,4.500000000000000111e-01,1.033113960000000000e+10
2.800000000000000000e+01,2.800000000000000000e+01,3.000000000000000000e+01,2.400000000000000000e+01,2.300000000000000000e+01,2.100000000000000000e+01,2.100000000000000000e+01,2.300000000000000000e+01,4.500000000000000111e-01,1.035331180000000000e+10
2.800000000000000000e+01,2.600000000000000000e+01,2.600000000000000000e+01,2.400000000000000000e+01,2.400000000000000000e+01,2.200000000000000000e+01,2.200000000000000000e+01,2.300000000000000000e+01,4.500000000000000111e-01,1.037118110000000000e+10
2.700000000000000000e+01,2.400000000000000000e+01,2.700000000000000000e+01,2.300000000000000000e+01,2.300000000000000000e+01,2.200000000000000000e+01,2.200000000000000000e+01,2.300000000000000000e+01,4.500000000000000111e-01,1.039319220000000000e+10
2.600000000000000000e+01,2.200000000000000000e+01,2.900000000000000000e+01,2.400000000000000000e+01,2.400000000000000000e+01,2.300000000000000000e+01,2.300000000000000000e+01,2.400000000000000000e+01,4.500000000000000111e-01,1.041269470000000000e+10
2.600000000000000000e+01,2.400000000000000000e+01,2.600000000000000000e+01,2.400000000000000000e+01,2.500000000000000000e+01,2.400000000000000000e+01,2.400000000000000000e+01,2.400000000000000000e+01,4.500000000000000111e-01,1.043219880000000000e+10
2.600000000000000000e+01,2.500000000000000000e+01,2.600000000000000000e+01,2.500000000000000000e+01,2.500000000000000000e+01,2.500000000000000000e+01,2.400000000000000000e+01,4.600000000000000000e+01,4.500000000000000111e-01,1.045092820000000000e+10
2.600000000000000000e+01,2.700000000000000000e+01,2.800000000000000000e+01,2.800000000000000000e+01,2.300000000000000000e+01,2.500000000000000000e+01,2.300000000000000000e+01,4.800000000000000000e+01,4.500000000000000111e-01,1.047098850000000000e+10
2.500000000000000000e+01,2.600000000000000000e+01,2.800000000000000000e+01,2.900000000000000000e+01,2.400000000000000000e+01,2.500000000000000000e+01,2.200000000000000000e+01,4.900000000000000000e+01,4.500000000000000111e-01,1.049305750000000000e+10
2.500000000000000000e+01,2.700000000000000000e+01,3.000000000000000000e+01,2.800000000000000000e+01,2.400000000000000000e+01,2.800000000000000000e+01,2.400000000000000000e+01,5.100000000000000000e+01,4.500000000000000111e-01,1.051202710000000000e+10
2.600000000000000000e+01,2.500000000000000000e+01,2.800000000000000000e+01,3.000000000000000000e+01,2.300000000000000000e+01,2.800000000000000000e+01,2.300000000000000000e+01,5.100000000000000000e+01,4.500000000000000111e-01,1.053039850000000000e+10
2.600000000000000000e+01,2.800000000000000000e+01,2.700000000000000000e+01,2.900000000000000000e+01,2.500000000000000000e+01,2.700000000000000000e+01,2.400000000000000000e+01,3.300000000000000000e+01,4.500000000000000111e-01,1.054911220000000000e+10
2.400000000000000000e+01,2.600000000000000000e+01,2.600000000000000000e+01,2.600000000000000000e+01,2.700000000000000000e+01,2.600000000000000000e+01,2.500000000000000000e+01,3.200000000000000000e+01,4.500000000000000111e-01,1.057176870000000000e+10
2.400000000000000000e+01,2.600000000000000000e+01,2.600000000000000000e+01,2.600000000000000000e+01,2.500000000000000000e+01,2.700000000000000000e+01,2.700000000000000000e+01,2.900000000000000000e+01,4.500000000000000111e-01,1.059087510000000000e+10
2.400000000000000000e+01,2.700000000000000000e+01,2.200000000000000000e+01,2.600000000000000000e+01,2.500000000000000000e+01,2.600000000000000000e+01,2.500000000000000000e+01,2.300000000000000000e+01,4.500000000000000111e-01,1.061176610000000000e+10
2.400000000000000000e+01,2.500000000000000000e+01,2.400000000000000000e+01,2.400000000000000000e+01,2.500000000000000000e+01,2.300000000000000000e+01,2.500000000000000000e+01,2.500000000000000000e+01,4.500000000000000111e-01,1.063397830000000000e+10
2.200000000000000000e+01,2.400000000000000000e+01,2.400000000000000000e+01,2.200000000000000000e+01,2.500000000000000000e+01,2.300000000000000000e+01,2.400000000000000000e+01,2.200000000000000000e+01,4.500000000000000111e-01,1.065519260000000000e+10
2.300000000000000000e+01,2.300000000000000000e+01,2.300000000000000000e+01,2.500000000000000000e+01,2.500000000000000000e+01,2.400000000000000000e+01,2.400000000000000000e+01,2.100000000000000000e+01,4.500000000000000111e-01,1.067396470000000000e+10
2.500000000000000000e+01,2.500000000000000000e+01,2.400000000000000000e+01,2.400000000000000000e+01,2.500000000000000000e+01,2.400000000000000000e+01,2.300000000000000000e+01,2.100000000000000000e+01,4.500000000000000111e-01,1.069215390000000000e+10
2.400000000000000000e+01,2.500000000000000000e+01,2.300000000000000000e+01,2.500000000000000000e+01,2.500000000000000000e+01,2.300000000000000000e+01,2.400000000000000000e+01,2.300000000000000000e+01,4.500000000000000111e-01,1.071282410000000000e+10
2.300000000000000000e+01,2.600000000000000000e+01,2.400000000000000000e+01,2.500000000000000000e+01,2.500000000000000000e+01,2.500000000000000000e+01,2.200000000000000000e+01,2.200000000000000000e+01,4.500000000000000111e-01,1.073068370000000000e+10
2.300000000000000000e+01,2.500000000000000000e+01,2.600000000000000000e+01,2.600000000000000000e+01,2.500000000000000000e+01,2.400000000000000000e+01,2.200000000000000000e+01,2.300000000000000000e+01,4.500000000000000111e-01,1.074897870000000000e+10
2.300000000000000000e+01,2.600000000000000000e+01,2.500000000000000000e+01,2.700000000000000000e+01,2.200000000000000000e+01,2.400000000000000000e+01,2.300000000000000000e+01,2.300000000000000000e+01,4.500000000000000111e-01,1.077070650000000000e+10
2.300000000000000000e+01,2.400000000000000000e+01,2.300000000000000000e+01,2.900000000000000000e+01,2.400000000000000000e+01,2.200000000000000000e+01,2.200000000000000000e+01,2.200000000000000000e+01,4.500000000000000111e-01,1.079308140000000000e+10
2.200000000000000000e+01,2.200000000000000000e+01,2.400000000000000000e+01,2.700000000000000000e+01,2.300000000000000000e+01,2.300000000000000000e+01,2.200000000000000000e+01,2.000000000000000000e+01,4.500000000000000111e-01,1.081152720000000000e+10
2.300000000000000000e+01,2.200000000000000000e+01,2.400000000000000000e+01,2.700000000000000000e+01,2.100000000000000000e+01,2.100000000000000000e+01,2.400000000000000000e+01,1.900000000000000000e+01,4.500000000000000111e-01,1.083159440000000000e+10
2.300000000000000000e+01,2.200000000000000000e+01,2.200000000000000000e+01,2.500000000000000000e+01,2.100000000000000000e+01,2.100000000000000000e+01,2.400000000000000000e+01,2.000000000000000000e+01,4.500000000000000111e-01,1.085128980000000000e+10
2.300000000000000000e+01,2.200000000000000000e+01,2.300000000000000000e+01,2.300000000000000000e+01,2.200000000000000000e+01,2.300000000000000000e+01,2.100000000000000000e+01,2.100000000000000000e+01,4.500000000000000111e-01,1.087097520000000000e+10
2.400000000000000000e+01,2.300000000000000000e+01,2.500000000000000000e+01,2.100000000000000000e+01,2.000000000000000000e+01,2.200000000000000000e+01,2.400000000000000000e+01,2.100000000000000000e+01,4.500000000000000111e-01,1.089308300000000000e+10
