6.900000000000000000e+01,6.600000000000000000e+01,3.000000000000000000e+01,2.400000000000000000e+01,2.400000000000000000e+01,3.500000000000000000e+01,1.230000000000000000e+02,2.040000000000000000e+02,4.199999999999999845e-01,4.686022000000000000e+08
7.300000000000000000e+01,6.500000000000000000e+01,2.800000000000000000e+01,2.300000000000000000e+01,2.200000000000000000e+01,3.100000000000000000e+01,1.420000000000000000e+02,2.910000000000000000e+02,4.099999999999999756e-01,5.005823000000000000e+08
7.300000000000000000e+01,6.600000000000000000e+01,2.800000000000000000e+01,2.200000000000000000e+01,2.100000000000000000e+01,3.200000000000000000e+01,1.530000000000000000e+02,2.870000000000000000e+02,4.099999999999999756e-01,1.204739000000000000e+09
7.200000000000000000e+01,6.300000000000000000e+01,3.000000000000000000e+01,2.200000000000000000e+01,2.000000000000000000e+01,2.900000000000000000e+01,1.240000000000000000e+02,2.820000000000000000e+02,4.099999999999999756e-01,1.221847600000000000e+09
7.300000000000000000e+01,5.600000000000000000e+01,3.100000000000000000e+01,2.400000000000000000e+01,2.000000000000000000e+01,2.800000000000000000e+01,1.330000000000000000e+02,3.150000000000000000e+02,4.099999999999999756e-01,1.240634700000000000e+09
7.800000000000000000e+01,6.300000000000000000e+01,2.900000000000000000e+01,2.300000000000000000e+01,2.200000000000000000e+01,2.600000000000000000e+01,1.410000000000000000e+02,3.200000000000000000e+02,4.099999999999999756e-01,1.259331300000000000e+09
7.700000000000000000e+01,5.600000000000000000e+01,2.900000000000000000e+01,2.500000000000000000e+01,2.200000000000000000e+01,3.000000000000000000e+01,1.300000000000000000e+02,2.430000000000000000e+02,4.099999999999999756e-01,1.278471100000000000e+09
8.200000000000000000e+01,5.400000000000000000e+01,2.800000000000000000e+01,2.500000000000000000e+01,2.300000000000000000e+01,3.000000000000000000e+01,1.320000000000000000e+02,2.500000000000000000e+02,4.099999999999999756e-01,1.297465900000000000e+09
8.400000000000000000e+01,5.800000000000000000e+01,2.600000000000000000e+01,2.200000000000000000e+01,2.200000000000000000e+01,2.900000000000000000e+01,1.410000000000000000e+02,2.480000000000000000e+02,4.099999999999999756e-01,1.317239000000000000e+09
7.800000000000000000e+01,5.800000000000000000e+01,2.400000000000000000e+01,2.000000000000000000e+01,2.400000000000000000e+01,2.900000000000000000e+01,1.370000000000000000e+02,2.180000000000000000e+02,4.099999999999999756e-01,1.338149400000000000e+09
7.500000000000000000e+01,4.600000000000000000e+01,2.700000000000000000e+01,2.200000000000000000e+01,2.300000000000000000e+01,3.300000000000000000e+01,1.380000000000000000e+02,2.130000000000000000e+02,4.099999999999999756e-01,1.357081000000000000e+09
8.400000000000000000e+01,5.800000000000000000e+01,2.600000000000000000e+01,2.300000000000000000e+01,2.300000000000000000e+01,2.900000000000000000e+01,1.330000000000000000e+02,2.170000000000000000e+02,4.099999999999999756e-01,1.376454700000000000e+09
8.100000000000000000e+01,6.100000000000000000e+01,2.500000000000000000e+01,2.300000000000000000e+01,2.400000000000000000e+01,3.100000000000000000e+01,1.270000000000000000e+02,2.240000000000000000e+02,4.099999999999999756e-01,1.395741500000000000e+09
8.300000000000000000e+01,5.900000000000000000e+01,2.800000000000000000e+01,2.600000000000000000e+01,2.400000000000000000e+01,3.100000000000000000e+01,1.220000000000000000e+02,2.520000000000000000e+02,4.000000000000000222e-01,1.413382600000000000e+09
8.500000000000000000e+01,6.000000000000000000e+01,3.000000000000000000e+01,2.700000000000000000e+01,2.600000000000000000e+01,3.900000000000000000e+01,1.810000000000000000e+02,2.400000000000000000e+02,4.000000000000000222e-01,1.431871100000000000e+09
8.000000000000000000e+01,5.700000000000000000e+01,2.700000000000000000e+01,2.600000000000000000e+01,2.600000000000000000e+01,3.600000000000000000e+01,1.910000000000000000e+02,2.690000000000000000e+02,4.000000000000000222e-01,1.449583900000000000e+09
7.400000000000000000e+01,4.600000000000000000e+01,2.700000000000000000e+01,2.500000000000000000e+01,2.800000000000000000e+01,3.600000000000000000e+01,1.920000000000000000e+02,2.850000000000000000e+02,4.000000000000000222e-01,1.468051600000000000e+09
6.800000000000000000e+01,4.800000000000000000e+01,2.900000000000000000e+01,2.600000000000000000e+01,2.800000000000000000e+01,3.500000000000000000e+01,1.970000000000000000e+02,2.710000000000000000e+02,4.000000000000000222e-01,1.485860500000000000e+09
7.900000000000000000e+01,4.600000000000000000e+01,2.600000000000000000e+01,2.400000000000000000e+01,2.900000000000000000e+01,3.500000000000000000e+01,1.940000000000000000e+02,2.340000000000000000e+02,4.099999999999999756e-01,1.549240400000000000e+09
8.000000000000000000e+01,4.300000000000000000e+01,2.500000000000000000e+01,2.500000000000000000e+01,2.600000000000000000e+01,2.800000000000000000e+01,1.310000000000000000e+02,2.370000000000000000e+02,4.099999999999999756e-01,1.566890700000000000e+09
8.300000000000000000e+01,4.800000000000000000e+01,2.700000000000000000e+01,2.400000000000000000e+01,2.600000000000000000e+01,3.000000000000000000e+01,1.060000000000000000e+02,2.250000000000000000e+02,4.099999999999999756e-01,1.585877500000000000e+09
8.400000000000000000e+01,4.600000000000000000e+01,2.700000000000000000e+01,2.500000000000000000e+01,2.500000000000000000e+01,3.000000000000000000e+01,1.120000000000000000e+02,2.110000000000000000e+02,4.099999999999999756e-01,1.604758700000000000e+09
8.800000000000000000e+01,4.400000000000000000e+01,2.500000000000000000e+01,2.500000000000000000e+01,2.400000000000000000e+01,2.900000000000000000e+01,1.000000000000000000e+02,2.090000000000000000e+02,4.099999999999999756e-01,1.623271800000000000e+09
8.400000000000000000e+01,4.200000000000000000e+01,2.800000000000000000e+01,2.800000000000000000e+01,2.500000000000000000e+01,3.200000000000000000e+01,1.330000000000000000e+02,2.380000000000000000e+02,4.099999999999999756e-01,1.640937800000000000e+09
7.800000000000000000e+01,4.900000000000000000e+01,3.100000000000000000e+01,2.900000000000000000e+01,2.400000000000000000e+01,2.900000000000000000e+01,1.360000000000000000e+02,2.290000000000000000e+02,4.099999999999999756e-01,1.658625600000000000e+09
7.900000000000000000e+01,4.600000000000000000e+01,2.800000000000000000e+01,2.800000000000000000e+01,2.300000000000000000e+01,2.900000000000000000e+01,1.510000000000000000e+02,1.940000000000000000e+02,4.099999999999999756e-01,1.677949200000000000e+09
7.800000000000000000e+01,4.800000000000000000e+01,2.700000000000000000e+01,2.900000000000000000e+01,2.300000000000000000e+01,3.100000000000000000e+01,1.480000000000000000e+02,2.000000000000000000e+02,4.099999999999999756e-01,1.695490000000000000e+09
8.200000000000000000e+01,4.800000000000000000e+01,2.900000000000000000e+01,2.700000000000000000e+01,2.400000000000000000e+01,3.100000000000000000e+01,1.430000000000000000e+02,2.190000000000000000e+02,4.099999999999999756e-01,1.714207600000000000e+09
7.800000000000000000e+01,5.900000000000000000e+01,2.800000000000000000e+01,2.600000000000000000e+01,2.400000000000000000e+01,3.300000000000000000e+01,1.430000000000000000e+02,2.440000000000000000e+02,4.099999999999999756e-01,1.732614200000000000e+09
8.000000000000000000e+01,5.500000000000000000e+01,2.500000000000000000e+01,2.500000000000000000e+01,2.300000000000000000e+01,3.500000000000000000e+01,1.410000000000000000e+02,2.870000000000000000e+02,4.099999999999999756e-01,1.749665100000000000e+09
7.900000000000000000e+01,5.600000000000000000e+01,2.600000000000000000e+01,2.600000000000000000e+01,2.400000000000000000e+01,3.400000000000000000e+01,1.360000000000000000e+02,3.130000000000000000e+02,4.099999999999999756e-01,1.767142300000000000e+09
7.500000000000000000e+01,5.700000000000000000e+01,2.700000000000000000e+01,2.500000000000000000e+01,2.500000000000000000e+01,3.600000000000000000e+01,1.420000000000000000e+02,3.260000000000000000e+02,4.099999999999999756e-01,1.784245300000000000e+09
8.300000000000000000e+01,6.200000000000000000e+01,2.800000000000000000e+01,2.700000000000000000e+01,2.400000000000000000e+01,3.600000000000000000e+01,1.440000000000000000e+02,3.110000000000000000e+02,4.099999999999999756e-01,1.801052500000000000e+09
7.800000000000000000e+01,5.200000000000000000e+01,2.600000000000000000e+01,2.400000000000000000e+01,2.200000000000000000e+01,3.200000000000000000e+01,1.270000000000000000e+02,2.690000000000000000e+02,4.099999999999999756e-01,1.817387800000000000e+09
7.900000000000000000e+01,6.100000000000000000e+01,3.100000000000000000e+01,2.400000000000000000e+01,2.400000000000000000e+01,3.300000000000000000e+01,1.470000000000000000e+02,2.310000000000000000e+02,4.099999999999999756e-01,1.833782000000000000e+09
8.500000000000000000e+01,6.100000000000000000e+01,3.200000000000000000e+01,2.500000000000000000e+01,2.600000000000000000e+01,3.300000000000000000e+01,1.390000000000000000e+02,2.030000000000000000e+02,4.099999999999999756e-01,1.851294000000000000e+09
8.800000000000000000e+01,5.900000000000000000e+01,3.400000000000000000e+01,2.400000000000000000e+01,2.600000000000000000e+01,2.900000000000000000e+01,1.340000000000000000e+02,2.460000000000000000e+02,4.099999999999999756e-01,1.869503700000000000e+09
7.500000000000000000e+01,5.700000000000000000e+01,3.200000000000000000e+01,2.300000000000000000e+01,3.700000000000000000e+01,2.900000000000000000e+01,1.340000000000000000e+02,2.760000000000000000e+02,4.000000000000000222e-01,1.888137800000000000e+09
8.400000000000000000e+01,6.400000000000000000e+01,3.300000000000000000e+01,2.500000000000000000e+01,3.800000000000000000e+01,3.400000000000000000e+01,1.280000000000000000e+02,4.040000000000000000e+02,4.000000000000000222e-01,1.906677500000000000e+09
8.500000000000000000e+01,6.400000000000000000e+01,2.900000000000000000e+01,2.300000000000000000e+01,3.900000000000000000e+01,3.200000000000000000e+01,1.180000000000000000e+02,4.270000000000000000e+02,4.000000000000000222e-01,1.923531900000000000e+09
7.700000000000000000e+01,7.000000000000000000e+01,3.100000000000000000e+01,2.300000000000000000e+01,3.900000000000000000e+01,3.200000000000000000e+01,1.290000000000000000e+02,4.420000000000000000e+02,4.000000000000000222e-01,1.941002400000000000e+09
7.300000000000000000e+01,7.000000000000000000e+01,3.000000000000000000e+01,2.400000000000000000e+01,3.800000000000000000e+01,3.300000000000000000e+01,1.280000000000000000e+02,4.240000000000000000e+02,4.000000000000000222e-01,1.958209300000000000e+09
7.800000000000000000e+01,6.800000000000000000e+01,3.000000000000000000e+01,2.300000000000000000e+01,2.900000000000000000e+01,3.300000000000000000e+01,1.290000000000000000e+02,4.180000000000000000e+02,4.000000000000000222e-01,1.975758200000000000e+09
6.800000000000000000e+01,6.700000000000000000e+01,3.000000000000000000e+01,2.300000000000000000e+01,2.900000000000000000e+01,2.800000000000000000e+01,1.260000000000000000e+02,3.050000000000000000e+02,4.000000000000000222e-01,1.994263200000000000e+09
6.600000000000000000e+01,6.400000000000000000e+01,3.000000000000000000e+01,2.300000000000000000e+01,2.600000000000000000e+01,2.800000000000000000e+01,1.230000000000000000e+02,2.690000000000000000e+02,4.000000000000000222e-01,2.011722000000000000e+09
7.300000000000000000e+01,6.400000000000000000e+01,2.700000000000000000e+01,2.300000000000000000e+01,2.400000000000000000e+01,3.100000000000000000e+01,1.280000000000000000e+02,2.320000000000000000e+02,4.000000000000000222e-01,2.028102200000000000e+09
7.700000000000000000e+01,7.400000000000000000e+01,2.900000000000000000e+01,2.300000000000000000e+01,2.400000000000000000e+01,3.000000000000000000e+01,1.320000000000000000e+02,2.050000000000000000e+02,4.000000000000000222e-01,2.045186200000000000e+09
6.900000000000000000e+01,7.200000000000000000e+01,3.000000000000000000e+01,2.500000000000000000e+01,2.400000000000000000e+01,3.300000000000000000e+01,1.350000000000000000e+02,1.870000000000000000e+02,4.000000000000000222e-01,2.061545400000000000e+09
7.500000000000000000e+01,7.300000000000000000e+01,3.000000000000000000e+01,2.500000000000000000e+01,2.100000000000000000e+01,3.300000000000000000e+01,1.450000000000000000e+02,1.910000000000000000e+02,4.000000000000000222e-01,2.077989200000000000e+09
7.300000000000000000e+01,7.200000000000000000e+01,3.000000000000000000e+01,2.700000000000000000e+01,2.200000000000000000e+01,3.400000000000000000e+01,1.520000000000000000e+02,2.410000000000000000e+02,4.000000000000000222e-01,2.094489100000000000e+09
7.100000000000000000e+01,7.600000000000000000e+01,2.900000000000000000e+01,2.500000000000000000e+01,2.300000000000000000e+01,3.400000000000000000e+01,1.790000000000000000e+02,2.640000000000000000e+02,4.000000000000000222e-01,2.113102200000000000e+09
6.800000000000000000e+01,6.700000000000000000e+01,2.700000000000000000e+01,2.400000000000000000e+01,2.200000000000000000e+01,3.500000000000000000e+01,1.790000000000000000e+02,2.480000000000000000e+02,4.000000000000000222e-01,2.130138300000000000e+09
6.500000000000000000e+01,6.900000000000000000e+01,2.500000000000000000e+01,2.400000000000000000e+01,2.100000000000000000e+01,3.200000000000000000e+01,1.760000000000000000e+02,2.380000000000000000e+02,4.000000000000000222e-01,2.146976800000000000e+09
6.300000000000000000e+01,6.700000000000000000e+01,2.500000000000000000e+01,2.400000000000000000e+01,2.500000000000000000e+01,3.400000000000000000e+01,1.730000000000000000e+02,2.270000000000000000e+02,4.099999999999999756e-01,2.163899300000000000e+09
6.500000000000000000e+01,6.400000000000000000e+01,2.500000000000000000e+01,2.200000000000000000e+01,2.400000000000000000e+01,3.100000000000000000e+01,1.640000000000000000e+02,2.050000000000000000e+02,4.099999999999999756e-01,2.180729800000000000e+09
6.000000000000000000e+01,5.300000000000000000e+01,2.600000000000000000e+01,2.300000000000000000e+01,2.500000000000000000e+01,2.900000000000000000e+01,1.240000000000000000e+02,1.980000000000000000e+02,4.099999999999999756e-01,2.196977000000000000e+09
6.000000000000000000e+01,5.400000000000000000e+01,2.600000000000000000e+01,2.500000000000000000e+01,2.500000000000000000e+01,3.000000000000000000e+01,1.160000000000000000e+02,1.910000000000000000e+02,4.099999999999999756e-01,2.213657500000000000e+09
6.000000000000000000e+01,5.200000000000000000e+01,2.700000000000000000e+01,2.400000000000000000e+01,2.600000000000000000e+01,3.200000000000000000e+01,1.150000000000000000e+02,1.930000000000000000e+02,4.099999999999999756e-01,2.230225200000000000e+09
5.900000000000000000e+01,5.200000000000000000e+01,2.500000000000000000e+01,2.400000000000000000e+01,2.400000000000000000e+01,3.000000000000000000e+01,1.060000000000000000e+02,1.980000000000000000e+02,4.099999999999999756e-01,2.247622800000000000e+09
7.100000000000000000e+01,5.200000000000000000e+01,2.300000000000000000e+01,2.400000000000000000e+01,2.400000000000000000e+01,3.100000000000000000e+01,1.000000000000000000e+02,1.770000000000000000e+02,4.099999999999999756e-01,2.264278300000000000e+09
7.700000000000000000e+01,5.400000000000000000e+01,2.400000000000000000e+01,2.300000000000000000e+01,2.100000000000000000e+01,3.200000000000000000e+01,9.800000000000000000e+01,1.530000000000000000e+02,4.099999999999999756e-01,2.280597900000000000e+09
7.400000000000000000e+01,5.100000000000000000e+01,2.300000000000000000e+01,2.200000000000000000e+01,2.600000000000000000e+01,2.900000000000000000e+01,1.030000000000000000e+02,1.840000000000000000e+02,4.099999999999999756e-01,2.297942900000000000e+09
7.400000000000000000e+01,5.200000000000000000e+01,2.100000000000000000e+01,2.300000000000000000e+01,2.900000000000000000e+01,2.700000000000000000e+01,9.900000000000000000e+01,1.900000000000000000e+02,4.199999999999999845e-01,2.314444000000000000e+09
7.000000000000000000e+01,4.800000000000000000e+01,2.400000000000000000e+01,2.300000000000000000e+01,3.100000000000000000e+01,2.600000000000000000e+01,9.600000000000000000e+01,1.760000000000000000e+02,4.199999999999999845e-01,2.331448300000000000e+09
5.500000000000000000e+01,4.900000000000000000e+01,2.500000000000000000e+01,2.300000000000000000e+01,3.200000000000000000e+01,2.500000000000000000e+01,1.020000000000000000e+02,1.730000000000000000e+02,4.199999999999999845e-01,2.349918900000000000e+09
4.500000000000000000e+01,4.500000000000000000e+01,2.400000000000000000e+01,2.300000000000000000e+01,3.200000000000000000e+01,2.400000000000000000e+01,1.040000000000000000e+02,1.810000000000000000e+02,4.199999999999999845e-01,2.367312600000000000e+09
6.000000000000000000e+01,4.700000000000000000e+01,2.700000000000000000e+01,2.400000000000000000e+01,2.800000000000000000e+01,2.600000000000000000e+01,1.050000000000000000e+02,1.630000000000000000e+02,4.199999999999999845e-01,2.384295700000000000e+09
6.500000000000000000e+01,4.700000000000000000e+01,2.800000000000000000e+01,2.400000000000000000e+01,2.600000000000000000e+01,2.700000000000000000e+01,1.030000000000000000e+02,1.550000000000000000e+02,4.199999999999999845e-01,2.400976300000000000e+09
6.800000000000000000e+01,5.100000000000000000e+01,2.700000000000000000e+01,2.400000000000000000e+01,2.300000000000000000e+01,2.600000000000000000e+01,9.900000000000000000e+01,1.520000000000000000e+02,4.199999999999999845e-01,2.417722000000000000e+09
6.800000000000000000e+01,4.800000000000000000e+01,2.700000000000000000e+01,2.500000000000000000e+01,2.200000000000000000e+01,2.700000000000000000e+01,9.400000000000000000e+01,1.380000000000000000e+02,4.199999999999999845e-01,2.435223200000000000e+09
6.600000000000000000e+01,4.600000000000000000e+01,2.900000000000000000e+01,2.500000000000000000e+01,2.300000000000000000e+01,2.600000000000000000e+01,9.000000000000000000e+01,1.240000000000000000e+02,4.199999999999999845e-01,2.452661700000000000e+09
5.300000000000000000e+01,4.500000000000000000e+01,2.700000000000000000e+01,2.400000000000000000e+01,2.300000000000000000e+01,2.500000000000000000e+01,8.800000000000000000e+01,9.400000000000000000e+01,4.199999999999999845e-01,2.470349400000000000e+09
4.600000000000000000e+01,3.900000000000000000e+01,2.500000000000000000e+01,2.500000000000000000e+01,2.500000000000000000e+01,2.600000000000000000e+01,8.400000000000000000e+01,8.200000000000000000e+01,4.199999999999999845e-01,2.487141100000000000e+09
4.000000000000000000e+01,3.900000000000000000e+01,2.600000000000000000e+01,2.900000000000000000e+01,3.300000000000000000e+01,2.700000000000000000e+01,8.400000000000000000e+01,8.000000000000000000e+01,4.299999999999999933e-01,2.503756100000000000e+09
4.100000000000000000e+01,3.900000000000000000e+01,2.500000000000000000e+01,2.800000000000000000e+01,3.600000000000000000e+01,2.700000000000000000e+01,7.600000000000000000e+01,6.800000000000000000e+01,4.299999999999999933e-01,2.521430000000000000e+09
4.800000000000000000e+01,4.400000000000000000e+01,2.500000000000000000e+01,3.200000000000000000e+01,4.200000000000000000e+01,2.800000000000000000e+01,6.600000000000000000e+01,9.200000000000000000e+01,4.299999999999999933e-01,2.539131300000000000e+09
5.400000000000000000e+01,4.100000000000000000e+01,2.700000000000000000e+01,3.900000000000000000e+01,4.500000000000000000e+01,2.700000000000000000e+01,6.100000000000000000e+01,1.220000000000000000e+02,4.299999999999999933e-01,2.556779700000000000e+09
5.700000000000000000e+01,4.300000000000000000e+01,2.900000000000000000e+01,4.000000000000000000e+01,4.500000000000000000e+01,2.700000000000000000e+01,6.300000000000000000e+01,1.260000000000000000e+02,4.299999999999999933e-01,2.573480800000000000e+09
6.600000000000000000e+01,5.300000000000000000e+01,3.100000000000000000e+01,3.900000000000000000e+01,4.300000000000000000e+01,2.700000000000000000e+01,6.300000000000000000e+01,1.260000000000000000e+02,4.299999999999999933e-01,2.590424900000000000e+09
7.000000000000000000e+01,5.300000000000000000e+01,3.200000000000000000e+01,4.000000000000000000e+01,4.400000000000000000e+01,2.700000000000000000e+01,6.200000000000000000e+01,1.280000000000000000e+02,4.299999999999999933e-01,2.607949100000000000e+09
6.600000000000000000e+01,5.000000000000000000e+01,2.900000000000000000e+01,3.700000000000000000e+01,3.800000000000000000e+01,2.800000000000000000e+01,6.700000000000000000e+01,1.260000000000000000e+02,4.299999999999999933e-01,2.625665800000000000e+09
5.900000000000000000e+01,5.500000000000000000e+01,3.100000000000000000e+01,3.200000000000000000e+01,4.100000000000000000e+01,3.000000000000000000e+01,6.800000000000000000e+01,1.060000000000000000e+02,4.299999999999999933e-01,2.642752000000000000e+09
5.900000000000000000e+01,5.500000000000000000e+01,3.100000000000000000e+01,3.000000000000000000e+01,4.200000000000000000e+01,3.200000000000000000e+01,7.000000000000000000e+01,1.040000000000000000e+02,4.400000000000000022e-01,2.661175100000000000e+09
5.800000000000000000e+01,3.900000000000000000e+01,3.400000000000000000e+01,3.100000000000000000e+01,4.200000000000000000e+01,3.100000000000000000e+01,8.300000000000000000e+01,1.280000000000000000e+02,4.400000000000000022e-01,2.679869100000000000e+09
5.600000000000000000e+01,3.900000000000000000e+01,3.300000000000000000e+01,3.300000000000000000e+01,5.100000000000000000e+01,3.300000000000000000e+01,8.400000000000000000e+01,1.250000000000000000e+02,4.299999999999999933e-01,2.697362400000000000e+09
5.900000000000000000e+01,4.100000000000000000e+01,3.500000000000000000e+01,3.800000000000000000e+01,6.400000000000000000e+01,3.000000000000000000e+01,7.800000000000000000e+01,1.040000000000000000e+02,4.299999999999999933e-01,2.714619100000000000e+09
6.100000000000000000e+01,3.600000000000000000e+01,3.800000000000000000e+01,3.900000000000000000e+01,6.600000000000000000e+01,3.500000000000000000e+01,7.700000000000000000e+01,1.000000000000000000e+02,4.299999999999999933e-01,2.731540500000000000e+09
6.100000000000000000e+01,3.500000000000000000e+01,4.100000000000000000e+01,4.000000000000000000e+01,7.200000000000000000e+01,4.200000000000000000e+01,8.400000000000000000e+01,1.000000000000000000e+02,4.299999999999999933e-01,2.748182100000000000e+09
5.500000000000000000e+01,3.500000000000000000e+01,4.000000000000000000e+01,4.000000000000000000e+01,7.800000000000000000e+01,4.600000000000000000e+01,7.100000000000000000e+01,7.000000000000000000e+01,4.299999999999999933e-01,2.765053300000000000e+09
5.300000000000000000e+01,4.100000000000000000e+01,5.300000000000000000e+01,4.400000000000000000e+01,7.700000000000000000e+01,6.000000000000000000e+01,7.500000000000000000e+01,6.500000000000000000e+01,4.299999999999999933e-01,2.783269700000000000e+09
5.100000000000000000e+01,4.500000000000000000e+01,6.100000000000000000e+01,4.700000000000000000e+01,7.500000000000000000e+01,7.700000000000000000e+01,8.100000000000000000e+01,6.400000000000000000e+01,4.299999999999999933e-01,2.800145100000000000e+09
7.100000000000000000e+01,5.300000000000000000e+01,6.100000000000000000e+01,4.700000000000000000e+01,7.500000000000000000e+01,1.000000000000000000e+02,8.300000000000000000e+01,5.600000000000000000e+01,4.299999999999999933e-01,2.819856100000000000e+09
7.000000000000000000e+01,6.200000000000000000e+01,6.400000000000000000e+01,4.700000000000000000e+01,7.400000000000000000e+01,1.090000000000000000e+02,8.200000000000000000e+01,4.600000000000000000e+01,4.299999999999999933e-01,2.837723300000000000e+09
7.100000000000000000e+01,6.600000000000000000e+01,6.700000000000000000e+01,5.000000000000000000e+01,6.800000000000000000e+01,1.150000000000000000e+02,8.200000000000000000e+01,4.000000000000000000e+01,4.299999999999999933e-01,2.854904600000000000e+09
7.500000000000000000e+01,7.000000000000000000e+01,6.700000000000000000e+01,5.200000000000000000e+01,6.900000000000000000e+01,1.110000000000000000e+02,8.100000000000000000e+01,4.000000000000000000e+01,4.299999999999999933e-01,2.871797900000000000e+09
8.200000000000000000e+01,8.300000000000000000e+01,6.700000000000000000e+01,5.500000000000000000e+01,7.600000000000000000e+01,1.190000000000000000e+02,9.900000000000000000e+01,5.400000000000000000e+01,4.299999999999999933e-01,2.888749600000000000e+09
7.600000000000000000e+01,8.300000000000000000e+01,7.100000000000000000e+01,6.100000000000000000e+01,9.100000000000000000e+01,1.500000000000000000e+02,1.120000000000000000e+02,5.800000000000000000e+01,4.299999999999999933e-01,2.906044700000000000e+09
8.300000000000000000e+01,8.500000000000000000e+01,6.900000000000000000e+01,6.300000000000000000e+01,1.080000000000000000e+02,1.740000000000000000e+02,1.250000000000000000e+02,6.000000000000000000e+01,4.299999999999999933e-01,2.922801400000000000e+09
8.700000000000000000e+01,9.400000000000000000e+01,9.300000000000000000e+01,8.400000000000000000e+01,1.140000000000000000e+02,1.770000000000000000e+02,1.260000000000000000e+02,6.100000000000000000e+01,4.299999999999999933e-01,2.940319100000000000e+09
8.600000000000000000e+01,9.200000000000000000e+01,9.100000000000000000e+01,8.200000000000000000e+01,1.110000000000000000e+02,1.780000000000000000e+02,1.270000000000000000e+02,6.100000000000000000e+01,4.400000000000000022e-01,2.960220900000000000e+09
8.500000000000000000e+01,8.400000000000000000e+01,9.200000000000000000e+01,8.500000000000000000e+01,1.080000000000000000e+02,1.680000000000000000e+02,1.130000000000000000e+02,5.900000000000000000e+01,4.400000000000000022e-01,2.977553400000000000e+09
8.500000000000000000e+01,9.700000000000000000e+01,1.050000000000000000e+02,9.300000000000000000e+01,9.900000000000000000e+01,1.340000000000000000e+02,9.100000000000000000e+01,5.800000000000000000e+01,4.500000000000000111e-01,2.996025500000000000e+09
7.800000000000000000e+01,1.000000000000000000e+02,1.090000000000000000e+02,9.900000000000000000e+01,8.100000000000000000e+01,1.100000000000000000e+02,6.900000000000000000e+01,5.400000000000000000e+01,4.500000000000000111e-01,3.013199900000000000e+09
8.000000000000000000e+01,9.600000000000000000e+01,8.800000000000000000e+01,8.100000000000000000e+01,7.800000000000000000e+01,1.150000000000000000e+02,8.200000000000000000e+01,5.900000000000000000e+01,4.600000000000000200e-01,3.031058500000000000e+09
8.600000000000000000e+01,9.600000000000000000e+01,8.800000000000000000e+01,8.700000000000000000e+01,9.900000000000000000e+01,1.190000000000000000e+02,8.800000000000000000e+01,6.700000000000000000e+01,4.600000000000000200e-01,3.049199100000000000e+09
8.400000000000000000e+01,9.200000000000000000e+01,8.400000000000000000e+01,8.200000000000000000e+01,9.600000000000000000e+01,1.260000000000000000e+02,9.200000000000000000e+01,6.400000000000000000e+01,4.600000000000000200e-01,3.067443500000000000e+09
8.500000000000000000e+01,7.600000000000000000e+01,6.400000000000000000e+01,7.400000000000000000e+01,1.090000000000000000e+02,1.580000000000000000e+02,1.200000000000000000e+02,7.900000000000000000e+01,4.600000000000000200e-01,3.084039400000000000e+09
8.500000000000000000e+01,6.200000000000000000e+01,5.800000000000000000e+01,6.700000000000000000e+01,1.190000000000000000e+02,1.670000000000000000e+02,1.230000000000000000e+02,8.400000000000000000e+01,4.600000000000000200e-01,3.100845000000000000e+09
8.300000000000000000e+01,6.300000000000000000e+01,6.300000000000000000e+01,8.300000000000000000e+01,1.400000000000000000e+02,1.830000000000000000e+02,1.220000000000000000e+02,8.700000000000000000e+01,4.600000000000000200e-01,3.117693600000000000e+09
8.100000000000000000e+01,6.800000000000000000e+01,5.600000000000000000e+01,7.800000000000000000e+01,1.430000000000000000e+02,2.010000000000000000e+02,2.220000000000000000e+02,8.700000000000000000e+01,4.600000000000000200e-01,3.135114600000000000e+09
7.700000000000000000e+01,6.900000000000000000e+01,5.300000000000000000e+01,7.800000000000000000e+01,1.780000000000000000e+02,2.750000000000000000e+02,2.650000000000000000e+02,8.600000000000000000e+01,4.600000000000000200e-01,3.152153800000000000e+09
6.300000000000000000e+01,7.100000000000000000e+01,5.300000000000000000e+01,7.500000000000000000e+01,1.790000000000000000e+02,2.830000000000000000e+02,2.730000000000000000e+02,7.300000000000000000e+01,4.600000000000000200e-01,3.169338600000000000e+09
6.300000000000000000e+01,7.500000000000000000e+01,5.200000000000000000e+01,7.700000000000000000e+01,1.720000000000000000e+02,2.790000000000000000e+02,2.740000000000000000e+02,7.000000000000000000e+01,4.600000000000000200e-01,3.185759200000000000e+09
6.800000000000000000e+01,7.800000000000000000e+01,5.000000000000000000e+01,6.700000000000000000e+01,1.780000000000000000e+02,3.240000000000000000e+02,3.110000000000000000e+02,6.700000000000000000e+01,4.600000000000000200e-01,3.202367300000000000e+09
8.500000000000000000e+01,8.000000000000000000e+01,5.800000000000000000e+01,7.000000000000000000e+01,1.690000000000000000e+02,3.420000000000000000e+02,2.920000000000000000e+02,6.400000000000000000e+01,4.500000000000000111e-01,3.220826400000000000e+09
1.340000000000000000e+02,8.900000000000000000e+01,7.500000000000000000e+01,7.900000000000000000e+01,1.450000000000000000e+02,3.450000000000000000e+02,3.360000000000000000e+02,2.050000000000000000e+02,4.500000000000000111e-01,3.237958300000000000e+09
1.810000000000000000e+02,9.500000000000000000e+01,8.700000000000000000e+01,1.190000000000000000e+02,1.740000000000000000e+02,5.440000000000000000e+02,5.480000000000000000e+02,3.380000000000000000e+02,4.500000000000000111e-01,3.256018300000000000e+09
2.240000000000000000e+02,1.230000000000000000e+02,1.080000000000000000e+02,1.310000000000000000e+02,2.130000000000000000e+02,7.050000000000000000e+02,6.720000000000000000e+02,4.210000000000000000e+02,4.600000000000000200e-01,3.272639500000000000e+09
2.260000000000000000e+02,1.320000000000000000e+02,1.160000000000000000e+02,1.310000000000000000e+02,2.230000000000000000e+02,7.240000000000000000e+02,7.430000000000000000e+02,4.340000000000000000e+02,4.699999999999999734e-01,3.290561200000000000e+09
2.380000000000000000e+02,1.370000000000000000e+02,1.190000000000000000e+02,1.440000000000000000e+02,2.550000000000000000e+02,7.760000000000000000e+02,7.700000000000000000e+02,4.740000000000000000e+02,4.799999999999999822e-01,3.308047300000000000e+09
2.370000000000000000e+02,1.370000000000000000e+02,1.170000000000000000e+02,1.530000000000000000e+02,2.900000000000000000e+02,8.540000000000000000e+02,8.230000000000000000e+02,4.830000000000000000e+02,4.899999999999999911e-01,3.325057100000000000e+09
2.470000000000000000e+02,1.370000000000000000e+02,1.140000000000000000e+02,1.320000000000000000e+02,2.900000000000000000e+02,8.900000000000000000e+02,8.440000000000000000e+02,4.180000000000000000e+02,5.000000000000000000e-01,3.342755300000000000e+09
2.390000000000000000e+02,1.140000000000000000e+02,1.020000000000000000e+02,1.300000000000000000e+02,2.800000000000000000e+02,7.760000000000000000e+02,7.810000000000000000e+02,4.120000000000000000e+02,5.100000000000000089e-01,3.360278300000000000e+09
2.680000000000000000e+02,1.170000000000000000e+02,1.090000000000000000e+02,1.290000000000000000e+02,2.710000000000000000e+02,7.390000000000000000e+02,7.500000000000000000e+02,4.470000000000000000e+02,5.200000000000000178e-01,3.376873400000000000e+09
2.560000000000000000e+02,1.380000000000000000e+02,1.040000000000000000e+02,1.320000000000000000e+02,2.690000000000000000e+02,7.490000000000000000e+02,7.540000000000000000e+02,4.100000000000000000e+02,5.300000000000000266e-01,3.395787800000000000e+09
2.450000000000000000e+02,1.380000000000000000e+02,1.030000000000000000e+02,1.420000000000000000e+02,3.510000000000000000e+02,6.650000000000000000e+02,6.700000000000000000e+02,3.570000000000000000e+02,5.400000000000000355e-01,3.413108400000000000e+09
2.180000000000000000e+02,1.530000000000000000e+02,9.900000000000000000e+01,1.570000000000000000e+02,5.210000000000000000e+02,5.490000000000000000e+02,5.050000000000000000e+02,3.610000000000000000e+02,5.500000000000000444e-01,3.430029100000000000e+09
1.890000000000000000e+02,1.740000000000000000e+02,1.050000000000000000e+02,1.890000000000000000e+02,6.770000000000000000e+02,6.580000000000000000e+02,4.900000000000000000e+02,2.840000000000000000e+02,5.500000000000000444e-01,3.447882200000000000e+09
1.690000000000000000e+02,4.830000000000000000e+02,8.900000000000000000e+01,1.910000000000000000e+02,6.830000000000000000e+02,7.400000000000000000e+02,4.570000000000000000e+02,2.340000000000000000e+02,5.600000000000000533e-01,3.465652100000000000e+09
1.650000000000000000e+02,5.440000000000000000e+02,9.100000000000000000e+01,1.870000000000000000e+02,6.880000000000000000e+02,6.950000000000000000e+02,3.990000000000000000e+02,2.420000000000000000e+02,5.600000000000000533e-01,3.483089400000000000e+09
1.570000000000000000e+02,6.610000000000000000e+02,9.300000000000000000e+01,1.920000000000000000e+02,6.580000000000000000e+02,7.060000000000000000e+02,4.080000000000000000e+02,2.450000000000000000e+02,5.699999999999999512e-01,3.501175300000000000e+09
1.440000000000000000e+02,7.110000000000000000e+02,9.200000000000000000e+01,1.930000000000000000e+02,5.540000000000000000e+02,6.390000000000000000e+02,3.710000000000000000e+02,2.120000000000000000e+02,5.699999999999999512e-01,3.519414500000000000e+09
1.410000000000000000e+02,7.680000000000000000e+02,8.900000000000000000e+01,1.560000000000000000e+02,4.100000000000000000e+02,5.400000000000000000e+02,3.450000000000000000e+02,2.000000000000000000e+02,5.799999999999999600e-01,3.536320600000000000e+09
1.060000000000000000e+02,6.360000000000000000e+02,9.500000000000000000e+01,1.540000000000000000e+02,4.130000000000000000e+02,4.330000000000000000e+02,3.090000000000000000e+02,1.610000000000000000e+02,5.699999999999999512e-01,3.554315500000000000e+09
1.110000000000000000e+02,5.860000000000000000e+02,9.600000000000000000e+01,1.520000000000000000e+02,4.020000000000000000e+02,3.910000000000000000e+02,2.770000000000000000e+02,1.390000000000000000e+02,5.699999999999999512e-01,3.573308200000000000e+09
9.900000000000000000e+01,4.510000000000000000e+02,8.900000000000000000e+01,1.360000000000000000e+02,3.950000000000000000e+02,3.370000000000000000e+02,2.410000000000000000e+02,1.040000000000000000e+02,5.600000000000000533e-01,3.593039900000000000e+09
8.500000000000000000e+01,6.410000000000000000e+02,9.600000000000000000e+01,1.490000000000000000e+02,3.860000000000000000e+02,3.350000000000000000e+02,2.280000000000000000e+02,9.500000000000000000e+01,5.600000000000000533e-01,3.612143600000000000e+09
9.100000000000000000e+01,6.280000000000000000e+02,9.100000000000000000e+01,1.570000000000000000e+02,3.210000000000000000e+02,2.870000000000000000e+02,1.850000000000000000e+02,7.900000000000000000e+01,5.500000000000000444e-01,3.634194700000000000e+09
8.800000000000000000e+01,6.270000000000000000e+02,8.100000000000000000e+01,1.800000000000000000e+02,3.220000000000000000e+02,2.730000000000000000e+02,1.240000000000000000e+02,6.600000000000000000e+01,5.500000000000000444e-01,3.655962200000000000e+09
8.000000000000000000e+01,6.230000000000000000e+02,7.900000000000000000e+01,1.760000000000000000e+02,3.060000000000000000e+02,2.530000000000000000e+02,1.100000000000000000e+02,5.200000000000000000e+01,5.500000000000000444e-01,3.674469000000000000e+09
7.900000000000000000e+01,6.470000000000000000e+02,7.700000000000000000e+01,2.050000000000000000e+02,2.660000000000000000e+02,2.110000000000000000e+02,8.900000000000000000e+01,5.000000000000000000e+01,5.500000000000000444e-01,3.694617100000000000e+09
8.100000000000000000e+01,3.880000000000000000e+02,7.300000000000000000e+01,1.950000000000000000e+02,2.170000000000000000e+02,1.440000000000000000e+02,6.500000000000000000e+01,4.800000000000000000e+01,5.400000000000000355e-01,3.712002700000000000e+09
7.100000000000000000e+01,2.830000000000000000e+02,6.900000000000000000e+01,2.170000000000000000e+02,2.110000000000000000e+02,1.430000000000000000e+02,6.600000000000000000e+01,4.400000000000000000e+01,5.400000000000000355e-01,3.729774300000000000e+09
6.500000000000000000e+01,2.580000000000000000e+02,7.200000000000000000e+01,2.160000000000000000e+02,1.790000000000000000e+02,1.030000000000000000e+02,5.700000000000000000e+01,4.200000000000000000e+01,5.300000000000000266e-01,3.747536700000000000e+09
5.200000000000000000e+01,2.750000000000000000e+02,7.200000000000000000e+01,2.630000000000000000e+02,2.000000000000000000e+02,9.900000000000000000e+01,5.800000000000000000e+01,4.100000000000000000e+01,5.200000000000000178e-01,3.766199100000000000e+09
4.900000000000000000e+01,2.210000000000000000e+02,7.800000000000000000e+01,2.620000000000000000e+02,2.000000000000000000e+02,8.400000000000000000e+01,5.700000000000000000e+01,4.000000000000000000e+01,5.200000000000000178e-01,3.784187400000000000e+09
4.800000000000000000e+01,2.260000000000000000e+02,7.500000000000000000e+01,3.600000000000000000e+02,2.040000000000000000e+02,8.200000000000000000e+01,5.300000000000000000e+01,3.700000000000000000e+01,5.200000000000000178e-01,3.804240000000000000e+09
4.800000000000000000e+01,2.500000000000000000e+02,7.700000000000000000e+01,3.910000000000000000e+02,2.100000000000000000e+02,7.500000000000000000e+01,5.200000000000000000e+01,3.400000000000000000e+01,5.200000000000000178e-01,3.822377100000000000e+09
5.200000000000000000e+01,3.300000000000000000e+02,8.600000000000000000e+01,3.890000000000000000e+02,2.110000000000000000e+02,8.300000000000000000e+01,5.600000000000000000e+01,3.700000000000000000e+01,5.200000000000000178e-01,3.840326000000000000e+09
5.000000000000000000e+01,5.570000000000000000e+02,9.300000000000000000e+01,3.910000000000000000e+02,1.850000000000000000e+02,7.000000000000000000e+01,5.500000000000000000e+01,3.600000000000000000e+01,5.100000000000000089e-01,3.858133700000000000e+09
5.000000000000000000e+01,5.940000000000000000e+02,8.700000000000000000e+01,3.930000000000000000e+02,1.780000000000000000e+02,7.100000000000000000e+01,5.600000000000000000e+01,3.600000000000000000e+01,5.100000000000000089e-01,3.875446200000000000e+09
4.600000000000000000e+01,8.160000000000000000e+02,8.500000000000000000e+01,3.020000000000000000e+02,1.640000000000000000e+02,7.300000000000000000e+01,5.400000000000000000e+01,3.300000000000000000e+01,5.000000000000000000e-01,3.893635500000000000e+09
4.300000000000000000e+01,8.530000000000000000e+02,8.000000000000000000e+01,2.460000000000000000e+02,1.220000000000000000e+02,8.500000000000000000e+01,5.400000000000000000e+01,3.300000000000000000e+01,5.000000000000000000e-01,3.911222200000000000e+09
4.500000000000000000e+01,8.840000000000000000e+02,6.600000000000000000e+01,2.370000000000000000e+02,1.060000000000000000e+02,9.100000000000000000e+01,6.500000000000000000e+01,3.100000000000000000e+01,5.100000000000000089e-01,3.932009400000000000e+09
5.000000000000000000e+01,8.220000000000000000e+02,6.900000000000000000e+01,1.780000000000000000e+02,9.600000000000000000e+01,1.230000000000000000e+02,8.500000000000000000e+01,3.700000000000000000e+01,5.100000000000000089e-01,3.949478800000000000e+09
6.000000000000000000e+01,8.140000000000000000e+02,6.800000000000000000e+01,1.320000000000000000e+02,1.020000000000000000e+02,2.940000000000000000e+02,1.740000000000000000e+02,7.000000000000000000e+01,5.200000000000000178e-01,3.967487300000000000e+09
7.000000000000000000e+01,6.140000000000000000e+02,7.400000000000000000e+01,1.200000000000000000e+02,1.150000000000000000e+02,4.090000000000000000e+02,4.100000000000000000e+02,9.700000000000000000e+01,5.300000000000000266e-01,3.987273300000000000e+09
7.400000000000000000e+01,5.860000000000000000e+02,7.500000000000000000e+01,1.260000000000000000e+02,1.290000000000000000e+02,4.470000000000000000e+02,4.350000000000000000e+02,1.080000000000000000e+02,5.400000000000000355e-01,4.009611300000000000e+09
7.200000000000000000e+01,5.010000000000000000e+02,8.200000000000000000e+01,1.480000000000000000e+02,1.350000000000000000e+02,4.890000000000000000e+02,4.540000000000000000e+02,1.220000000000000000e+02,5.500000000000000444e-01,4.031721500000000000e+09
6.700000000000000000e+01,3.960000000000000000e+02,7.400000000000000000e+01,1.500000000000000000e+02,1.400000000000000000e+02,5.510000000000000000e+02,4.730000000000000000e+02,1.320000000000000000e+02,5.600000000000000533e-01,4.049164800000000000e+09
6.000000000000000000e+01,3.560000000000000000e+02,7.800000000000000000e+01,1.470000000000000000e+02,1.300000000000000000e+02,5.140000000000000000e+02,4.760000000000000000e+02,1.230000000000000000e+02,5.799999999999999600e-01,4.068385200000000000e+09
5.100000000000000000e+01,2.970000000000000000e+02,7.400000000000000000e+01,1.460000000000000000e+02,1.290000000000000000e+02,4.460000000000000000e+02,3.780000000000000000e+02,1.090000000000000000e+02,5.899999999999999689e-01,4.090559200000000000e+09
5.900000000000000000e+01,2.160000000000000000e+02,7.200000000000000000e+01,1.240000000000000000e+02,1.180000000000000000e+02,4.180000000000000000e+02,3.660000000000000000e+02,1.010000000000000000e+02,5.999999999999999778e-01,4.109846300000000000e+09
6.100000000000000000e+01,1.770000000000000000e+02,6.400000000000000000e+01,8.800000000000000000e+01,1.190000000000000000e+02,3.810000000000000000e+02,3.500000000000000000e+02,8.900000000000000000e+01,6.199999999999999956e-01,4.133476900000000000e+09
6.000000000000000000e+01,1.330000000000000000e+02,6.100000000000000000e+01,9.800000000000000000e+01,1.260000000000000000e+02,2.860000000000000000e+02,3.210000000000000000e+02,7.000000000000000000e+01,6.199999999999999956e-01,4.155240100000000000e+09
5.700000000000000000e+01,1.090000000000000000e+02,5.500000000000000000e+01,1.000000000000000000e+02,1.250000000000000000e+02,2.260000000000000000e+02,2.810000000000000000e+02,6.000000000000000000e+01,6.199999999999999956e-01,4.173753900000000000e+09
5.300000000000000000e+01,8.700000000000000000e+01,4.800000000000000000e+01,9.700000000000000000e+01,1.060000000000000000e+02,2.080000000000000000e+02,1.640000000000000000e+02,4.900000000000000000e+01,6.199999999999999956e-01,4.192916900000000000e+09
4.000000000000000000e+01,6.500000000000000000e+01,4.200000000000000000e+01,9.400000000000000000e+01,9.900000000000000000e+01,1.860000000000000000e+02,1.220000000000000000e+02,4.600000000000000000e+01,6.099999999999999867e-01,4.210412300000000000e+09
3.400000000000000000e+01,7.800000000000000000e+01,4.700000000000000000e+01,9.700000000000000000e+01,8.600000000000000000e+01,1.710000000000000000e+02,9.300000000000000000e+01,3.800000000000000000e+01,6.099999999999999867e-01,4.231827700000000000e+09
3.400000000000000000e+01,1.470000000000000000e+02,4.300000000000000000e+01,1.000000000000000000e+02,7.400000000000000000e+01,1.520000000000000000e+02,8.900000000000000000e+01,3.700000000000000000e+01,5.999999999999999778e-01,4.250875200000000000e+09
3.700000000000000000e+01,1.610000000000000000e+02,4.300000000000000000e+01,1.330000000000000000e+02,8.100000000000000000e+01,1.470000000000000000e+02,7.700000000000000000e+01,4.200000000000000000e+01,5.999999999999999778e-01,4.271763200000000000e+09
4.500000000000000000e+01,1.760000000000000000e+02,5.900000000000000000e+01,1.500000000000000000e+02,9.800000000000000000e+01,1.200000000000000000e+02,6.000000000000000000e+01,4.200000000000000000e+01,5.999999999999999778e-01,4.289656400000000000e+09
4.400000000000000000e+01,1.820000000000000000e+02,1.130000000000000000e+02,1.990000000000000000e+02,1.110000000000000000e+02,1.050000000000000000e+02,5.000000000000000000e+01,4.000000000000000000e+01,5.899999999999999689e-01,4.309647100000000000e+09
4.200000000000000000e+01,2.040000000000000000e+02,1.500000000000000000e+02,2.270000000000000000e+02,1.090000000000000000e+02,7.400000000000000000e+01,4.700000000000000000e+01,3.600000000000000000e+01,5.899999999999999689e-01,4.331789200000000000e+09
4.400000000000000000e+01,1.650000000000000000e+02,1.670000000000000000e+02,2.490000000000000000e+02,1.040000000000000000e+02,6.300000000000000000e+01,4.300000000000000000e+01,3.700000000000000000e+01,5.899999999999999689e-01,4.349867400000000000e+09
4.200000000000000000e+01,1.590000000000000000e+02,1.840000000000000000e+02,2.430000000000000000e+02,9.800000000000000000e+01,6.200000000000000000e+01,4.500000000000000000e+01,3.000000000000000000e+01,5.899999999999999689e-01,4.368328000000000000e+09
3.500000000000000000e+01,1.750000000000000000e+02,2.040000000000000000e+02,2.540000000000000000e+02,8.500000000000000000e+01,5.200000000000000000e+01,4.500000000000000000e+01,2.600000000000000000e+01,5.899999999999999689e-01,4.387312800000000000e+09
3.600000000000000000e+01,2.210000000000000000e+02,2.550000000000000000e+02,2.870000000000000000e+02,7.700000000000000000e+01,5.300000000000000000e+01,5.200000000000000000e+01,2.900000000000000000e+01,5.999999999999999778e-01,4.409504100000000000e+09
3.500000000000000000e+01,2.470000000000000000e+02,2.610000000000000000e+02,2.710000000000000000e+02,7.500000000000000000e+01,8.100000000000000000e+01,8.400000000000000000e+01,3.300000000000000000e+01,6.099999999999999867e-01,4.431757100000000000e+09
4.400000000000000000e+01,2.750000000000000000e+02,2.820000000000000000e+02,2.780000000000000000e+02,9.900000000000000000e+01,3.340000000000000000e+02,2.360000000000000000e+02,6.200000000000000000e+01,6.199999999999999956e-01,4.450188100000000000e+09
4.500000000000000000e+01,2.720000000000000000e+02,2.860000000000000000e+02,2.740000000000000000e+02,9.900000000000000000e+01,3.500000000000000000e+02,2.520000000000000000e+02,6.400000000000000000e+01,6.300000000000000044e-01,4.468473100000000000e+09
5.000000000000000000e+01,2.760000000000000000e+02,2.780000000000000000e+02,2.830000000000000000e+02,1.190000000000000000e+02,4.150000000000000000e+02,2.760000000000000000e+02,7.000000000000000000e+01,6.400000000000000133e-01,4.488152600000000000e+09
5.300000000000000000e+01,2.390000000000000000e+02,2.720000000000000000e+02,2.310000000000000000e+02,1.200000000000000000e+02,4.400000000000000000e+02,3.230000000000000000e+02,7.600000000000000000e+01,6.400000000000000133e-01,4.509455600000000000e+09
5.900000000000000000e+01,1.900000000000000000e+02,2.720000000000000000e+02,2.410000000000000000e+02,1.290000000000000000e+02,4.760000000000000000e+02,3.530000000000000000e+02,8.300000000000000000e+01,6.400000000000000133e-01,4.531755200000000000e+09
5.200000000000000000e+01,1.500000000000000000e+02,2.490000000000000000e+02,2.490000000000000000e+02,1.120000000000000000e+02,3.800000000000000000e+02,2.950000000000000000e+02,6.500000000000000000e+01,6.500000000000000222e-01,4.549995200000000000e+09
5.100000000000000000e+01,1.530000000000000000e+02,2.460000000000000000e+02,2.530000000000000000e+02,1.130000000000000000e+02,3.720000000000000000e+02,2.830000000000000000e+02,6.400000000000000000e+01,6.600000000000000311e-01,4.568262500000000000e+09
4.700000000000000000e+01,1.080000000000000000e+02,3.090000000000000000e+02,2.650000000000000000e+02,9.500000000000000000e+01,3.050000000000000000e+02,2.630000000000000000e+02,6.000000000000000000e+01,6.600000000000000311e-01,4.587158700000000000e+09
4.500000000000000000e+01,1.090000000000000000e+02,2.930000000000000000e+02,2.620000000000000000e+02,8.600000000000000000e+01,2.710000000000000000e+02,2.060000000000000000e+02,5.400000000000000000e+01,6.700000000000000400e-01,4.609523200000000000e+09
7.200000000000000000e+01,1.060000000000000000e+02,3.150000000000000000e+02,2.520000000000000000e+02,8.300000000000000000e+01,3.540000000000000000e+02,2.280000000000000000e+02,1.180000000000000000e+02,6.800000000000000488e-01,4.631756800000000000e+09
8.100000000000000000e+01,8.800000000000000000e+01,3.160000000000000000e+02,2.170000000000000000e+02,8.900000000000000000e+01,3.740000000000000000e+02,2.620000000000000000e+02,1.630000000000000000e+02,6.800000000000000488e-01,4.649527100000000000e+09
8.300000000000000000e+01,7.900000000000000000e+01,3.210000000000000000e+02,2.090000000000000000e+02,9.100000000000000000e+01,3.770000000000000000e+02,2.720000000000000000e+02,1.710000000000000000e+02,6.700000000000000400e-01,4.669133300000000000e+09
8.500000000000000000e+01,8.500000000000000000e+01,2.750000000000000000e+02,1.870000000000000000e+02,8.700000000000000000e+01,3.750000000000000000e+02,2.750000000000000000e+02,1.720000000000000000e+02,6.700000000000000400e-01,4.688786000000000000e+09
8.500000000000000000e+01,9.600000000000000000e+01,2.560000000000000000e+02,1.970000000000000000e+02,9.500000000000000000e+01,3.740000000000000000e+02,2.740000000000000000e+02,1.710000000000000000e+02,6.600000000000000311e-01,4.711276200000000000e+09
7.800000000000000000e+01,1.270000000000000000e+02,2.340000000000000000e+02,1.980000000000000000e+02,8.800000000000000000e+01,2.350000000000000000e+02,2.120000000000000000e+02,1.660000000000000000e+02,6.600000000000000311e-01,4.729529100000000000e+09
1.110000000000000000e+02,1.360000000000000000e+02,2.650000000000000000e+02,2.440000000000000000e+02,8.500000000000000000e+01,1.540000000000000000e+02,1.620000000000000000e+02,2.670000000000000000e+02,6.600000000000000311e-01,4.748409300000000000e+09
1.290000000000000000e+02,1.480000000000000000e+02,2.880000000000000000e+02,2.720000000000000000e+02,8.400000000000000000e+01,2.150000000000000000e+02,2.220000000000000000e+02,2.880000000000000000e+02,6.600000000000000311e-01,4.767863600000000000e+09
1.320000000000000000e+02,1.470000000000000000e+02,3.270000000000000000e+02,2.710000000000000000e+02,1.160000000000000000e+02,4.270000000000000000e+02,4.650000000000000000e+02,3.800000000000000000e+02,6.400000000000000133e-01,4.789992600000000000e+09
1.340000000000000000e+02,1.380000000000000000e+02,3.540000000000000000e+02,3.380000000000000000e+02,1.240000000000000000e+02,4.570000000000000000e+02,4.910000000000000000e+02,3.860000000000000000e+02,6.300000000000000044e-01,4.812606200000000000e+09
1.300000000000000000e+02,1.170000000000000000e+02,3.830000000000000000e+02,3.420000000000000000e+02,1.220000000000000000e+02,4.640000000000000000e+02,5.010000000000000000e+02,3.780000000000000000e+02,6.199999999999999956e-01,4.830786100000000000e+09
1.030000000000000000e+02,1.250000000000000000e+02,3.830000000000000000e+02,3.300000000000000000e+02,1.250000000000000000e+02,4.760000000000000000e+02,5.180000000000000000e+02,2.990000000000000000e+02,6.199999999999999956e-01,4.850577400000000000e+09
9.600000000000000000e+01,1.200000000000000000e+02,3.750000000000000000e+02,3.200000000000000000e+02,1.320000000000000000e+02,5.330000000000000000e+02,5.360000000000000000e+02,2.810000000000000000e+02,6.099999999999999867e-01,4.868628200000000000e+09
1.130000000000000000e+02,1.370000000000000000e+02,3.370000000000000000e+02,4.150000000000000000e+02,1.140000000000000000e+02,4.890000000000000000e+02,4.010000000000000000e+02,1.640000000000000000e+02,6.099999999999999867e-01,4.889507600000000000e+09
1.250000000000000000e+02,1.410000000000000000e+02,3.390000000000000000e+02,3.820000000000000000e+02,1.090000000000000000e+02,5.920000000000000000e+02,4.620000000000000000e+02,1.650000000000000000e+02,6.199999999999999956e-01,4.911599200000000000e+09
1.240000000000000000e+02,1.420000000000000000e+02,3.070000000000000000e+02,4.040000000000000000e+02,1.140000000000000000e+02,5.940000000000000000e+02,4.630000000000000000e+02,1.580000000000000000e+02,6.199999999999999956e-01,4.930287600000000000e+09
1.330000000000000000e+02,1.340000000000000000e+02,2.860000000000000000e+02,3.960000000000000000e+02,1.280000000000000000e+02,6.690000000000000000e+02,5.420000000000000000e+02,1.630000000000000000e+02,6.199999999999999956e-01,4.948531900000000000e+09
1.300000000000000000e+02,1.340000000000000000e+02,3.030000000000000000e+02,4.000000000000000000e+02,1.320000000000000000e+02,6.710000000000000000e+02,5.440000000000000000e+02,1.550000000000000000e+02,6.199999999999999956e-01,4.967720600000000000e+09
1.170000000000000000e+02,1.230000000000000000e+02,3.010000000000000000e+02,2.940000000000000000e+02,1.190000000000000000e+02,6.110000000000000000e+02,5.140000000000000000e+02,1.240000000000000000e+02,6.300000000000000044e-01,4.989613200000000000e+09
1.180000000000000000e+02,1.980000000000000000e+02,2.680000000000000000e+02,2.640000000000000000e+02,1.120000000000000000e+02,5.320000000000000000e+02,4.900000000000000000e+02,1.430000000000000000e+02,6.300000000000000044e-01,5.011565800000000000e+09
1.130000000000000000e+02,1.960000000000000000e+02,3.390000000000000000e+02,2.820000000000000000e+02,1.110000000000000000e+02,5.630000000000000000e+02,5.300000000000000000e+02,1.610000000000000000e+02,6.400000000000000133e-01,5.029503800000000000e+09
1.060000000000000000e+02,1.970000000000000000e+02,3.310000000000000000e+02,2.710000000000000000e+02,8.600000000000000000e+01,5.240000000000000000e+02,5.120000000000000000e+02,1.500000000000000000e+02,6.500000000000000222e-01,5.048176600000000000e+09
1.080000000000000000e+02,2.100000000000000000e+02,2.930000000000000000e+02,2.860000000000000000e+02,7.400000000000000000e+01,4.690000000000000000e+02,4.950000000000000000e+02,1.470000000000000000e+02,6.600000000000000311e-01,5.067084100000000000e+09
1.170000000000000000e+02,2.170000000000000000e+02,2.880000000000000000e+02,2.710000000000000000e+02,7.700000000000000000e+01,4.830000000000000000e+02,5.230000000000000000e+02,2.040000000000000000e+02,6.700000000000000400e-01,5.089419500000000000e+09
1.130000000000000000e+02,1.510000000000000000e+02,3.000000000000000000e+02,2.990000000000000000e+02,8.300000000000000000e+01,4.690000000000000000e+02,4.800000000000000000e+02,2.190000000000000000e+02,6.800000000000000488e-01,5.111526600000000000e+09
1.300000000000000000e+02,1.510000000000000000e+02,2.100000000000000000e+02,3.040000000000000000e+02,8.400000000000000000e+01,4.460000000000000000e+02,4.380000000000000000e+02,2.550000000000000000e+02,6.800000000000000488e-01,5.129778500000000000e+09
1.420000000000000000e+02,2.020000000000000000e+02,2.200000000000000000e+02,3.050000000000000000e+02,8.500000000000000000e+01,3.780000000000000000e+02,3.440000000000000000e+02,3.090000000000000000e+02,6.800000000000000488e-01,5.148619500000000000e+09
1.380000000000000000e+02,1.950000000000000000e+02,2.500000000000000000e+02,3.030000000000000000e+02,7.700000000000000000e+01,3.460000000000000000e+02,2.990000000000000000e+02,3.590000000000000000e+02,6.800000000000000488e-01,5.167503500000000000e+09
1.370000000000000000e+02,1.820000000000000000e+02,2.980000000000000000e+02,3.400000000000000000e+02,8.400000000000000000e+01,3.170000000000000000e+02,2.300000000000000000e+02,4.480000000000000000e+02,6.800000000000000488e-01,5.190264800000000000e+09
1.430000000000000000e+02,1.880000000000000000e+02,2.810000000000000000e+02,3.070000000000000000e+02,7.800000000000000000e+01,3.410000000000000000e+02,2.760000000000000000e+02,4.530000000000000000e+02,6.800000000000000488e-01,5.211782100000000000e+09
1.370000000000000000e+02,2.120000000000000000e+02,2.860000000000000000e+02,2.870000000000000000e+02,7.600000000000000000e+01,3.280000000000000000e+02,2.630000000000000000e+02,4.430000000000000000e+02,6.700000000000000400e-01,5.230766300000000000e+09
1.260000000000000000e+02,1.670000000000000000e+02,2.930000000000000000e+02,2.900000000000000000e+02,7.800000000000000000e+01,3.460000000000000000e+02,2.510000000000000000e+02,4.150000000000000000e+02,6.700000000000000400e-01,5.254564800000000000e+09
1.300000000000000000e+02,1.770000000000000000e+02,3.420000000000000000e+02,3.110000000000000000e+02,8.000000000000000000e+01,3.600000000000000000e+02,2.620000000000000000e+02,4.190000000000000000e+02,6.700000000000000400e-01,5.274656900000000000e+09
5.390000000000000000e+02,4.080000000000000000e+02,4.410000000000000000e+02,3.160000000000000000e+02,8.500000000000000000e+01,3.510000000000000000e+02,2.640000000000000000e+02,3.420000000000000000e+02,6.500000000000000222e-01,5.294266800000000000e+09
8.030000000000000000e+02,5.770000000000000000e+02,4.920000000000000000e+02,3.800000000000000000e+02,1.270000000000000000e+02,4.530000000000000000e+02,2.970000000000000000e+02,3.880000000000000000e+02,6.300000000000000044e-01,5.312366400000000000e+09
9.560000000000000000e+02,6.790000000000000000e+02,5.190000000000000000e+02,3.710000000000000000e+02,1.350000000000000000e+02,5.470000000000000000e+02,3.780000000000000000e+02,4.080000000000000000e+02,6.199999999999999956e-01,5.331191600000000000e+09
1.006000000000000000e+03,6.930000000000000000e+02,6.440000000000000000e+02,4.120000000000000000e+02,1.480000000000000000e+02,5.440000000000000000e+02,3.860000000000000000e+02,4.150000000000000000e+02,5.899999999999999689e-01,5.349038800000000000e+09
1.040000000000000000e+03,7.280000000000000000e+02,6.780000000000000000e+02,4.020000000000000000e+02,1.710000000000000000e+02,6.000000000000000000e+02,4.680000000000000000e+02,5.020000000000000000e+02,5.699999999999999512e-01,5.368153700000000000e+09
9.130000000000000000e+02,6.540000000000000000e+02,6.410000000000000000e+02,3.800000000000000000e+02,1.670000000000000000e+02,6.110000000000000000e+02,4.710000000000000000e+02,5.820000000000000000e+02,5.400000000000000355e-01,5.386717600000000000e+09
7.170000000000000000e+02,5.190000000000000000e+02,6.160000000000000000e+02,3.340000000000000000e+02,1.380000000000000000e+02,5.060000000000000000e+02,4.210000000000000000e+02,5.590000000000000000e+02,5.200000000000000178e-01,5.408919900000000000e+09
5.090000000000000000e+02,3.760000000000000000e+02,5.860000000000000000e+02,3.320000000000000000e+02,1.280000000000000000e+02,4.080000000000000000e+02,3.600000000000000000e+02,5.360000000000000000e+02,5.000000000000000000e-01,5.431017400000000000e+09
4.010000000000000000e+02,3.490000000000000000e+02,4.500000000000000000e+02,2.830000000000000000e+02,1.240000000000000000e+02,5.480000000000000000e+02,4.200000000000000000e+02,5.270000000000000000e+02,4.799999999999999822e-01,5.449691200000000000e+09
3.050000000000000000e+02,2.570000000000000000e+02,3.510000000000000000e+02,2.400000000000000000e+02,9.000000000000000000e+01,4.880000000000000000e+02,3.250000000000000000e+02,4.070000000000000000e+02,4.699999999999999734e-01,5.468873500000000000e+09
2.630000000000000000e+02,2.200000000000000000e+02,2.920000000000000000e+02,2.250000000000000000e+02,9.200000000000000000e+01,5.330000000000000000e+02,3.790000000000000000e+02,2.180000000000000000e+02,4.699999999999999734e-01,5.488035900000000000e+09
1.810000000000000000e+02,1.960000000000000000e+02,2.650000000000000000e+02,1.990000000000000000e+02,1.040000000000000000e+02,6.320000000000000000e+02,4.290000000000000000e+02,1.420000000000000000e+02,4.600000000000000200e-01,5.508884400000000000e+09
1.340000000000000000e+02,1.690000000000000000e+02,3.350000000000000000e+02,1.800000000000000000e+02,1.040000000000000000e+02,6.290000000000000000e+02,4.230000000000000000e+02,1.280000000000000000e+02,4.600000000000000200e-01,5.531058700000000000e+09
1.230000000000000000e+02,1.620000000000000000e+02,3.230000000000000000e+02,1.580000000000000000e+02,9.400000000000000000e+01,5.110000000000000000e+02,3.650000000000000000e+02,1.110000000000000000e+02,4.600000000000000200e-01,5.549484000000000000e+09
1.140000000000000000e+02,1.700000000000000000e+02,3.410000000000000000e+02,1.680000000000000000e+02,1.060000000000000000e+02,5.480000000000000000e+02,3.990000000000000000e+02,9.100000000000000000e+01,4.699999999999999734e-01,5.568747500000000000e+09
8.800000000000000000e+01,1.320000000000000000e+02,3.640000000000000000e+02,1.790000000000000000e+02,1.060000000000000000e+02,5.210000000000000000e+02,3.600000000000000000e+02,8.700000000000000000e+01,4.799999999999999822e-01,5.586853200000000000e+09
8.100000000000000000e+01,1.470000000000000000e+02,3.820000000000000000e+02,1.940000000000000000e+02,9.700000000000000000e+01,3.960000000000000000e+02,3.130000000000000000e+02,7.400000000000000000e+01,5.000000000000000000e-01,5.609251300000000000e+09
7.800000000000000000e+01,1.450000000000000000e+02,3.450000000000000000e+02,1.740000000000000000e+02,1.040000000000000000e+02,5.070000000000000000e+02,4.210000000000000000e+02,7.200000000000000000e+01,5.100000000000000089e-01,5.631019000000000000e+09
7.600000000000000000e+01,1.430000000000000000e+02,3.500000000000000000e+02,2.000000000000000000e+02,1.030000000000000000e+02,5.420000000000000000e+02,4.250000000000000000e+02,8.700000000000000000e+01,5.300000000000000266e-01,5.653234100000000000e+09
8.300000000000000000e+01,1.330000000000000000e+02,3.280000000000000000e+02,2.360000000000000000e+02,1.000000000000000000e+02,5.120000000000000000e+02,4.360000000000000000e+02,8.400000000000000000e+01,5.500000000000000444e-01,5.671883900000000000e+09
9.800000000000000000e+01,1.320000000000000000e+02,2.820000000000000000e+02,2.870000000000000000e+02,9.800000000000000000e+01,5.030000000000000000e+02,4.310000000000000000e+02,8.400000000000000000e+01,5.699999999999999512e-01,5.690025500000000000e+09
1.410000000000000000e+02,1.490000000000000000e+02,2.650000000000000000e+02,3.220000000000000000e+02,9.400000000000000000e+01,5.480000000000000000e+02,4.800000000000000000e+02,8.700000000000000000e+01,5.899999999999999689e-01,5.709825800000000000e+09
1.550000000000000000e+02,1.600000000000000000e+02,2.340000000000000000e+02,3.220000000000000000e+02,9.100000000000000000e+01,4.670000000000000000e+02,3.810000000000000000e+02,8.500000000000000000e+01,5.999999999999999778e-01,5.732633900000000000e+09
1.710000000000000000e+02,1.670000000000000000e+02,2.280000000000000000e+02,3.090000000000000000e+02,1.120000000000000000e+02,4.920000000000000000e+02,3.950000000000000000e+02,7.500000000000000000e+01,6.099999999999999867e-01,5.750935300000000000e+09
1.680000000000000000e+02,1.700000000000000000e+02,2.410000000000000000e+02,2.960000000000000000e+02,1.030000000000000000e+02,4.810000000000000000e+02,3.430000000000000000e+02,7.200000000000000000e+01,6.300000000000000044e-01,5.769080100000000000e+09
1.600000000000000000e+02,1.650000000000000000e+02,2.370000000000000000e+02,2.990000000000000000e+02,1.120000000000000000e+02,5.370000000000000000e+02,4.020000000000000000e+02,7.300000000000000000e+01,6.400000000000000133e-01,5.789174000000000000e+09
1.860000000000000000e+02,1.630000000000000000e+02,2.710000000000000000e+02,4.420000000000000000e+02,1.320000000000000000e+02,5.140000000000000000e+02,3.580000000000000000e+02,7.500000000000000000e+01,6.500000000000000222e-01,5.811328000000000000e+09
1.830000000000000000e+02,1.610000000000000000e+02,2.770000000000000000e+02,4.990000000000000000e+02,1.330000000000000000e+02,5.090000000000000000e+02,3.800000000000000000e+02,7.800000000000000000e+01,6.700000000000000400e-01,5.830121100000000000e+09
1.780000000000000000e+02,1.630000000000000000e+02,2.670000000000000000e+02,5.080000000000000000e+02,1.330000000000000000e+02,5.550000000000000000e+02,5.090000000000000000e+02,9.100000000000000000e+01,6.800000000000000488e-01,5.849762800000000000e+09
1.820000000000000000e+02,1.800000000000000000e+02,2.510000000000000000e+02,5.120000000000000000e+02,1.360000000000000000e+02,5.650000000000000000e+02,5.360000000000000000e+02,9.100000000000000000e+01,6.999999999999999556e-01,5.868726500000000000e+09
1.910000000000000000e+02,1.870000000000000000e+02,2.500000000000000000e+02,5.110000000000000000e+02,1.330000000000000000e+02,5.240000000000000000e+02,5.270000000000000000e+02,1.610000000000000000e+02,7.099999999999999645e-01,5.888735800000000000e+09
1.580000000000000000e+02,1.610000000000000000e+02,1.970000000000000000e+02,3.800000000000000000e+02,1.120000000000000000e+02,4.930000000000000000e+02,5.150000000000000000e+02,1.640000000000000000e+02,7.199999999999999734e-01,5.910950500000000000e+09
1.930000000000000000e+02,1.670000000000000000e+02,3.150000000000000000e+02,3.130000000000000000e+02,1.070000000000000000e+02,4.650000000000000000e+02,4.980000000000000000e+02,1.680000000000000000e+02,7.199999999999999734e-01,5.933200200000000000e+09
1.920000000000000000e+02,1.960000000000000000e+02,5.030000000000000000e+02,3.350000000000000000e+02,8.800000000000000000e+01,3.030000000000000000e+02,3.330000000000000000e+02,2.060000000000000000e+02,7.199999999999999734e-01,5.951475600000000000e+09
2.270000000000000000e+02,2.100000000000000000e+02,5.620000000000000000e+02,3.170000000000000000e+02,8.500000000000000000e+01,2.510000000000000000e+02,2.870000000000000000e+02,3.130000000000000000e+02,7.199999999999999734e-01,5.970166000000000000e+09
2.860000000000000000e+02,2.290000000000000000e+02,5.840000000000000000e+02,2.770000000000000000e+02,7.200000000000000000e+01,2.010000000000000000e+02,2.160000000000000000e+02,3.530000000000000000e+02,7.199999999999999734e-01,5.988599200000000000e+09
2.890000000000000000e+02,2.460000000000000000e+02,6.060000000000000000e+02,2.970000000000000000e+02,6.900000000000000000e+01,1.860000000000000000e+02,1.900000000000000000e+02,4.100000000000000000e+02,7.099999999999999645e-01,6.011070800000000000e+09
2.740000000000000000e+02,2.400000000000000000e+02,5.640000000000000000e+02,2.930000000000000000e+02,6.600000000000000000e+01,1.900000000000000000e+02,1.780000000000000000e+02,4.350000000000000000e+02,6.999999999999999556e-01,6.033223500000000000e+09
2.720000000000000000e+02,2.290000000000000000e+02,4.120000000000000000e+02,3.020000000000000000e+02,6.300000000000000000e+01,1.720000000000000000e+02,1.660000000000000000e+02,4.290000000000000000e+02,6.999999999999999556e-01,6.050847000000000000e+09
2.450000000000000000e+02,2.000000000000000000e+02,3.420000000000000000e+02,3.210000000000000000e+02,6.300000000000000000e+01,1.780000000000000000e+02,1.500000000000000000e+02,5.220000000000000000e+02,6.899999999999999467e-01,6.068733300000000000e+09
2.070000000000000000e+02,1.870000000000000000e+02,3.020000000000000000e+02,3.320000000000000000e+02,6.700000000000000000e+01,1.840000000000000000e+02,1.390000000000000000e+02,4.930000000000000000e+02,6.800000000000000488e-01,6.088823700000000000e+09
1.970000000000000000e+02,1.640000000000000000e+02,2.660000000000000000e+02,3.020000000000000000e+02,7.100000000000000000e+01,2.290000000000000000e+02,1.540000000000000000e+02,4.620000000000000000e+02,6.700000000000000400e-01,6.110900800000000000e+09
1.860000000000000000e+02,1.690000000000000000e+02,2.760000000000000000e+02,3.050000000000000000e+02,7.000000000000000000e+01,2.350000000000000000e+02,1.580000000000000000e+02,4.480000000000000000e+02,6.600000000000000311e-01,6.133046300000000000e+09
1.890000000000000000e+02,1.950000000000000000e+02,2.970000000000000000e+02,2.970000000000000000e+02,6.100000000000000000e+01,2.310000000000000000e+02,1.510000000000000000e+02,4.390000000000000000e+02,6.500000000000000222e-01,6.151271200000000000e+09
1.980000000000000000e+02,2.590000000000000000e+02,4.060000000000000000e+02,2.880000000000000000e+02,6.100000000000000000e+01,2.270000000000000000e+02,1.540000000000000000e+02,3.900000000000000000e+02,6.400000000000000133e-01,6.170215600000000000e+09
2.220000000000000000e+02,2.830000000000000000e+02,4.170000000000000000e+02,2.840000000000000000e+02,6.200000000000000000e+01,1.960000000000000000e+02,1.370000000000000000e+02,4.330000000000000000e+02,6.300000000000000044e-01,6.188967900000000000e+09
2.340000000000000000e+02,2.930000000000000000e+02,4.350000000000000000e+02,2.750000000000000000e+02,6.400000000000000000e+01,1.860000000000000000e+02,1.620000000000000000e+02,5.020000000000000000e+02,6.199999999999999956e-01,6.211119800000000000e+09
3.060000000000000000e+02,2.930000000000000000e+02,4.240000000000000000e+02,2.730000000000000000e+02,6.300000000000000000e+01,1.860000000000000000e+02,1.570000000000000000e+02,5.280000000000000000e+02,6.099999999999999867e-01,6.228886400000000000e+09
3.360000000000000000e+02,3.450000000000000000e+02,4.340000000000000000e+02,2.250000000000000000e+02,6.400000000000000000e+01,1.920000000000000000e+02,1.750000000000000000e+02,5.910000000000000000e+02,5.999999999999999778e-01,6.247878500000000000e+09
3.340000000000000000e+02,3.430000000000000000e+02,3.730000000000000000e+02,2.040000000000000000e+02,6.200000000000000000e+01,1.930000000000000000e+02,1.770000000000000000e+02,5.800000000000000000e+02,5.899999999999999689e-01,6.267736100000000000e+09
3.030000000000000000e+02,3.300000000000000000e+02,3.610000000000000000e+02,1.700000000000000000e+02,5.600000000000000000e+01,1.890000000000000000e+02,1.750000000000000000e+02,5.590000000000000000e+02,5.799999999999999600e-01,6.289902800000000000e+09
2.930000000000000000e+02,3.390000000000000000e+02,3.370000000000000000e+02,1.730000000000000000e+02,5.000000000000000000e+01,1.300000000000000000e+02,1.220000000000000000e+02,4.980000000000000000e+02,5.699999999999999512e-01,6.312164900000000000e+09
2.390000000000000000e+02,3.750000000000000000e+02,3.290000000000000000e+02,1.590000000000000000e+02,5.200000000000000000e+01,1.120000000000000000e+02,1.160000000000000000e+02,5.220000000000000000e+02,5.600000000000000533e-01,6.332257000000000000e+09
2.090000000000000000e+02,3.230000000000000000e+02,3.370000000000000000e+02,1.700000000000000000e+02,5.900000000000000000e+01,1.390000000000000000e+02,1.180000000000000000e+02,4.990000000000000000e+02,5.500000000000000444e-01,6.351256500000000000e+09
2.270000000000000000e+02,3.270000000000000000e+02,3.260000000000000000e+02,1.790000000000000000e+02,6.000000000000000000e+01,1.760000000000000000e+02,1.490000000000000000e+02,4.310000000000000000e+02,5.400000000000000355e-01,6.370078100000000000e+09
2.240000000000000000e+02,3.260000000000000000e+02,3.770000000000000000e+02,1.750000000000000000e+02,6.500000000000000000e+01,1.830000000000000000e+02,1.570000000000000000e+02,4.600000000000000000e+02,5.300000000000000266e-01,6.387738500000000000e+09
2.340000000000000000e+02,4.000000000000000000e+02,5.060000000000000000e+02,3.830000000000000000e+02,9.300000000000000000e+01,1.970000000000000000e+02,1.640000000000000000e+02,5.300000000000000000e+02,5.200000000000000178e-01,6.409254100000000000e+09
2.940000000000000000e+02,3.940000000000000000e+02,5.230000000000000000e+02,3.860000000000000000e+02,9.300000000000000000e+01,2.190000000000000000e+02,1.760000000000000000e+02,5.030000000000000000e+02,5.100000000000000089e-01,6.431494600000000000e+09
3.230000000000000000e+02,4.570000000000000000e+02,5.230000000000000000e+02,3.880000000000000000e+02,9.400000000000000000e+01,2.000000000000000000e+02,1.790000000000000000e+02,5.350000000000000000e+02,5.000000000000000000e-01,6.450735700000000000e+09
3.780000000000000000e+02,4.560000000000000000e+02,5.290000000000000000e+02,4.090000000000000000e+02,9.400000000000000000e+01,1.920000000000000000e+02,1.600000000000000000e+02,6.720000000000000000e+02,4.899999999999999911e-01,6.468902300000000000e+09
4.290000000000000000e+02,4.720000000000000000e+02,5.070000000000000000e+02,4.180000000000000000e+02,1.000000000000000000e+02,1.940000000000000000e+02,1.660000000000000000e+02,7.190000000000000000e+02,4.799999999999999822e-01,6.487017700000000000e+09
4.580000000000000000e+02,4.150000000000000000e+02,3.870000000000000000e+02,2.490000000000000000e+02,7.600000000000000000e+01,1.890000000000000000e+02,1.690000000000000000e+02,7.010000000000000000e+02,4.799999999999999822e-01,6.509247600000000000e+09
4.210000000000000000e+02,4.140000000000000000e+02,3.610000000000000000e+02,2.440000000000000000e+02,7.600000000000000000e+01,1.710000000000000000e+02,1.740000000000000000e+02,7.010000000000000000e+02,4.699999999999999734e-01,6.531381700000000000e+09
5.090000000000000000e+02,4.470000000000000000e+02,4.120000000000000000e+02,2.380000000000000000e+02,7.200000000000000000e+01,1.730000000000000000e+02,1.590000000000000000e+02,7.890000000000000000e+02,4.699999999999999734e-01,6.549454500000000000e+09
4.940000000000000000e+02,4.670000000000000000e+02,5.040000000000000000e+02,2.420000000000000000e+02,8.300000000000000000e+01,1.610000000000000000e+02,1.590000000000000000e+02,7.620000000000000000e+02,4.699999999999999734e-01,6.568222200000000000e+09
5.010000000000000000e+02,5.290000000000000000e+02,5.640000000000000000e+02,2.560000000000000000e+02,8.900000000000000000e+01,1.610000000000000000e+02,1.570000000000000000e+02,8.120000000000000000e+02,4.600000000000000200e-01,6.586927900000000000e+09
4.990000000000000000e+02,5.320000000000000000e+02,5.620000000000000000e+02,2.380000000000000000e+02,9.000000000000000000e+01,1.540000000000000000e+02,1.550000000000000000e+02,8.550000000000000000e+02,4.600000000000000200e-01,6.609677900000000000e+09
4.950000000000000000e+02,5.200000000000000000e+02,5.720000000000000000e+02,2.380000000000000000e+02,8.800000000000000000e+01,1.410000000000000000e+02,1.360000000000000000e+02,8.480000000000000000e+02,4.600000000000000200e-01,6.631581600000000000e+09
3.720000000000000000e+02,4.360000000000000000e+02,5.460000000000000000e+02,3.020000000000000000e+02,9.600000000000000000e+01,1.320000000000000000e+02,1.280000000000000000e+02,7.260000000000000000e+02,4.600000000000000200e-01,6.651791300000000000e+09
3.260000000000000000e+02,3.860000000000000000e+02,4.350000000000000000e+02,2.770000000000000000e+02,8.800000000000000000e+01,1.180000000000000000e+02,1.350000000000000000e+02,6.240000000000000000e+02,4.600000000000000200e-01,6.671406200000000000e+09
2.530000000000000000e+02,3.080000000000000000e+02,3.790000000000000000e+02,2.900000000000000000e+02,1.060000000000000000e+02,1.390000000000000000e+02,1.430000000000000000e+02,4.840000000000000000e+02,4.600000000000000200e-01,6.689970100000000000e+09
2.190000000000000000e+02,3.380000000000000000e+02,4.450000000000000000e+02,3.050000000000000000e+02,1.160000000000000000e+02,1.380000000000000000e+02,1.400000000000000000e+02,3.510000000000000000e+02,4.600000000000000200e-01,6.708459500000000000e+09
2.960000000000000000e+02,4.520000000000000000e+02,5.370000000000000000e+02,3.540000000000000000e+02,1.240000000000000000e+02,1.380000000000000000e+02,1.450000000000000000e+02,4.830000000000000000e+02,4.500000000000000111e-01,6.730738600000000000e+09
3.190000000000000000e+02,4.700000000000000000e+02,5.420000000000000000e+02,3.090000000000000000e+02,1.190000000000000000e+02,1.480000000000000000e+02,1.600000000000000000e+02,4.920000000000000000e+02,4.400000000000000022e-01,6.752946100000000000e+09
3.350000000000000000e+02,4.930000000000000000e+02,5.590000000000000000e+02,3.220000000000000000e+02,1.250000000000000000e+02,1.450000000000000000e+02,1.560000000000000000e+02,4.910000000000000000e+02,4.299999999999999933e-01,6.771840100000000000e+09
3.240000000000000000e+02,4.900000000000000000e+02,5.460000000000000000e+02,3.130000000000000000e+02,1.100000000000000000e+02,1.130000000000000000e+02,1.520000000000000000e+02,4.510000000000000000e+02,4.299999999999999933e-01,6.790525000000000000e+09
3.170000000000000000e+02,4.660000000000000000e+02,4.980000000000000000e+02,3.620000000000000000e+02,1.120000000000000000e+02,1.330000000000000000e+02,1.760000000000000000e+02,5.720000000000000000e+02,4.299999999999999933e-01,6.808777000000000000e+09
2.470000000000000000e+02,3.610000000000000000e+02,4.100000000000000000e+02,3.300000000000000000e+02,1.170000000000000000e+02,1.620000000000000000e+02,2.120000000000000000e+02,4.610000000000000000e+02,4.199999999999999845e-01,6.830634900000000000e+09
2.240000000000000000e+02,3.690000000000000000e+02,4.010000000000000000e+02,3.730000000000000000e+02,1.230000000000000000e+02,1.680000000000000000e+02,2.050000000000000000e+02,4.310000000000000000e+02,4.199999999999999845e-01,6.853025900000000000e+09
1.960000000000000000e+02,3.520000000000000000e+02,3.780000000000000000e+02,3.680000000000000000e+02,1.380000000000000000e+02,1.720000000000000000e+02,2.000000000000000000e+02,4.270000000000000000e+02,4.099999999999999756e-01,6.871166200000000000e+09
2.180000000000000000e+02,3.950000000000000000e+02,4.470000000000000000e+02,3.640000000000000000e+02,1.360000000000000000e+02,1.680000000000000000e+02,1.880000000000000000e+02,4.300000000000000000e+02,4.000000000000000222e-01,6.890514700000000000e+09
1.990000000000000000e+02,4.020000000000000000e+02,4.660000000000000000e+02,3.210000000000000000e+02,1.380000000000000000e+02,1.500000000000000000e+02,1.860000000000000000e+02,2.170000000000000000e+02,3.900000000000000133e-01,6.908533700000000000e+09
2.170000000000000000e+02,3.850000000000000000e+02,4.520000000000000000e+02,3.200000000000000000e+02,1.340000000000000000e+02,2.440000000000000000e+02,2.310000000000000000e+02,2.760000000000000000e+02,3.900000000000000133e-01,6.930739900000000000e+09
2.270000000000000000e+02,3.380000000000000000e+02,4.160000000000000000e+02,3.150000000000000000e+02,1.330000000000000000e+02,2.640000000000000000e+02,2.480000000000000000e+02,2.730000000000000000e+02,3.900000000000000133e-01,6.952973700000000000e+09
2.270000000000000000e+02,3.170000000000000000e+02,4.130000000000000000e+02,4.360000000000000000e+02,1.230000000000000000e+02,2.730000000000000000e+02,2.510000000000000000e+02,2.710000000000000000e+02,3.900000000000000133e-01,6.971433400000000000e+09
2.290000000000000000e+02,2.210000000000000000e+02,3.210000000000000000e+02,4.470000000000000000e+02,1.260000000000000000e+02,3.110000000000000000e+02,2.630000000000000000e+02,2.850000000000000000e+02,4.000000000000000222e-01,6.991118100000000000e+09
2.360000000000000000e+02,2.740000000000000000e+02,3.790000000000000000e+02,4.970000000000000000e+02,1.310000000000000000e+02,3.190000000000000000e+02,2.580000000000000000e+02,2.780000000000000000e+02,4.099999999999999756e-01,7.009281000000000000e+09
2.150000000000000000e+02,2.960000000000000000e+02,3.840000000000000000e+02,5.130000000000000000e+02,1.450000000000000000e+02,2.420000000000000000e+02,1.820000000000000000e+02,1.890000000000000000e+02,4.199999999999999845e-01,7.031060300000000000e+09
1.920000000000000000e+02,3.030000000000000000e+02,4.150000000000000000e+02,5.070000000000000000e+02,1.780000000000000000e+02,2.190000000000000000e+02,1.630000000000000000e+02,1.760000000000000000e+02,4.199999999999999845e-01,7.049331700000000000e+09
1.930000000000000000e+02,3.150000000000000000e+02,5.330000000000000000e+02,4.030000000000000000e+02,1.850000000000000000e+02,2.030000000000000000e+02,1.530000000000000000e+02,1.620000000000000000e+02,4.199999999999999845e-01,7.071655400000000000e+09
1.620000000000000000e+02,3.190000000000000000e+02,5.760000000000000000e+02,4.060000000000000000e+02,1.840000000000000000e+02,1.470000000000000000e+02,1.380000000000000000e+02,1.130000000000000000e+02,4.199999999999999845e-01,7.090549900000000000e+09
1.320000000000000000e+02,2.380000000000000000e+02,5.560000000000000000e+02,3.380000000000000000e+02,1.780000000000000000e+02,1.490000000000000000e+02,1.140000000000000000e+02,9.800000000000000000e+01,4.199999999999999845e-01,7.109551900000000000e+09
1.220000000000000000e+02,2.100000000000000000e+02,5.470000000000000000e+02,3.110000000000000000e+02,1.680000000000000000e+02,1.580000000000000000e+02,1.300000000000000000e+02,1.200000000000000000e+02,4.299999999999999933e-01,7.131492300000000000e+09
1.260000000000000000e+02,2.360000000000000000e+02,5.230000000000000000e+02,2.620000000000000000e+02,1.340000000000000000e+02,1.480000000000000000e+02,1.500000000000000000e+02,2.030000000000000000e+02,4.299999999999999933e-01,7.150745800000000000e+09
1.200000000000000000e+02,2.560000000000000000e+02,3.960000000000000000e+02,2.780000000000000000e+02,1.130000000000000000e+02,2.310000000000000000e+02,1.720000000000000000e+02,3.780000000000000000e+02,4.299999999999999933e-01,7.169299100000000000e+09
1.740000000000000000e+02,2.500000000000000000e+02,3.320000000000000000e+02,2.570000000000000000e+02,1.030000000000000000e+02,2.480000000000000000e+02,1.740000000000000000e+02,4.830000000000000000e+02,4.400000000000000022e-01,7.188197800000000000e+09
2.530000000000000000e+02,2.470000000000000000e+02,2.530000000000000000e+02,2.510000000000000000e+02,9.900000000000000000e+01,3.250000000000000000e+02,2.470000000000000000e+02,5.230000000000000000e+02,4.400000000000000022e-01,7.209272900000000000e+09
2.530000000000000000e+02,2.490000000000000000e+02,2.930000000000000000e+02,2.670000000000000000e+02,8.800000000000000000e+01,3.560000000000000000e+02,2.570000000000000000e+02,5.320000000000000000e+02,4.400000000000000022e-01,7.231571800000000000e+09
2.560000000000000000e+02,2.380000000000000000e+02,3.160000000000000000e+02,2.820000000000000000e+02,8.000000000000000000e+01,3.700000000000000000e+02,2.530000000000000000e+02,5.670000000000000000e+02,4.299999999999999933e-01,7.250585700000000000e+09
3.040000000000000000e+02,2.260000000000000000e+02,3.100000000000000000e+02,2.530000000000000000e+02,8.300000000000000000e+01,3.830000000000000000e+02,2.800000000000000000e+02,6.240000000000000000e+02,4.299999999999999933e-01,7.268963800000000000e+09
3.080000000000000000e+02,2.300000000000000000e+02,2.900000000000000000e+02,2.330000000000000000e+02,1.180000000000000000e+02,5.320000000000000000e+02,4.010000000000000000e+02,6.010000000000000000e+02,4.299999999999999933e-01,7.287286900000000000e+09
2.870000000000000000e+02,2.450000000000000000e+02,2.880000000000000000e+02,2.470000000000000000e+02,1.250000000000000000e+02,5.490000000000000000e+02,4.090000000000000000e+02,6.480000000000000000e+02,4.299999999999999933e-01,7.309180700000000000e+09
3.100000000000000000e+02,2.660000000000000000e+02,2.270000000000000000e+02,2.400000000000000000e+02,1.250000000000000000e+02,5.530000000000000000e+02,4.050000000000000000e+02,7.470000000000000000e+02,4.299999999999999933e-01,7.331374900000000000e+09
3.780000000000000000e+02,2.750000000000000000e+02,1.870000000000000000e+02,2.350000000000000000e+02,1.270000000000000000e+02,5.550000000000000000e+02,4.210000000000000000e+02,7.280000000000000000e+02,4.400000000000000022e-01,7.349699200000000000e+09
3.540000000000000000e+02,2.860000000000000000e+02,1.970000000000000000e+02,2.410000000000000000e+02,1.380000000000000000e+02,5.660000000000000000e+02,4.380000000000000000e+02,6.490000000000000000e+02,4.400000000000000022e-01,7.368054900000000000e+09
3.550000000000000000e+02,2.910000000000000000e+02,2.350000000000000000e+02,2.440000000000000000e+02,1.130000000000000000e+02,4.390000000000000000e+02,3.520000000000000000e+02,7.230000000000000000e+02,4.400000000000000022e-01,7.387077000000000000e+09
3.400000000000000000e+02,3.370000000000000000e+02,2.840000000000000000e+02,2.180000000000000000e+02,1.040000000000000000e+02,4.370000000000000000e+02,4.330000000000000000e+02,6.720000000000000000e+02,4.400000000000000022e-01,7.409255300000000000e+09
3.610000000000000000e+02,4.180000000000000000e+02,4.390000000000000000e+02,1.850000000000000000e+02,1.050000000000000000e+02,4.170000000000000000e+02,4.480000000000000000e+02,5.800000000000000000e+02,4.400000000000000022e-01,7.433304900000000000e+09
4.130000000000000000e+02,4.260000000000000000e+02,4.390000000000000000e+02,1.660000000000000000e+02,1.160000000000000000e+02,5.580000000000000000e+02,5.000000000000000000e+02,6.380000000000000000e+02,4.400000000000000022e-01,7.454240000000000000e+09
4.180000000000000000e+02,4.280000000000000000e+02,4.410000000000000000e+02,1.540000000000000000e+02,1.120000000000000000e+02,5.960000000000000000e+02,5.610000000000000000e+02,7.130000000000000000e+02,4.299999999999999933e-01,7.471794900000000000e+09
4.420000000000000000e+02,4.390000000000000000e+02,4.350000000000000000e+02,1.340000000000000000e+02,1.190000000000000000e+02,6.540000000000000000e+02,5.940000000000000000e+02,7.390000000000000000e+02,4.299999999999999933e-01,7.496992600000000000e+09
4.530000000000000000e+02,4.570000000000000000e+02,4.410000000000000000e+02,1.400000000000000000e+02,1.280000000000000000e+02,6.600000000000000000e+02,5.750000000000000000e+02,8.030000000000000000e+02,4.299999999999999933e-01,7.514808800000000000e+09
4.480000000000000000e+02,4.690000000000000000e+02,4.200000000000000000e+02,1.660000000000000000e+02,1.370000000000000000e+02,6.690000000000000000e+02,5.990000000000000000e+02,9.450000000000000000e+02,4.299999999999999933e-01,7.533035600000000000e+09
3.870000000000000000e+02,5.330000000000000000e+02,5.420000000000000000e+02,1.700000000000000000e+02,1.320000000000000000e+02,5.630000000000000000e+02,5.570000000000000000e+02,9.230000000000000000e+02,4.299999999999999933e-01,7.551518800000000000e+09
4.720000000000000000e+02,5.900000000000000000e+02,5.480000000000000000e+02,1.840000000000000000e+02,1.290000000000000000e+02,5.230000000000000000e+02,4.870000000000000000e+02,9.070000000000000000e+02,4.400000000000000022e-01,7.569862500000000000e+09
4.890000000000000000e+02,6.610000000000000000e+02,5.600000000000000000e+02,2.060000000000000000e+02,1.350000000000000000e+02,5.500000000000000000e+02,5.870000000000000000e+02,8.900000000000000000e+02,4.299999999999999933e-01,7.587926100000000000e+09
5.220000000000000000e+02,7.010000000000000000e+02,5.350000000000000000e+02,2.010000000000000000e+02,1.320000000000000000e+02,5.200000000000000000e+02,5.680000000000000000e+02,8.890000000000000000e+02,4.400000000000000022e-01,7.607974500000000000e+09
5.380000000000000000e+02,7.840000000000000000e+02,4.730000000000000000e+02,1.780000000000000000e+02,1.220000000000000000e+02,5.030000000000000000e+02,5.360000000000000000e+02,7.880000000000000000e+02,4.500000000000000111e-01,7.630415100000000000e+09
5.220000000000000000e+02,7.660000000000000000e+02,3.350000000000000000e+02,1.670000000000000000e+02,1.150000000000000000e+02,5.480000000000000000e+02,5.440000000000000000e+02,7.760000000000000000e+02,4.600000000000000200e-01,7.652440300000000000e+09
4.610000000000000000e+02,7.350000000000000000e+02,3.300000000000000000e+02,1.490000000000000000e+02,1.140000000000000000e+02,5.540000000000000000e+02,5.890000000000000000e+02,7.170000000000000000e+02,4.699999999999999734e-01,7.670262400000000000e+09
4.010000000000000000e+02,6.780000000000000000e+02,4.490000000000000000e+02,1.770000000000000000e+02,1.190000000000000000e+02,4.470000000000000000e+02,4.750000000000000000e+02,6.080000000000000000e+02,4.799999999999999822e-01,7.688693100000000000e+09
3.710000000000000000e+02,6.110000000000000000e+02,4.530000000000000000e+02,1.770000000000000000e+02,1.170000000000000000e+02,4.340000000000000000e+02,4.320000000000000000e+02,6.380000000000000000e+02,4.799999999999999822e-01,7.707947300000000000e+09
3.280000000000000000e+02,4.390000000000000000e+02,5.850000000000000000e+02,2.030000000000000000e+02,1.390000000000000000e+02,5.780000000000000000e+02,5.230000000000000000e+02,5.860000000000000000e+02,4.799999999999999822e-01,7.730092200000000000e+09
2.980000000000000000e+02,4.170000000000000000e+02,6.000000000000000000e+02,2.030000000000000000e+02,1.420000000000000000e+02,5.560000000000000000e+02,5.440000000000000000e+02,5.880000000000000000e+02,4.699999999999999734e-01,7.752339700000000000e+09
2.870000000000000000e+02,4.700000000000000000e+02,5.910000000000000000e+02,2.160000000000000000e+02,1.680000000000000000e+02,5.170000000000000000e+02,4.860000000000000000e+02,5.750000000000000000e+02,4.699999999999999734e-01,7.770871400000000000e+09
3.080000000000000000e+02,4.580000000000000000e+02,5.120000000000000000e+02,1.870000000000000000e+02,1.590000000000000000e+02,5.270000000000000000e+02,4.840000000000000000e+02,6.170000000000000000e+02,4.600000000000000200e-01,7.789967600000000000e+09
2.760000000000000000e+02,4.570000000000000000e+02,5.220000000000000000e+02,1.910000000000000000e+02,1.590000000000000000e+02,5.500000000000000000e+02,5.060000000000000000e+02,5.590000000000000000e+02,4.600000000000000200e-01,7.808239200000000000e+09
2.690000000000000000e+02,4.460000000000000000e+02,3.340000000000000000e+02,1.700000000000000000e+02,1.500000000000000000e+02,4.230000000000000000e+02,4.360000000000000000e+02,5.570000000000000000e+02,4.500000000000000111e-01,7.830147700000000000e+09
2.780000000000000000e+02,4.190000000000000000e+02,2.890000000000000000e+02,1.690000000000000000e+02,1.480000000000000000e+02,3.980000000000000000e+02,3.800000000000000000e+02,5.380000000000000000e+02,4.500000000000000111e-01,7.852278500000000000e+09
2.410000000000000000e+02,3.240000000000000000e+02,3.140000000000000000e+02,1.620000000000000000e+02,1.230000000000000000e+02,3.870000000000000000e+02,3.690000000000000000e+02,5.490000000000000000e+02,4.400000000000000022e-01,7.871156200000000000e+09
2.190000000000000000e+02,3.480000000000000000e+02,3.280000000000000000e+02,1.540000000000000000e+02,1.240000000000000000e+02,3.860000000000000000e+02,3.200000000000000000e+02,5.710000000000000000e+02,4.199999999999999845e-01,7.889576300000000000e+09
2.020000000000000000e+02,4.060000000000000000e+02,3.400000000000000000e+02,1.950000000000000000e+02,1.900000000000000000e+02,3.400000000000000000e+02,2.860000000000000000e+02,5.550000000000000000e+02,4.000000000000000222e-01,7.908792400000000000e+09
1.880000000000000000e+02,4.130000000000000000e+02,3.320000000000000000e+02,2.110000000000000000e+02,2.010000000000000000e+02,2.910000000000000000e+02,2.550000000000000000e+02,5.180000000000000000e+02,3.800000000000000044e-01,7.930179700000000000e+09
1.730000000000000000e+02,4.170000000000000000e+02,4.020000000000000000e+02,2.450000000000000000e+02,2.110000000000000000e+02,2.550000000000000000e+02,2.540000000000000000e+02,5.000000000000000000e+02,3.599999999999999867e-01,7.952327300000000000e+09
1.820000000000000000e+02,4.330000000000000000e+02,4.200000000000000000e+02,2.680000000000000000e+02,2.290000000000000000e+02,2.280000000000000000e+02,2.360000000000000000e+02,4.690000000000000000e+02,3.499999999999999778e-01,7.970629400000000000e+09
1.670000000000000000e+02,4.690000000000000000e+02,4.140000000000000000e+02,2.970000000000000000e+02,2.430000000000000000e+02,1.690000000000000000e+02,2.390000000000000000e+02,3.510000000000000000e+02,3.400000000000000244e-01,7.989897800000000000e+09
1.610000000000000000e+02,4.400000000000000000e+02,6.040000000000000000e+02,3.100000000000000000e+02,1.970000000000000000e+02,9.400000000000000000e+01,2.050000000000000000e+02,2.290000000000000000e+02,3.300000000000000155e-01,8.008652500000000000e+09
1.680000000000000000e+02,4.390000000000000000e+02,6.760000000000000000e+02,3.120000000000000000e+02,1.800000000000000000e+02,8.400000000000000000e+01,1.580000000000000000e+02,3.020000000000000000e+02,3.200000000000000067e-01,8.031075300000000000e+09
1.960000000000000000e+02,4.320000000000000000e+02,6.510000000000000000e+02,2.940000000000000000e+02,1.710000000000000000e+02,1.190000000000000000e+02,1.730000000000000000e+02,4.360000000000000000e+02,3.099999999999999978e-01,8.049255700000000000e+09
2.550000000000000000e+02,4.510000000000000000e+02,6.370000000000000000e+02,2.690000000000000000e+02,1.590000000000000000e+02,2.810000000000000000e+02,2.270000000000000000e+02,4.730000000000000000e+02,2.899999999999999800e-01,8.067756800000000000e+09
3.220000000000000000e+02,3.980000000000000000e+02,6.170000000000000000e+02,2.300000000000000000e+02,1.390000000000000000e+02,3.820000000000000000e+02,3.760000000000000000e+02,5.280000000000000000e+02,2.800000000000000266e-01,8.088491800000000000e+09
3.270000000000000000e+02,3.630000000000000000e+02,4.060000000000000000e+02,1.630000000000000000e+02,1.320000000000000000e+02,4.670000000000000000e+02,4.190000000000000000e+02,5.640000000000000000e+02,2.800000000000000266e-01,8.110752100000000000e+09
3.560000000000000000e+02,3.490000000000000000e+02,3.210000000000000000e+02,1.610000000000000000e+02,1.300000000000000000e+02,4.890000000000000000e+02,4.390000000000000000e+02,6.070000000000000000e+02,2.700000000000000178e-01,8.132877500000000000e+09
3.650000000000000000e+02,3.890000000000000000e+02,4.100000000000000000e+02,1.980000000000000000e+02,1.300000000000000000e+02,5.730000000000000000e+02,4.480000000000000000e+02,5.530000000000000000e+02,2.800000000000000266e-01,8.150853700000000000e+09
3.360000000000000000e+02,3.760000000000000000e+02,4.760000000000000000e+02,3.400000000000000000e+02,1.050000000000000000e+02,5.320000000000000000e+02,4.310000000000000000e+02,5.250000000000000000e+02,2.800000000000000266e-01,8.168799000000000000e+09
2.730000000000000000e+02,3.740000000000000000e+02,5.970000000000000000e+02,4.650000000000000000e+02,1.070000000000000000e+02,4.730000000000000000e+02,3.090000000000000000e+02,4.770000000000000000e+02,2.899999999999999800e-01,8.188506500000000000e+09
2.690000000000000000e+02,3.740000000000000000e+02,6.040000000000000000e+02,5.440000000000000000e+02,1.280000000000000000e+02,4.280000000000000000e+02,2.620000000000000000e+02,4.280000000000000000e+02,3.099999999999999978e-01,8.210684100000000000e+09
2.240000000000000000e+02,3.900000000000000000e+02,6.260000000000000000e+02,5.980000000000000000e+02,1.430000000000000000e+02,5.330000000000000000e+02,3.110000000000000000e+02,2.860000000000000000e+02,3.300000000000000155e-01,8.233061400000000000e+09
2.260000000000000000e+02,3.990000000000000000e+02,5.900000000000000000e+02,5.980000000000000000e+02,1.520000000000000000e+02,4.870000000000000000e+02,3.370000000000000000e+02,2.790000000000000000e+02,3.499999999999999778e-01,8.250979800000000000e+09
2.430000000000000000e+02,3.680000000000000000e+02,5.470000000000000000e+02,5.400000000000000000e+02,1.500000000000000000e+02,4.900000000000000000e+02,3.860000000000000000e+02,2.760000000000000000e+02,3.699999999999999956e-01,8.269429600000000000e+09
3.890000000000000000e+02,3.810000000000000000e+02,4.370000000000000000e+02,4.410000000000000000e+02,1.390000000000000000e+02,4.940000000000000000e+02,3.950000000000000000e+02,2.920000000000000000e+02,3.900000000000000133e-01,8.288556600000000000e+09
4.710000000000000000e+02,4.630000000000000000e+02,4.670000000000000000e+02,3.570000000000000000e+02,1.290000000000000000e+02,4.690000000000000000e+02,4.080000000000000000e+02,3.800000000000000000e+02,4.000000000000000222e-01,8.311048500000000000e+09
5.730000000000000000e+02,4.890000000000000000e+02,4.140000000000000000e+02,2.390000000000000000e+02,1.150000000000000000e+02,3.410000000000000000e+02,3.940000000000000000e+02,4.560000000000000000e+02,4.099999999999999756e-01,8.333010700000000000e+09
6.510000000000000000e+02,4.880000000000000000e+02,3.670000000000000000e+02,2.000000000000000000e+02,8.900000000000000000e+01,2.840000000000000000e+02,3.630000000000000000e+02,5.630000000000000000e+02,4.099999999999999756e-01,8.351766300000000000e+09
7.170000000000000000e+02,5.210000000000000000e+02,3.580000000000000000e+02,1.920000000000000000e+02,1.030000000000000000e+02,2.800000000000000000e+02,3.450000000000000000e+02,6.450000000000000000e+02,4.099999999999999756e-01,8.370255200000000000e+09
8.260000000000000000e+02,5.720000000000000000e+02,4.100000000000000000e+02,2.130000000000000000e+02,1.050000000000000000e+02,2.700000000000000000e+02,3.880000000000000000e+02,7.090000000000000000e+02,4.199999999999999845e-01,8.388925300000000000e+09
8.550000000000000000e+02,5.120000000000000000e+02,3.680000000000000000e+02,2.250000000000000000e+02,1.060000000000000000e+02,3.190000000000000000e+02,4.950000000000000000e+02,7.810000000000000000e+02,4.199999999999999845e-01,8.410954900000000000e+09
8.680000000000000000e+02,5.020000000000000000e+02,3.620000000000000000e+02,2.170000000000000000e+02,1.070000000000000000e+02,3.620000000000000000e+02,5.250000000000000000e+02,7.870000000000000000e+02,4.199999999999999845e-01,8.433297500000000000e+09
8.390000000000000000e+02,4.880000000000000000e+02,3.800000000000000000e+02,2.350000000000000000e+02,1.130000000000000000e+02,3.710000000000000000e+02,5.210000000000000000e+02,7.080000000000000000e+02,4.199999999999999845e-01,8.451577700000000000e+09
8.330000000000000000e+02,5.360000000000000000e+02,3.700000000000000000e+02,2.190000000000000000e+02,1.090000000000000000e+02,3.560000000000000000e+02,5.070000000000000000e+02,6.620000000000000000e+02,4.099999999999999756e-01,8.470978800000000000e+09
6.890000000000000000e+02,4.950000000000000000e+02,4.000000000000000000e+02,1.920000000000000000e+02,1.100000000000000000e+02,3.570000000000000000e+02,5.260000000000000000e+02,6.670000000000000000e+02,4.000000000000000222e-01,8.489617000000000000e+09
6.230000000000000000e+02,5.100000000000000000e+02,4.510000000000000000e+02,1.550000000000000000e+02,1.040000000000000000e+02,3.720000000000000000e+02,4.950000000000000000e+02,6.500000000000000000e+02,4.000000000000000222e-01,8.510893700000000000e+09
6.900000000000000000e+02,5.410000000000000000e+02,5.390000000000000000e+02,1.930000000000000000e+02,1.100000000000000000e+02,3.300000000000000000e+02,4.800000000000000000e+02,7.320000000000000000e+02,3.900000000000000133e-01,8.530994500000000000e+09
7.450000000000000000e+02,5.990000000000000000e+02,5.650000000000000000e+02,1.790000000000000000e+02,1.080000000000000000e+02,3.040000000000000000e+02,5.520000000000000000e+02,7.810000000000000000e+02,3.900000000000000133e-01,8.550459100000000000e+09
7.230000000000000000e+02,6.000000000000000000e+02,6.460000000000000000e+02,1.940000000000000000e+02,1.000000000000000000e+02,2.920000000000000000e+02,5.610000000000000000e+02,8.180000000000000000e+02,3.900000000000000133e-01,8.570681500000000000e+09
7.700000000000000000e+02,6.220000000000000000e+02,6.010000000000000000e+02,2.100000000000000000e+02,1.040000000000000000e+02,2.960000000000000000e+02,5.250000000000000000e+02,8.080000000000000000e+02,3.900000000000000133e-01,8.589193900000000000e+09
9.390000000000000000e+02,6.300000000000000000e+02,6.000000000000000000e+02,2.080000000000000000e+02,1.040000000000000000e+02,2.820000000000000000e+02,4.890000000000000000e+02,7.470000000000000000e+02,3.900000000000000133e-01,8.609303100000000000e+09
9.010000000000000000e+02,6.410000000000000000e+02,5.310000000000000000e+02,1.730000000000000000e+02,9.700000000000000000e+01,2.790000000000000000e+02,4.760000000000000000e+02,7.700000000000000000e+02,3.900000000000000133e-01,8.631190800000000000e+09
8.990000000000000000e+02,6.070000000000000000e+02,5.540000000000000000e+02,1.730000000000000000e+02,9.800000000000000000e+01,2.730000000000000000e+02,3.850000000000000000e+02,7.760000000000000000e+02,3.900000000000000133e-01,8.649375200000000000e+09
9.280000000000000000e+02,5.700000000000000000e+02,5.200000000000000000e+02,1.870000000000000000e+02,1.020000000000000000e+02,2.720000000000000000e+02,3.510000000000000000e+02,7.150000000000000000e+02,3.900000000000000133e-01,8.668100100000000000e+09
8.980000000000000000e+02,5.200000000000000000e+02,5.140000000000000000e+02,1.580000000000000000e+02,9.000000000000000000e+01,2.520000000000000000e+02,3.130000000000000000e+02,7.380000000000000000e+02,3.900000000000000133e-01,8.687824400000000000e+09
7.630000000000000000e+02,5.170000000000000000e+02,5.040000000000000000e+02,1.470000000000000000e+02,8.100000000000000000e+01,1.630000000000000000e+02,2.710000000000000000e+02,7.320000000000000000e+02,3.900000000000000133e-01,8.708845300000000000e+09
6.670000000000000000e+02,4.650000000000000000e+02,5.230000000000000000e+02,1.580000000000000000e+02,8.500000000000000000e+01,1.100000000000000000e+02,2.110000000000000000e+02,6.080000000000000000e+02,3.900000000000000133e-01,8.731196600000000000e+09
5.650000000000000000e+02,4.170000000000000000e+02,4.800000000000000000e+02,1.540000000000000000e+02,1.000000000000000000e+02,1.110000000000000000e+02,2.140000000000000000e+02,6.030000000000000000e+02,3.900000000000000133e-01,8.753344900000000000e+09
5.090000000000000000e+02,3.860000000000000000e+02,4.250000000000000000e+02,1.160000000000000000e+02,9.600000000000000000e+01,1.030000000000000000e+02,2.210000000000000000e+02,6.000000000000000000e+02,3.900000000000000133e-01,8.772353900000000000e+09
4.490000000000000000e+02,3.670000000000000000e+02,4.880000000000000000e+02,1.520000000000000000e+02,1.030000000000000000e+02,1.040000000000000000e+02,2.230000000000000000e+02,4.950000000000000000e+02,4.000000000000000222e-01,8.790862700000000000e+09
4.000000000000000000e+02,3.200000000000000000e+02,4.550000000000000000e+02,2.200000000000000000e+02,1.080000000000000000e+02,8.900000000000000000e+01,1.670000000000000000e+02,4.590000000000000000e+02,4.000000000000000222e-01,8.810026200000000000e+09
4.260000000000000000e+02,2.960000000000000000e+02,4.870000000000000000e+02,2.750000000000000000e+02,1.280000000000000000e+02,8.300000000000000000e+01,1.480000000000000000e+02,3.970000000000000000e+02,4.000000000000000222e-01,8.830973800000000000e+09
5.120000000000000000e+02,3.240000000000000000e+02,5.000000000000000000e+02,2.700000000000000000e+02,1.150000000000000000e+02,7.800000000000000000e+01,1.590000000000000000e+02,2.520000000000000000e+02,4.099999999999999756e-01,8.853401500000000000e+09
4.860000000000000000e+02,3.680000000000000000e+02,4.860000000000000000e+02,2.720000000000000000e+02,1.170000000000000000e+02,8.700000000000000000e+01,1.600000000000000000e+02,2.570000000000000000e+02,4.099999999999999756e-01,8.871827700000000000e+09
4.870000000000000000e+02,4.000000000000000000e+02,4.610000000000000000e+02,3.450000000000000000e+02,1.410000000000000000e+02,8.900000000000000000e+01,1.600000000000000000e+02,2.330000000000000000e+02,4.199999999999999845e-01,8.890971000000000000e+09
4.440000000000000000e+02,4.430000000000000000e+02,5.060000000000000000e+02,3.630000000000000000e+02,1.840000000000000000e+02,1.070000000000000000e+02,1.910000000000000000e+02,2.510000000000000000e+02,4.099999999999999756e-01,8.918747600000000000e+09
4.150000000000000000e+02,4.600000000000000000e+02,4.770000000000000000e+02,3.330000000000000000e+02,1.810000000000000000e+02,1.150000000000000000e+02,2.110000000000000000e+02,3.220000000000000000e+02,4.099999999999999756e-01,8.937145500000000000e+09
3.460000000000000000e+02,5.160000000000000000e+02,4.730000000000000000e+02,3.390000000000000000e+02,1.820000000000000000e+02,1.110000000000000000e+02,1.950000000000000000e+02,3.670000000000000000e+02,4.000000000000000222e-01,8.955687600000000000e+09
4.010000000000000000e+02,5.610000000000000000e+02,5.130000000000000000e+02,3.610000000000000000e+02,1.900000000000000000e+02,1.180000000000000000e+02,1.950000000000000000e+02,3.950000000000000000e+02,3.900000000000000133e-01,8.974425600000000000e+09
7.380000000000000000e+02,7.090000000000000000e+02,4.720000000000000000e+02,2.790000000000000000e+02,1.760000000000000000e+02,1.320000000000000000e+02,2.180000000000000000e+02,3.980000000000000000e+02,3.800000000000000044e-01,8.993088900000000000e+09
8.890000000000000000e+02,7.010000000000000000e+02,4.360000000000000000e+02,2.420000000000000000e+02,1.290000000000000000e+02,1.170000000000000000e+02,2.080000000000000000e+02,4.120000000000000000e+02,3.800000000000000044e-01,9.011515300000000000e+09
1.047000000000000000e+03,7.550000000000000000e+02,4.180000000000000000e+02,2.550000000000000000e+02,1.310000000000000000e+02,1.160000000000000000e+02,1.850000000000000000e+02,3.680000000000000000e+02,3.699999999999999956e-01,9.029673900000000000e+09
1.086000000000000000e+03,7.820000000000000000e+02,4.060000000000000000e+02,2.960000000000000000e+02,1.470000000000000000e+02,1.230000000000000000e+02,1.840000000000000000e+02,4.170000000000000000e+02,3.499999999999999778e-01,9.051829800000000000e+09
1.083000000000000000e+03,7.650000000000000000e+02,3.550000000000000000e+02,2.890000000000000000e+02,1.390000000000000000e+02,1.080000000000000000e+02,1.650000000000000000e+02,3.840000000000000000e+02,3.400000000000000244e-01,9.070357700000000000e+09
8.930000000000000000e+02,6.420000000000000000e+02,3.540000000000000000e+02,2.900000000000000000e+02,1.350000000000000000e+02,9.200000000000000000e+01,1.300000000000000000e+02,5.490000000000000000e+02,3.300000000000000155e-01,9.088270500000000000e+09
7.620000000000000000e+02,6.790000000000000000e+02,3.820000000000000000e+02,2.650000000000000000e+02,1.360000000000000000e+02,9.600000000000000000e+01,1.010000000000000000e+02,5.330000000000000000e+02,3.200000000000000067e-01,9.107341000000000000e+09
5.410000000000000000e+02,6.110000000000000000e+02,4.550000000000000000e+02,3.270000000000000000e+02,1.380000000000000000e+02,8.400000000000000000e+01,1.050000000000000000e+02,5.330000000000000000e+02,3.200000000000000067e-01,9.129623000000000000e+09
4.300000000000000000e+02,5.260000000000000000e+02,4.630000000000000000e+02,2.990000000000000000e+02,1.300000000000000000e+02,7.100000000000000000e+01,9.400000000000000000e+01,4.460000000000000000e+02,3.200000000000000067e-01,9.151749200000000000e+09
4.490000000000000000e+02,4.880000000000000000e+02,4.750000000000000000e+02,2.980000000000000000e+02,1.290000000000000000e+02,6.900000000000000000e+01,9.300000000000000000e+01,4.820000000000000000e+02,3.200000000000000067e-01,9.169975500000000000e+09
5.040000000000000000e+02,4.900000000000000000e+02,4.930000000000000000e+02,3.220000000000000000e+02,1.280000000000000000e+02,6.900000000000000000e+01,1.140000000000000000e+02,3.250000000000000000e+02,3.200000000000000067e-01,9.189434500000000000e+09
4.710000000000000000e+02,4.410000000000000000e+02,4.800000000000000000e+02,3.240000000000000000e+02,1.250000000000000000e+02,6.500000000000000000e+01,1.170000000000000000e+02,3.170000000000000000e+02,3.300000000000000155e-01,9.207597400000000000e+09
4.430000000000000000e+02,4.660000000000000000e+02,4.760000000000000000e+02,2.760000000000000000e+02,1.080000000000000000e+02,7.700000000000000000e+01,1.180000000000000000e+02,3.080000000000000000e+02,3.300000000000000155e-01,9.229731300000000000e+09
4.330000000000000000e+02,4.610000000000000000e+02,4.800000000000000000e+02,3.080000000000000000e+02,1.740000000000000000e+02,9.000000000000000000e+01,1.180000000000000000e+02,3.140000000000000000e+02,3.300000000000000155e-01,9.251669600000000000e+09
3.480000000000000000e+02,5.010000000000000000e+02,5.090000000000000000e+02,3.170000000000000000e+02,1.850000000000000000e+02,9.400000000000000000e+01,1.190000000000000000e+02,2.390000000000000000e+02,3.300000000000000155e-01,9.269455200000000000e+09
2.540000000000000000e+02,4.930000000000000000e+02,5.150000000000000000e+02,3.520000000000000000e+02,1.910000000000000000e+02,8.900000000000000000e+01,8.400000000000000000e+01,1.590000000000000000e+02,3.200000000000000067e-01,9.287820100000000000e+09
2.390000000000000000e+02,5.000000000000000000e+02,4.900000000000000000e+02,3.500000000000000000e+02,1.910000000000000000e+02,9.200000000000000000e+01,8.100000000000000000e+01,2.410000000000000000e+02,3.200000000000000067e-01,9.307505500000000000e+09
2.410000000000000000e+02,5.080000000000000000e+02,4.390000000000000000e+02,3.260000000000000000e+02,1.900000000000000000e+02,8.900000000000000000e+01,7.600000000000000000e+01,2.430000000000000000e+02,3.200000000000000067e-01,9.329453400000000000e+09
2.360000000000000000e+02,5.250000000000000000e+02,4.120000000000000000e+02,3.180000000000000000e+02,1.240000000000000000e+02,7.600000000000000000e+01,6.700000000000000000e+01,2.570000000000000000e+02,3.200000000000000067e-01,9.351688800000000000e+09
1.960000000000000000e+02,4.530000000000000000e+02,3.750000000000000000e+02,3.310000000000000000e+02,1.010000000000000000e+02,7.000000000000000000e+01,6.500000000000000000e+01,3.020000000000000000e+02,3.300000000000000155e-01,9.369097000000000000e+09
1.690000000000000000e+02,4.560000000000000000e+02,3.930000000000000000e+02,3.020000000000000000e+02,9.300000000000000000e+01,6.700000000000000000e+01,6.200000000000000000e+01,3.180000000000000000e+02,3.400000000000000244e-01,9.387562200000000000e+09
1.660000000000000000e+02,4.340000000000000000e+02,4.200000000000000000e+02,3.230000000000000000e+02,1.020000000000000000e+02,7.200000000000000000e+01,6.200000000000000000e+01,2.570000000000000000e+02,3.400000000000000244e-01,9.408370100000000000e+09
1.520000000000000000e+02,3.950000000000000000e+02,4.250000000000000000e+02,3.290000000000000000e+02,1.040000000000000000e+02,7.000000000000000000e+01,6.000000000000000000e+01,2.500000000000000000e+02,3.499999999999999778e-01,9.431053500000000000e+09
1.440000000000000000e+02,3.860000000000000000e+02,4.840000000000000000e+02,3.120000000000000000e+02,1.240000000000000000e+02,9.400000000000000000e+01,8.000000000000000000e+01,2.280000000000000000e+02,3.499999999999999778e-01,9.450830300000000000e+09
1.590000000000000000e+02,3.860000000000000000e+02,4.800000000000000000e+02,2.850000000000000000e+02,1.280000000000000000e+02,9.900000000000000000e+01,8.300000000000000000e+01,1.610000000000000000e+02,3.499999999999999778e-01,9.469446800000000000e+09
1.630000000000000000e+02,3.920000000000000000e+02,4.500000000000000000e+02,2.850000000000000000e+02,1.220000000000000000e+02,1.010000000000000000e+02,8.500000000000000000e+01,1.110000000000000000e+02,3.499999999999999778e-01,9.487478800000000000e+09
1.560000000000000000e+02,3.850000000000000000e+02,4.510000000000000000e+02,2.840000000000000000e+02,1.180000000000000000e+02,9.900000000000000000e+01,8.600000000000000000e+01,2.550000000000000000e+02,3.599999999999999867e-01,9.509240100000000000e+09
2.010000000000000000e+02,4.490000000000000000e+02,4.610000000000000000e+02,2.900000000000000000e+02,1.050000000000000000e+02,9.900000000000000000e+01,9.500000000000000000e+01,2.770000000000000000e+02,3.800000000000000044e-01,9.531547200000000000e+09
1.840000000000000000e+02,4.250000000000000000e+02,4.470000000000000000e+02,2.850000000000000000e+02,7.600000000000000000e+01,7.500000000000000000e+01,9.100000000000000000e+01,3.420000000000000000e+02,3.900000000000000133e-01,9.551078400000000000e+09
2.010000000000000000e+02,4.490000000000000000e+02,4.340000000000000000e+02,3.030000000000000000e+02,7.000000000000000000e+01,6.900000000000000000e+01,9.400000000000000000e+01,3.760000000000000000e+02,4.000000000000000222e-01,9.569044500000000000e+09
1.990000000000000000e+02,4.690000000000000000e+02,4.430000000000000000e+02,3.000000000000000000e+02,7.900000000000000000e+01,7.100000000000000000e+01,9.600000000000000000e+01,3.800000000000000000e+02,4.099999999999999756e-01,9.587595500000000000e+09
2.240000000000000000e+02,5.430000000000000000e+02,4.910000000000000000e+02,2.910000000000000000e+02,9.400000000000000000e+01,9.000000000000000000e+01,1.020000000000000000e+02,3.210000000000000000e+02,4.099999999999999756e-01,9.609234000000000000e+09
1.940000000000000000e+02,5.320000000000000000e+02,4.770000000000000000e+02,2.700000000000000000e+02,9.300000000000000000e+01,8.900000000000000000e+01,1.010000000000000000e+02,4.090000000000000000e+02,4.099999999999999756e-01,9.632573300000000000e+09
2.020000000000000000e+02,5.770000000000000000e+02,4.300000000000000000e+02,2.590000000000000000e+02,9.500000000000000000e+01,8.900000000000000000e+01,1.020000000000000000e+02,4.390000000000000000e+02,4.199999999999999845e-01,9.652490900000000000e+09
1.710000000000000000e+02,5.630000000000000000e+02,4.520000000000000000e+02,2.660000000000000000e+02,1.000000000000000000e+02,8.900000000000000000e+01,9.500000000000000000e+01,4.210000000000000000e+02,4.199999999999999845e-01,9.671076500000000000e+09
1.640000000000000000e+02,5.190000000000000000e+02,4.200000000000000000e+02,2.410000000000000000e+02,9.900000000000000000e+01,8.600000000000000000e+01,9.300000000000000000e+01,4.280000000000000000e+02,4.199999999999999845e-01,9.689667000000000000e+09
1.380000000000000000e+02,4.620000000000000000e+02,3.760000000000000000e+02,2.590000000000000000e+02,9.800000000000000000e+01,6.600000000000000000e+01,7.900000000000000000e+01,4.150000000000000000e+02,4.299999999999999933e-01,9.707836800000000000e+09
1.330000000000000000e+02,3.970000000000000000e+02,3.520000000000000000e+02,2.960000000000000000e+02,1.010000000000000000e+02,6.300000000000000000e+01,6.900000000000000000e+01,3.040000000000000000e+02,4.299999999999999933e-01,9.726713700000000000e+09
1.220000000000000000e+02,3.500000000000000000e+02,3.720000000000000000e+02,3.140000000000000000e+02,1.030000000000000000e+02,6.600000000000000000e+01,5.300000000000000000e+01,1.660000000000000000e+02,4.400000000000000022e-01,9.751539000000000000e+09
1.670000000000000000e+02,4.440000000000000000e+02,3.520000000000000000e+02,2.780000000000000000e+02,1.090000000000000000e+02,8.900000000000000000e+01,8.600000000000000000e+01,3.100000000000000000e+02,4.400000000000000022e-01,9.771129500000000000e+09
1.740000000000000000e+02,4.470000000000000000e+02,3.660000000000000000e+02,3.000000000000000000e+02,1.080000000000000000e+02,8.900000000000000000e+01,8.600000000000000000e+01,3.090000000000000000e+02,4.400000000000000022e-01,9.789790900000000000e+09
1.850000000000000000e+02,4.220000000000000000e+02,3.650000000000000000e+02,3.140000000000000000e+02,9.800000000000000000e+01,8.500000000000000000e+01,8.700000000000000000e+01,3.180000000000000000e+02,4.400000000000000022e-01,9.808405200000000000e+09
2.070000000000000000e+02,4.710000000000000000e+02,4.130000000000000000e+02,2.930000000000000000e+02,1.120000000000000000e+02,9.700000000000000000e+01,9.500000000000000000e+01,3.220000000000000000e+02,4.400000000000000022e-01,9.829296800000000000e+09
2.110000000000000000e+02,4.610000000000000000e+02,3.960000000000000000e+02,3.030000000000000000e+02,1.150000000000000000e+02,9.800000000000000000e+01,9.800000000000000000e+01,3.240000000000000000e+02,4.400000000000000022e-01,9.851443700000000000e+09
1.900000000000000000e+02,3.600000000000000000e+02,4.110000000000000000e+02,3.470000000000000000e+02,1.120000000000000000e+02,7.800000000000000000e+01,6.900000000000000000e+01,2.070000000000000000e+02,4.500000000000000111e-01,9.870335700000000000e+09
2.090000000000000000e+02,3.750000000000000000e+02,3.990000000000000000e+02,3.400000000000000000e+02,1.130000000000000000e+02,8.200000000000000000e+01,7.800000000000000000e+01,3.180000000000000000e+02,4.500000000000000111e-01,9.890967900000000000e+09
1.910000000000000000e+02,3.640000000000000000e+02,3.640000000000000000e+02,3.540000000000000000e+02,1.160000000000000000e+02,8.400000000000000000e+01,8.200000000000000000e+01,3.120000000000000000e+02,4.500000000000000111e-01,9.909902800000000000e+09
1.580000000000000000e+02,2.940000000000000000e+02,3.050000000000000000e+02,3.470000000000000000e+02,1.050000000000000000e+02,7.200000000000000000e+01,7.400000000000000000e+01,3.100000000000000000e+02,4.600000000000000200e-01,9.929291300000000000e+09
1.460000000000000000e+02,2.590000000000000000e+02,3.010000000000000000e+02,3.340000000000000000e+02,1.040000000000000000e+02,7.200000000000000000e+01,7.400000000000000000e+01,3.110000000000000000e+02,4.600000000000000200e-01,9.951432700000000000e+09
1.310000000000000000e+02,2.520000000000000000e+02,2.640000000000000000e+02,3.000000000000000000e+02,1.000000000000000000e+02,7.200000000000000000e+01,7.400000000000000000e+01,2.820000000000000000e+02,4.699999999999999734e-01,9.970439100000000000e+09
8.600000000000000000e+01,2.030000000000000000e+02,2.500000000000000000e+02,3.220000000000000000e+02,1.110000000000000000e+02,6.700000000000000000e+01,6.300000000000000000e+01,1.160000000000000000e+02,4.799999999999999822e-01,9.989279300000000000e+09
7.700000000000000000e+01,1.850000000000000000e+02,2.400000000000000000e+02,3.410000000000000000e+02,1.240000000000000000e+02,6.400000000000000000e+01,5.400000000000000000e+01,9.400000000000000000e+01,4.799999999999999822e-01,1.000744270000000000e+10
1.070000000000000000e+02,2.010000000000000000e+02,2.600000000000000000e+02,3.440000000000000000e+02,1.310000000000000000e+02,6.300000000000000000e+01,5.200000000000000000e+01,7.700000000000000000e+01,4.899999999999999911e-01,1.002920140000000000e+10
1.300000000000000000e+02,2.590000000000000000e+02,3.170000000000000000e+02,3.390000000000000000e+02,1.290000000000000000e+02,7.200000000000000000e+01,6.300000000000000000e+01,5.700000000000000000e+01,4.899999999999999911e-01,1.005159720000000000e+10
1.300000000000000000e+02,2.580000000000000000e+02,3.350000000000000000e+02,3.350000000000000000e+02,1.270000000000000000e+02,7.400000000000000000e+01,6.500000000000000000e+01,4.300000000000000000e+01,5.000000000000000000e-01,1.007088310000000000e+10
1.260000000000000000e+02,2.530000000000000000e+02,3.590000000000000000e+02,2.960000000000000000e+02,1.170000000000000000e+02,7.200000000000000000e+01,6.200000000000000000e+01,4.400000000000000000e+01,5.100000000000000089e-01,1.008932880000000000e+10
1.260000000000000000e+02,2.620000000000000000e+02,3.940000000000000000e+02,2.670000000000000000e+02,9.800000000000000000e+01,6.800000000000000000e+01,6.200000000000000000e+01,4.400000000000000000e+01,5.100000000000000089e-01,1.010841300000000000e+10
1.100000000000000000e+02,2.500000000000000000e+02,3.620000000000000000e+02,2.590000000000000000e+02,1.000000000000000000e+02,6.500000000000000000e+01,5.900000000000000000e+01,4.400000000000000000e+01,5.200000000000000178e-01,1.013060390000000000e+10
9.300000000000000000e+01,1.950000000000000000e+02,3.180000000000000000e+02,2.540000000000000000e+02,9.800000000000000000e+01,5.100000000000000000e+01,4.500000000000000000e+01,4.300000000000000000e+01,5.300000000000000266e-01,1.015279260000000000e+10
1.050000000000000000e+02,2.420000000000000000e+02,3.040000000000000000e+02,2.490000000000000000e+02,9.800000000000000000e+01,5.200000000000000000e+01,4.600000000000000000e+01,4.400000000000000000e+01,5.400000000000000355e-01,1.017106810000000000e+10
1.210000000000000000e+02,2.660000000000000000e+02,2.830000000000000000e+02,2.620000000000000000e+02,9.800000000000000000e+01,6.700000000000000000e+01,6.100000000000000000e+01,3.900000000000000000e+01,5.500000000000000444e-01,1.019008650000000000e+10
1.250000000000000000e+02,2.630000000000000000e+02,2.400000000000000000e+02,2.210000000000000000e+02,9.200000000000000000e+01,6.800000000000000000e+01,6.200000000000000000e+01,5.800000000000000000e+01,5.500000000000000444e-01,1.020830640000000000e+10
1.250000000000000000e+02,2.600000000000000000e+02,2.570000000000000000e+02,2.210000000000000000e+02,7.200000000000000000e+01,7.100000000000000000e+01,6.700000000000000000e+01,2.530000000000000000e+02,5.500000000000000444e-01,1.023071860000000000e+10
1.190000000000000000e+02,2.470000000000000000e+02,2.650000000000000000e+02,2.460000000000000000e+02,6.700000000000000000e+01,6.600000000000000000e+01,6.700000000000000000e+01,2.720000000000000000e+02,5.500000000000000444e-01,1.025322300000000000e+10
1.050000000000000000e+02,1.930000000000000000e+02,3.080000000000000000e+02,2.570000000000000000e+02,6.400000000000000000e+01,6.500000000000000000e+01,6.300000000000000000e+01,2.870000000000000000e+02,5.500000000000000444e-01,1.027193160000000000e+10
8.600000000000000000e+01,1.500000000000000000e+02,3.070000000000000000e+02,2.570000000000000000e+02,5.400000000000000000e+01,5.700000000000000000e+01,5.200000000000000000e+01,2.900000000000000000e+02,5.600000000000000533e-01,1.028990170000000000e+10
7.300000000000000000e+01,1.290000000000000000e+02,3.130000000000000000e+02,2.300000000000000000e+02,7.300000000000000000e+01,8.000000000000000000e+01,6.800000000000000000e+01,2.930000000000000000e+02,5.600000000000000533e-01,1.030947420000000000e+10
7.600000000000000000e+01,1.110000000000000000e+02,3.110000000000000000e+02,2.430000000000000000e+02,8.000000000000000000e+01,1.200000000000000000e+02,9.700000000000000000e+01,2.330000000000000000e+02,5.600000000000000533e-01,1.033157590000000000e+10
7.900000000000000000e+01,1.000000000000000000e+02,3.160000000000000000e+02,2.590000000000000000e+02,8.900000000000000000e+01,1.350000000000000000e+02,1.130000000000000000e+02,2.220000000000000000e+02,5.699999999999999512e-01,1.034999770000000000e+10
7.700000000000000000e+01,1.140000000000000000e+02,2.750000000000000000e+02,2.730000000000000000e+02,9.300000000000000000e+01,2.610000000000000000e+02,2.010000000000000000e+02,2.100000000000000000e+02,5.699999999999999512e-01,1.036938460000000000e+10
8.800000000000000000e+01,1.050000000000000000e+02,2.800000000000000000e+02,2.690000000000000000e+02,1.040000000000000000e+02,3.150000000000000000e+02,2.330000000000000000e+02,2.710000000000000000e+02,5.699999999999999512e-01,1.038753810000000000e+10
1.000000000000000000e+02,1.290000000000000000e+02,2.970000000000000000e+02,3.000000000000000000e+02,1.000000000000000000e+02,3.410000000000000000e+02,2.450000000000000000e+02,3.530000000000000000e+02,5.699999999999999512e-01,1.040955820000000000e+10
1.090000000000000000e+02,1.970000000000000000e+02,4.420000000000000000e+02,3.020000000000000000e+02,1.000000000000000000e+02,3.370000000000000000e+02,2.430000000000000000e+02,3.490000000000000000e+02,5.699999999999999512e-01,1.043202520000000000e+10
1.100000000000000000e+02,2.300000000000000000e+02,4.600000000000000000e+02,3.290000000000000000e+02,9.100000000000000000e+01,3.460000000000000000e+02,2.570000000000000000e+02,3.880000000000000000e+02,5.699999999999999512e-01,1.045109790000000000e+10
