6.200000000000000000e+01,4.200000000000000000e+01,1.320000000000000000e+02,1.720000000000000000e+02,2.480000000000000000e+02,1.200000000000000000e+02,1.290000000000000000e+02,8.600000000000000000e+01,3.699999999999999956e-01,4.721692000000000000e+08
6.100000000000000000e+01,5.100000000000000000e+01,1.580000000000000000e+02,2.040000000000000000e+02,2.910000000000000000e+02,1.310000000000000000e+02,1.380000000000000000e+02,1.100000000000000000e+02,3.699999999999999956e-01,4.993537000000000000e+08
6.000000000000000000e+01,4.700000000000000000e+01,1.280000000000000000e+02,2.470000000000000000e+02,4.030000000000000000e+02,1.400000000000000000e+02,1.380000000000000000e+02,1.120000000000000000e+02,3.599999999999999867e-01,1.254613700000000000e+09
7.600000000000000000e+01,6.000000000000000000e+01,2.460000000000000000e+02,2.590000000000000000e+02,4.340000000000000000e+02,1.480000000000000000e+02,1.300000000000000000e+02,1.140000000000000000e+02,3.499999999999999778e-01,1.275236100000000000e+09
1.140000000000000000e+02,7.100000000000000000e+01,2.810000000000000000e+02,2.660000000000000000e+02,4.510000000000000000e+02,1.500000000000000000e+02,1.270000000000000000e+02,1.180000000000000000e+02,3.300000000000000155e-01,1.297876700000000000e+09
1.260000000000000000e+02,8.700000000000000000e+01,2.940000000000000000e+02,2.780000000000000000e+02,4.750000000000000000e+02,1.560000000000000000e+02,1.670000000000000000e+02,1.290000000000000000e+02,3.200000000000000067e-01,1.317513700000000000e+09
1.420000000000000000e+02,1.060000000000000000e+02,3.430000000000000000e+02,2.660000000000000000e+02,4.700000000000000000e+02,1.370000000000000000e+02,1.860000000000000000e+02,9.000000000000000000e+01,3.099999999999999978e-01,1.335771000000000000e+09
1.470000000000000000e+02,1.150000000000000000e+02,3.660000000000000000e+02,2.310000000000000000e+02,3.650000000000000000e+02,1.190000000000000000e+02,2.000000000000000000e+02,1.120000000000000000e+02,2.999999999999999889e-01,1.356510300000000000e+09
1.400000000000000000e+02,1.110000000000000000e+02,3.530000000000000000e+02,2.140000000000000000e+02,3.240000000000000000e+02,1.070000000000000000e+02,1.830000000000000000e+02,1.180000000000000000e+02,2.999999999999999889e-01,1.375452200000000000e+09
1.130000000000000000e+02,1.060000000000000000e+02,3.960000000000000000e+02,2.560000000000000000e+02,3.850000000000000000e+02,1.390000000000000000e+02,1.880000000000000000e+02,1.220000000000000000e+02,2.899999999999999800e-01,1.393562300000000000e+09
1.020000000000000000e+02,9.900000000000000000e+01,4.370000000000000000e+02,2.580000000000000000e+02,3.690000000000000000e+02,1.400000000000000000e+02,2.210000000000000000e+02,1.380000000000000000e+02,2.700000000000000178e-01,1.411826500000000000e+09
1.220000000000000000e+02,8.800000000000000000e+01,4.100000000000000000e+02,2.440000000000000000e+02,3.180000000000000000e+02,1.360000000000000000e+02,2.190000000000000000e+02,1.440000000000000000e+02,2.600000000000000089e-01,1.430813900000000000e+09
1.160000000000000000e+02,9.100000000000000000e+01,4.420000000000000000e+02,2.550000000000000000e+02,3.120000000000000000e+02,1.310000000000000000e+02,2.040000000000000000e+02,1.240000000000000000e+02,2.399999999999999911e-01,1.449536000000000000e+09
1.200000000000000000e+02,1.090000000000000000e+02,5.260000000000000000e+02,3.300000000000000000e+02,3.340000000000000000e+02,1.390000000000000000e+02,2.400000000000000000e+02,1.810000000000000000e+02,2.200000000000000011e-01,1.467255100000000000e+09
1.610000000000000000e+02,1.260000000000000000e+02,5.600000000000000000e+02,3.190000000000000000e+02,2.340000000000000000e+02,1.050000000000000000e+02,2.520000000000000000e+02,2.840000000000000000e+02,2.200000000000000011e-01,1.485816100000000000e+09
1.670000000000000000e+02,1.580000000000000000e+02,6.730000000000000000e+02,4.200000000000000000e+02,1.650000000000000000e+02,7.900000000000000000e+01,1.990000000000000000e+02,2.970000000000000000e+02,2.200000000000000011e-01,1.503873800000000000e+09
1.490000000000000000e+02,1.630000000000000000e+02,6.940000000000000000e+02,4.240000000000000000e+02,1.680000000000000000e+02,8.100000000000000000e+01,1.830000000000000000e+02,3.170000000000000000e+02,2.300000000000000100e-01,1.522129800000000000e+09
1.700000000000000000e+02,1.820000000000000000e+02,7.060000000000000000e+02,4.240000000000000000e+02,1.640000000000000000e+02,8.600000000000000000e+01,1.840000000000000000e+02,3.210000000000000000e+02,2.399999999999999911e-01,1.541111000000000000e+09
2.020000000000000000e+02,1.820000000000000000e+02,6.650000000000000000e+02,3.860000000000000000e+02,1.080000000000000000e+02,7.200000000000000000e+01,1.340000000000000000e+02,3.010000000000000000e+02,2.600000000000000089e-01,1.590654600000000000e+09
1.940000000000000000e+02,1.830000000000000000e+02,6.690000000000000000e+02,3.950000000000000000e+02,8.900000000000000000e+01,6.300000000000000000e+01,9.600000000000000000e+01,2.200000000000000000e+02,2.700000000000000178e-01,1.609669600000000000e+09
1.950000000000000000e+02,1.860000000000000000e+02,6.090000000000000000e+02,3.250000000000000000e+02,9.700000000000000000e+01,6.900000000000000000e+01,9.700000000000000000e+01,2.170000000000000000e+02,2.800000000000000266e-01,1.628759300000000000e+09
1.980000000000000000e+02,2.070000000000000000e+02,6.430000000000000000e+02,3.320000000000000000e+02,9.900000000000000000e+01,7.400000000000000000e+01,9.000000000000000000e+01,1.960000000000000000e+02,2.999999999999999889e-01,1.646603300000000000e+09
1.870000000000000000e+02,2.990000000000000000e+02,7.030000000000000000e+02,4.450000000000000000e+02,1.220000000000000000e+02,7.900000000000000000e+01,8.600000000000000000e+01,2.500000000000000000e+02,3.200000000000000067e-01,1.664778900000000000e+09
2.360000000000000000e+02,4.270000000000000000e+02,7.260000000000000000e+02,4.340000000000000000e+02,1.220000000000000000e+02,9.200000000000000000e+01,1.180000000000000000e+02,3.580000000000000000e+02,3.300000000000000155e-01,1.682843400000000000e+09
2.560000000000000000e+02,4.760000000000000000e+02,6.780000000000000000e+02,4.120000000000000000e+02,1.260000000000000000e+02,1.020000000000000000e+02,1.760000000000000000e+02,5.210000000000000000e+02,3.400000000000000244e-01,1.701584800000000000e+09
2.910000000000000000e+02,5.390000000000000000e+02,6.620000000000000000e+02,3.660000000000000000e+02,1.150000000000000000e+02,1.140000000000000000e+02,2.600000000000000000e+02,6.120000000000000000e+02,3.400000000000000244e-01,1.721095500000000000e+09
2.990000000000000000e+02,5.440000000000000000e+02,6.330000000000000000e+02,3.520000000000000000e+02,1.060000000000000000e+02,1.090000000000000000e+02,2.650000000000000000e+02,7.030000000000000000e+02,3.499999999999999778e-01,1.740932200000000000e+09
3.060000000000000000e+02,5.170000000000000000e+02,5.220000000000000000e+02,1.590000000000000000e+02,7.400000000000000000e+01,1.050000000000000000e+02,2.640000000000000000e+02,7.030000000000000000e+02,3.599999999999999867e-01,1.760242000000000000e+09
2.700000000000000000e+02,4.420000000000000000e+02,4.350000000000000000e+02,1.430000000000000000e+02,7.100000000000000000e+01,9.300000000000000000e+01,2.580000000000000000e+02,6.840000000000000000e+02,3.599999999999999867e-01,1.780803500000000000e+09
2.390000000000000000e+02,3.980000000000000000e+02,4.040000000000000000e+02,1.120000000000000000e+02,6.100000000000000000e+01,8.500000000000000000e+01,2.250000000000000000e+02,5.820000000000000000e+02,3.699999999999999956e-01,1.799682000000000000e+09
1.840000000000000000e+02,3.120000000000000000e+02,3.730000000000000000e+02,1.310000000000000000e+02,5.700000000000000000e+01,5.900000000000000000e+01,1.130000000000000000e+02,4.880000000000000000e+02,3.699999999999999956e-01,1.817595500000000000e+09
1.670000000000000000e+02,2.900000000000000000e+02,3.290000000000000000e+02,1.330000000000000000e+02,7.100000000000000000e+01,7.200000000000000000e+01,1.020000000000000000e+02,3.510000000000000000e+02,3.599999999999999867e-01,1.836934500000000000e+09
1.910000000000000000e+02,2.600000000000000000e+02,3.230000000000000000e+02,1.760000000000000000e+02,2.490000000000000000e+02,1.460000000000000000e+02,1.490000000000000000e+02,3.340000000000000000e+02,3.499999999999999778e-01,1.855618900000000000e+09
1.560000000000000000e+02,2.110000000000000000e+02,3.100000000000000000e+02,1.900000000000000000e+02,2.890000000000000000e+02,1.520000000000000000e+02,1.460000000000000000e+02,3.150000000000000000e+02,3.400000000000000244e-01,1.873546500000000000e+09
1.530000000000000000e+02,1.920000000000000000e+02,3.120000000000000000e+02,2.710000000000000000e+02,4.200000000000000000e+02,1.700000000000000000e+02,1.420000000000000000e+02,2.860000000000000000e+02,3.200000000000000067e-01,1.891769400000000000e+09
1.650000000000000000e+02,1.900000000000000000e+02,3.400000000000000000e+02,4.800000000000000000e+02,5.690000000000000000e+02,2.010000000000000000e+02,1.450000000000000000e+02,2.660000000000000000e+02,3.099999999999999978e-01,1.912342000000000000e+09
1.590000000000000000e+02,1.830000000000000000e+02,3.290000000000000000e+02,4.830000000000000000e+02,5.910000000000000000e+02,2.130000000000000000e+02,1.510000000000000000e+02,2.510000000000000000e+02,3.099999999999999978e-01,1.930613600000000000e+09
1.190000000000000000e+02,1.530000000000000000e+02,3.290000000000000000e+02,5.110000000000000000e+02,5.720000000000000000e+02,1.880000000000000000e+02,1.460000000000000000e+02,2.270000000000000000e+02,2.999999999999999889e-01,1.950018400000000000e+09
1.210000000000000000e+02,1.480000000000000000e+02,3.260000000000000000e+02,5.090000000000000000e+02,5.860000000000000000e+02,1.870000000000000000e+02,1.750000000000000000e+02,1.310000000000000000e+02,2.999999999999999889e-01,1.969106900000000000e+09
1.180000000000000000e+02,1.330000000000000000e+02,3.280000000000000000e+02,4.810000000000000000e+02,5.470000000000000000e+02,1.950000000000000000e+02,2.120000000000000000e+02,1.250000000000000000e+02,2.899999999999999800e-01,1.987436700000000000e+09
1.040000000000000000e+02,6.700000000000000000e+01,1.840000000000000000e+02,2.690000000000000000e+02,3.980000000000000000e+02,1.700000000000000000e+02,2.120000000000000000e+02,1.090000000000000000e+02,2.800000000000000266e-01,2.004981600000000000e+09
1.200000000000000000e+02,6.400000000000000000e+01,1.750000000000000000e+02,2.820000000000000000e+02,3.850000000000000000e+02,1.550000000000000000e+02,2.080000000000000000e+02,9.400000000000000000e+01,2.700000000000000178e-01,2.024104700000000000e+09
1.060000000000000000e+02,6.800000000000000000e+01,1.590000000000000000e+02,2.070000000000000000e+02,3.630000000000000000e+02,1.320000000000000000e+02,2.360000000000000000e+02,8.000000000000000000e+01,2.600000000000000089e-01,2.042657300000000000e+09
1.010000000000000000e+02,6.300000000000000000e+01,1.540000000000000000e+02,2.340000000000000000e+02,3.670000000000000000e+02,1.410000000000000000e+02,2.270000000000000000e+02,1.010000000000000000e+02,2.500000000000000000e-01,2.061300100000000000e+09
9.700000000000000000e+01,6.200000000000000000e+01,1.510000000000000000e+02,2.390000000000000000e+02,3.900000000000000000e+02,1.340000000000000000e+02,2.000000000000000000e+02,9.400000000000000000e+01,2.399999999999999911e-01,2.080049900000000000e+09
9.200000000000000000e+01,6.900000000000000000e+01,2.050000000000000000e+02,2.500000000000000000e+02,3.950000000000000000e+02,1.280000000000000000e+02,2.050000000000000000e+02,9.000000000000000000e+01,2.399999999999999911e-01,2.098927200000000000e+09
6.000000000000000000e+01,6.000000000000000000e+01,2.040000000000000000e+02,2.440000000000000000e+02,3.970000000000000000e+02,1.300000000000000000e+02,2.610000000000000000e+02,9.600000000000000000e+01,2.399999999999999911e-01,2.117803800000000000e+09
5.500000000000000000e+01,5.700000000000000000e+01,2.210000000000000000e+02,2.810000000000000000e+02,4.080000000000000000e+02,1.590000000000000000e+02,2.360000000000000000e+02,1.070000000000000000e+02,2.399999999999999911e-01,2.136463000000000000e+09
5.600000000000000000e+01,5.700000000000000000e+01,2.220000000000000000e+02,2.610000000000000000e+02,3.720000000000000000e+02,1.560000000000000000e+02,2.270000000000000000e+02,1.210000000000000000e+02,2.500000000000000000e-01,2.155070600000000000e+09
5.300000000000000000e+01,5.400000000000000000e+01,2.170000000000000000e+02,2.470000000000000000e+02,2.980000000000000000e+02,1.370000000000000000e+02,2.320000000000000000e+02,1.260000000000000000e+02,2.500000000000000000e-01,2.173260000000000000e+09
5.700000000000000000e+01,4.500000000000000000e+01,1.570000000000000000e+02,2.300000000000000000e+02,2.900000000000000000e+02,1.350000000000000000e+02,2.300000000000000000e+02,1.720000000000000000e+02,2.500000000000000000e-01,2.192038500000000000e+09
7.700000000000000000e+01,5.100000000000000000e+01,1.310000000000000000e+02,2.180000000000000000e+02,2.640000000000000000e+02,1.290000000000000000e+02,1.780000000000000000e+02,2.800000000000000000e+02,2.600000000000000089e-01,2.211108700000000000e+09
7.700000000000000000e+01,4.900000000000000000e+01,9.100000000000000000e+01,1.800000000000000000e+02,2.170000000000000000e+02,9.000000000000000000e+01,2.340000000000000000e+02,2.840000000000000000e+02,2.600000000000000089e-01,2.230603000000000000e+09
7.200000000000000000e+01,4.700000000000000000e+01,9.100000000000000000e+01,1.680000000000000000e+02,1.940000000000000000e+02,7.400000000000000000e+01,2.570000000000000000e+02,2.830000000000000000e+02,2.700000000000000178e-01,2.251753100000000000e+09
7.200000000000000000e+01,5.900000000000000000e+01,9.900000000000000000e+01,1.580000000000000000e+02,1.600000000000000000e+02,6.600000000000000000e+01,2.500000000000000000e+02,2.790000000000000000e+02,2.700000000000000178e-01,2.275947100000000000e+09
7.100000000000000000e+01,8.100000000000000000e+01,1.720000000000000000e+02,1.620000000000000000e+02,1.610000000000000000e+02,7.400000000000000000e+01,2.490000000000000000e+02,2.540000000000000000e+02,2.800000000000000266e-01,2.295310300000000000e+09
4.600000000000000000e+01,8.200000000000000000e+01,1.900000000000000000e+02,1.510000000000000000e+02,1.550000000000000000e+02,7.800000000000000000e+01,2.390000000000000000e+02,1.230000000000000000e+02,2.899999999999999800e-01,2.314729400000000000e+09
3.800000000000000000e+01,8.700000000000000000e+01,1.960000000000000000e+02,1.230000000000000000e+02,1.420000000000000000e+02,8.000000000000000000e+01,1.570000000000000000e+02,1.060000000000000000e+02,2.999999999999999889e-01,2.335410800000000000e+09
4.400000000000000000e+01,9.500000000000000000e+01,2.030000000000000000e+02,1.310000000000000000e+02,1.280000000000000000e+02,7.600000000000000000e+01,9.900000000000000000e+01,6.700000000000000000e+01,3.200000000000000067e-01,2.355917300000000000e+09
5.000000000000000000e+01,1.410000000000000000e+02,2.910000000000000000e+02,2.190000000000000000e+02,1.720000000000000000e+02,1.150000000000000000e+02,9.000000000000000000e+01,6.900000000000000000e+01,3.300000000000000155e-01,2.376290200000000000e+09
4.700000000000000000e+01,1.410000000000000000e+02,2.680000000000000000e+02,2.130000000000000000e+02,1.890000000000000000e+02,1.310000000000000000e+02,8.100000000000000000e+01,6.600000000000000000e+01,3.499999999999999778e-01,2.394903600000000000e+09
4.800000000000000000e+01,1.400000000000000000e+02,2.910000000000000000e+02,2.150000000000000000e+02,1.920000000000000000e+02,1.290000000000000000e+02,7.500000000000000000e+01,6.000000000000000000e+01,3.599999999999999867e-01,2.413970300000000000e+09
5.000000000000000000e+01,1.510000000000000000e+02,3.050000000000000000e+02,2.310000000000000000e+02,2.020000000000000000e+02,1.400000000000000000e+02,8.500000000000000000e+01,6.700000000000000000e+01,3.699999999999999956e-01,2.435543200000000000e+09
6.400000000000000000e+01,1.940000000000000000e+02,3.660000000000000000e+02,2.860000000000000000e+02,2.910000000000000000e+02,1.780000000000000000e+02,9.300000000000000000e+01,6.300000000000000000e+01,3.699999999999999956e-01,2.454874600000000000e+09
6.900000000000000000e+01,1.830000000000000000e+02,4.030000000000000000e+02,2.620000000000000000e+02,2.680000000000000000e+02,1.580000000000000000e+02,9.000000000000000000e+01,6.200000000000000000e+01,3.699999999999999956e-01,2.474196600000000000e+09
7.100000000000000000e+01,1.870000000000000000e+02,4.780000000000000000e+02,3.070000000000000000e+02,2.460000000000000000e+02,1.380000000000000000e+02,8.400000000000000000e+01,5.800000000000000000e+01,3.699999999999999956e-01,2.492684000000000000e+09
7.400000000000000000e+01,1.920000000000000000e+02,4.860000000000000000e+02,3.310000000000000000e+02,2.490000000000000000e+02,1.440000000000000000e+02,8.400000000000000000e+01,5.900000000000000000e+01,3.699999999999999956e-01,2.511730700000000000e+09
7.700000000000000000e+01,1.950000000000000000e+02,4.810000000000000000e+02,3.530000000000000000e+02,2.520000000000000000e+02,1.420000000000000000e+02,7.000000000000000000e+01,4.200000000000000000e+01,3.699999999999999956e-01,2.530325300000000000e+09
6.600000000000000000e+01,1.540000000000000000e+02,4.810000000000000000e+02,3.500000000000000000e+02,1.570000000000000000e+02,1.040000000000000000e+02,6.000000000000000000e+01,5.300000000000000000e+01,3.699999999999999956e-01,2.548680000000000000e+09
5.500000000000000000e+01,1.340000000000000000e+02,4.460000000000000000e+02,3.420000000000000000e+02,1.460000000000000000e+02,1.010000000000000000e+02,6.100000000000000000e+01,7.500000000000000000e+01,3.699999999999999956e-01,2.567544500000000000e+09
7.400000000000000000e+01,1.430000000000000000e+02,3.810000000000000000e+02,3.160000000000000000e+02,1.540000000000000000e+02,1.080000000000000000e+02,9.300000000000000000e+01,7.900000000000000000e+01,3.800000000000000044e-01,2.586063400000000000e+09
7.600000000000000000e+01,1.460000000000000000e+02,3.740000000000000000e+02,3.010000000000000000e+02,1.500000000000000000e+02,1.010000000000000000e+02,1.080000000000000000e+02,8.100000000000000000e+01,3.800000000000000044e-01,2.604310800000000000e+09
9.500000000000000000e+01,1.380000000000000000e+02,4.250000000000000000e+02,3.030000000000000000e+02,1.310000000000000000e+02,8.900000000000000000e+01,1.090000000000000000e+02,8.100000000000000000e+01,3.800000000000000044e-01,2.623166300000000000e+09
1.270000000000000000e+02,1.580000000000000000e+02,3.970000000000000000e+02,2.870000000000000000e+02,1.440000000000000000e+02,8.400000000000000000e+01,1.100000000000000000e+02,9.000000000000000000e+01,3.800000000000000044e-01,2.641914600000000000e+09
1.520000000000000000e+02,1.590000000000000000e+02,4.220000000000000000e+02,3.170000000000000000e+02,1.430000000000000000e+02,8.300000000000000000e+01,1.110000000000000000e+02,1.350000000000000000e+02,3.900000000000000133e-01,2.661214600000000000e+09
1.820000000000000000e+02,1.770000000000000000e+02,4.170000000000000000e+02,3.090000000000000000e+02,1.310000000000000000e+02,7.600000000000000000e+01,1.960000000000000000e+02,1.800000000000000000e+02,4.000000000000000222e-01,2.680681300000000000e+09
1.990000000000000000e+02,4.090000000000000000e+02,4.470000000000000000e+02,3.540000000000000000e+02,1.380000000000000000e+02,8.300000000000000000e+01,1.970000000000000000e+02,2.130000000000000000e+02,4.099999999999999756e-01,2.699453300000000000e+09
1.990000000000000000e+02,4.600000000000000000e+02,4.340000000000000000e+02,3.300000000000000000e+02,1.320000000000000000e+02,8.300000000000000000e+01,1.960000000000000000e+02,2.310000000000000000e+02,4.099999999999999756e-01,2.716960500000000000e+09
1.860000000000000000e+02,5.090000000000000000e+02,4.370000000000000000e+02,3.390000000000000000e+02,9.600000000000000000e+01,7.000000000000000000e+01,1.970000000000000000e+02,2.500000000000000000e+02,4.299999999999999933e-01,2.735189200000000000e+09
1.760000000000000000e+02,5.250000000000000000e+02,4.120000000000000000e+02,3.630000000000000000e+02,1.000000000000000000e+02,7.000000000000000000e+01,2.010000000000000000e+02,2.250000000000000000e+02,4.400000000000000022e-01,2.754055700000000000e+09
1.410000000000000000e+02,5.210000000000000000e+02,4.070000000000000000e+02,3.690000000000000000e+02,9.800000000000000000e+01,6.700000000000000000e+01,1.040000000000000000e+02,1.940000000000000000e+02,4.500000000000000111e-01,2.774559200000000000e+09
1.170000000000000000e+02,4.030000000000000000e+02,3.940000000000000000e+02,3.230000000000000000e+02,7.200000000000000000e+01,6.000000000000000000e+01,8.600000000000000000e+01,1.570000000000000000e+02,4.500000000000000111e-01,2.793579800000000000e+09
1.410000000000000000e+02,3.440000000000000000e+02,3.690000000000000000e+02,3.320000000000000000e+02,1.610000000000000000e+02,7.800000000000000000e+01,8.600000000000000000e+01,1.320000000000000000e+02,4.500000000000000111e-01,2.812487500000000000e+09
1.750000000000000000e+02,2.570000000000000000e+02,3.490000000000000000e+02,3.140000000000000000e+02,2.370000000000000000e+02,1.150000000000000000e+02,8.600000000000000000e+01,8.200000000000000000e+01,4.500000000000000111e-01,2.830808800000000000e+09
2.530000000000000000e+02,2.260000000000000000e+02,3.040000000000000000e+02,2.680000000000000000e+02,2.490000000000000000e+02,1.210000000000000000e+02,7.400000000000000000e+01,8.200000000000000000e+01,4.400000000000000022e-01,2.848934700000000000e+09
3.060000000000000000e+02,2.110000000000000000e+02,2.880000000000000000e+02,2.500000000000000000e+02,2.580000000000000000e+02,1.240000000000000000e+02,6.900000000000000000e+01,7.400000000000000000e+01,4.299999999999999933e-01,2.867368400000000000e+09
3.430000000000000000e+02,1.210000000000000000e+02,2.120000000000000000e+02,2.420000000000000000e+02,2.660000000000000000e+02,1.270000000000000000e+02,7.600000000000000000e+01,7.600000000000000000e+01,4.299999999999999933e-01,2.886211400000000000e+09
3.330000000000000000e+02,1.180000000000000000e+02,1.630000000000000000e+02,2.160000000000000000e+02,2.290000000000000000e+02,1.150000000000000000e+02,7.600000000000000000e+01,7.400000000000000000e+01,4.199999999999999845e-01,2.903354500000000000e+09
3.210000000000000000e+02,3.410000000000000000e+02,1.390000000000000000e+02,1.850000000000000000e+02,1.600000000000000000e+02,8.600000000000000000e+01,7.500000000000000000e+01,7.500000000000000000e+01,4.299999999999999933e-01,2.920893000000000000e+09
2.590000000000000000e+02,4.800000000000000000e+02,1.250000000000000000e+02,1.160000000000000000e+02,1.400000000000000000e+02,7.900000000000000000e+01,7.300000000000000000e+01,7.100000000000000000e+01,4.400000000000000022e-01,2.939065600000000000e+09
2.000000000000000000e+02,4.990000000000000000e+02,1.730000000000000000e+02,1.100000000000000000e+02,1.250000000000000000e+02,7.700000000000000000e+01,7.600000000000000000e+01,8.400000000000000000e+01,4.400000000000000022e-01,2.956232400000000000e+09
1.380000000000000000e+02,5.030000000000000000e+02,2.010000000000000000e+02,1.080000000000000000e+02,1.150000000000000000e+02,7.700000000000000000e+01,1.580000000000000000e+02,1.070000000000000000e+02,4.400000000000000022e-01,2.972924500000000000e+09
1.320000000000000000e+02,5.090000000000000000e+02,2.090000000000000000e+02,1.300000000000000000e+02,1.130000000000000000e+02,8.900000000000000000e+01,1.900000000000000000e+02,1.120000000000000000e+02,4.400000000000000022e-01,2.989894300000000000e+09
1.600000000000000000e+02,3.960000000000000000e+02,2.170000000000000000e+02,1.380000000000000000e+02,1.060000000000000000e+02,8.500000000000000000e+01,1.990000000000000000e+02,1.090000000000000000e+02,4.400000000000000022e-01,3.008296200000000000e+09
1.650000000000000000e+02,2.060000000000000000e+02,2.070000000000000000e+02,1.520000000000000000e+02,1.180000000000000000e+02,4.780000000000000000e+02,2.200000000000000000e+02,1.090000000000000000e+02,4.500000000000000111e-01,3.025391800000000000e+09
1.550000000000000000e+02,1.520000000000000000e+02,2.030000000000000000e+02,1.620000000000000000e+02,1.210000000000000000e+02,9.190000000000000000e+02,2.330000000000000000e+02,1.020000000000000000e+02,4.600000000000000200e-01,3.043651900000000000e+09
1.450000000000000000e+02,1.520000000000000000e+02,2.390000000000000000e+02,1.990000000000000000e+02,2.150000000000000000e+02,1.120000000000000000e+03,1.970000000000000000e+02,9.000000000000000000e+01,4.699999999999999734e-01,3.060909600000000000e+09
1.410000000000000000e+02,1.210000000000000000e+02,2.450000000000000000e+02,2.150000000000000000e+02,2.560000000000000000e+02,1.342000000000000000e+03,1.780000000000000000e+02,8.700000000000000000e+01,4.699999999999999734e-01,3.078252200000000000e+09
8.800000000000000000e+01,1.150000000000000000e+02,2.540000000000000000e+02,2.130000000000000000e+02,3.010000000000000000e+02,1.392000000000000000e+03,1.740000000000000000e+02,9.200000000000000000e+01,4.799999999999999822e-01,3.095188100000000000e+09
1.080000000000000000e+02,1.040000000000000000e+02,2.600000000000000000e+02,2.060000000000000000e+02,3.100000000000000000e+02,1.310000000000000000e+03,1.680000000000000000e+02,1.290000000000000000e+02,4.799999999999999822e-01,3.111588300000000000e+09
1.120000000000000000e+02,1.050000000000000000e+02,2.460000000000000000e+02,2.440000000000000000e+02,3.880000000000000000e+02,1.064000000000000000e+03,1.600000000000000000e+02,1.330000000000000000e+02,4.799999999999999822e-01,3.128145200000000000e+09
1.140000000000000000e+02,9.100000000000000000e+01,2.340000000000000000e+02,2.420000000000000000e+02,3.780000000000000000e+02,8.560000000000000000e+02,1.480000000000000000e+02,1.240000000000000000e+02,4.699999999999999734e-01,3.147042500000000000e+09
1.110000000000000000e+02,9.200000000000000000e+01,2.230000000000000000e+02,2.220000000000000000e+02,3.520000000000000000e+02,4.310000000000000000e+02,1.540000000000000000e+02,1.300000000000000000e+02,4.699999999999999734e-01,3.164499100000000000e+09
1.070000000000000000e+02,8.700000000000000000e+01,2.060000000000000000e+02,2.140000000000000000e+02,3.140000000000000000e+02,2.240000000000000000e+02,2.500000000000000000e+02,1.240000000000000000e+02,4.600000000000000200e-01,3.181206100000000000e+09
7.700000000000000000e+01,8.100000000000000000e+01,1.910000000000000000e+02,2.120000000000000000e+02,3.050000000000000000e+02,2.250000000000000000e+02,2.450000000000000000e+02,1.010000000000000000e+02,4.600000000000000200e-01,3.198637100000000000e+09
7.000000000000000000e+01,6.700000000000000000e+01,1.850000000000000000e+02,1.540000000000000000e+02,1.980000000000000000e+02,1.420000000000000000e+02,2.490000000000000000e+02,1.120000000000000000e+02,4.500000000000000111e-01,3.217390200000000000e+09
7.400000000000000000e+01,6.300000000000000000e+01,1.330000000000000000e+02,1.100000000000000000e+02,1.280000000000000000e+02,1.150000000000000000e+02,2.470000000000000000e+02,1.110000000000000000e+02,4.400000000000000022e-01,3.235267200000000000e+09
1.310000000000000000e+02,6.200000000000000000e+01,1.980000000000000000e+02,1.290000000000000000e+02,1.190000000000000000e+02,1.120000000000000000e+02,2.370000000000000000e+02,1.260000000000000000e+02,4.400000000000000022e-01,3.253015500000000000e+09
1.400000000000000000e+02,6.900000000000000000e+01,2.090000000000000000e+02,1.410000000000000000e+02,1.210000000000000000e+02,1.130000000000000000e+02,1.240000000000000000e+02,1.300000000000000000e+02,4.400000000000000022e-01,3.271242400000000000e+09
1.390000000000000000e+02,6.900000000000000000e+01,2.160000000000000000e+02,1.580000000000000000e+02,1.060000000000000000e+02,1.110000000000000000e+02,1.150000000000000000e+02,1.250000000000000000e+02,4.400000000000000022e-01,3.289148400000000000e+09
1.410000000000000000e+02,7.600000000000000000e+01,2.170000000000000000e+02,1.640000000000000000e+02,1.020000000000000000e+02,1.160000000000000000e+02,1.020000000000000000e+02,1.070000000000000000e+02,4.500000000000000111e-01,3.306208300000000000e+09
1.350000000000000000e+02,6.800000000000000000e+01,2.180000000000000000e+02,1.660000000000000000e+02,1.200000000000000000e+02,1.030000000000000000e+02,1.030000000000000000e+02,1.050000000000000000e+02,4.500000000000000111e-01,3.323333300000000000e+09
8.300000000000000000e+01,6.100000000000000000e+01,1.760000000000000000e+02,1.620000000000000000e+02,1.360000000000000000e+02,1.020000000000000000e+02,1.000000000000000000e+02,7.800000000000000000e+01,4.600000000000000200e-01,3.340315600000000000e+09
6.800000000000000000e+01,5.500000000000000000e+01,1.620000000000000000e+02,1.680000000000000000e+02,1.380000000000000000e+02,9.900000000000000000e+01,1.000000000000000000e+02,7.100000000000000000e+01,4.600000000000000200e-01,3.357726300000000000e+09
6.300000000000000000e+01,5.000000000000000000e+01,1.620000000000000000e+02,1.620000000000000000e+02,1.580000000000000000e+02,1.090000000000000000e+02,9.700000000000000000e+01,5.600000000000000000e+01,4.699999999999999734e-01,3.376038200000000000e+09
5.200000000000000000e+01,4.000000000000000000e+01,1.520000000000000000e+02,1.680000000000000000e+02,1.660000000000000000e+02,1.030000000000000000e+02,9.300000000000000000e+01,7.900000000000000000e+01,4.699999999999999734e-01,3.393555800000000000e+09
7.900000000000000000e+01,4.500000000000000000e+01,1.490000000000000000e+02,1.600000000000000000e+02,1.520000000000000000e+02,1.060000000000000000e+02,1.600000000000000000e+02,8.300000000000000000e+01,4.799999999999999822e-01,3.412414200000000000e+09
1.000000000000000000e+02,4.600000000000000000e+01,1.340000000000000000e+02,1.390000000000000000e+02,1.430000000000000000e+02,1.150000000000000000e+02,1.710000000000000000e+02,8.400000000000000000e+01,4.799999999999999822e-01,3.432578100000000000e+09
1.030000000000000000e+02,6.800000000000000000e+01,1.570000000000000000e+02,1.350000000000000000e+02,1.360000000000000000e+02,1.140000000000000000e+02,1.720000000000000000e+02,9.000000000000000000e+01,4.899999999999999911e-01,3.451114200000000000e+09
1.030000000000000000e+02,7.100000000000000000e+01,1.510000000000000000e+02,1.430000000000000000e+02,1.120000000000000000e+02,1.040000000000000000e+02,1.740000000000000000e+02,9.300000000000000000e+01,4.899999999999999911e-01,3.468128800000000000e+09
1.060000000000000000e+02,1.350000000000000000e+02,1.560000000000000000e+02,1.430000000000000000e+02,9.500000000000000000e+01,9.500000000000000000e+01,1.680000000000000000e+02,7.300000000000000000e+01,5.000000000000000000e-01,3.485847700000000000e+09
9.300000000000000000e+01,3.400000000000000000e+02,1.850000000000000000e+02,1.730000000000000000e+02,1.120000000000000000e+02,9.100000000000000000e+01,1.060000000000000000e+02,7.100000000000000000e+01,5.000000000000000000e-01,3.502364100000000000e+09
8.000000000000000000e+01,3.530000000000000000e+02,3.020000000000000000e+02,2.250000000000000000e+02,1.170000000000000000e+02,9.100000000000000000e+01,7.900000000000000000e+01,6.500000000000000000e+01,5.000000000000000000e-01,3.519013300000000000e+09
8.700000000000000000e+01,4.020000000000000000e+02,4.520000000000000000e+02,3.360000000000000000e+02,1.280000000000000000e+02,8.900000000000000000e+01,7.000000000000000000e+01,5.800000000000000000e+01,5.000000000000000000e-01,3.535520000000000000e+09
1.190000000000000000e+02,4.070000000000000000e+02,4.920000000000000000e+02,3.970000000000000000e+02,1.370000000000000000e+02,8.600000000000000000e+01,6.400000000000000000e+01,7.500000000000000000e+01,5.000000000000000000e-01,3.553476000000000000e+09
1.260000000000000000e+02,4.050000000000000000e+02,5.820000000000000000e+02,4.360000000000000000e+02,1.410000000000000000e+02,8.500000000000000000e+01,5.700000000000000000e+01,8.300000000000000000e+01,4.899999999999999911e-01,3.571421900000000000e+09
1.530000000000000000e+02,2.770000000000000000e+02,6.230000000000000000e+02,5.250000000000000000e+02,1.460000000000000000e+02,1.100000000000000000e+02,1.070000000000000000e+02,1.450000000000000000e+02,4.899999999999999911e-01,3.590344900000000000e+09
1.810000000000000000e+02,2.800000000000000000e+02,6.440000000000000000e+02,5.650000000000000000e+02,1.420000000000000000e+02,1.060000000000000000e+02,1.610000000000000000e+02,1.780000000000000000e+02,4.899999999999999911e-01,3.607699000000000000e+09
1.770000000000000000e+02,2.100000000000000000e+02,6.050000000000000000e+02,5.720000000000000000e+02,1.390000000000000000e+02,1.060000000000000000e+02,1.640000000000000000e+02,1.820000000000000000e+02,5.000000000000000000e-01,3.625182500000000000e+09
1.700000000000000000e+02,2.050000000000000000e+02,6.010000000000000000e+02,5.860000000000000000e+02,1.300000000000000000e+02,1.050000000000000000e+02,1.810000000000000000e+02,1.840000000000000000e+02,5.000000000000000000e-01,3.641975000000000000e+09
1.690000000000000000e+02,1.760000000000000000e+02,5.400000000000000000e+02,6.420000000000000000e+02,1.300000000000000000e+02,1.090000000000000000e+02,2.760000000000000000e+02,1.900000000000000000e+02,5.100000000000000089e-01,3.659039100000000000e+09
1.400000000000000000e+02,1.450000000000000000e+02,4.820000000000000000e+02,5.720000000000000000e+02,1.020000000000000000e+02,8.000000000000000000e+01,2.670000000000000000e+02,1.580000000000000000e+02,5.300000000000000266e-01,3.675595400000000000e+09
1.000000000000000000e+02,1.100000000000000000e+02,3.880000000000000000e+02,5.160000000000000000e+02,9.900000000000000000e+01,6.900000000000000000e+01,2.450000000000000000e+02,1.200000000000000000e+02,5.400000000000000355e-01,3.693166500000000000e+09
1.100000000000000000e+02,7.900000000000000000e+01,2.790000000000000000e+02,4.450000000000000000e+02,8.500000000000000000e+01,6.600000000000000000e+01,2.600000000000000000e+02,1.200000000000000000e+02,5.500000000000000444e-01,3.711203000000000000e+09
1.060000000000000000e+02,7.100000000000000000e+01,2.200000000000000000e+02,3.710000000000000000e+02,8.400000000000000000e+01,6.500000000000000000e+01,2.750000000000000000e+02,1.060000000000000000e+02,5.600000000000000533e-01,3.728863900000000000e+09
1.110000000000000000e+02,1.500000000000000000e+02,1.460000000000000000e+02,1.820000000000000000e+02,7.500000000000000000e+01,5.900000000000000000e+01,1.850000000000000000e+02,9.500000000000000000e+01,5.699999999999999512e-01,3.746541200000000000e+09
1.310000000000000000e+02,3.270000000000000000e+02,1.640000000000000000e+02,1.610000000000000000e+02,6.900000000000000000e+01,5.900000000000000000e+01,1.750000000000000000e+02,7.900000000000000000e+01,5.799999999999999600e-01,3.763592000000000000e+09
1.290000000000000000e+02,3.380000000000000000e+02,1.610000000000000000e+02,1.470000000000000000e+02,6.600000000000000000e+01,6.100000000000000000e+01,1.680000000000000000e+02,8.100000000000000000e+01,5.999999999999999778e-01,3.780377200000000000e+09
1.210000000000000000e+02,3.490000000000000000e+02,1.600000000000000000e+02,1.250000000000000000e+02,6.300000000000000000e+01,5.900000000000000000e+01,1.410000000000000000e+02,7.500000000000000000e+01,6.099999999999999867e-01,3.797447300000000000e+09
1.240000000000000000e+02,3.600000000000000000e+02,1.690000000000000000e+02,1.270000000000000000e+02,7.400000000000000000e+01,6.400000000000000000e+01,7.700000000000000000e+01,8.300000000000000000e+01,6.199999999999999956e-01,3.814498800000000000e+09
1.140000000000000000e+02,3.390000000000000000e+02,1.880000000000000000e+02,1.320000000000000000e+02,7.800000000000000000e+01,7.800000000000000000e+01,1.030000000000000000e+02,8.200000000000000000e+01,6.199999999999999956e-01,3.832597700000000000e+09
1.010000000000000000e+02,1.850000000000000000e+02,1.680000000000000000e+02,1.330000000000000000e+02,8.000000000000000000e+01,8.200000000000000000e+01,1.040000000000000000e+02,8.600000000000000000e+01,6.300000000000000044e-01,3.851166300000000000e+09
9.800000000000000000e+01,1.610000000000000000e+02,1.660000000000000000e+02,1.350000000000000000e+02,8.000000000000000000e+01,8.200000000000000000e+01,1.410000000000000000e+02,8.700000000000000000e+01,6.199999999999999956e-01,3.868643300000000000e+09
1.040000000000000000e+02,1.360000000000000000e+02,1.730000000000000000e+02,1.880000000000000000e+02,1.010000000000000000e+02,9.500000000000000000e+01,1.760000000000000000e+02,9.700000000000000000e+01,6.199999999999999956e-01,3.885929700000000000e+09
9.300000000000000000e+01,1.020000000000000000e+02,1.550000000000000000e+02,2.080000000000000000e+02,9.600000000000000000e+01,1.000000000000000000e+02,1.990000000000000000e+02,9.800000000000000000e+01,6.199999999999999956e-01,3.903137100000000000e+09
9.400000000000000000e+01,9.000000000000000000e+01,1.750000000000000000e+02,2.200000000000000000e+02,1.030000000000000000e+02,1.010000000000000000e+02,1.850000000000000000e+02,9.700000000000000000e+01,6.099999999999999867e-01,3.920198900000000000e+09
9.900000000000000000e+01,6.700000000000000000e+01,2.820000000000000000e+02,2.750000000000000000e+02,1.120000000000000000e+02,1.040000000000000000e+02,1.880000000000000000e+02,9.200000000000000000e+01,6.099999999999999867e-01,3.940472300000000000e+09
1.030000000000000000e+02,6.200000000000000000e+01,2.860000000000000000e+02,2.980000000000000000e+02,1.120000000000000000e+02,1.020000000000000000e+02,1.660000000000000000e+02,9.600000000000000000e+01,6.099999999999999867e-01,3.957332200000000000e+09
9.900000000000000000e+01,6.300000000000000000e+01,2.960000000000000000e+02,2.890000000000000000e+02,1.400000000000000000e+02,1.140000000000000000e+02,1.660000000000000000e+02,8.500000000000000000e+01,6.099999999999999867e-01,3.974482400000000000e+09
9.000000000000000000e+01,5.900000000000000000e+01,3.050000000000000000e+02,2.920000000000000000e+02,1.400000000000000000e+02,1.100000000000000000e+02,1.530000000000000000e+02,7.900000000000000000e+01,5.999999999999999778e-01,3.990888700000000000e+09
1.080000000000000000e+02,5.800000000000000000e+01,2.990000000000000000e+02,2.960000000000000000e+02,1.410000000000000000e+02,1.030000000000000000e+02,1.740000000000000000e+02,8.100000000000000000e+01,5.999999999999999778e-01,4.007448800000000000e+09
9.800000000000000000e+01,5.300000000000000000e+01,2.100000000000000000e+02,2.900000000000000000e+02,1.350000000000000000e+02,1.010000000000000000e+02,1.740000000000000000e+02,9.200000000000000000e+01,5.999999999999999778e-01,4.023696000000000000e+09
9.300000000000000000e+01,5.200000000000000000e+01,2.120000000000000000e+02,2.820000000000000000e+02,1.400000000000000000e+02,1.160000000000000000e+02,1.750000000000000000e+02,8.600000000000000000e+01,5.899999999999999689e-01,4.041523400000000000e+09
9.200000000000000000e+01,5.400000000000000000e+01,2.000000000000000000e+02,2.850000000000000000e+02,1.140000000000000000e+02,1.100000000000000000e+02,1.570000000000000000e+02,8.200000000000000000e+01,5.999999999999999778e-01,4.059321600000000000e+09
1.360000000000000000e+02,9.300000000000000000e+01,1.950000000000000000e+02,2.830000000000000000e+02,1.120000000000000000e+02,1.100000000000000000e+02,1.500000000000000000e+02,1.810000000000000000e+02,5.999999999999999778e-01,4.076668200000000000e+09
2.670000000000000000e+02,3.360000000000000000e+02,2.410000000000000000e+02,2.870000000000000000e+02,1.060000000000000000e+02,1.130000000000000000e+02,1.350000000000000000e+02,2.300000000000000000e+02,5.999999999999999778e-01,4.093824800000000000e+09
2.840000000000000000e+02,3.580000000000000000e+02,2.960000000000000000e+02,2.430000000000000000e+02,1.080000000000000000e+02,1.120000000000000000e+02,1.340000000000000000e+02,2.560000000000000000e+02,5.899999999999999689e-01,4.110531100000000000e+09
3.030000000000000000e+02,3.790000000000000000e+02,3.050000000000000000e+02,2.260000000000000000e+02,1.050000000000000000e+02,1.000000000000000000e+02,1.500000000000000000e+02,3.290000000000000000e+02,5.799999999999999600e-01,4.128461200000000000e+09
3.090000000000000000e+02,4.710000000000000000e+02,3.460000000000000000e+02,2.370000000000000000e+02,9.100000000000000000e+01,8.800000000000000000e+01,1.380000000000000000e+02,3.500000000000000000e+02,5.699999999999999512e-01,4.146248500000000000e+09
3.080000000000000000e+02,6.310000000000000000e+02,3.620000000000000000e+02,2.510000000000000000e+02,8.700000000000000000e+01,8.600000000000000000e+01,1.430000000000000000e+02,3.350000000000000000e+02,5.699999999999999512e-01,4.163044000000000000e+09
2.160000000000000000e+02,6.170000000000000000e+02,3.310000000000000000e+02,2.270000000000000000e+02,8.300000000000000000e+01,7.700000000000000000e+01,1.340000000000000000e+02,3.090000000000000000e+02,5.600000000000000533e-01,4.179634200000000000e+09
2.040000000000000000e+02,6.260000000000000000e+02,3.190000000000000000e+02,2.700000000000000000e+02,1.130000000000000000e+02,1.180000000000000000e+02,1.590000000000000000e+02,2.970000000000000000e+02,5.600000000000000533e-01,4.197744600000000000e+09
1.890000000000000000e+02,6.410000000000000000e+02,3.610000000000000000e+02,2.810000000000000000e+02,1.180000000000000000e+02,1.240000000000000000e+02,1.410000000000000000e+02,2.210000000000000000e+02,5.500000000000000444e-01,4.215183500000000000e+09
1.820000000000000000e+02,5.990000000000000000e+02,3.480000000000000000e+02,2.520000000000000000e+02,1.170000000000000000e+02,1.220000000000000000e+02,1.400000000000000000e+02,1.890000000000000000e+02,5.400000000000000355e-01,4.233254500000000000e+09
1.770000000000000000e+02,4.980000000000000000e+02,3.550000000000000000e+02,2.810000000000000000e+02,1.210000000000000000e+02,1.200000000000000000e+02,1.240000000000000000e+02,1.550000000000000000e+02,5.400000000000000355e-01,4.250465700000000000e+09
1.610000000000000000e+02,4.270000000000000000e+02,3.470000000000000000e+02,2.980000000000000000e+02,1.300000000000000000e+02,1.270000000000000000e+02,1.300000000000000000e+02,1.420000000000000000e+02,5.300000000000000266e-01,4.268743600000000000e+09
1.450000000000000000e+02,4.020000000000000000e+02,3.120000000000000000e+02,2.660000000000000000e+02,1.170000000000000000e+02,1.050000000000000000e+02,1.280000000000000000e+02,1.170000000000000000e+02,5.200000000000000178e-01,4.287213700000000000e+09
1.460000000000000000e+02,3.910000000000000000e+02,2.550000000000000000e+02,3.000000000000000000e+02,1.200000000000000000e+02,1.100000000000000000e+02,1.430000000000000000e+02,1.140000000000000000e+02,5.100000000000000089e-01,4.304230800000000000e+09
1.460000000000000000e+02,3.650000000000000000e+02,2.150000000000000000e+02,3.060000000000000000e+02,1.200000000000000000e+02,1.130000000000000000e+02,1.650000000000000000e+02,1.290000000000000000e+02,5.100000000000000089e-01,4.322758300000000000e+09
1.430000000000000000e+02,2.560000000000000000e+02,1.680000000000000000e+02,2.590000000000000000e+02,1.220000000000000000e+02,1.370000000000000000e+02,2.260000000000000000e+02,1.450000000000000000e+02,5.100000000000000089e-01,4.339980400000000000e+09
1.790000000000000000e+02,2.210000000000000000e+02,1.590000000000000000e+02,2.540000000000000000e+02,1.290000000000000000e+02,1.490000000000000000e+02,2.550000000000000000e+02,2.150000000000000000e+02,5.100000000000000089e-01,4.356566900000000000e+09
1.910000000000000000e+02,3.450000000000000000e+02,2.640000000000000000e+02,2.460000000000000000e+02,1.300000000000000000e+02,1.380000000000000000e+02,2.500000000000000000e+02,2.430000000000000000e+02,5.100000000000000089e-01,4.374921800000000000e+09
1.810000000000000000e+02,3.660000000000000000e+02,2.650000000000000000e+02,2.180000000000000000e+02,1.170000000000000000e+02,1.250000000000000000e+02,2.510000000000000000e+02,2.420000000000000000e+02,5.100000000000000089e-01,4.393132700000000000e+09
2.290000000000000000e+02,4.940000000000000000e+02,2.680000000000000000e+02,2.320000000000000000e+02,1.110000000000000000e+02,1.220000000000000000e+02,2.580000000000000000e+02,2.390000000000000000e+02,5.100000000000000089e-01,4.409979900000000000e+09
2.270000000000000000e+02,5.170000000000000000e+02,2.670000000000000000e+02,2.440000000000000000e+02,1.050000000000000000e+02,9.900000000000000000e+01,2.230000000000000000e+02,2.400000000000000000e+02,5.100000000000000089e-01,4.427604200000000000e+09
2.060000000000000000e+02,5.190000000000000000e+02,2.640000000000000000e+02,2.570000000000000000e+02,9.500000000000000000e+01,7.200000000000000000e+01,1.950000000000000000e+02,1.840000000000000000e+02,5.200000000000000178e-01,4.445246100000000000e+09
2.000000000000000000e+02,4.690000000000000000e+02,2.570000000000000000e+02,2.560000000000000000e+02,8.900000000000000000e+01,8.200000000000000000e+01,1.830000000000000000e+02,1.500000000000000000e+02,5.200000000000000178e-01,4.464692600000000000e+09
2.060000000000000000e+02,4.320000000000000000e+02,2.640000000000000000e+02,2.530000000000000000e+02,1.040000000000000000e+02,9.500000000000000000e+01,1.700000000000000000e+02,1.980000000000000000e+02,5.300000000000000266e-01,4.482922800000000000e+09
1.520000000000000000e+02,2.870000000000000000e+02,2.670000000000000000e+02,2.830000000000000000e+02,1.090000000000000000e+02,9.800000000000000000e+01,1.590000000000000000e+02,2.390000000000000000e+02,5.300000000000000266e-01,4.502303100000000000e+09
1.370000000000000000e+02,2.440000000000000000e+02,2.640000000000000000e+02,2.690000000000000000e+02,1.180000000000000000e+02,1.020000000000000000e+02,1.410000000000000000e+02,2.240000000000000000e+02,5.300000000000000266e-01,4.520627600000000000e+09
1.260000000000000000e+02,2.330000000000000000e+02,2.610000000000000000e+02,2.430000000000000000e+02,1.170000000000000000e+02,1.240000000000000000e+02,1.450000000000000000e+02,2.220000000000000000e+02,5.300000000000000266e-01,4.539005200000000000e+09
1.190000000000000000e+02,1.730000000000000000e+02,1.630000000000000000e+02,2.470000000000000000e+02,1.200000000000000000e+02,1.220000000000000000e+02,1.650000000000000000e+02,2.220000000000000000e+02,5.300000000000000266e-01,4.556632500000000000e+09
9.900000000000000000e+01,1.530000000000000000e+02,1.340000000000000000e+02,2.370000000000000000e+02,1.070000000000000000e+02,1.220000000000000000e+02,1.750000000000000000e+02,1.800000000000000000e+02,5.300000000000000266e-01,4.575156600000000000e+09
9.800000000000000000e+01,1.130000000000000000e+02,1.170000000000000000e+02,1.910000000000000000e+02,1.050000000000000000e+02,1.230000000000000000e+02,1.750000000000000000e+02,1.130000000000000000e+02,5.400000000000000355e-01,4.592986300000000000e+09
1.100000000000000000e+02,9.500000000000000000e+01,1.090000000000000000e+02,1.820000000000000000e+02,1.030000000000000000e+02,1.290000000000000000e+02,1.950000000000000000e+02,1.060000000000000000e+02,5.500000000000000444e-01,4.611814200000000000e+09
9.900000000000000000e+01,9.500000000000000000e+01,1.360000000000000000e+02,2.190000000000000000e+02,1.380000000000000000e+02,1.540000000000000000e+02,2.290000000000000000e+02,1.080000000000000000e+02,5.500000000000000444e-01,4.630761500000000000e+09
1.100000000000000000e+02,9.500000000000000000e+01,1.330000000000000000e+02,2.250000000000000000e+02,1.350000000000000000e+02,1.560000000000000000e+02,2.180000000000000000e+02,1.050000000000000000e+02,5.600000000000000533e-01,4.649713400000000000e+09
1.230000000000000000e+02,8.800000000000000000e+01,1.270000000000000000e+02,2.260000000000000000e+02,1.410000000000000000e+02,1.560000000000000000e+02,2.180000000000000000e+02,1.020000000000000000e+02,5.600000000000000533e-01,4.667669200000000000e+09
1.180000000000000000e+02,9.700000000000000000e+01,1.330000000000000000e+02,2.150000000000000000e+02,1.450000000000000000e+02,1.990000000000000000e+02,2.110000000000000000e+02,9.000000000000000000e+01,5.600000000000000533e-01,4.685972400000000000e+09
1.050000000000000000e+02,9.700000000000000000e+01,1.750000000000000000e+02,2.880000000000000000e+02,1.520000000000000000e+02,2.280000000000000000e+02,1.950000000000000000e+02,9.000000000000000000e+01,5.600000000000000533e-01,4.704206700000000000e+09
1.160000000000000000e+02,8.400000000000000000e+01,1.590000000000000000e+02,2.750000000000000000e+02,1.190000000000000000e+02,2.690000000000000000e+02,1.500000000000000000e+02,7.500000000000000000e+01,5.600000000000000533e-01,4.721751700000000000e+09
1.000000000000000000e+02,7.200000000000000000e+01,1.570000000000000000e+02,2.900000000000000000e+02,1.120000000000000000e+02,3.010000000000000000e+02,1.430000000000000000e+02,6.400000000000000000e+01,5.699999999999999512e-01,4.740621600000000000e+09
8.000000000000000000e+01,6.600000000000000000e+01,1.610000000000000000e+02,2.850000000000000000e+02,1.280000000000000000e+02,3.040000000000000000e+02,1.370000000000000000e+02,5.800000000000000000e+01,5.799999999999999600e-01,4.758691300000000000e+09
8.400000000000000000e+01,5.300000000000000000e+01,1.720000000000000000e+02,2.820000000000000000e+02,1.260000000000000000e+02,2.780000000000000000e+02,1.380000000000000000e+02,6.200000000000000000e+01,5.899999999999999689e-01,4.776926900000000000e+09
8.100000000000000000e+01,4.800000000000000000e+01,1.300000000000000000e+02,2.090000000000000000e+02,1.090000000000000000e+02,2.540000000000000000e+02,1.570000000000000000e+02,5.600000000000000000e+01,5.899999999999999689e-01,4.794703200000000000e+09
6.400000000000000000e+01,4.600000000000000000e+01,1.390000000000000000e+02,2.300000000000000000e+02,1.050000000000000000e+02,1.870000000000000000e+02,1.590000000000000000e+02,5.400000000000000000e+01,5.999999999999999778e-01,4.813451500000000000e+09
6.200000000000000000e+01,5.900000000000000000e+01,1.800000000000000000e+02,2.010000000000000000e+02,1.020000000000000000e+02,1.340000000000000000e+02,2.070000000000000000e+02,5.900000000000000000e+01,5.999999999999999778e-01,4.831627200000000000e+09
8.000000000000000000e+01,6.400000000000000000e+01,1.910000000000000000e+02,2.020000000000000000e+02,7.400000000000000000e+01,1.240000000000000000e+02,2.360000000000000000e+02,6.900000000000000000e+01,6.099999999999999867e-01,4.850691300000000000e+09
6.900000000000000000e+01,6.100000000000000000e+01,1.750000000000000000e+02,1.960000000000000000e+02,6.700000000000000000e+01,1.200000000000000000e+02,2.250000000000000000e+02,6.200000000000000000e+01,6.099999999999999867e-01,4.872682500000000000e+09
6.700000000000000000e+01,6.000000000000000000e+01,1.760000000000000000e+02,1.910000000000000000e+02,6.200000000000000000e+01,1.130000000000000000e+02,2.130000000000000000e+02,6.300000000000000000e+01,6.099999999999999867e-01,4.895010800000000000e+09
9.000000000000000000e+01,6.000000000000000000e+01,1.710000000000000000e+02,1.260000000000000000e+02,5.800000000000000000e+01,1.020000000000000000e+02,2.080000000000000000e+02,7.800000000000000000e+01,6.199999999999999956e-01,4.912972700000000000e+09
9.700000000000000000e+01,4.600000000000000000e+01,1.190000000000000000e+02,1.080000000000000000e+02,5.700000000000000000e+01,8.500000000000000000e+01,1.580000000000000000e+02,8.600000000000000000e+01,6.199999999999999956e-01,4.931411700000000000e+09
8.400000000000000000e+01,4.900000000000000000e+01,1.220000000000000000e+02,1.290000000000000000e+02,5.800000000000000000e+01,8.100000000000000000e+01,1.210000000000000000e+02,7.600000000000000000e+01,6.199999999999999956e-01,4.950498600000000000e+09
8.900000000000000000e+01,5.500000000000000000e+01,1.270000000000000000e+02,1.280000000000000000e+02,6.100000000000000000e+01,8.000000000000000000e+01,1.310000000000000000e+02,7.600000000000000000e+01,6.099999999999999867e-01,4.972854700000000000e+09
9.500000000000000000e+01,5.500000000000000000e+01,1.330000000000000000e+02,1.230000000000000000e+02,6.200000000000000000e+01,7.200000000000000000e+01,1.280000000000000000e+02,7.700000000000000000e+01,6.099999999999999867e-01,4.994920200000000000e+09
8.800000000000000000e+01,6.100000000000000000e+01,1.290000000000000000e+02,1.260000000000000000e+02,5.800000000000000000e+01,7.100000000000000000e+01,1.350000000000000000e+02,6.800000000000000000e+01,5.999999999999999778e-01,5.013667000000000000e+09
9.000000000000000000e+01,5.900000000000000000e+01,1.280000000000000000e+02,1.410000000000000000e+02,6.000000000000000000e+01,7.200000000000000000e+01,1.450000000000000000e+02,5.200000000000000000e+01,5.999999999999999778e-01,5.033407200000000000e+09
9.800000000000000000e+01,6.500000000000000000e+01,1.210000000000000000e+02,1.060000000000000000e+02,5.400000000000000000e+01,8.100000000000000000e+01,1.630000000000000000e+02,5.900000000000000000e+01,5.999999999999999778e-01,5.052376400000000000e+09
9.500000000000000000e+01,6.200000000000000000e+01,1.200000000000000000e+02,1.050000000000000000e+02,5.600000000000000000e+01,8.400000000000000000e+01,1.660000000000000000e+02,6.000000000000000000e+01,5.899999999999999689e-01,5.072629500000000000e+09
9.500000000000000000e+01,7.000000000000000000e+01,1.230000000000000000e+02,1.080000000000000000e+02,6.100000000000000000e+01,8.500000000000000000e+01,1.660000000000000000e+02,6.100000000000000000e+01,5.899999999999999689e-01,5.094915900000000000e+09
8.400000000000000000e+01,6.500000000000000000e+01,1.300000000000000000e+02,1.130000000000000000e+02,5.900000000000000000e+01,8.500000000000000000e+01,1.930000000000000000e+02,6.800000000000000000e+01,5.799999999999999600e-01,5.113330000000000000e+09
7.200000000000000000e+01,6.400000000000000000e+01,1.340000000000000000e+02,9.600000000000000000e+01,5.600000000000000000e+01,8.500000000000000000e+01,1.910000000000000000e+02,7.300000000000000000e+01,5.799999999999999600e-01,5.132563900000000000e+09
6.900000000000000000e+01,8.100000000000000000e+01,1.240000000000000000e+02,8.800000000000000000e+01,5.200000000000000000e+01,7.400000000000000000e+01,1.820000000000000000e+02,8.100000000000000000e+01,5.699999999999999512e-01,5.150977200000000000e+09
7.000000000000000000e+01,8.300000000000000000e+01,1.270000000000000000e+02,9.000000000000000000e+01,6.100000000000000000e+01,7.800000000000000000e+01,2.250000000000000000e+02,9.200000000000000000e+01,5.699999999999999512e-01,5.172531300000000000e+09
6.000000000000000000e+01,7.800000000000000000e+01,1.170000000000000000e+02,8.500000000000000000e+01,6.100000000000000000e+01,8.700000000000000000e+01,2.400000000000000000e+02,9.200000000000000000e+01,5.699999999999999512e-01,5.195035000000000000e+09
5.500000000000000000e+01,7.800000000000000000e+01,9.900000000000000000e+01,6.800000000000000000e+01,6.300000000000000000e+01,8.300000000000000000e+01,2.130000000000000000e+02,8.400000000000000000e+01,5.600000000000000533e-01,5.213407400000000000e+09
5.600000000000000000e+01,7.900000000000000000e+01,1.040000000000000000e+02,1.060000000000000000e+02,9.100000000000000000e+01,1.010000000000000000e+02,2.480000000000000000e+02,8.400000000000000000e+01,5.600000000000000533e-01,5.233085100000000000e+09
5.200000000000000000e+01,5.700000000000000000e+01,1.230000000000000000e+02,1.490000000000000000e+02,1.030000000000000000e+02,1.110000000000000000e+02,2.510000000000000000e+02,7.100000000000000000e+01,5.600000000000000533e-01,5.251841700000000000e+09
5.300000000000000000e+01,5.300000000000000000e+01,2.370000000000000000e+02,1.830000000000000000e+02,1.010000000000000000e+02,1.090000000000000000e+02,2.110000000000000000e+02,6.300000000000000000e+01,5.500000000000000444e-01,5.273724600000000000e+09
5.000000000000000000e+01,4.800000000000000000e+01,2.410000000000000000e+02,1.910000000000000000e+02,1.100000000000000000e+02,1.160000000000000000e+02,2.450000000000000000e+02,6.100000000000000000e+01,5.500000000000000444e-01,5.291954700000000000e+09
6.000000000000000000e+01,4.600000000000000000e+01,2.530000000000000000e+02,2.150000000000000000e+02,1.130000000000000000e+02,1.220000000000000000e+02,2.780000000000000000e+02,6.000000000000000000e+01,5.500000000000000444e-01,5.310860700000000000e+09
6.100000000000000000e+01,4.900000000000000000e+01,2.550000000000000000e+02,2.700000000000000000e+02,9.500000000000000000e+01,1.130000000000000000e+02,2.560000000000000000e+02,5.600000000000000000e+01,5.600000000000000533e-01,5.329232600000000000e+09
6.100000000000000000e+01,4.500000000000000000e+01,2.500000000000000000e+02,2.550000000000000000e+02,9.500000000000000000e+01,1.110000000000000000e+02,2.510000000000000000e+02,8.200000000000000000e+01,5.600000000000000533e-01,5.351625700000000000e+09
8.500000000000000000e+01,6.900000000000000000e+01,1.630000000000000000e+02,2.450000000000000000e+02,9.500000000000000000e+01,1.090000000000000000e+02,2.540000000000000000e+02,8.000000000000000000e+01,5.699999999999999512e-01,5.373663700000000000e+09
9.200000000000000000e+01,7.500000000000000000e+01,1.720000000000000000e+02,2.580000000000000000e+02,8.200000000000000000e+01,1.000000000000000000e+02,2.340000000000000000e+02,8.700000000000000000e+01,5.799999999999999600e-01,5.392174500000000000e+09
9.000000000000000000e+01,8.600000000000000000e+01,1.890000000000000000e+02,3.030000000000000000e+02,9.000000000000000000e+01,9.800000000000000000e+01,1.980000000000000000e+02,8.900000000000000000e+01,5.799999999999999600e-01,5.412320400000000000e+09
9.000000000000000000e+01,8.600000000000000000e+01,1.830000000000000000e+02,2.760000000000000000e+02,9.800000000000000000e+01,9.100000000000000000e+01,1.900000000000000000e+02,9.100000000000000000e+01,5.899999999999999689e-01,5.431015800000000000e+09
9.200000000000000000e+01,8.800000000000000000e+01,1.880000000000000000e+02,2.750000000000000000e+02,9.500000000000000000e+01,8.300000000000000000e+01,1.910000000000000000e+02,7.100000000000000000e+01,5.999999999999999778e-01,5.451378300000000000e+09
7.300000000000000000e+01,7.400000000000000000e+01,1.850000000000000000e+02,2.710000000000000000e+02,9.200000000000000000e+01,8.700000000000000000e+01,2.010000000000000000e+02,6.800000000000000000e+01,6.099999999999999867e-01,5.473837700000000000e+09
6.800000000000000000e+01,7.300000000000000000e+01,1.920000000000000000e+02,3.300000000000000000e+02,1.010000000000000000e+02,8.600000000000000000e+01,1.690000000000000000e+02,5.900000000000000000e+01,6.300000000000000044e-01,5.492319900000000000e+09
7.100000000000000000e+01,6.000000000000000000e+01,1.630000000000000000e+02,2.880000000000000000e+02,9.000000000000000000e+01,8.000000000000000000e+01,1.740000000000000000e+02,5.700000000000000000e+01,6.400000000000000133e-01,5.510922000000000000e+09
7.300000000000000000e+01,5.900000000000000000e+01,1.700000000000000000e+02,3.080000000000000000e+02,8.000000000000000000e+01,8.000000000000000000e+01,1.780000000000000000e+02,5.700000000000000000e+01,6.500000000000000222e-01,5.530815700000000000e+09
7.200000000000000000e+01,6.300000000000000000e+01,1.670000000000000000e+02,3.640000000000000000e+02,8.400000000000000000e+01,8.400000000000000000e+01,1.660000000000000000e+02,5.800000000000000000e+01,6.600000000000000311e-01,5.551852100000000000e+09
7.700000000000000000e+01,6.100000000000000000e+01,1.540000000000000000e+02,3.790000000000000000e+02,9.400000000000000000e+01,8.000000000000000000e+01,1.790000000000000000e+02,6.200000000000000000e+01,6.700000000000000400e-01,5.573918000000000000e+09
8.800000000000000000e+01,6.400000000000000000e+01,1.440000000000000000e+02,3.170000000000000000e+02,9.300000000000000000e+01,8.200000000000000000e+01,1.910000000000000000e+02,6.500000000000000000e+01,6.800000000000000488e-01,5.594674500000000000e+09
1.000000000000000000e+02,8.600000000000000000e+01,1.900000000000000000e+02,3.640000000000000000e+02,1.570000000000000000e+02,1.390000000000000000e+02,2.430000000000000000e+02,9.600000000000000000e+01,6.800000000000000488e-01,5.613565900000000000e+09
1.140000000000000000e+02,9.000000000000000000e+01,1.920000000000000000e+02,3.640000000000000000e+02,1.720000000000000000e+02,1.500000000000000000e+02,2.630000000000000000e+02,1.070000000000000000e+02,6.800000000000000488e-01,5.632821000000000000e+09
1.220000000000000000e+02,8.500000000000000000e+01,1.920000000000000000e+02,3.580000000000000000e+02,1.710000000000000000e+02,1.570000000000000000e+02,2.780000000000000000e+02,1.250000000000000000e+02,6.700000000000000400e-01,5.651724900000000000e+09
1.310000000000000000e+02,8.700000000000000000e+01,2.050000000000000000e+02,3.460000000000000000e+02,1.680000000000000000e+02,1.640000000000000000e+02,2.730000000000000000e+02,1.360000000000000000e+02,6.700000000000000400e-01,5.673322900000000000e+09
1.340000000000000000e+02,8.600000000000000000e+01,2.090000000000000000e+02,4.210000000000000000e+02,1.670000000000000000e+02,1.580000000000000000e+02,2.640000000000000000e+02,1.430000000000000000e+02,6.600000000000000311e-01,5.691887100000000000e+09
1.430000000000000000e+02,9.000000000000000000e+01,1.970000000000000000e+02,4.180000000000000000e+02,1.410000000000000000e+02,1.400000000000000000e+02,2.340000000000000000e+02,1.410000000000000000e+02,6.600000000000000311e-01,5.712812200000000000e+09
1.390000000000000000e+02,1.110000000000000000e+02,2.570000000000000000e+02,4.900000000000000000e+02,1.940000000000000000e+02,1.380000000000000000e+02,2.350000000000000000e+02,1.350000000000000000e+02,6.600000000000000311e-01,5.732414100000000000e+09
1.360000000000000000e+02,1.190000000000000000e+02,2.710000000000000000e+02,4.930000000000000000e+02,2.080000000000000000e+02,1.730000000000000000e+02,2.490000000000000000e+02,1.230000000000000000e+02,6.500000000000000222e-01,5.752762500000000000e+09
1.420000000000000000e+02,1.240000000000000000e+02,2.690000000000000000e+02,5.370000000000000000e+02,2.300000000000000000e+02,1.740000000000000000e+02,2.450000000000000000e+02,1.130000000000000000e+02,6.400000000000000133e-01,5.773134700000000000e+09
1.600000000000000000e+02,1.270000000000000000e+02,2.700000000000000000e+02,5.020000000000000000e+02,2.290000000000000000e+02,1.800000000000000000e+02,2.900000000000000000e+02,1.260000000000000000e+02,6.300000000000000044e-01,5.792561600000000000e+09
1.530000000000000000e+02,1.120000000000000000e+02,2.510000000000000000e+02,4.790000000000000000e+02,2.150000000000000000e+02,1.620000000000000000e+02,2.730000000000000000e+02,1.130000000000000000e+02,6.199999999999999956e-01,5.811503000000000000e+09
1.490000000000000000e+02,9.200000000000000000e+01,1.990000000000000000e+02,4.140000000000000000e+02,1.700000000000000000e+02,1.630000000000000000e+02,2.500000000000000000e+02,1.080000000000000000e+02,6.099999999999999867e-01,5.829519900000000000e+09
1.460000000000000000e+02,8.400000000000000000e+01,1.860000000000000000e+02,4.230000000000000000e+02,1.840000000000000000e+02,1.380000000000000000e+02,2.370000000000000000e+02,1.050000000000000000e+02,5.999999999999999778e-01,5.850878900000000000e+09
1.420000000000000000e+02,7.900000000000000000e+01,2.030000000000000000e+02,4.020000000000000000e+02,1.610000000000000000e+02,1.560000000000000000e+02,2.590000000000000000e+02,1.180000000000000000e+02,5.999999999999999778e-01,5.873138000000000000e+09
1.110000000000000000e+02,7.300000000000000000e+01,2.020000000000000000e+02,4.090000000000000000e+02,1.710000000000000000e+02,1.530000000000000000e+02,2.140000000000000000e+02,1.100000000000000000e+02,5.999999999999999778e-01,5.892701500000000000e+09
1.160000000000000000e+02,7.600000000000000000e+01,2.150000000000000000e+02,4.430000000000000000e+02,1.830000000000000000e+02,1.590000000000000000e+02,2.130000000000000000e+02,1.110000000000000000e+02,5.999999999999999778e-01,5.911292700000000000e+09
1.220000000000000000e+02,9.100000000000000000e+01,2.040000000000000000e+02,5.120000000000000000e+02,1.960000000000000000e+02,1.640000000000000000e+02,2.460000000000000000e+02,1.140000000000000000e+02,5.999999999999999778e-01,5.930235200000000000e+09
1.370000000000000000e+02,9.300000000000000000e+01,2.010000000000000000e+02,5.310000000000000000e+02,2.200000000000000000e+02,1.670000000000000000e+02,2.330000000000000000e+02,1.120000000000000000e+02,5.899999999999999689e-01,5.950798900000000000e+09
1.530000000000000000e+02,8.700000000000000000e+01,2.030000000000000000e+02,5.090000000000000000e+02,2.200000000000000000e+02,1.440000000000000000e+02,1.910000000000000000e+02,1.100000000000000000e+02,5.899999999999999689e-01,5.973432800000000000e+09
1.560000000000000000e+02,9.200000000000000000e+01,1.940000000000000000e+02,4.890000000000000000e+02,2.140000000000000000e+02,1.390000000000000000e+02,1.850000000000000000e+02,1.340000000000000000e+02,5.899999999999999689e-01,5.992859300000000000e+09
1.450000000000000000e+02,9.000000000000000000e+01,1.820000000000000000e+02,4.490000000000000000e+02,2.030000000000000000e+02,1.310000000000000000e+02,1.820000000000000000e+02,1.330000000000000000e+02,5.799999999999999600e-01,6.012395300000000000e+09
1.370000000000000000e+02,7.600000000000000000e+01,1.730000000000000000e+02,3.180000000000000000e+02,1.760000000000000000e+02,1.100000000000000000e+02,1.210000000000000000e+02,1.330000000000000000e+02,5.799999999999999600e-01,6.030579100000000000e+09
1.160000000000000000e+02,7.300000000000000000e+01,1.630000000000000000e+02,1.880000000000000000e+02,9.600000000000000000e+01,7.600000000000000000e+01,1.000000000000000000e+02,1.300000000000000000e+02,5.799999999999999600e-01,6.051677200000000000e+09
7.000000000000000000e+01,7.800000000000000000e+01,1.350000000000000000e+02,1.530000000000000000e+02,8.000000000000000000e+01,6.600000000000000000e+01,9.300000000000000000e+01,1.150000000000000000e+02,5.799999999999999600e-01,6.073918700000000000e+09
5.500000000000000000e+01,8.300000000000000000e+01,1.650000000000000000e+02,1.290000000000000000e+02,7.300000000000000000e+01,6.600000000000000000e+01,7.200000000000000000e+01,6.500000000000000000e+01,5.799999999999999600e-01,6.091907600000000000e+09
7.400000000000000000e+01,8.400000000000000000e+01,1.840000000000000000e+02,9.400000000000000000e+01,6.200000000000000000e+01,5.800000000000000000e+01,5.600000000000000000e+01,5.500000000000000000e+01,5.699999999999999512e-01,6.111377000000000000e+09
8.700000000000000000e+01,1.560000000000000000e+02,2.200000000000000000e+02,9.700000000000000000e+01,1.070000000000000000e+02,1.020000000000000000e+02,9.600000000000000000e+01,5.200000000000000000e+01,5.699999999999999512e-01,6.132480600000000000e+09
8.700000000000000000e+01,1.590000000000000000e+02,2.220000000000000000e+02,9.700000000000000000e+01,1.160000000000000000e+02,1.080000000000000000e+02,1.040000000000000000e+02,5.600000000000000000e+01,5.600000000000000533e-01,6.152333600000000000e+09
9.600000000000000000e+01,1.840000000000000000e+02,2.170000000000000000e+02,9.800000000000000000e+01,1.190000000000000000e+02,1.130000000000000000e+02,1.080000000000000000e+02,6.000000000000000000e+01,5.600000000000000533e-01,6.173835600000000000e+09
1.160000000000000000e+02,1.890000000000000000e+02,2.090000000000000000e+02,1.040000000000000000e+02,1.240000000000000000e+02,1.240000000000000000e+02,1.180000000000000000e+02,7.600000000000000000e+01,5.500000000000000444e-01,6.192337600000000000e+09
1.060000000000000000e+02,1.920000000000000000e+02,1.970000000000000000e+02,1.240000000000000000e+02,1.350000000000000000e+02,1.290000000000000000e+02,1.350000000000000000e+02,7.700000000000000000e+01,5.500000000000000444e-01,6.211869200000000000e+09
9.700000000000000000e+01,1.480000000000000000e+02,1.580000000000000000e+02,1.140000000000000000e+02,1.080000000000000000e+02,1.010000000000000000e+02,1.100000000000000000e+02,7.200000000000000000e+01,5.400000000000000355e-01,6.231351600000000000e+09
1.170000000000000000e+02,2.290000000000000000e+02,2.160000000000000000e+02,1.600000000000000000e+02,1.080000000000000000e+02,1.010000000000000000e+02,1.250000000000000000e+02,9.100000000000000000e+01,5.400000000000000355e-01,6.251754800000000000e+09
1.160000000000000000e+02,2.750000000000000000e+02,3.000000000000000000e+02,1.870000000000000000e+02,1.280000000000000000e+02,1.180000000000000000e+02,1.390000000000000000e+02,1.130000000000000000e+02,5.400000000000000355e-01,6.274232000000000000e+09
1.120000000000000000e+02,2.760000000000000000e+02,2.950000000000000000e+02,1.870000000000000000e+02,1.280000000000000000e+02,1.180000000000000000e+02,1.410000000000000000e+02,1.110000000000000000e+02,5.400000000000000355e-01,6.292947200000000000e+09
1.100000000000000000e+02,2.770000000000000000e+02,2.910000000000000000e+02,1.760000000000000000e+02,1.170000000000000000e+02,1.150000000000000000e+02,1.280000000000000000e+02,1.090000000000000000e+02,5.400000000000000355e-01,6.312483300000000000e+09
1.280000000000000000e+02,3.210000000000000000e+02,3.900000000000000000e+02,1.810000000000000000e+02,1.200000000000000000e+02,1.160000000000000000e+02,1.410000000000000000e+02,1.950000000000000000e+02,5.300000000000000266e-01,6.331042100000000000e+09
1.140000000000000000e+02,2.950000000000000000e+02,3.780000000000000000e+02,1.480000000000000000e+02,1.130000000000000000e+02,1.190000000000000000e+02,2.270000000000000000e+02,1.970000000000000000e+02,5.300000000000000266e-01,6.352374600000000000e+09
1.090000000000000000e+02,2.390000000000000000e+02,3.240000000000000000e+02,1.110000000000000000e+02,8.800000000000000000e+01,1.030000000000000000e+02,2.530000000000000000e+02,1.870000000000000000e+02,5.200000000000000178e-01,6.374932700000000000e+09
9.400000000000000000e+01,2.350000000000000000e+02,3.180000000000000000e+02,9.900000000000000000e+01,8.000000000000000000e+01,1.000000000000000000e+02,2.630000000000000000e+02,1.860000000000000000e+02,5.200000000000000178e-01,6.393533100000000000e+09
9.000000000000000000e+01,2.320000000000000000e+02,3.180000000000000000e+02,9.400000000000000000e+01,7.800000000000000000e+01,1.090000000000000000e+02,2.700000000000000000e+02,1.870000000000000000e+02,5.200000000000000178e-01,6.413080800000000000e+09
9.700000000000000000e+01,1.800000000000000000e+02,1.860000000000000000e+02,7.600000000000000000e+01,6.800000000000000000e+01,1.100000000000000000e+02,2.740000000000000000e+02,1.020000000000000000e+02,5.200000000000000178e-01,6.433087300000000000e+09
1.080000000000000000e+02,1.300000000000000000e+02,1.380000000000000000e+02,5.700000000000000000e+01,5.800000000000000000e+01,1.070000000000000000e+02,2.360000000000000000e+02,8.500000000000000000e+01,5.200000000000000178e-01,6.452724200000000000e+09
1.290000000000000000e+02,1.220000000000000000e+02,1.010000000000000000e+02,4.400000000000000000e+01,4.900000000000000000e+01,1.070000000000000000e+02,2.070000000000000000e+02,9.500000000000000000e+01,5.200000000000000178e-01,6.471545000000000000e+09
1.850000000000000000e+02,1.430000000000000000e+02,1.080000000000000000e+02,9.100000000000000000e+01,6.800000000000000000e+01,1.070000000000000000e+02,2.100000000000000000e+02,1.330000000000000000e+02,5.100000000000000089e-01,6.491070700000000000e+09
1.880000000000000000e+02,1.420000000000000000e+02,1.140000000000000000e+02,1.380000000000000000e+02,8.000000000000000000e+01,1.130000000000000000e+02,2.200000000000000000e+02,1.810000000000000000e+02,5.100000000000000089e-01,6.510906300000000000e+09
1.780000000000000000e+02,1.140000000000000000e+02,1.110000000000000000e+02,1.570000000000000000e+02,9.100000000000000000e+01,1.200000000000000000e+02,2.230000000000000000e+02,1.960000000000000000e+02,5.100000000000000089e-01,6.529561200000000000e+09
1.780000000000000000e+02,1.140000000000000000e+02,1.220000000000000000e+02,1.830000000000000000e+02,1.130000000000000000e+02,1.300000000000000000e+02,2.230000000000000000e+02,1.990000000000000000e+02,5.100000000000000089e-01,6.551856900000000000e+09
1.800000000000000000e+02,1.200000000000000000e+02,1.440000000000000000e+02,2.370000000000000000e+02,1.360000000000000000e+02,1.430000000000000000e+02,3.310000000000000000e+02,2.050000000000000000e+02,5.100000000000000089e-01,6.574053400000000000e+09
1.300000000000000000e+02,8.400000000000000000e+01,1.380000000000000000e+02,2.340000000000000000e+02,1.320000000000000000e+02,1.460000000000000000e+02,3.440000000000000000e+02,1.900000000000000000e+02,5.100000000000000089e-01,6.593675400000000000e+09
1.400000000000000000e+02,7.800000000000000000e+01,1.620000000000000000e+02,2.690000000000000000e+02,1.410000000000000000e+02,1.350000000000000000e+02,3.490000000000000000e+02,1.520000000000000000e+02,5.100000000000000089e-01,6.611524300000000000e+09
1.410000000000000000e+02,7.500000000000000000e+01,1.740000000000000000e+02,2.860000000000000000e+02,1.430000000000000000e+02,1.350000000000000000e+02,3.570000000000000000e+02,1.330000000000000000e+02,5.200000000000000178e-01,6.630231600000000000e+09
1.340000000000000000e+02,7.900000000000000000e+01,1.820000000000000000e+02,2.930000000000000000e+02,1.430000000000000000e+02,1.290000000000000000e+02,3.470000000000000000e+02,1.290000000000000000e+02,5.200000000000000178e-01,6.653746000000000000e+09
1.250000000000000000e+02,7.900000000000000000e+01,1.680000000000000000e+02,2.930000000000000000e+02,1.420000000000000000e+02,1.160000000000000000e+02,2.820000000000000000e+02,1.230000000000000000e+02,5.200000000000000178e-01,6.673905200000000000e+09
1.230000000000000000e+02,7.400000000000000000e+01,1.690000000000000000e+02,3.170000000000000000e+02,1.710000000000000000e+02,1.250000000000000000e+02,2.780000000000000000e+02,1.080000000000000000e+02,5.200000000000000178e-01,6.693916700000000000e+09
1.170000000000000000e+02,8.100000000000000000e+01,1.780000000000000000e+02,3.560000000000000000e+02,1.950000000000000000e+02,1.700000000000000000e+02,3.480000000000000000e+02,1.110000000000000000e+02,5.300000000000000266e-01,6.712908200000000000e+09
1.140000000000000000e+02,8.500000000000000000e+01,1.700000000000000000e+02,3.540000000000000000e+02,1.930000000000000000e+02,1.720000000000000000e+02,3.470000000000000000e+02,1.140000000000000000e+02,5.300000000000000266e-01,6.731838200000000000e+09
1.190000000000000000e+02,8.100000000000000000e+01,1.560000000000000000e+02,3.390000000000000000e+02,1.870000000000000000e+02,1.670000000000000000e+02,3.410000000000000000e+02,1.140000000000000000e+02,5.300000000000000266e-01,6.751042200000000000e+09
1.130000000000000000e+02,7.700000000000000000e+01,1.600000000000000000e+02,3.230000000000000000e+02,1.830000000000000000e+02,1.820000000000000000e+02,3.460000000000000000e+02,1.100000000000000000e+02,5.300000000000000266e-01,6.773386200000000000e+09
1.120000000000000000e+02,8.000000000000000000e+01,1.650000000000000000e+02,3.230000000000000000e+02,1.570000000000000000e+02,1.750000000000000000e+02,3.460000000000000000e+02,1.150000000000000000e+02,5.300000000000000266e-01,6.792904800000000000e+09
1.150000000000000000e+02,7.100000000000000000e+01,1.370000000000000000e+02,2.490000000000000000e+02,1.130000000000000000e+02,1.330000000000000000e+02,2.670000000000000000e+02,1.070000000000000000e+02,5.300000000000000266e-01,6.811355200000000000e+09
1.100000000000000000e+02,6.600000000000000000e+01,1.370000000000000000e+02,2.290000000000000000e+02,1.120000000000000000e+02,1.270000000000000000e+02,2.610000000000000000e+02,9.600000000000000000e+01,5.400000000000000355e-01,6.831018300000000000e+09
1.030000000000000000e+02,6.700000000000000000e+01,1.360000000000000000e+02,2.290000000000000000e+02,1.080000000000000000e+02,1.370000000000000000e+02,2.690000000000000000e+02,9.900000000000000000e+01,5.400000000000000355e-01,6.851161300000000000e+09
1.020000000000000000e+02,6.300000000000000000e+01,1.410000000000000000e+02,2.360000000000000000e+02,1.070000000000000000e+02,1.220000000000000000e+02,2.450000000000000000e+02,9.300000000000000000e+01,5.400000000000000355e-01,6.873269500000000000e+09
1.230000000000000000e+02,5.700000000000000000e+01,1.250000000000000000e+02,2.100000000000000000e+02,1.000000000000000000e+02,1.150000000000000000e+02,2.180000000000000000e+02,8.000000000000000000e+01,5.500000000000000444e-01,6.891707900000000000e+09
1.280000000000000000e+02,5.700000000000000000e+01,1.130000000000000000e+02,1.840000000000000000e+02,1.040000000000000000e+02,1.130000000000000000e+02,2.100000000000000000e+02,8.000000000000000000e+01,5.500000000000000444e-01,6.909984600000000000e+09
1.280000000000000000e+02,5.500000000000000000e+01,1.080000000000000000e+02,1.890000000000000000e+02,1.150000000000000000e+02,1.330000000000000000e+02,1.920000000000000000e+02,7.900000000000000000e+01,5.500000000000000444e-01,6.929349900000000000e+09
1.270000000000000000e+02,5.600000000000000000e+01,1.760000000000000000e+02,3.240000000000000000e+02,1.830000000000000000e+02,1.410000000000000000e+02,2.000000000000000000e+02,8.600000000000000000e+01,5.500000000000000444e-01,6.950956100000000000e+09
1.200000000000000000e+02,5.500000000000000000e+01,2.050000000000000000e+02,3.800000000000000000e+02,2.180000000000000000e+02,1.670000000000000000e+02,1.850000000000000000e+02,9.600000000000000000e+01,5.500000000000000444e-01,6.973247400000000000e+09
1.040000000000000000e+02,5.600000000000000000e+01,2.140000000000000000e+02,3.900000000000000000e+02,2.210000000000000000e+02,1.660000000000000000e+02,1.840000000000000000e+02,9.800000000000000000e+01,5.600000000000000533e-01,6.991562300000000000e+09
8.300000000000000000e+01,6.600000000000000000e+01,2.350000000000000000e+02,3.920000000000000000e+02,2.180000000000000000e+02,1.670000000000000000e+02,1.780000000000000000e+02,9.700000000000000000e+01,5.600000000000000533e-01,7.010557700000000000e+09
8.000000000000000000e+01,6.700000000000000000e+01,2.530000000000000000e+02,3.940000000000000000e+02,2.150000000000000000e+02,1.470000000000000000e+02,1.820000000000000000e+02,9.900000000000000000e+01,5.500000000000000444e-01,7.030480600000000000e+09
7.800000000000000000e+01,6.200000000000000000e+01,2.180000000000000000e+02,3.010000000000000000e+02,1.590000000000000000e+02,1.290000000000000000e+02,1.400000000000000000e+02,8.500000000000000000e+01,5.500000000000000444e-01,7.050908400000000000e+09
7.300000000000000000e+01,5.800000000000000000e+01,1.890000000000000000e+02,2.400000000000000000e+02,9.200000000000000000e+01,8.000000000000000000e+01,1.050000000000000000e+02,6.100000000000000000e+01,5.500000000000000444e-01,7.073100800000000000e+09
6.600000000000000000e+01,6.600000000000000000e+01,1.890000000000000000e+02,2.360000000000000000e+02,1.080000000000000000e+02,7.900000000000000000e+01,9.000000000000000000e+01,5.800000000000000000e+01,5.500000000000000444e-01,7.091906300000000000e+09
7.900000000000000000e+01,5.800000000000000000e+01,1.750000000000000000e+02,2.620000000000000000e+02,1.180000000000000000e+02,7.700000000000000000e+01,8.200000000000000000e+01,6.500000000000000000e+01,5.500000000000000444e-01,7.110352000000000000e+09
8.700000000000000000e+01,5.900000000000000000e+01,1.660000000000000000e+02,2.620000000000000000e+02,1.090000000000000000e+02,8.200000000000000000e+01,8.400000000000000000e+01,6.300000000000000000e+01,5.500000000000000444e-01,7.128627700000000000e+09
9.000000000000000000e+01,6.700000000000000000e+01,1.680000000000000000e+02,2.490000000000000000e+02,1.090000000000000000e+02,8.200000000000000000e+01,8.500000000000000000e+01,6.800000000000000000e+01,5.600000000000000533e-01,7.150825800000000000e+09
9.400000000000000000e+01,6.500000000000000000e+01,1.620000000000000000e+02,2.240000000000000000e+02,1.060000000000000000e+02,8.100000000000000000e+01,9.100000000000000000e+01,7.100000000000000000e+01,5.600000000000000533e-01,7.173504900000000000e+09
9.400000000000000000e+01,5.600000000000000000e+01,1.560000000000000000e+02,1.970000000000000000e+02,8.200000000000000000e+01,8.900000000000000000e+01,1.920000000000000000e+02,8.800000000000000000e+01,5.600000000000000533e-01,7.192425300000000000e+09
8.300000000000000000e+01,5.200000000000000000e+01,1.470000000000000000e+02,1.480000000000000000e+02,5.900000000000000000e+01,8.800000000000000000e+01,2.030000000000000000e+02,8.000000000000000000e+01,5.699999999999999512e-01,7.210417900000000000e+09
7.200000000000000000e+01,5.200000000000000000e+01,1.220000000000000000e+02,1.270000000000000000e+02,5.400000000000000000e+01,7.700000000000000000e+01,2.010000000000000000e+02,7.700000000000000000e+01,5.699999999999999512e-01,7.230053300000000000e+09
6.800000000000000000e+01,4.000000000000000000e+01,1.310000000000000000e+02,1.280000000000000000e+02,4.700000000000000000e+01,7.000000000000000000e+01,2.040000000000000000e+02,7.100000000000000000e+01,5.799999999999999600e-01,7.252394800000000000e+09
7.400000000000000000e+01,4.300000000000000000e+01,1.300000000000000000e+02,9.000000000000000000e+01,5.600000000000000000e+01,7.300000000000000000e+01,2.040000000000000000e+02,7.200000000000000000e+01,5.799999999999999600e-01,7.274479600000000000e+09
6.300000000000000000e+01,4.200000000000000000e+01,1.290000000000000000e+02,8.300000000000000000e+01,5.300000000000000000e+01,6.200000000000000000e+01,1.180000000000000000e+02,5.100000000000000000e+01,5.799999999999999600e-01,7.292390600000000000e+09
6.100000000000000000e+01,4.300000000000000000e+01,1.180000000000000000e+02,8.100000000000000000e+01,6.500000000000000000e+01,6.400000000000000000e+01,1.070000000000000000e+02,4.300000000000000000e+01,5.699999999999999512e-01,7.312568200000000000e+09
6.300000000000000000e+01,4.200000000000000000e+01,1.140000000000000000e+02,8.300000000000000000e+01,7.600000000000000000e+01,6.600000000000000000e+01,1.250000000000000000e+02,5.100000000000000000e+01,5.699999999999999512e-01,7.330384200000000000e+09
6.700000000000000000e+01,5.000000000000000000e+01,9.000000000000000000e+01,1.090000000000000000e+02,9.300000000000000000e+01,7.400000000000000000e+01,1.380000000000000000e+02,6.000000000000000000e+01,5.699999999999999512e-01,7.352256600000000000e+09
7.400000000000000000e+01,5.500000000000000000e+01,9.700000000000000000e+01,1.190000000000000000e+02,1.070000000000000000e+02,8.100000000000000000e+01,1.500000000000000000e+02,6.800000000000000000e+01,5.600000000000000533e-01,7.374469300000000000e+09
1.520000000000000000e+02,1.000000000000000000e+02,9.200000000000000000e+01,1.190000000000000000e+02,1.190000000000000000e+02,8.900000000000000000e+01,1.660000000000000000e+02,1.750000000000000000e+02,5.500000000000000444e-01,7.393399500000000000e+09
1.750000000000000000e+02,1.110000000000000000e+02,8.900000000000000000e+01,1.210000000000000000e+02,1.190000000000000000e+02,9.400000000000000000e+01,1.740000000000000000e+02,1.900000000000000000e+02,5.500000000000000444e-01,7.412699200000000000e+09
1.750000000000000000e+02,1.090000000000000000e+02,8.700000000000000000e+01,1.180000000000000000e+02,1.160000000000000000e+02,1.110000000000000000e+02,1.610000000000000000e+02,1.900000000000000000e+02,5.400000000000000355e-01,7.432848700000000000e+09
1.760000000000000000e+02,1.080000000000000000e+02,7.800000000000000000e+01,9.000000000000000000e+01,1.090000000000000000e+02,1.350000000000000000e+02,1.960000000000000000e+02,1.940000000000000000e+02,5.300000000000000266e-01,7.453578900000000000e+09
1.710000000000000000e+02,1.070000000000000000e+02,1.110000000000000000e+02,8.800000000000000000e+01,9.500000000000000000e+01,1.310000000000000000e+02,1.910000000000000000e+02,1.960000000000000000e+02,5.300000000000000266e-01,7.474023400000000000e+09
1.180000000000000000e+02,6.900000000000000000e+01,1.570000000000000000e+02,8.900000000000000000e+01,8.100000000000000000e+01,1.270000000000000000e+02,1.760000000000000000e+02,1.130000000000000000e+02,5.200000000000000178e-01,7.492231600000000000e+09
8.000000000000000000e+01,5.500000000000000000e+01,1.630000000000000000e+02,8.400000000000000000e+01,7.700000000000000000e+01,1.230000000000000000e+02,1.740000000000000000e+02,9.000000000000000000e+01,5.200000000000000178e-01,7.510304400000000000e+09
8.300000000000000000e+01,5.800000000000000000e+01,1.820000000000000000e+02,1.030000000000000000e+02,7.500000000000000000e+01,1.070000000000000000e+02,1.680000000000000000e+02,9.300000000000000000e+01,5.100000000000000089e-01,7.531326100000000000e+09
9.800000000000000000e+01,5.600000000000000000e+01,1.840000000000000000e+02,1.090000000000000000e+02,7.000000000000000000e+01,7.400000000000000000e+01,1.170000000000000000e+02,8.000000000000000000e+01,5.100000000000000089e-01,7.551558900000000000e+09
1.040000000000000000e+02,5.000000000000000000e+01,1.790000000000000000e+02,1.020000000000000000e+02,7.200000000000000000e+01,6.800000000000000000e+01,1.080000000000000000e+02,6.600000000000000000e+01,5.100000000000000089e-01,7.573898400000000000e+09
9.300000000000000000e+01,4.700000000000000000e+01,1.480000000000000000e+02,1.030000000000000000e+02,7.600000000000000000e+01,7.400000000000000000e+01,1.080000000000000000e+02,7.500000000000000000e+01,5.100000000000000089e-01,7.592347700000000000e+09
1.010000000000000000e+02,4.100000000000000000e+01,1.720000000000000000e+02,1.160000000000000000e+02,8.100000000000000000e+01,7.600000000000000000e+01,9.800000000000000000e+01,7.100000000000000000e+01,5.000000000000000000e-01,7.611354400000000000e+09
9.700000000000000000e+01,3.600000000000000000e+01,1.510000000000000000e+02,1.030000000000000000e+02,8.400000000000000000e+01,8.600000000000000000e+01,1.200000000000000000e+02,6.500000000000000000e+01,5.000000000000000000e-01,7.629510900000000000e+09
8.500000000000000000e+01,3.900000000000000000e+01,1.580000000000000000e+02,9.600000000000000000e+01,8.400000000000000000e+01,8.600000000000000000e+01,1.230000000000000000e+02,7.100000000000000000e+01,5.000000000000000000e-01,7.651676300000000000e+09
8.600000000000000000e+01,5.000000000000000000e+01,1.480000000000000000e+02,1.020000000000000000e+02,9.000000000000000000e+01,9.700000000000000000e+01,1.450000000000000000e+02,7.000000000000000000e+01,5.000000000000000000e-01,7.673699400000000000e+09
8.200000000000000000e+01,4.800000000000000000e+01,1.380000000000000000e+02,9.800000000000000000e+01,9.600000000000000000e+01,1.180000000000000000e+02,1.480000000000000000e+02,5.600000000000000000e+01,5.000000000000000000e-01,7.692637900000000000e+09
8.600000000000000000e+01,7.000000000000000000e+01,1.020000000000000000e+02,8.800000000000000000e+01,9.500000000000000000e+01,1.180000000000000000e+02,1.540000000000000000e+02,5.300000000000000000e+01,5.000000000000000000e-01,7.711145600000000000e+09
1.120000000000000000e+02,7.200000000000000000e+01,1.000000000000000000e+02,9.000000000000000000e+01,9.900000000000000000e+01,1.180000000000000000e+02,1.620000000000000000e+02,5.100000000000000000e+01,5.000000000000000000e-01,7.730834200000000000e+09
1.150000000000000000e+02,7.000000000000000000e+01,9.100000000000000000e+01,9.000000000000000000e+01,9.900000000000000000e+01,1.150000000000000000e+02,1.520000000000000000e+02,4.200000000000000000e+01,5.000000000000000000e-01,7.758858100000000000e+09
1.100000000000000000e+02,6.600000000000000000e+01,1.350000000000000000e+02,8.400000000000000000e+01,9.200000000000000000e+01,1.120000000000000000e+02,1.450000000000000000e+02,5.200000000000000000e+01,5.000000000000000000e-01,7.778629000000000000e+09
1.150000000000000000e+02,6.800000000000000000e+01,1.420000000000000000e+02,7.900000000000000000e+01,8.000000000000000000e+01,8.600000000000000000e+01,1.450000000000000000e+02,5.600000000000000000e+01,5.000000000000000000e-01,7.797629700000000000e+09
1.110000000000000000e+02,4.500000000000000000e+01,1.400000000000000000e+02,7.300000000000000000e+01,7.500000000000000000e+01,7.800000000000000000e+01,1.510000000000000000e+02,5.900000000000000000e+01,4.899999999999999911e-01,7.816210400000000000e+09
8.400000000000000000e+01,4.400000000000000000e+01,1.410000000000000000e+02,7.500000000000000000e+01,8.000000000000000000e+01,8.100000000000000000e+01,1.370000000000000000e+02,6.300000000000000000e+01,4.899999999999999911e-01,7.834384600000000000e+09
7.100000000000000000e+01,4.500000000000000000e+01,1.470000000000000000e+02,8.500000000000000000e+01,8.200000000000000000e+01,8.600000000000000000e+01,1.380000000000000000e+02,6.700000000000000000e+01,4.899999999999999911e-01,7.853736000000000000e+09
6.800000000000000000e+01,4.000000000000000000e+01,1.120000000000000000e+02,7.800000000000000000e+01,7.900000000000000000e+01,7.500000000000000000e+01,1.250000000000000000e+02,6.400000000000000000e+01,4.899999999999999911e-01,7.872556300000000000e+09
6.000000000000000000e+01,3.900000000000000000e+01,1.040000000000000000e+02,7.500000000000000000e+01,7.900000000000000000e+01,7.500000000000000000e+01,1.180000000000000000e+02,6.100000000000000000e+01,4.899999999999999911e-01,7.894629500000000000e+09
4.600000000000000000e+01,4.000000000000000000e+01,1.150000000000000000e+02,1.050000000000000000e+02,9.200000000000000000e+01,8.200000000000000000e+01,1.090000000000000000e+02,6.100000000000000000e+01,4.899999999999999911e-01,7.913528200000000000e+09
6.000000000000000000e+01,4.400000000000000000e+01,1.270000000000000000e+02,1.050000000000000000e+02,7.700000000000000000e+01,6.700000000000000000e+01,8.900000000000000000e+01,5.600000000000000000e+01,4.899999999999999911e-01,7.932652700000000000e+09
5.900000000000000000e+01,4.500000000000000000e+01,1.290000000000000000e+02,1.010000000000000000e+02,7.200000000000000000e+01,5.500000000000000000e+01,8.300000000000000000e+01,4.900000000000000000e+01,4.899999999999999911e-01,7.951705600000000000e+09
5.300000000000000000e+01,5.300000000000000000e+01,1.280000000000000000e+02,1.290000000000000000e+02,7.300000000000000000e+01,5.700000000000000000e+01,7.600000000000000000e+01,4.000000000000000000e+01,4.899999999999999911e-01,7.972476200000000000e+09
4.900000000000000000e+01,5.800000000000000000e+01,1.360000000000000000e+02,1.420000000000000000e+02,8.100000000000000000e+01,5.900000000000000000e+01,8.200000000000000000e+01,4.100000000000000000e+01,4.899999999999999911e-01,7.994693600000000000e+09
4.800000000000000000e+01,5.500000000000000000e+01,1.330000000000000000e+02,1.280000000000000000e+02,7.300000000000000000e+01,5.200000000000000000e+01,6.700000000000000000e+01,3.400000000000000000e+01,5.000000000000000000e-01,8.012538800000000000e+09
3.000000000000000000e+01,5.500000000000000000e+01,1.300000000000000000e+02,1.270000000000000000e+02,7.900000000000000000e+01,5.700000000000000000e+01,7.100000000000000000e+01,3.800000000000000000e+01,5.000000000000000000e-01,8.032673400000000000e+09
2.900000000000000000e+01,5.400000000000000000e+01,1.310000000000000000e+02,1.240000000000000000e+02,7.900000000000000000e+01,5.800000000000000000e+01,7.300000000000000000e+01,3.700000000000000000e+01,5.000000000000000000e-01,8.052056800000000000e+09
4.600000000000000000e+01,5.100000000000000000e+01,1.210000000000000000e+02,9.900000000000000000e+01,8.200000000000000000e+01,5.800000000000000000e+01,8.100000000000000000e+01,4.000000000000000000e+01,5.100000000000000089e-01,8.072678000000000000e+09
5.100000000000000000e+01,5.400000000000000000e+01,1.250000000000000000e+02,8.400000000000000000e+01,7.800000000000000000e+01,5.900000000000000000e+01,8.800000000000000000e+01,4.300000000000000000e+01,5.100000000000000089e-01,8.094647900000000000e+09
5.500000000000000000e+01,5.300000000000000000e+01,1.200000000000000000e+02,7.600000000000000000e+01,7.300000000000000000e+01,5.500000000000000000e+01,8.700000000000000000e+01,4.700000000000000000e+01,5.100000000000000089e-01,8.113103000000000000e+09
6.800000000000000000e+01,5.300000000000000000e+01,1.610000000000000000e+02,8.600000000000000000e+01,6.600000000000000000e+01,5.400000000000000000e+01,8.100000000000000000e+01,4.500000000000000000e+01,5.100000000000000089e-01,8.132374400000000000e+09
7.300000000000000000e+01,5.300000000000000000e+01,1.590000000000000000e+02,1.130000000000000000e+02,1.120000000000000000e+02,8.400000000000000000e+01,1.300000000000000000e+02,6.100000000000000000e+01,5.100000000000000089e-01,8.152367700000000000e+09
6.900000000000000000e+01,5.000000000000000000e+01,1.600000000000000000e+02,1.160000000000000000e+02,1.150000000000000000e+02,8.200000000000000000e+01,1.340000000000000000e+02,6.600000000000000000e+01,5.100000000000000089e-01,8.172323100000000000e+09
7.000000000000000000e+01,4.200000000000000000e+01,1.490000000000000000e+02,1.150000000000000000e+02,1.120000000000000000e+02,8.000000000000000000e+01,1.340000000000000000e+02,6.800000000000000000e+01,5.100000000000000089e-01,8.194842000000000000e+09
8.200000000000000000e+01,4.300000000000000000e+01,1.530000000000000000e+02,1.180000000000000000e+02,1.110000000000000000e+02,8.100000000000000000e+01,1.330000000000000000e+02,6.900000000000000000e+01,5.100000000000000089e-01,8.212714400000000000e+09
7.100000000000000000e+01,3.700000000000000000e+01,1.050000000000000000e+02,1.110000000000000000e+02,1.170000000000000000e+02,8.200000000000000000e+01,1.380000000000000000e+02,7.100000000000000000e+01,5.100000000000000089e-01,8.230970800000000000e+09
7.900000000000000000e+01,4.200000000000000000e+01,9.000000000000000000e+01,8.400000000000000000e+01,7.600000000000000000e+01,6.200000000000000000e+01,9.300000000000000000e+01,5.800000000000000000e+01,5.000000000000000000e-01,8.250777100000000000e+09
9.800000000000000000e+01,4.700000000000000000e+01,8.100000000000000000e+01,7.500000000000000000e+01,6.600000000000000000e+01,6.400000000000000000e+01,8.400000000000000000e+01,5.300000000000000000e+01,5.000000000000000000e-01,8.273282800000000000e+09
1.030000000000000000e+02,5.400000000000000000e+01,8.300000000000000000e+01,7.200000000000000000e+01,6.600000000000000000e+01,6.600000000000000000e+01,1.010000000000000000e+02,5.100000000000000000e+01,5.000000000000000000e-01,8.290984700000000000e+09
9.300000000000000000e+01,5.200000000000000000e+01,7.000000000000000000e+01,6.600000000000000000e+01,6.500000000000000000e+01,6.900000000000000000e+01,1.020000000000000000e+02,4.800000000000000000e+01,4.899999999999999911e-01,8.309068300000000000e+09
9.300000000000000000e+01,5.400000000000000000e+01,6.200000000000000000e+01,6.000000000000000000e+01,5.400000000000000000e+01,6.900000000000000000e+01,1.040000000000000000e+02,4.500000000000000000e+01,4.899999999999999911e-01,8.329491000000000000e+09
8.900000000000000000e+01,5.000000000000000000e+01,6.900000000000000000e+01,5.300000000000000000e+01,4.500000000000000000e+01,5.800000000000000000e+01,1.030000000000000000e+02,4.600000000000000000e+01,4.899999999999999911e-01,8.351881500000000000e+09
7.000000000000000000e+01,4.300000000000000000e+01,7.100000000000000000e+01,5.900000000000000000e+01,4.500000000000000000e+01,5.700000000000000000e+01,1.080000000000000000e+02,5.000000000000000000e+01,4.899999999999999911e-01,8.374109800000000000e+09
6.800000000000000000e+01,4.200000000000000000e+01,8.800000000000000000e+01,6.200000000000000000e+01,4.500000000000000000e+01,5.800000000000000000e+01,1.370000000000000000e+02,5.800000000000000000e+01,4.899999999999999911e-01,8.393065600000000000e+09
7.500000000000000000e+01,4.800000000000000000e+01,9.000000000000000000e+01,6.500000000000000000e+01,4.600000000000000000e+01,5.900000000000000000e+01,1.390000000000000000e+02,5.900000000000000000e+01,4.899999999999999911e-01,8.412112800000000000e+09
7.600000000000000000e+01,4.600000000000000000e+01,9.000000000000000000e+01,6.800000000000000000e+01,4.400000000000000000e+01,5.300000000000000000e+01,1.370000000000000000e+02,5.900000000000000000e+01,4.899999999999999911e-01,8.431854500000000000e+09
7.300000000000000000e+01,4.800000000000000000e+01,8.900000000000000000e+01,7.100000000000000000e+01,4.700000000000000000e+01,5.700000000000000000e+01,1.350000000000000000e+02,5.700000000000000000e+01,4.899999999999999911e-01,8.451709800000000000e+09
6.700000000000000000e+01,5.500000000000000000e+01,1.010000000000000000e+02,8.100000000000000000e+01,5.000000000000000000e+01,5.400000000000000000e+01,1.300000000000000000e+02,5.200000000000000000e+01,4.899999999999999911e-01,8.474078500000000000e+09
7.300000000000000000e+01,5.400000000000000000e+01,9.300000000000000000e+01,7.900000000000000000e+01,4.800000000000000000e+01,4.800000000000000000e+01,6.900000000000000000e+01,4.000000000000000000e+01,4.899999999999999911e-01,8.493087100000000000e+09
7.400000000000000000e+01,5.100000000000000000e+01,1.000000000000000000e+02,7.700000000000000000e+01,5.200000000000000000e+01,4.200000000000000000e+01,6.000000000000000000e+01,4.300000000000000000e+01,4.899999999999999911e-01,8.512625800000000000e+09
7.500000000000000000e+01,5.100000000000000000e+01,1.070000000000000000e+02,8.200000000000000000e+01,5.300000000000000000e+01,4.500000000000000000e+01,5.800000000000000000e+01,4.500000000000000000e+01,4.899999999999999911e-01,8.531940000000000000e+09
8.500000000000000000e+01,5.400000000000000000e+01,1.100000000000000000e+02,7.600000000000000000e+01,5.200000000000000000e+01,4.500000000000000000e+01,6.400000000000000000e+01,4.800000000000000000e+01,5.000000000000000000e-01,8.551392600000000000e+09
8.500000000000000000e+01,4.900000000000000000e+01,1.010000000000000000e+02,5.900000000000000000e+01,4.400000000000000000e+01,4.700000000000000000e+01,6.800000000000000000e+01,4.700000000000000000e+01,5.000000000000000000e-01,8.573746500000000000e+09
7.300000000000000000e+01,4.300000000000000000e+01,9.300000000000000000e+01,6.000000000000000000e+01,4.500000000000000000e+01,5.500000000000000000e+01,7.200000000000000000e+01,4.500000000000000000e+01,5.000000000000000000e-01,8.592759900000000000e+09
8.300000000000000000e+01,4.100000000000000000e+01,9.800000000000000000e+01,6.000000000000000000e+01,4.100000000000000000e+01,5.600000000000000000e+01,7.400000000000000000e+01,4.400000000000000000e+01,5.000000000000000000e-01,8.611740500000000000e+09
9.500000000000000000e+01,4.200000000000000000e+01,8.900000000000000000e+01,5.200000000000000000e+01,4.400000000000000000e+01,5.400000000000000000e+01,7.200000000000000000e+01,4.300000000000000000e+01,5.000000000000000000e-01,8.631724200000000000e+09
8.400000000000000000e+01,4.000000000000000000e+01,9.100000000000000000e+01,5.600000000000000000e+01,4.700000000000000000e+01,5.400000000000000000e+01,7.700000000000000000e+01,4.400000000000000000e+01,5.000000000000000000e-01,8.651149800000000000e+09
8.700000000000000000e+01,4.300000000000000000e+01,9.600000000000000000e+01,6.200000000000000000e+01,5.000000000000000000e+01,5.500000000000000000e+01,7.700000000000000000e+01,4.600000000000000000e+01,5.000000000000000000e-01,8.673427900000000000e+09
8.600000000000000000e+01,4.500000000000000000e+01,9.900000000000000000e+01,6.100000000000000000e+01,4.600000000000000000e+01,4.500000000000000000e+01,7.700000000000000000e+01,4.500000000000000000e+01,5.000000000000000000e-01,8.691673000000000000e+09
8.100000000000000000e+01,5.200000000000000000e+01,9.300000000000000000e+01,6.300000000000000000e+01,4.900000000000000000e+01,4.300000000000000000e+01,8.000000000000000000e+01,4.900000000000000000e+01,5.000000000000000000e-01,8.710788200000000000e+09
6.300000000000000000e+01,5.100000000000000000e+01,9.100000000000000000e+01,6.400000000000000000e+01,4.700000000000000000e+01,4.200000000000000000e+01,8.000000000000000000e+01,5.000000000000000000e+01,5.000000000000000000e-01,8.729639600000000000e+09
7.000000000000000000e+01,4.900000000000000000e+01,8.800000000000000000e+01,7.000000000000000000e+01,4.400000000000000000e+01,3.700000000000000000e+01,6.900000000000000000e+01,5.000000000000000000e+01,5.000000000000000000e-01,8.751202000000000000e+09
6.700000000000000000e+01,4.500000000000000000e+01,8.900000000000000000e+01,6.600000000000000000e+01,4.200000000000000000e+01,3.300000000000000000e+01,6.200000000000000000e+01,5.000000000000000000e+01,4.899999999999999911e-01,8.773453600000000000e+09
7.200000000000000000e+01,4.500000000000000000e+01,9.100000000000000000e+01,7.500000000000000000e+01,5.000000000000000000e+01,3.700000000000000000e+01,5.900000000000000000e+01,5.300000000000000000e+01,4.899999999999999911e-01,8.791730400000000000e+09
7.500000000000000000e+01,3.600000000000000000e+01,1.080000000000000000e+02,7.600000000000000000e+01,4.700000000000000000e+01,3.600000000000000000e+01,5.900000000000000000e+01,5.700000000000000000e+01,5.000000000000000000e-01,8.810866600000000000e+09
8.700000000000000000e+01,4.300000000000000000e+01,1.490000000000000000e+02,7.200000000000000000e+01,4.400000000000000000e+01,4.000000000000000000e+01,8.500000000000000000e+01,6.700000000000000000e+01,5.000000000000000000e-01,8.843297600000000000e+09
8.900000000000000000e+01,5.000000000000000000e+01,1.570000000000000000e+02,6.500000000000000000e+01,4.400000000000000000e+01,3.900000000000000000e+01,9.000000000000000000e+01,6.800000000000000000e+01,4.899999999999999911e-01,8.864076500000000000e+09
9.100000000000000000e+01,5.700000000000000000e+01,1.600000000000000000e+02,9.400000000000000000e+01,6.000000000000000000e+01,5.100000000000000000e+01,1.030000000000000000e+02,7.100000000000000000e+01,5.000000000000000000e-01,8.882995000000000000e+09
9.000000000000000000e+01,5.700000000000000000e+01,1.690000000000000000e+02,9.200000000000000000e+01,5.900000000000000000e+01,5.600000000000000000e+01,1.190000000000000000e+02,7.500000000000000000e+01,5.000000000000000000e-01,8.901232300000000000e+09
7.900000000000000000e+01,6.800000000000000000e+01,1.600000000000000000e+02,9.200000000000000000e+01,6.500000000000000000e+01,6.100000000000000000e+01,1.290000000000000000e+02,6.900000000000000000e+01,5.000000000000000000e-01,8.920753400000000000e+09
6.900000000000000000e+01,7.500000000000000000e+01,1.300000000000000000e+02,1.000000000000000000e+02,7.400000000000000000e+01,7.000000000000000000e+01,1.220000000000000000e+02,6.100000000000000000e+01,5.000000000000000000e-01,8.939443700000000000e+09
7.600000000000000000e+01,7.300000000000000000e+01,1.350000000000000000e+02,1.150000000000000000e+02,7.900000000000000000e+01,7.500000000000000000e+01,1.270000000000000000e+02,5.600000000000000000e+01,5.000000000000000000e-01,8.957623800000000000e+09
7.400000000000000000e+01,7.100000000000000000e+01,1.440000000000000000e+02,1.170000000000000000e+02,7.100000000000000000e+01,7.300000000000000000e+01,1.220000000000000000e+02,5.100000000000000000e+01,5.000000000000000000e-01,8.975555700000000000e+09
7.700000000000000000e+01,7.400000000000000000e+01,1.370000000000000000e+02,1.290000000000000000e+02,7.200000000000000000e+01,7.300000000000000000e+01,1.090000000000000000e+02,4.900000000000000000e+01,5.100000000000000089e-01,8.994386100000000000e+09
7.400000000000000000e+01,6.300000000000000000e+01,1.440000000000000000e+02,1.360000000000000000e+02,7.100000000000000000e+01,7.000000000000000000e+01,9.100000000000000000e+01,4.500000000000000000e+01,5.100000000000000089e-01,9.012082300000000000e+09
7.400000000000000000e+01,5.700000000000000000e+01,1.570000000000000000e+02,1.340000000000000000e+02,6.800000000000000000e+01,6.200000000000000000e+01,7.700000000000000000e+01,4.100000000000000000e+01,5.100000000000000089e-01,9.030719100000000000e+09
6.100000000000000000e+01,6.000000000000000000e+01,1.490000000000000000e+02,1.240000000000000000e+02,6.700000000000000000e+01,6.300000000000000000e+01,7.000000000000000000e+01,4.300000000000000000e+01,5.200000000000000178e-01,9.049679400000000000e+09
6.200000000000000000e+01,5.600000000000000000e+01,1.330000000000000000e+02,1.020000000000000000e+02,6.800000000000000000e+01,6.200000000000000000e+01,7.800000000000000000e+01,4.700000000000000000e+01,5.200000000000000178e-01,9.070881100000000000e+09
6.400000000000000000e+01,6.300000000000000000e+01,1.390000000000000000e+02,7.800000000000000000e+01,6.300000000000000000e+01,6.200000000000000000e+01,7.300000000000000000e+01,4.800000000000000000e+01,5.200000000000000178e-01,9.093061600000000000e+09
7.000000000000000000e+01,7.100000000000000000e+01,1.320000000000000000e+02,8.200000000000000000e+01,5.500000000000000000e+01,6.000000000000000000e+01,7.400000000000000000e+01,4.900000000000000000e+01,5.200000000000000178e-01,9.111483400000000000e+09
7.400000000000000000e+01,7.400000000000000000e+01,1.130000000000000000e+02,7.900000000000000000e+01,5.300000000000000000e+01,5.900000000000000000e+01,7.800000000000000000e+01,5.300000000000000000e+01,5.300000000000000266e-01,9.131454300000000000e+09
9.000000000000000000e+01,7.800000000000000000e+01,1.240000000000000000e+02,8.600000000000000000e+01,5.800000000000000000e+01,5.700000000000000000e+01,8.000000000000000000e+01,6.100000000000000000e+01,5.300000000000000266e-01,9.150248300000000000e+09
9.100000000000000000e+01,9.300000000000000000e+01,1.290000000000000000e+02,9.000000000000000000e+01,5.800000000000000000e+01,6.100000000000000000e+01,8.800000000000000000e+01,6.000000000000000000e+01,5.300000000000000266e-01,9.170882700000000000e+09
8.800000000000000000e+01,1.000000000000000000e+02,1.240000000000000000e+02,9.200000000000000000e+01,6.000000000000000000e+01,5.700000000000000000e+01,9.000000000000000000e+01,5.400000000000000000e+01,5.300000000000000266e-01,9.193027200000000000e+09
9.600000000000000000e+01,9.900000000000000000e+01,1.180000000000000000e+02,7.300000000000000000e+01,6.500000000000000000e+01,5.900000000000000000e+01,9.200000000000000000e+01,6.500000000000000000e+01,5.300000000000000266e-01,9.211268300000000000e+09
1.070000000000000000e+02,9.600000000000000000e+01,1.210000000000000000e+02,7.500000000000000000e+01,6.400000000000000000e+01,6.000000000000000000e+01,9.600000000000000000e+01,6.700000000000000000e+01,5.300000000000000266e-01,9.229014100000000000e+09
9.400000000000000000e+01,9.500000000000000000e+01,1.050000000000000000e+02,5.800000000000000000e+01,5.200000000000000000e+01,6.000000000000000000e+01,1.000000000000000000e+02,5.900000000000000000e+01,5.300000000000000266e-01,9.248816900000000000e+09
9.800000000000000000e+01,9.900000000000000000e+01,1.320000000000000000e+02,5.800000000000000000e+01,5.400000000000000000e+01,5.600000000000000000e+01,8.600000000000000000e+01,7.100000000000000000e+01,5.200000000000000178e-01,9.270848000000000000e+09
1.030000000000000000e+02,1.010000000000000000e+02,1.480000000000000000e+02,8.300000000000000000e+01,5.700000000000000000e+01,6.200000000000000000e+01,9.300000000000000000e+01,7.400000000000000000e+01,5.200000000000000178e-01,9.292941100000000000e+09
1.160000000000000000e+02,1.020000000000000000e+02,1.490000000000000000e+02,8.300000000000000000e+01,5.200000000000000000e+01,6.400000000000000000e+01,9.700000000000000000e+01,6.500000000000000000e+01,5.200000000000000178e-01,9.311434900000000000e+09
1.080000000000000000e+02,1.000000000000000000e+02,1.440000000000000000e+02,8.300000000000000000e+01,4.900000000000000000e+01,6.100000000000000000e+01,9.100000000000000000e+01,6.300000000000000000e+01,5.200000000000000178e-01,9.330070600000000000e+09
1.180000000000000000e+02,9.900000000000000000e+01,1.380000000000000000e+02,8.500000000000000000e+01,4.900000000000000000e+01,5.800000000000000000e+01,8.400000000000000000e+01,6.300000000000000000e+01,5.200000000000000178e-01,9.348533600000000000e+09
1.140000000000000000e+02,8.100000000000000000e+01,1.060000000000000000e+02,7.800000000000000000e+01,4.100000000000000000e+01,5.400000000000000000e+01,9.600000000000000000e+01,4.700000000000000000e+01,5.200000000000000178e-01,9.370754200000000000e+09
1.200000000000000000e+02,6.500000000000000000e+01,6.800000000000000000e+01,4.700000000000000000e+01,3.000000000000000000e+01,4.400000000000000000e+01,8.900000000000000000e+01,5.300000000000000000e+01,5.200000000000000178e-01,9.392946500000000000e+09
1.030000000000000000e+02,5.500000000000000000e+01,6.000000000000000000e+01,4.700000000000000000e+01,2.700000000000000000e+01,3.600000000000000000e+01,8.200000000000000000e+01,5.000000000000000000e+01,5.200000000000000178e-01,9.411084900000000000e+09
9.900000000000000000e+01,5.400000000000000000e+01,6.000000000000000000e+01,5.200000000000000000e+01,2.700000000000000000e+01,3.700000000000000000e+01,8.100000000000000000e+01,4.700000000000000000e+01,5.100000000000000089e-01,9.429649000000000000e+09
8.500000000000000000e+01,4.600000000000000000e+01,5.500000000000000000e+01,5.300000000000000000e+01,2.800000000000000000e+01,3.600000000000000000e+01,7.600000000000000000e+01,4.300000000000000000e+01,5.100000000000000089e-01,9.450016400000000000e+09
9.000000000000000000e+01,5.600000000000000000e+01,5.200000000000000000e+01,6.200000000000000000e+01,3.100000000000000000e+01,4.200000000000000000e+01,6.300000000000000000e+01,4.400000000000000000e+01,5.100000000000000089e-01,9.472817500000000000e+09
1.210000000000000000e+02,1.400000000000000000e+02,4.700000000000000000e+01,6.400000000000000000e+01,3.400000000000000000e+01,4.700000000000000000e+01,7.500000000000000000e+01,5.800000000000000000e+01,5.200000000000000178e-01,9.492508600000000000e+09
1.220000000000000000e+02,1.430000000000000000e+02,5.400000000000000000e+01,9.000000000000000000e+01,3.900000000000000000e+01,4.900000000000000000e+01,7.900000000000000000e+01,6.500000000000000000e+01,5.200000000000000178e-01,9.510833000000000000e+09
1.210000000000000000e+02,1.490000000000000000e+02,5.800000000000000000e+01,8.600000000000000000e+01,4.100000000000000000e+01,5.000000000000000000e+01,8.100000000000000000e+01,6.900000000000000000e+01,5.200000000000000178e-01,9.529337600000000000e+09
1.980000000000000000e+02,1.540000000000000000e+02,6.300000000000000000e+01,9.000000000000000000e+01,4.400000000000000000e+01,5.800000000000000000e+01,9.000000000000000000e+01,7.000000000000000000e+01,5.200000000000000178e-01,9.550559600000000000e+09
2.340000000000000000e+02,1.790000000000000000e+02,6.700000000000000000e+01,1.090000000000000000e+02,8.000000000000000000e+01,8.800000000000000000e+01,1.060000000000000000e+02,9.800000000000000000e+01,5.200000000000000178e-01,9.573029600000000000e+09
2.490000000000000000e+02,1.300000000000000000e+02,8.000000000000000000e+01,1.250000000000000000e+02,1.000000000000000000e+02,1.030000000000000000e+02,1.090000000000000000e+02,9.500000000000000000e+01,5.200000000000000178e-01,9.592424000000000000e+09
2.950000000000000000e+02,1.340000000000000000e+02,7.900000000000000000e+01,1.460000000000000000e+02,1.120000000000000000e+02,1.040000000000000000e+02,1.220000000000000000e+02,9.400000000000000000e+01,5.200000000000000178e-01,9.610873300000000000e+09
3.030000000000000000e+02,1.380000000000000000e+02,8.100000000000000000e+01,1.560000000000000000e+02,1.300000000000000000e+02,1.070000000000000000e+02,1.340000000000000000e+02,1.010000000000000000e+02,5.200000000000000178e-01,9.630056800000000000e+09
2.790000000000000000e+02,1.440000000000000000e+02,8.000000000000000000e+01,1.600000000000000000e+02,1.430000000000000000e+02,1.080000000000000000e+02,1.300000000000000000e+02,1.060000000000000000e+02,5.200000000000000178e-01,9.650266900000000000e+09
2.680000000000000000e+02,1.140000000000000000e+02,8.700000000000000000e+01,1.500000000000000000e+02,1.320000000000000000e+02,9.400000000000000000e+01,1.130000000000000000e+02,9.400000000000000000e+01,5.200000000000000178e-01,9.672519600000000000e+09
2.520000000000000000e+02,1.380000000000000000e+02,1.150000000000000000e+02,1.550000000000000000e+02,1.400000000000000000e+02,8.500000000000000000e+01,1.000000000000000000e+02,8.500000000000000000e+01,5.200000000000000178e-01,9.694887200000000000e+09
2.120000000000000000e+02,1.430000000000000000e+02,1.500000000000000000e+02,1.330000000000000000e+02,1.470000000000000000e+02,9.100000000000000000e+01,8.800000000000000000e+01,8.600000000000000000e+01,5.200000000000000178e-01,9.714367500000000000e+09
2.330000000000000000e+02,1.380000000000000000e+02,1.670000000000000000e+02,1.370000000000000000e+02,1.380000000000000000e+02,9.000000000000000000e+01,7.500000000000000000e+01,7.500000000000000000e+01,5.200000000000000178e-01,9.733585800000000000e+09
2.280000000000000000e+02,1.420000000000000000e+02,2.030000000000000000e+02,1.450000000000000000e+02,1.270000000000000000e+02,8.400000000000000000e+01,7.400000000000000000e+01,7.000000000000000000e+01,5.200000000000000178e-01,9.751906200000000000e+09
2.240000000000000000e+02,1.390000000000000000e+02,2.430000000000000000e+02,1.730000000000000000e+02,1.260000000000000000e+02,7.300000000000000000e+01,8.100000000000000000e+01,6.000000000000000000e+01,5.200000000000000178e-01,9.772478400000000000e+09
2.230000000000000000e+02,1.120000000000000000e+02,2.620000000000000000e+02,1.650000000000000000e+02,1.050000000000000000e+02,6.500000000000000000e+01,9.000000000000000000e+01,6.700000000000000000e+01,5.200000000000000178e-01,9.794619000000000000e+09
2.170000000000000000e+02,1.010000000000000000e+02,2.560000000000000000e+02,1.620000000000000000e+02,9.500000000000000000e+01,6.500000000000000000e+01,9.500000000000000000e+01,7.400000000000000000e+01,5.300000000000000266e-01,9.813705400000000000e+09
1.880000000000000000e+02,9.400000000000000000e+01,2.500000000000000000e+02,1.530000000000000000e+02,8.900000000000000000e+01,7.400000000000000000e+01,1.540000000000000000e+02,8.000000000000000000e+01,5.300000000000000266e-01,9.832593500000000000e+09
1.640000000000000000e+02,6.500000000000000000e+01,2.260000000000000000e+02,1.420000000000000000e+02,8.500000000000000000e+01,7.800000000000000000e+01,1.620000000000000000e+02,8.300000000000000000e+01,5.300000000000000266e-01,9.852911100000000000e+09
1.450000000000000000e+02,6.300000000000000000e+01,2.000000000000000000e+02,1.130000000000000000e+02,8.200000000000000000e+01,7.700000000000000000e+01,1.630000000000000000e+02,9.200000000000000000e+01,5.300000000000000266e-01,9.872444700000000000e+09
1.240000000000000000e+02,5.300000000000000000e+01,1.590000000000000000e+02,1.120000000000000000e+02,9.600000000000000000e+01,7.900000000000000000e+01,1.630000000000000000e+02,9.500000000000000000e+01,5.300000000000000266e-01,9.894680400000000000e+09
1.050000000000000000e+02,4.400000000000000000e+01,1.550000000000000000e+02,1.490000000000000000e+02,1.050000000000000000e+02,8.300000000000000000e+01,1.730000000000000000e+02,9.000000000000000000e+01,5.300000000000000266e-01,9.916507600000000000e+09
9.500000000000000000e+01,4.700000000000000000e+01,1.650000000000000000e+02,1.840000000000000000e+02,1.120000000000000000e+02,8.600000000000000000e+01,1.620000000000000000e+02,9.100000000000000000e+01,5.300000000000000266e-01,9.935407900000000000e+09
9.600000000000000000e+01,4.700000000000000000e+01,1.660000000000000000e+02,1.980000000000000000e+02,1.210000000000000000e+02,9.200000000000000000e+01,1.630000000000000000e+02,9.000000000000000000e+01,5.300000000000000266e-01,9.958099100000000000e+09
1.130000000000000000e+02,6.200000000000000000e+01,1.620000000000000000e+02,2.050000000000000000e+02,1.260000000000000000e+02,1.020000000000000000e+02,1.660000000000000000e+02,8.100000000000000000e+01,5.400000000000000355e-01,9.977003300000000000e+09
1.070000000000000000e+02,7.000000000000000000e+01,1.690000000000000000e+02,2.110000000000000000e+02,1.370000000000000000e+02,1.200000000000000000e+02,1.830000000000000000e+02,7.800000000000000000e+01,5.400000000000000355e-01,9.996457900000000000e+09
1.030000000000000000e+02,7.500000000000000000e+01,1.600000000000000000e+02,1.940000000000000000e+02,1.220000000000000000e+02,1.150000000000000000e+02,1.750000000000000000e+02,7.600000000000000000e+01,5.400000000000000355e-01,1.001416210000000000e+10
1.010000000000000000e+02,9.300000000000000000e+01,1.630000000000000000e+02,1.800000000000000000e+02,1.190000000000000000e+02,1.050000000000000000e+02,1.390000000000000000e+02,6.900000000000000000e+01,5.400000000000000355e-01,1.003322360000000000e+10
9.600000000000000000e+01,9.500000000000000000e+01,1.580000000000000000e+02,1.660000000000000000e+02,1.150000000000000000e+02,1.020000000000000000e+02,1.260000000000000000e+02,6.500000000000000000e+01,5.400000000000000355e-01,1.005197360000000000e+10
7.100000000000000000e+01,9.100000000000000000e+01,1.470000000000000000e+02,1.540000000000000000e+02,1.100000000000000000e+02,9.500000000000000000e+01,1.250000000000000000e+02,5.700000000000000000e+01,5.400000000000000355e-01,1.007070280000000000e+10
6.500000000000000000e+01,8.600000000000000000e+01,1.410000000000000000e+02,1.420000000000000000e+02,8.200000000000000000e+01,7.400000000000000000e+01,9.500000000000000000e+01,4.800000000000000000e+01,5.500000000000000444e-01,1.009256130000000000e+10
6.500000000000000000e+01,9.200000000000000000e+01,1.360000000000000000e+02,1.260000000000000000e+02,8.200000000000000000e+01,7.800000000000000000e+01,8.800000000000000000e+01,5.000000000000000000e+01,5.500000000000000444e-01,1.011481770000000000e+10
9.000000000000000000e+01,9.100000000000000000e+01,1.130000000000000000e+02,1.010000000000000000e+02,8.100000000000000000e+01,7.800000000000000000e+01,9.300000000000000000e+01,5.500000000000000000e+01,5.500000000000000444e-01,1.013396410000000000e+10
9.900000000000000000e+01,9.700000000000000000e+01,1.090000000000000000e+02,9.400000000000000000e+01,7.200000000000000000e+01,7.400000000000000000e+01,1.070000000000000000e+02,6.100000000000000000e+01,5.500000000000000444e-01,1.015208120000000000e+10
8.800000000000000000e+01,1.030000000000000000e+02,1.080000000000000000e+02,8.700000000000000000e+01,7.700000000000000000e+01,8.000000000000000000e+01,1.100000000000000000e+02,6.200000000000000000e+01,5.500000000000000444e-01,1.017043380000000000e+10
9.700000000000000000e+01,1.280000000000000000e+02,1.090000000000000000e+02,1.160000000000000000e+02,7.500000000000000000e+01,7.600000000000000000e+01,1.090000000000000000e+02,6.700000000000000000e+01,5.500000000000000444e-01,1.019265030000000000e+10
1.220000000000000000e+02,1.310000000000000000e+02,1.100000000000000000e+02,1.110000000000000000e+02,7.300000000000000000e+01,7.100000000000000000e+01,1.080000000000000000e+02,6.900000000000000000e+01,5.500000000000000444e-01,1.021472840000000000e+10
1.110000000000000000e+02,1.200000000000000000e+02,1.040000000000000000e+02,1.060000000000000000e+02,6.500000000000000000e+01,7.200000000000000000e+01,1.130000000000000000e+02,6.700000000000000000e+01,5.400000000000000355e-01,1.023414580000000000e+10
1.100000000000000000e+02,1.170000000000000000e+02,1.360000000000000000e+02,1.100000000000000000e+02,6.800000000000000000e+01,7.700000000000000000e+01,1.040000000000000000e+02,6.400000000000000000e+01,5.400000000000000355e-01,1.025297910000000000e+10
1.100000000000000000e+02,1.160000000000000000e+02,1.290000000000000000e+02,1.160000000000000000e+02,6.100000000000000000e+01,6.700000000000000000e+01,9.400000000000000000e+01,6.300000000000000000e+01,5.400000000000000355e-01,1.027379100000000000e+10
1.050000000000000000e+02,1.010000000000000000e+02,1.160000000000000000e+02,8.200000000000000000e+01,5.700000000000000000e+01,6.400000000000000000e+01,9.400000000000000000e+01,6.100000000000000000e+01,5.400000000000000355e-01,1.029256610000000000e+10
7.500000000000000000e+01,1.090000000000000000e+02,1.090000000000000000e+02,8.400000000000000000e+01,5.800000000000000000e+01,6.700000000000000000e+01,1.140000000000000000e+02,5.700000000000000000e+01,5.400000000000000355e-01,1.031477630000000000e+10
8.300000000000000000e+01,1.260000000000000000e+02,1.130000000000000000e+02,8.000000000000000000e+01,6.300000000000000000e+01,6.800000000000000000e+01,1.050000000000000000e+02,5.700000000000000000e+01,5.400000000000000355e-01,1.033307200000000000e+10
8.600000000000000000e+01,1.290000000000000000e+02,8.600000000000000000e+01,7.400000000000000000e+01,7.500000000000000000e+01,7.800000000000000000e+01,1.120000000000000000e+02,5.800000000000000000e+01,5.300000000000000266e-01,1.035294970000000000e+10
8.600000000000000000e+01,1.180000000000000000e+02,9.100000000000000000e+01,7.300000000000000000e+01,8.100000000000000000e+01,8.200000000000000000e+01,1.170000000000000000e+02,5.600000000000000000e+01,5.300000000000000266e-01,1.037204810000000000e+10
8.900000000000000000e+01,1.080000000000000000e+02,9.100000000000000000e+01,7.400000000000000000e+01,8.200000000000000000e+01,8.400000000000000000e+01,1.160000000000000000e+02,5.200000000000000000e+01,5.300000000000000266e-01,1.039266690000000000e+10
1.130000000000000000e+02,8.600000000000000000e+01,9.100000000000000000e+01,8.500000000000000000e+01,8.200000000000000000e+01,8.000000000000000000e+01,9.600000000000000000e+01,5.300000000000000000e+01,5.300000000000000266e-01,1.041141340000000000e+10
1.060000000000000000e+02,7.000000000000000000e+01,1.290000000000000000e+02,9.500000000000000000e+01,8.500000000000000000e+01,8.400000000000000000e+01,9.800000000000000000e+01,5.100000000000000000e+01,5.300000000000000266e-01,1.043078190000000000e+10
1.080000000000000000e+02,7.300000000000000000e+01,1.800000000000000000e+02,1.130000000000000000e+02,7.500000000000000000e+01,6.900000000000000000e+01,8.600000000000000000e+01,4.800000000000000000e+01,5.300000000000000266e-01,1.044965010000000000e+10
