3.900000000000000000e+01,2.500000000000000000e+01,2.400000000000000000e+01,2.700000000000000000e+01,2.100000000000000000e+01,2.700000000000000000e+01,5.600000000000000000e+01,4.800000000000000000e+01,4.500000000000000111e-01,4.557273000000000000e+08
3.900000000000000000e+01,2.700000000000000000e+01,2.400000000000000000e+01,2.700000000000000000e+01,2.600000000000000000e+01,2.800000000000000000e+01,5.300000000000000000e+01,4.600000000000000000e+01,4.500000000000000111e-01,4.844546000000000000e+08
3.600000000000000000e+01,2.500000000000000000e+01,2.600000000000000000e+01,2.600000000000000000e+01,2.500000000000000000e+01,2.900000000000000000e+01,5.400000000000000000e+01,4.300000000000000000e+01,4.500000000000000111e-01,1.254158900000000000e+09
3.600000000000000000e+01,2.600000000000000000e+01,2.300000000000000000e+01,2.700000000000000000e+01,2.500000000000000000e+01,3.000000000000000000e+01,6.200000000000000000e+01,4.900000000000000000e+01,4.500000000000000111e-01,1.273343000000000000e+09
2.600000000000000000e+01,2.400000000000000000e+01,2.100000000000000000e+01,2.800000000000000000e+01,2.700000000000000000e+01,3.300000000000000000e+01,7.000000000000000000e+01,5.100000000000000000e+01,4.500000000000000111e-01,1.293601100000000000e+09
3.200000000000000000e+01,2.500000000000000000e+01,2.400000000000000000e+01,2.800000000000000000e+01,2.800000000000000000e+01,3.300000000000000000e+01,7.000000000000000000e+01,5.200000000000000000e+01,4.500000000000000111e-01,1.313124700000000000e+09
3.000000000000000000e+01,2.200000000000000000e+01,2.200000000000000000e+01,2.600000000000000000e+01,2.400000000000000000e+01,3.300000000000000000e+01,6.800000000000000000e+01,5.100000000000000000e+01,4.500000000000000111e-01,1.332474800000000000e+09
3.200000000000000000e+01,2.400000000000000000e+01,2.100000000000000000e+01,3.000000000000000000e+01,2.400000000000000000e+01,2.900000000000000000e+01,7.000000000000000000e+01,4.700000000000000000e+01,4.500000000000000111e-01,1.351707100000000000e+09
3.100000000000000000e+01,2.400000000000000000e+01,2.200000000000000000e+01,2.800000000000000000e+01,2.300000000000000000e+01,2.800000000000000000e+01,8.500000000000000000e+01,5.500000000000000000e+01,4.500000000000000111e-01,1.370752300000000000e+09
3.200000000000000000e+01,2.500000000000000000e+01,2.400000000000000000e+01,2.900000000000000000e+01,2.000000000000000000e+01,2.500000000000000000e+01,7.900000000000000000e+01,5.500000000000000000e+01,4.500000000000000111e-01,1.391445700000000000e+09
3.200000000000000000e+01,2.500000000000000000e+01,2.800000000000000000e+01,3.200000000000000000e+01,2.200000000000000000e+01,2.700000000000000000e+01,7.700000000000000000e+01,5.400000000000000000e+01,4.500000000000000111e-01,1.412058000000000000e+09
3.500000000000000000e+01,2.600000000000000000e+01,2.700000000000000000e+01,3.300000000000000000e+01,2.200000000000000000e+01,2.400000000000000000e+01,8.100000000000000000e+01,7.800000000000000000e+01,4.500000000000000111e-01,1.431260300000000000e+09
3.600000000000000000e+01,2.700000000000000000e+01,2.900000000000000000e+01,2.900000000000000000e+01,2.200000000000000000e+01,2.600000000000000000e+01,9.700000000000000000e+01,8.500000000000000000e+01,4.500000000000000111e-01,1.452077300000000000e+09
6.100000000000000000e+01,2.900000000000000000e+01,2.800000000000000000e+01,2.900000000000000000e+01,2.300000000000000000e+01,2.500000000000000000e+01,8.100000000000000000e+01,7.900000000000000000e+01,4.500000000000000111e-01,1.470515900000000000e+09
6.600000000000000000e+01,2.900000000000000000e+01,2.800000000000000000e+01,2.700000000000000000e+01,2.500000000000000000e+01,2.700000000000000000e+01,8.000000000000000000e+01,8.100000000000000000e+01,4.500000000000000111e-01,1.490517400000000000e+09
6.300000000000000000e+01,2.600000000000000000e+01,2.300000000000000000e+01,2.400000000000000000e+01,2.300000000000000000e+01,2.500000000000000000e+01,9.500000000000000000e+01,9.200000000000000000e+01,4.500000000000000111e-01,1.509601100000000000e+09
8.200000000000000000e+01,2.800000000000000000e+01,2.200000000000000000e+01,2.200000000000000000e+01,2.200000000000000000e+01,2.600000000000000000e+01,9.600000000000000000e+01,7.500000000000000000e+01,4.500000000000000111e-01,1.528754400000000000e+09
8.400000000000000000e+01,2.600000000000000000e+01,2.100000000000000000e+01,2.700000000000000000e+01,2.200000000000000000e+01,2.600000000000000000e+01,7.900000000000000000e+01,7.100000000000000000e+01,4.500000000000000111e-01,1.547858900000000000e+09
7.200000000000000000e+01,3.000000000000000000e+01,2.300000000000000000e+01,2.500000000000000000e+01,2.400000000000000000e+01,2.800000000000000000e+01,8.700000000000000000e+01,7.000000000000000000e+01,4.500000000000000111e-01,1.605671400000000000e+09
6.900000000000000000e+01,2.900000000000000000e+01,2.200000000000000000e+01,2.700000000000000000e+01,2.500000000000000000e+01,2.500000000000000000e+01,8.600000000000000000e+01,6.900000000000000000e+01,4.500000000000000111e-01,1.626543600000000000e+09
7.700000000000000000e+01,3.100000000000000000e+01,2.100000000000000000e+01,2.700000000000000000e+01,2.500000000000000000e+01,2.600000000000000000e+01,7.200000000000000000e+01,5.600000000000000000e+01,4.500000000000000111e-01,1.646267200000000000e+09
7.500000000000000000e+01,3.000000000000000000e+01,2.300000000000000000e+01,3.000000000000000000e+01,2.500000000000000000e+01,2.600000000000000000e+01,7.000000000000000000e+01,5.700000000000000000e+01,4.500000000000000111e-01,1.664726500000000000e+09
7.400000000000000000e+01,3.000000000000000000e+01,2.200000000000000000e+01,2.600000000000000000e+01,2.700000000000000000e+01,2.500000000000000000e+01,7.500000000000000000e+01,5.400000000000000000e+01,4.500000000000000111e-01,1.684313900000000000e+09
8.200000000000000000e+01,2.600000000000000000e+01,2.200000000000000000e+01,2.800000000000000000e+01,2.600000000000000000e+01,2.300000000000000000e+01,6.300000000000000000e+01,6.100000000000000000e+01,4.500000000000000111e-01,1.703116900000000000e+09
9.600000000000000000e+01,3.000000000000000000e+01,2.200000000000000000e+01,3.000000000000000000e+01,2.600000000000000000e+01,2.400000000000000000e+01,5.800000000000000000e+01,6.400000000000000000e+01,4.500000000000000111e-01,1.723739200000000000e+09
9.200000000000000000e+01,2.900000000000000000e+01,2.500000000000000000e+01,2.900000000000000000e+01,2.600000000000000000e+01,2.100000000000000000e+01,6.100000000000000000e+01,6.300000000000000000e+01,4.500000000000000111e-01,1.743567200000000000e+09
7.700000000000000000e+01,2.900000000000000000e+01,2.500000000000000000e+01,2.600000000000000000e+01,2.600000000000000000e+01,2.500000000000000000e+01,6.400000000000000000e+01,6.300000000000000000e+01,4.500000000000000111e-01,1.763148600000000000e+09
8.800000000000000000e+01,2.800000000000000000e+01,2.500000000000000000e+01,2.900000000000000000e+01,2.600000000000000000e+01,2.500000000000000000e+01,5.800000000000000000e+01,6.100000000000000000e+01,4.500000000000000111e-01,1.782211200000000000e+09
8.800000000000000000e+01,2.700000000000000000e+01,2.700000000000000000e+01,2.600000000000000000e+01,2.500000000000000000e+01,2.500000000000000000e+01,5.500000000000000000e+01,4.400000000000000000e+01,4.500000000000000111e-01,1.800281700000000000e+09
7.300000000000000000e+01,2.300000000000000000e+01,2.900000000000000000e+01,2.300000000000000000e+01,2.300000000000000000e+01,2.500000000000000000e+01,5.400000000000000000e+01,3.700000000000000000e+01,4.500000000000000111e-01,1.817304800000000000e+09
7.000000000000000000e+01,2.500000000000000000e+01,2.800000000000000000e+01,2.300000000000000000e+01,2.500000000000000000e+01,2.500000000000000000e+01,6.400000000000000000e+01,3.700000000000000000e+01,4.500000000000000111e-01,1.835422000000000000e+09
8.600000000000000000e+01,2.600000000000000000e+01,2.600000000000000000e+01,2.500000000000000000e+01,2.300000000000000000e+01,2.300000000000000000e+01,5.900000000000000000e+01,3.600000000000000000e+01,4.500000000000000111e-01,1.853458600000000000e+09
7.500000000000000000e+01,2.500000000000000000e+01,2.700000000000000000e+01,2.300000000000000000e+01,2.300000000000000000e+01,2.300000000000000000e+01,6.800000000000000000e+01,5.900000000000000000e+01,4.500000000000000111e-01,1.872379000000000000e+09
6.200000000000000000e+01,2.300000000000000000e+01,2.500000000000000000e+01,2.600000000000000000e+01,2.500000000000000000e+01,2.400000000000000000e+01,7.800000000000000000e+01,6.100000000000000000e+01,4.500000000000000111e-01,1.891028100000000000e+09
6.400000000000000000e+01,2.300000000000000000e+01,2.500000000000000000e+01,2.500000000000000000e+01,2.600000000000000000e+01,2.300000000000000000e+01,7.900000000000000000e+01,7.200000000000000000e+01,4.500000000000000111e-01,1.908121500000000000e+09
7.500000000000000000e+01,2.100000000000000000e+01,2.500000000000000000e+01,2.600000000000000000e+01,2.400000000000000000e+01,2.300000000000000000e+01,7.800000000000000000e+01,8.100000000000000000e+01,4.500000000000000111e-01,1.928065700000000000e+09
6.300000000000000000e+01,1.800000000000000000e+01,2.800000000000000000e+01,2.600000000000000000e+01,2.500000000000000000e+01,2.200000000000000000e+01,8.800000000000000000e+01,8.000000000000000000e+01,4.500000000000000111e-01,1.946427000000000000e+09
6.500000000000000000e+01,1.900000000000000000e+01,2.800000000000000000e+01,2.500000000000000000e+01,2.300000000000000000e+01,2.300000000000000000e+01,8.100000000000000000e+01,6.600000000000000000e+01,4.500000000000000111e-01,1.964931000000000000e+09
7.000000000000000000e+01,2.200000000000000000e+01,2.700000000000000000e+01,2.300000000000000000e+01,2.100000000000000000e+01,2.400000000000000000e+01,7.700000000000000000e+01,6.600000000000000000e+01,4.500000000000000111e-01,1.982295900000000000e+09
8.300000000000000000e+01,2.200000000000000000e+01,2.600000000000000000e+01,2.400000000000000000e+01,2.100000000000000000e+01,2.400000000000000000e+01,8.800000000000000000e+01,7.300000000000000000e+01,4.500000000000000111e-01,1.999278400000000000e+09
7.300000000000000000e+01,2.400000000000000000e+01,2.700000000000000000e+01,2.500000000000000000e+01,2.100000000000000000e+01,2.500000000000000000e+01,7.900000000000000000e+01,6.400000000000000000e+01,4.500000000000000111e-01,2.017362000000000000e+09
6.800000000000000000e+01,2.500000000000000000e+01,2.400000000000000000e+01,2.500000000000000000e+01,2.300000000000000000e+01,2.600000000000000000e+01,7.300000000000000000e+01,6.700000000000000000e+01,4.500000000000000111e-01,2.034001300000000000e+09
7.400000000000000000e+01,2.500000000000000000e+01,2.600000000000000000e+01,2.700000000000000000e+01,2.300000000000000000e+01,2.500000000000000000e+01,7.600000000000000000e+01,6.800000000000000000e+01,4.500000000000000111e-01,2.052878600000000000e+09
7.500000000000000000e+01,2.300000000000000000e+01,2.600000000000000000e+01,2.500000000000000000e+01,2.600000000000000000e+01,2.300000000000000000e+01,7.400000000000000000e+01,7.100000000000000000e+01,4.500000000000000111e-01,2.070816300000000000e+09
6.000000000000000000e+01,2.500000000000000000e+01,2.600000000000000000e+01,2.800000000000000000e+01,2.600000000000000000e+01,2.500000000000000000e+01,6.100000000000000000e+01,5.100000000000000000e+01,4.500000000000000111e-01,2.088934600000000000e+09
6.100000000000000000e+01,2.200000000000000000e+01,2.400000000000000000e+01,2.700000000000000000e+01,2.800000000000000000e+01,2.500000000000000000e+01,6.800000000000000000e+01,5.100000000000000000e+01,4.500000000000000111e-01,2.106303000000000000e+09
7.500000000000000000e+01,2.400000000000000000e+01,2.700000000000000000e+01,2.700000000000000000e+01,2.700000000000000000e+01,2.400000000000000000e+01,7.200000000000000000e+01,4.700000000000000000e+01,4.500000000000000111e-01,2.123980500000000000e+09
7.000000000000000000e+01,2.400000000000000000e+01,2.600000000000000000e+01,2.500000000000000000e+01,2.600000000000000000e+01,2.400000000000000000e+01,6.900000000000000000e+01,4.500000000000000000e+01,4.500000000000000111e-01,2.141106500000000000e+09
6.400000000000000000e+01,2.800000000000000000e+01,2.600000000000000000e+01,2.800000000000000000e+01,2.500000000000000000e+01,2.400000000000000000e+01,6.700000000000000000e+01,4.000000000000000000e+01,4.500000000000000111e-01,2.159234700000000000e+09
6.900000000000000000e+01,2.600000000000000000e+01,2.500000000000000000e+01,2.700000000000000000e+01,2.500000000000000000e+01,2.300000000000000000e+01,7.000000000000000000e+01,5.200000000000000000e+01,4.500000000000000111e-01,2.176533700000000000e+09
7.700000000000000000e+01,2.800000000000000000e+01,2.800000000000000000e+01,2.600000000000000000e+01,2.200000000000000000e+01,2.900000000000000000e+01,6.600000000000000000e+01,5.100000000000000000e+01,4.500000000000000111e-01,2.195706000000000000e+09
6.300000000000000000e+01,2.700000000000000000e+01,2.300000000000000000e+01,2.600000000000000000e+01,2.200000000000000000e+01,2.800000000000000000e+01,5.800000000000000000e+01,4.900000000000000000e+01,4.500000000000000111e-01,2.213593300000000000e+09
6.500000000000000000e+01,2.800000000000000000e+01,2.500000000000000000e+01,2.700000000000000000e+01,2.200000000000000000e+01,2.900000000000000000e+01,6.100000000000000000e+01,5.500000000000000000e+01,4.500000000000000111e-01,2.231228100000000000e+09
6.800000000000000000e+01,2.600000000000000000e+01,2.600000000000000000e+01,2.700000000000000000e+01,2.200000000000000000e+01,2.900000000000000000e+01,6.700000000000000000e+01,6.700000000000000000e+01,4.500000000000000111e-01,2.249588300000000000e+09
6.800000000000000000e+01,2.800000000000000000e+01,2.500000000000000000e+01,2.600000000000000000e+01,2.300000000000000000e+01,2.900000000000000000e+01,7.700000000000000000e+01,6.000000000000000000e+01,4.500000000000000111e-01,2.266959500000000000e+09
6.200000000000000000e+01,2.600000000000000000e+01,2.400000000000000000e+01,2.700000000000000000e+01,2.400000000000000000e+01,2.400000000000000000e+01,7.400000000000000000e+01,5.900000000000000000e+01,4.500000000000000111e-01,2.284801900000000000e+09
6.100000000000000000e+01,2.600000000000000000e+01,2.500000000000000000e+01,2.800000000000000000e+01,2.400000000000000000e+01,2.400000000000000000e+01,7.100000000000000000e+01,6.200000000000000000e+01,4.500000000000000111e-01,2.303166900000000000e+09
5.700000000000000000e+01,2.300000000000000000e+01,2.400000000000000000e+01,2.700000000000000000e+01,2.400000000000000000e+01,2.400000000000000000e+01,6.800000000000000000e+01,5.600000000000000000e+01,4.500000000000000111e-01,2.321537800000000000e+09
6.200000000000000000e+01,2.300000000000000000e+01,2.200000000000000000e+01,2.500000000000000000e+01,2.400000000000000000e+01,2.300000000000000000e+01,6.900000000000000000e+01,5.200000000000000000e+01,4.500000000000000111e-01,2.338847600000000000e+09
6.100000000000000000e+01,2.000000000000000000e+01,2.400000000000000000e+01,2.500000000000000000e+01,2.400000000000000000e+01,2.300000000000000000e+01,5.400000000000000000e+01,5.100000000000000000e+01,4.500000000000000111e-01,2.357399600000000000e+09
5.700000000000000000e+01,2.000000000000000000e+01,2.500000000000000000e+01,2.500000000000000000e+01,2.500000000000000000e+01,2.200000000000000000e+01,5.400000000000000000e+01,5.100000000000000000e+01,4.500000000000000111e-01,2.377441700000000000e+09
5.700000000000000000e+01,2.200000000000000000e+01,2.700000000000000000e+01,2.600000000000000000e+01,2.600000000000000000e+01,2.200000000000000000e+01,7.800000000000000000e+01,5.200000000000000000e+01,4.500000000000000111e-01,2.399984400000000000e+09
7.200000000000000000e+01,2.400000000000000000e+01,2.600000000000000000e+01,2.500000000000000000e+01,2.700000000000000000e+01,2.400000000000000000e+01,8.100000000000000000e+01,6.200000000000000000e+01,4.500000000000000111e-01,2.421561300000000000e+09
6.300000000000000000e+01,2.200000000000000000e+01,2.600000000000000000e+01,2.700000000000000000e+01,2.500000000000000000e+01,2.300000000000000000e+01,7.400000000000000000e+01,5.000000000000000000e+01,4.500000000000000111e-01,2.442394000000000000e+09
5.800000000000000000e+01,2.400000000000000000e+01,2.400000000000000000e+01,2.700000000000000000e+01,2.600000000000000000e+01,2.500000000000000000e+01,7.500000000000000000e+01,4.900000000000000000e+01,4.500000000000000111e-01,2.461691800000000000e+09
6.000000000000000000e+01,2.400000000000000000e+01,2.400000000000000000e+01,2.700000000000000000e+01,2.600000000000000000e+01,2.400000000000000000e+01,7.300000000000000000e+01,4.600000000000000000e+01,4.500000000000000111e-01,2.480917500000000000e+09
6.200000000000000000e+01,2.200000000000000000e+01,2.400000000000000000e+01,2.500000000000000000e+01,2.600000000000000000e+01,2.500000000000000000e+01,6.200000000000000000e+01,6.300000000000000000e+01,4.500000000000000111e-01,2.498878800000000000e+09
6.500000000000000000e+01,2.300000000000000000e+01,2.400000000000000000e+01,2.500000000000000000e+01,2.700000000000000000e+01,2.500000000000000000e+01,5.400000000000000000e+01,5.600000000000000000e+01,4.500000000000000111e-01,2.518303400000000000e+09
6.600000000000000000e+01,2.300000000000000000e+01,2.500000000000000000e+01,2.500000000000000000e+01,2.700000000000000000e+01,2.800000000000000000e+01,5.600000000000000000e+01,5.800000000000000000e+01,4.500000000000000111e-01,2.536217600000000000e+09
6.700000000000000000e+01,2.200000000000000000e+01,2.600000000000000000e+01,2.600000000000000000e+01,2.800000000000000000e+01,2.700000000000000000e+01,5.400000000000000000e+01,5.900000000000000000e+01,4.500000000000000111e-01,2.553332600000000000e+09
6.800000000000000000e+01,2.500000000000000000e+01,2.500000000000000000e+01,2.700000000000000000e+01,2.800000000000000000e+01,2.900000000000000000e+01,6.000000000000000000e+01,5.900000000000000000e+01,4.500000000000000111e-01,2.570870500000000000e+09
6.600000000000000000e+01,2.500000000000000000e+01,2.400000000000000000e+01,2.800000000000000000e+01,2.600000000000000000e+01,2.700000000000000000e+01,5.300000000000000000e+01,3.800000000000000000e+01,4.500000000000000111e-01,2.587579800000000000e+09
4.300000000000000000e+01,2.600000000000000000e+01,2.300000000000000000e+01,2.700000000000000000e+01,2.600000000000000000e+01,2.600000000000000000e+01,5.500000000000000000e+01,3.400000000000000000e+01,4.500000000000000111e-01,2.604456800000000000e+09
6.400000000000000000e+01,2.600000000000000000e+01,2.400000000000000000e+01,2.800000000000000000e+01,2.600000000000000000e+01,2.500000000000000000e+01,5.600000000000000000e+01,3.600000000000000000e+01,4.500000000000000111e-01,2.622921500000000000e+09
6.900000000000000000e+01,2.700000000000000000e+01,2.400000000000000000e+01,2.700000000000000000e+01,2.400000000000000000e+01,2.400000000000000000e+01,5.600000000000000000e+01,4.600000000000000000e+01,4.500000000000000111e-01,2.639862600000000000e+09
6.700000000000000000e+01,2.400000000000000000e+01,2.200000000000000000e+01,2.600000000000000000e+01,2.300000000000000000e+01,2.400000000000000000e+01,4.900000000000000000e+01,4.500000000000000000e+01,4.500000000000000111e-01,2.657247100000000000e+09
6.700000000000000000e+01,2.500000000000000000e+01,2.300000000000000000e+01,2.600000000000000000e+01,2.300000000000000000e+01,2.500000000000000000e+01,3.500000000000000000e+01,4.300000000000000000e+01,4.500000000000000111e-01,2.674257600000000000e+09
6.800000000000000000e+01,2.500000000000000000e+01,2.400000000000000000e+01,2.600000000000000000e+01,2.100000000000000000e+01,2.700000000000000000e+01,3.400000000000000000e+01,4.400000000000000000e+01,4.500000000000000111e-01,2.691102000000000000e+09
4.700000000000000000e+01,2.500000000000000000e+01,2.200000000000000000e+01,2.400000000000000000e+01,2.100000000000000000e+01,2.500000000000000000e+01,2.700000000000000000e+01,4.000000000000000000e+01,4.500000000000000111e-01,2.709916400000000000e+09
6.600000000000000000e+01,2.400000000000000000e+01,2.200000000000000000e+01,2.600000000000000000e+01,2.100000000000000000e+01,2.400000000000000000e+01,2.800000000000000000e+01,2.800000000000000000e+01,4.500000000000000111e-01,2.727563300000000000e+09
6.800000000000000000e+01,2.300000000000000000e+01,2.300000000000000000e+01,2.800000000000000000e+01,2.200000000000000000e+01,2.400000000000000000e+01,2.600000000000000000e+01,2.900000000000000000e+01,4.500000000000000111e-01,2.745683300000000000e+09
6.800000000000000000e+01,2.700000000000000000e+01,2.200000000000000000e+01,2.800000000000000000e+01,2.400000000000000000e+01,2.600000000000000000e+01,2.600000000000000000e+01,2.800000000000000000e+01,4.500000000000000111e-01,2.762787100000000000e+09
6.800000000000000000e+01,2.500000000000000000e+01,2.300000000000000000e+01,2.700000000000000000e+01,2.500000000000000000e+01,2.600000000000000000e+01,2.500000000000000000e+01,2.800000000000000000e+01,4.500000000000000111e-01,2.780169500000000000e+09
7.200000000000000000e+01,2.500000000000000000e+01,2.400000000000000000e+01,2.700000000000000000e+01,2.400000000000000000e+01,2.700000000000000000e+01,2.400000000000000000e+01,2.800000000000000000e+01,4.500000000000000111e-01,2.797750500000000000e+09
4.600000000000000000e+01,2.500000000000000000e+01,2.400000000000000000e+01,2.600000000000000000e+01,2.400000000000000000e+01,2.700000000000000000e+01,2.200000000000000000e+01,2.300000000000000000e+01,4.500000000000000111e-01,2.814716900000000000e+09
4.100000000000000000e+01,2.600000000000000000e+01,2.300000000000000000e+01,2.600000000000000000e+01,2.200000000000000000e+01,2.700000000000000000e+01,2.300000000000000000e+01,2.200000000000000000e+01,4.500000000000000111e-01,2.831572200000000000e+09
4.000000000000000000e+01,2.200000000000000000e+01,2.400000000000000000e+01,2.500000000000000000e+01,2.200000000000000000e+01,2.600000000000000000e+01,2.500000000000000000e+01,2.300000000000000000e+01,4.500000000000000111e-01,2.849401400000000000e+09
5.600000000000000000e+01,2.500000000000000000e+01,2.400000000000000000e+01,2.800000000000000000e+01,2.300000000000000000e+01,2.600000000000000000e+01,2.400000000000000000e+01,2.400000000000000000e+01,4.500000000000000111e-01,2.867365800000000000e+09
5.100000000000000000e+01,2.600000000000000000e+01,2.300000000000000000e+01,3.100000000000000000e+01,2.500000000000000000e+01,2.400000000000000000e+01,2.500000000000000000e+01,2.500000000000000000e+01,4.500000000000000111e-01,2.884496900000000000e+09
5.300000000000000000e+01,2.600000000000000000e+01,2.200000000000000000e+01,2.900000000000000000e+01,2.500000000000000000e+01,2.300000000000000000e+01,2.600000000000000000e+01,2.500000000000000000e+01,4.500000000000000111e-01,2.901580900000000000e+09
5.300000000000000000e+01,2.800000000000000000e+01,2.200000000000000000e+01,3.100000000000000000e+01,2.600000000000000000e+01,2.300000000000000000e+01,2.600000000000000000e+01,2.600000000000000000e+01,4.500000000000000111e-01,2.919686900000000000e+09
5.200000000000000000e+01,2.800000000000000000e+01,2.100000000000000000e+01,3.100000000000000000e+01,2.500000000000000000e+01,2.600000000000000000e+01,2.400000000000000000e+01,2.400000000000000000e+01,4.500000000000000111e-01,2.937092000000000000e+09
3.900000000000000000e+01,2.700000000000000000e+01,2.000000000000000000e+01,3.200000000000000000e+01,2.800000000000000000e+01,2.600000000000000000e+01,2.500000000000000000e+01,2.200000000000000000e+01,4.500000000000000111e-01,2.954634400000000000e+09
3.600000000000000000e+01,2.600000000000000000e+01,2.400000000000000000e+01,3.000000000000000000e+01,3.600000000000000000e+01,2.900000000000000000e+01,2.500000000000000000e+01,2.100000000000000000e+01,4.500000000000000111e-01,2.972260500000000000e+09
3.600000000000000000e+01,5.100000000000000000e+01,4.400000000000000000e+01,3.500000000000000000e+01,4.600000000000000000e+01,3.800000000000000000e+01,2.600000000000000000e+01,2.200000000000000000e+01,4.500000000000000111e-01,2.989128300000000000e+09
4.700000000000000000e+01,5.900000000000000000e+01,5.200000000000000000e+01,3.700000000000000000e+01,4.800000000000000000e+01,4.000000000000000000e+01,2.600000000000000000e+01,2.400000000000000000e+01,4.500000000000000111e-01,3.005619100000000000e+09
5.000000000000000000e+01,1.360000000000000000e+02,5.900000000000000000e+01,4.300000000000000000e+01,5.100000000000000000e+01,3.900000000000000000e+01,3.000000000000000000e+01,2.300000000000000000e+01,4.500000000000000111e-01,3.022649000000000000e+09
4.500000000000000000e+01,1.470000000000000000e+02,6.300000000000000000e+01,4.600000000000000000e+01,5.200000000000000000e+01,3.800000000000000000e+01,3.000000000000000000e+01,2.200000000000000000e+01,4.600000000000000200e-01,3.039181700000000000e+09
4.500000000000000000e+01,1.520000000000000000e+02,1.110000000000000000e+02,5.400000000000000000e+01,4.900000000000000000e+01,3.800000000000000000e+01,3.000000000000000000e+01,2.500000000000000000e+01,4.600000000000000200e-01,3.058588000000000000e+09
4.300000000000000000e+01,1.490000000000000000e+02,1.860000000000000000e+02,5.300000000000000000e+01,4.300000000000000000e+01,3.000000000000000000e+01,2.900000000000000000e+01,2.600000000000000000e+01,4.600000000000000200e-01,3.076216300000000000e+09
4.200000000000000000e+01,1.470000000000000000e+02,2.930000000000000000e+02,5.800000000000000000e+01,4.200000000000000000e+01,3.000000000000000000e+01,2.900000000000000000e+01,2.500000000000000000e+01,4.699999999999999734e-01,3.095049600000000000e+09
4.000000000000000000e+01,8.600000000000000000e+01,3.130000000000000000e+02,5.800000000000000000e+01,4.300000000000000000e+01,3.100000000000000000e+01,2.600000000000000000e+01,2.600000000000000000e+01,4.699999999999999734e-01,3.114314100000000000e+09
3.900000000000000000e+01,6.600000000000000000e+01,3.180000000000000000e+02,5.400000000000000000e+01,4.100000000000000000e+01,3.500000000000000000e+01,2.500000000000000000e+01,2.700000000000000000e+01,4.699999999999999734e-01,3.131466500000000000e+09
4.000000000000000000e+01,6.300000000000000000e+01,4.430000000000000000e+02,5.400000000000000000e+01,3.800000000000000000e+01,3.400000000000000000e+01,2.500000000000000000e+01,2.500000000000000000e+01,4.799999999999999822e-01,3.148993400000000000e+09
4.100000000000000000e+01,5.800000000000000000e+01,4.660000000000000000e+02,5.300000000000000000e+01,3.400000000000000000e+01,3.300000000000000000e+01,2.400000000000000000e+01,2.300000000000000000e+01,4.799999999999999822e-01,3.166590500000000000e+09
3.300000000000000000e+01,7.600000000000000000e+01,5.590000000000000000e+02,6.500000000000000000e+01,3.600000000000000000e+01,3.100000000000000000e+01,2.500000000000000000e+01,2.400000000000000000e+01,4.899999999999999911e-01,3.183722100000000000e+09
3.300000000000000000e+01,7.500000000000000000e+01,5.780000000000000000e+02,6.500000000000000000e+01,3.300000000000000000e+01,3.100000000000000000e+01,2.300000000000000000e+01,2.400000000000000000e+01,4.899999999999999911e-01,3.201948600000000000e+09
3.500000000000000000e+01,7.600000000000000000e+01,6.320000000000000000e+02,7.100000000000000000e+01,3.100000000000000000e+01,2.700000000000000000e+01,2.400000000000000000e+01,2.500000000000000000e+01,5.000000000000000000e-01,3.220315000000000000e+09
3.700000000000000000e+01,7.900000000000000000e+01,6.370000000000000000e+02,7.900000000000000000e+01,3.800000000000000000e+01,3.200000000000000000e+01,2.200000000000000000e+01,2.900000000000000000e+01,5.100000000000000089e-01,3.237851500000000000e+09
3.500000000000000000e+01,8.700000000000000000e+01,6.380000000000000000e+02,9.200000000000000000e+01,3.800000000000000000e+01,3.400000000000000000e+01,2.200000000000000000e+01,2.900000000000000000e+01,5.100000000000000089e-01,3.256373100000000000e+09
3.200000000000000000e+01,7.800000000000000000e+01,5.750000000000000000e+02,8.300000000000000000e+01,3.800000000000000000e+01,3.400000000000000000e+01,2.100000000000000000e+01,3.400000000000000000e+01,5.200000000000000178e-01,3.275912100000000000e+09
3.100000000000000000e+01,7.900000000000000000e+01,6.050000000000000000e+02,8.300000000000000000e+01,3.700000000000000000e+01,3.300000000000000000e+01,2.100000000000000000e+01,3.200000000000000000e+01,5.200000000000000178e-01,3.292816400000000000e+09
3.000000000000000000e+01,8.100000000000000000e+01,6.030000000000000000e+02,8.400000000000000000e+01,4.100000000000000000e+01,3.500000000000000000e+01,2.100000000000000000e+01,3.200000000000000000e+01,5.300000000000000266e-01,3.309651100000000000e+09
3.400000000000000000e+01,7.800000000000000000e+01,5.590000000000000000e+02,7.900000000000000000e+01,3.500000000000000000e+01,3.100000000000000000e+01,2.200000000000000000e+01,2.800000000000000000e+01,5.400000000000000355e-01,3.326538500000000000e+09
4.000000000000000000e+01,7.000000000000000000e+01,5.740000000000000000e+02,6.800000000000000000e+01,3.600000000000000000e+01,3.100000000000000000e+01,2.400000000000000000e+01,2.900000000000000000e+01,5.400000000000000355e-01,3.343075000000000000e+09
4.400000000000000000e+01,6.300000000000000000e+01,6.120000000000000000e+02,6.700000000000000000e+01,3.700000000000000000e+01,3.200000000000000000e+01,2.600000000000000000e+01,2.500000000000000000e+01,5.400000000000000355e-01,3.360719000000000000e+09
5.000000000000000000e+01,6.000000000000000000e+01,5.830000000000000000e+02,6.700000000000000000e+01,3.700000000000000000e+01,3.200000000000000000e+01,2.800000000000000000e+01,2.500000000000000000e+01,5.500000000000000444e-01,3.378285900000000000e+09
5.600000000000000000e+01,6.900000000000000000e+01,6.170000000000000000e+02,6.200000000000000000e+01,3.300000000000000000e+01,3.000000000000000000e+01,2.800000000000000000e+01,2.600000000000000000e+01,5.500000000000000444e-01,3.396399000000000000e+09
6.400000000000000000e+01,6.300000000000000000e+01,5.910000000000000000e+02,5.300000000000000000e+01,3.300000000000000000e+01,2.700000000000000000e+01,2.700000000000000000e+01,2.500000000000000000e+01,5.500000000000000444e-01,3.414840300000000000e+09
7.100000000000000000e+01,6.800000000000000000e+01,5.430000000000000000e+02,4.500000000000000000e+01,3.200000000000000000e+01,2.600000000000000000e+01,2.500000000000000000e+01,2.500000000000000000e+01,5.500000000000000444e-01,3.432043500000000000e+09
8.400000000000000000e+01,7.200000000000000000e+01,4.370000000000000000e+02,4.200000000000000000e+01,2.700000000000000000e+01,2.700000000000000000e+01,2.400000000000000000e+01,2.300000000000000000e+01,5.500000000000000444e-01,3.449452400000000000e+09
8.200000000000000000e+01,7.300000000000000000e+01,3.980000000000000000e+02,3.500000000000000000e+01,2.700000000000000000e+01,2.700000000000000000e+01,2.400000000000000000e+01,2.500000000000000000e+01,5.500000000000000444e-01,3.476968600000000000e+09
1.040000000000000000e+02,1.240000000000000000e+02,2.360000000000000000e+02,3.300000000000000000e+01,2.800000000000000000e+01,2.800000000000000000e+01,2.600000000000000000e+01,2.800000000000000000e+01,5.500000000000000444e-01,3.499931800000000000e+09
1.070000000000000000e+02,1.700000000000000000e+02,1.750000000000000000e+02,3.400000000000000000e+01,2.700000000000000000e+01,2.900000000000000000e+01,2.600000000000000000e+01,3.500000000000000000e+01,5.500000000000000444e-01,3.518302800000000000e+09
1.310000000000000000e+02,1.740000000000000000e+02,1.510000000000000000e+02,3.400000000000000000e+01,2.800000000000000000e+01,2.900000000000000000e+01,3.400000000000000000e+01,6.300000000000000000e+01,5.500000000000000444e-01,3.536750500000000000e+09
1.730000000000000000e+02,1.750000000000000000e+02,1.080000000000000000e+02,3.400000000000000000e+01,3.200000000000000000e+01,3.100000000000000000e+01,3.800000000000000000e+01,7.600000000000000000e+01,5.400000000000000355e-01,3.556269300000000000e+09
2.200000000000000000e+02,1.780000000000000000e+02,9.600000000000000000e+01,4.700000000000000000e+01,4.200000000000000000e+01,5.800000000000000000e+01,8.000000000000000000e+01,1.520000000000000000e+02,5.400000000000000355e-01,3.574119300000000000e+09
2.300000000000000000e+02,1.460000000000000000e+02,6.200000000000000000e+01,4.700000000000000000e+01,4.500000000000000000e+01,1.100000000000000000e+02,1.170000000000000000e+02,2.290000000000000000e+02,5.300000000000000266e-01,3.591107700000000000e+09
2.750000000000000000e+02,1.130000000000000000e+02,6.300000000000000000e+01,4.900000000000000000e+01,5.000000000000000000e+01,1.570000000000000000e+02,1.780000000000000000e+02,4.380000000000000000e+02,5.300000000000000266e-01,3.607690600000000000e+09
3.140000000000000000e+02,1.090000000000000000e+02,6.800000000000000000e+01,5.500000000000000000e+01,5.500000000000000000e+01,1.970000000000000000e+02,2.070000000000000000e+02,5.710000000000000000e+02,5.300000000000000266e-01,3.624357300000000000e+09
3.810000000000000000e+02,1.220000000000000000e+02,7.300000000000000000e+01,6.500000000000000000e+01,6.000000000000000000e+01,2.340000000000000000e+02,2.650000000000000000e+02,7.250000000000000000e+02,5.300000000000000266e-01,3.641062800000000000e+09
4.150000000000000000e+02,1.350000000000000000e+02,7.900000000000000000e+01,6.800000000000000000e+01,6.100000000000000000e+01,2.760000000000000000e+02,3.210000000000000000e+02,9.370000000000000000e+02,5.300000000000000266e-01,3.658779400000000000e+09
4.460000000000000000e+02,1.630000000000000000e+02,7.900000000000000000e+01,7.500000000000000000e+01,6.400000000000000000e+01,2.940000000000000000e+02,3.280000000000000000e+02,1.017000000000000000e+03,5.400000000000000355e-01,3.676771300000000000e+09
4.680000000000000000e+02,1.570000000000000000e+02,7.700000000000000000e+01,7.900000000000000000e+01,6.400000000000000000e+01,3.290000000000000000e+02,3.180000000000000000e+02,1.155000000000000000e+03,5.400000000000000355e-01,3.694629800000000000e+09
4.520000000000000000e+02,1.540000000000000000e+02,6.800000000000000000e+01,8.000000000000000000e+01,6.200000000000000000e+01,3.700000000000000000e+02,3.160000000000000000e+02,1.135000000000000000e+03,5.500000000000000444e-01,3.711789900000000000e+09
4.050000000000000000e+02,1.440000000000000000e+02,6.800000000000000000e+01,7.800000000000000000e+01,6.100000000000000000e+01,4.110000000000000000e+02,3.040000000000000000e+02,1.134000000000000000e+03,5.500000000000000444e-01,3.728554200000000000e+09
3.610000000000000000e+02,1.290000000000000000e+02,6.000000000000000000e+01,7.400000000000000000e+01,5.500000000000000000e+01,4.410000000000000000e+02,2.720000000000000000e+02,1.027000000000000000e+03,5.600000000000000533e-01,3.745534700000000000e+09
3.270000000000000000e+02,9.400000000000000000e+01,5.400000000000000000e+01,6.600000000000000000e+01,4.900000000000000000e+01,4.400000000000000000e+02,2.810000000000000000e+02,9.980000000000000000e+02,5.699999999999999512e-01,3.763292500000000000e+09
2.900000000000000000e+02,9.000000000000000000e+01,5.300000000000000000e+01,5.900000000000000000e+01,4.900000000000000000e+01,4.320000000000000000e+02,3.010000000000000000e+02,8.140000000000000000e+02,5.799999999999999600e-01,3.780963900000000000e+09
2.910000000000000000e+02,9.700000000000000000e+01,5.700000000000000000e+01,5.500000000000000000e+01,5.000000000000000000e+01,3.920000000000000000e+02,2.920000000000000000e+02,8.700000000000000000e+02,5.999999999999999778e-01,3.798143800000000000e+09
2.690000000000000000e+02,9.000000000000000000e+01,5.700000000000000000e+01,5.100000000000000000e+01,4.800000000000000000e+01,3.450000000000000000e+02,2.700000000000000000e+02,8.460000000000000000e+02,5.999999999999999778e-01,3.814913200000000000e+09
2.620000000000000000e+02,9.300000000000000000e+01,6.100000000000000000e+01,4.600000000000000000e+01,4.800000000000000000e+01,2.900000000000000000e+02,2.420000000000000000e+02,7.700000000000000000e+02,6.099999999999999867e-01,3.831988000000000000e+09
2.830000000000000000e+02,9.000000000000000000e+01,6.100000000000000000e+01,4.500000000000000000e+01,4.700000000000000000e+01,2.750000000000000000e+02,2.560000000000000000e+02,7.580000000000000000e+02,6.099999999999999867e-01,3.850741600000000000e+09
2.530000000000000000e+02,8.400000000000000000e+01,6.300000000000000000e+01,4.700000000000000000e+01,4.700000000000000000e+01,2.340000000000000000e+02,2.220000000000000000e+02,7.280000000000000000e+02,6.099999999999999867e-01,3.868168100000000000e+09
2.310000000000000000e+02,1.170000000000000000e+02,6.500000000000000000e+01,4.700000000000000000e+01,4.300000000000000000e+01,2.410000000000000000e+02,2.320000000000000000e+02,6.240000000000000000e+02,6.099999999999999867e-01,3.885313600000000000e+09
2.240000000000000000e+02,1.510000000000000000e+02,5.900000000000000000e+01,4.300000000000000000e+01,4.000000000000000000e+01,2.360000000000000000e+02,2.320000000000000000e+02,5.350000000000000000e+02,6.099999999999999867e-01,3.901907300000000000e+09
2.100000000000000000e+02,1.560000000000000000e+02,7.100000000000000000e+01,4.600000000000000000e+01,4.100000000000000000e+01,2.180000000000000000e+02,2.300000000000000000e+02,5.430000000000000000e+02,5.999999999999999778e-01,3.918993900000000000e+09
1.490000000000000000e+02,1.770000000000000000e+02,8.400000000000000000e+01,4.800000000000000000e+01,4.900000000000000000e+01,2.110000000000000000e+02,1.770000000000000000e+02,4.400000000000000000e+02,5.999999999999999778e-01,3.937637400000000000e+09
1.320000000000000000e+02,1.870000000000000000e+02,8.900000000000000000e+01,4.700000000000000000e+01,5.500000000000000000e+01,2.030000000000000000e+02,1.600000000000000000e+02,3.650000000000000000e+02,5.899999999999999689e-01,3.955655600000000000e+09
1.090000000000000000e+02,2.250000000000000000e+02,1.020000000000000000e+02,5.800000000000000000e+01,7.700000000000000000e+01,1.710000000000000000e+02,1.290000000000000000e+02,3.020000000000000000e+02,5.799999999999999600e-01,3.972605300000000000e+09
8.400000000000000000e+01,2.760000000000000000e+02,1.270000000000000000e+02,1.010000000000000000e+02,9.100000000000000000e+01,1.430000000000000000e+02,9.600000000000000000e+01,1.940000000000000000e+02,5.699999999999999512e-01,3.989535400000000000e+09
9.300000000000000000e+01,3.690000000000000000e+02,1.520000000000000000e+02,1.350000000000000000e+02,1.030000000000000000e+02,1.270000000000000000e+02,7.900000000000000000e+01,1.200000000000000000e+02,5.600000000000000533e-01,4.007552300000000000e+09
8.000000000000000000e+01,4.090000000000000000e+02,1.620000000000000000e+02,1.680000000000000000e+02,1.280000000000000000e+02,1.140000000000000000e+02,7.200000000000000000e+01,9.400000000000000000e+01,5.600000000000000533e-01,4.024513300000000000e+09
8.100000000000000000e+01,4.450000000000000000e+02,3.560000000000000000e+02,1.820000000000000000e+02,1.330000000000000000e+02,9.700000000000000000e+01,6.300000000000000000e+01,7.800000000000000000e+01,5.500000000000000444e-01,4.041959600000000000e+09
8.600000000000000000e+01,4.460000000000000000e+02,4.930000000000000000e+02,2.130000000000000000e+02,1.460000000000000000e+02,1.100000000000000000e+02,6.400000000000000000e+01,6.700000000000000000e+01,5.400000000000000355e-01,4.059561800000000000e+09
9.200000000000000000e+01,4.420000000000000000e+02,5.270000000000000000e+02,2.120000000000000000e+02,1.420000000000000000e+02,9.900000000000000000e+01,6.000000000000000000e+01,6.700000000000000000e+01,5.300000000000000266e-01,4.076749400000000000e+09
9.100000000000000000e+01,4.080000000000000000e+02,5.740000000000000000e+02,2.480000000000000000e+02,1.410000000000000000e+02,9.400000000000000000e+01,6.200000000000000000e+01,5.600000000000000000e+01,5.200000000000000178e-01,4.093335800000000000e+09
8.900000000000000000e+01,4.180000000000000000e+02,6.660000000000000000e+02,2.700000000000000000e+02,1.560000000000000000e+02,8.900000000000000000e+01,6.100000000000000000e+01,5.300000000000000000e+01,5.100000000000000089e-01,4.113161800000000000e+09
9.200000000000000000e+01,4.160000000000000000e+02,7.170000000000000000e+02,3.770000000000000000e+02,2.110000000000000000e+02,1.040000000000000000e+02,6.600000000000000000e+01,5.300000000000000000e+01,4.799999999999999822e-01,4.130615800000000000e+09
9.100000000000000000e+01,4.300000000000000000e+02,7.580000000000000000e+02,4.640000000000000000e+02,2.420000000000000000e+02,1.070000000000000000e+02,6.700000000000000000e+01,5.300000000000000000e+01,4.600000000000000200e-01,4.147970700000000000e+09
8.600000000000000000e+01,4.690000000000000000e+02,8.210000000000000000e+02,5.320000000000000000e+02,2.490000000000000000e+02,1.120000000000000000e+02,6.900000000000000000e+01,4.900000000000000000e+01,4.299999999999999933e-01,4.165388600000000000e+09
7.900000000000000000e+01,4.760000000000000000e+02,8.570000000000000000e+02,5.720000000000000000e+02,2.840000000000000000e+02,1.310000000000000000e+02,6.900000000000000000e+01,4.900000000000000000e+01,4.099999999999999756e-01,4.183753100000000000e+09
8.700000000000000000e+01,4.450000000000000000e+02,9.500000000000000000e+02,6.170000000000000000e+02,2.700000000000000000e+02,1.280000000000000000e+02,6.500000000000000000e+01,5.000000000000000000e+01,3.800000000000000044e-01,4.202707500000000000e+09
1.090000000000000000e+02,4.280000000000000000e+02,9.610000000000000000e+02,6.160000000000000000e+02,2.370000000000000000e+02,1.200000000000000000e+02,6.200000000000000000e+01,5.100000000000000000e+01,3.499999999999999778e-01,4.219892400000000000e+09
1.110000000000000000e+02,4.450000000000000000e+02,1.021000000000000000e+03,6.090000000000000000e+02,2.010000000000000000e+02,1.090000000000000000e+02,5.700000000000000000e+01,5.000000000000000000e+01,3.200000000000000067e-01,4.239080300000000000e+09
1.170000000000000000e+02,4.270000000000000000e+02,1.013000000000000000e+03,5.810000000000000000e+02,2.000000000000000000e+02,1.100000000000000000e+02,5.700000000000000000e+01,5.100000000000000000e+01,2.899999999999999800e-01,4.257328600000000000e+09
1.160000000000000000e+02,4.060000000000000000e+02,1.022000000000000000e+03,5.740000000000000000e+02,1.570000000000000000e+02,9.200000000000000000e+01,5.200000000000000000e+01,5.000000000000000000e+01,2.700000000000000178e-01,4.276866200000000000e+09
1.130000000000000000e+02,3.910000000000000000e+02,8.970000000000000000e+02,5.800000000000000000e+02,1.510000000000000000e+02,8.300000000000000000e+01,5.600000000000000000e+01,4.700000000000000000e+01,2.500000000000000000e-01,4.294222700000000000e+09
8.500000000000000000e+01,4.320000000000000000e+02,8.550000000000000000e+02,5.200000000000000000e+02,1.340000000000000000e+02,7.800000000000000000e+01,5.300000000000000000e+01,4.000000000000000000e+01,2.300000000000000100e-01,4.311632500000000000e+09
7.600000000000000000e+01,3.990000000000000000e+02,7.300000000000000000e+02,4.430000000000000000e+02,1.170000000000000000e+02,7.000000000000000000e+01,5.000000000000000000e+01,3.400000000000000000e+01,2.200000000000000011e-01,4.328515500000000000e+09
7.000000000000000000e+01,3.330000000000000000e+02,6.470000000000000000e+02,3.980000000000000000e+02,1.020000000000000000e+02,6.100000000000000000e+01,4.900000000000000000e+01,3.200000000000000000e+01,2.200000000000000011e-01,4.347888600000000000e+09
6.100000000000000000e+01,3.020000000000000000e+02,5.510000000000000000e+02,3.140000000000000000e+02,7.000000000000000000e+01,4.500000000000000000e+01,4.400000000000000000e+01,2.700000000000000000e+01,2.399999999999999911e-01,4.366767300000000000e+09
6.000000000000000000e+01,2.920000000000000000e+02,5.100000000000000000e+02,1.350000000000000000e+02,6.000000000000000000e+01,4.100000000000000000e+01,3.300000000000000000e+01,2.700000000000000000e+01,2.500000000000000000e-01,4.386883200000000000e+09
6.100000000000000000e+01,1.830000000000000000e+02,3.860000000000000000e+02,1.070000000000000000e+02,5.300000000000000000e+01,3.700000000000000000e+01,3.300000000000000000e+01,2.600000000000000000e+01,2.800000000000000266e-01,4.405538000000000000e+09
7.600000000000000000e+01,1.070000000000000000e+02,2.200000000000000000e+02,8.800000000000000000e+01,4.900000000000000000e+01,3.700000000000000000e+01,3.400000000000000000e+01,2.800000000000000000e+01,2.999999999999999889e-01,4.424243900000000000e+09
9.400000000000000000e+01,9.700000000000000000e+01,2.010000000000000000e+02,6.700000000000000000e+01,3.800000000000000000e+01,3.400000000000000000e+01,3.100000000000000000e+01,4.900000000000000000e+01,3.099999999999999978e-01,4.442945500000000000e+09
1.020000000000000000e+02,9.000000000000000000e+01,1.310000000000000000e+02,4.600000000000000000e+01,3.500000000000000000e+01,3.300000000000000000e+01,3.100000000000000000e+01,5.300000000000000000e+01,3.300000000000000155e-01,4.462310300000000000e+09
1.040000000000000000e+02,7.700000000000000000e+01,1.150000000000000000e+02,4.400000000000000000e+01,3.700000000000000000e+01,3.500000000000000000e+01,6.400000000000000000e+01,8.500000000000000000e+01,3.499999999999999778e-01,4.480919800000000000e+09
1.120000000000000000e+02,1.480000000000000000e+02,8.800000000000000000e+01,3.900000000000000000e+01,3.700000000000000000e+01,3.600000000000000000e+01,7.900000000000000000e+01,1.360000000000000000e+02,3.699999999999999956e-01,4.498999400000000000e+09
1.100000000000000000e+02,1.540000000000000000e+02,8.200000000000000000e+01,3.900000000000000000e+01,3.600000000000000000e+01,3.700000000000000000e+01,8.600000000000000000e+01,1.580000000000000000e+02,3.800000000000000044e-01,4.517177000000000000e+09
1.180000000000000000e+02,1.570000000000000000e+02,7.700000000000000000e+01,3.900000000000000000e+01,3.700000000000000000e+01,4.100000000000000000e+01,1.180000000000000000e+02,1.580000000000000000e+02,4.000000000000000222e-01,4.536289400000000000e+09
1.190000000000000000e+02,1.620000000000000000e+02,6.300000000000000000e+01,3.900000000000000000e+01,3.500000000000000000e+01,4.400000000000000000e+01,1.260000000000000000e+02,1.570000000000000000e+02,4.199999999999999845e-01,4.554191100000000000e+09
1.230000000000000000e+02,1.650000000000000000e+02,6.300000000000000000e+01,3.500000000000000000e+01,3.300000000000000000e+01,4.500000000000000000e+01,1.150000000000000000e+02,1.510000000000000000e+02,4.299999999999999933e-01,4.572787400000000000e+09
1.140000000000000000e+02,1.030000000000000000e+02,4.500000000000000000e+01,3.900000000000000000e+01,2.900000000000000000e+01,4.100000000000000000e+01,1.090000000000000000e+02,1.130000000000000000e+02,4.299999999999999933e-01,4.591650500000000000e+09
1.080000000000000000e+02,8.500000000000000000e+01,4.500000000000000000e+01,3.600000000000000000e+01,2.900000000000000000e+01,3.800000000000000000e+01,1.120000000000000000e+02,8.300000000000000000e+01,4.299999999999999933e-01,4.609953800000000000e+09
1.020000000000000000e+02,8.100000000000000000e+01,4.200000000000000000e+01,3.600000000000000000e+01,2.800000000000000000e+01,3.200000000000000000e+01,8.400000000000000000e+01,7.300000000000000000e+01,4.299999999999999933e-01,4.629451300000000000e+09
9.400000000000000000e+01,7.300000000000000000e+01,4.400000000000000000e+01,3.500000000000000000e+01,3.000000000000000000e+01,3.000000000000000000e+01,7.600000000000000000e+01,7.400000000000000000e+01,4.299999999999999933e-01,4.649809000000000000e+09
8.400000000000000000e+01,6.700000000000000000e+01,4.200000000000000000e+01,3.700000000000000000e+01,3.800000000000000000e+01,2.800000000000000000e+01,7.300000000000000000e+01,5.700000000000000000e+01,4.400000000000000022e-01,4.669104800000000000e+09
9.300000000000000000e+01,6.200000000000000000e+01,4.500000000000000000e+01,3.800000000000000000e+01,6.400000000000000000e+01,2.900000000000000000e+01,7.000000000000000000e+01,4.700000000000000000e+01,4.400000000000000022e-01,4.687429100000000000e+09
9.300000000000000000e+01,6.700000000000000000e+01,4.900000000000000000e+01,4.300000000000000000e+01,7.900000000000000000e+01,3.700000000000000000e+01,5.700000000000000000e+01,4.300000000000000000e+01,4.400000000000000022e-01,4.709385700000000000e+09
6.400000000000000000e+01,6.200000000000000000e+01,4.800000000000000000e+01,4.700000000000000000e+01,9.500000000000000000e+01,4.100000000000000000e+01,4.800000000000000000e+01,4.100000000000000000e+01,4.400000000000000022e-01,4.727949100000000000e+09
6.400000000000000000e+01,6.000000000000000000e+01,5.000000000000000000e+01,4.800000000000000000e+01,9.900000000000000000e+01,4.100000000000000000e+01,3.900000000000000000e+01,3.500000000000000000e+01,4.500000000000000111e-01,4.746902600000000000e+09
7.800000000000000000e+01,6.400000000000000000e+01,5.600000000000000000e+01,4.900000000000000000e+01,9.900000000000000000e+01,4.200000000000000000e+01,3.700000000000000000e+01,3.100000000000000000e+01,4.500000000000000111e-01,4.765050900000000000e+09
8.400000000000000000e+01,1.130000000000000000e+02,6.800000000000000000e+01,5.000000000000000000e+01,8.900000000000000000e+01,4.000000000000000000e+01,3.500000000000000000e+01,3.200000000000000000e+01,4.500000000000000111e-01,4.787072200000000000e+09
1.060000000000000000e+02,1.210000000000000000e+02,6.700000000000000000e+01,4.700000000000000000e+01,7.700000000000000000e+01,3.700000000000000000e+01,3.000000000000000000e+01,3.100000000000000000e+01,4.400000000000000022e-01,4.809311900000000000e+09
1.240000000000000000e+02,1.340000000000000000e+02,1.170000000000000000e+02,4.700000000000000000e+01,6.100000000000000000e+01,3.300000000000000000e+01,2.900000000000000000e+01,3.200000000000000000e+01,4.500000000000000111e-01,4.829537700000000000e+09
1.270000000000000000e+02,1.430000000000000000e+02,1.350000000000000000e+02,5.600000000000000000e+01,5.700000000000000000e+01,3.400000000000000000e+01,2.900000000000000000e+01,3.500000000000000000e+01,4.500000000000000111e-01,4.849473800000000000e+09
1.230000000000000000e+02,1.440000000000000000e+02,1.460000000000000000e+02,5.500000000000000000e+01,5.300000000000000000e+01,3.700000000000000000e+01,2.900000000000000000e+01,3.300000000000000000e+01,4.500000000000000111e-01,4.868308700000000000e+09
1.120000000000000000e+02,1.600000000000000000e+02,1.530000000000000000e+02,6.100000000000000000e+01,4.800000000000000000e+01,4.000000000000000000e+01,2.900000000000000000e+01,2.900000000000000000e+01,4.500000000000000111e-01,4.887742500000000000e+09
9.400000000000000000e+01,1.550000000000000000e+02,1.550000000000000000e+02,6.100000000000000000e+01,5.400000000000000000e+01,4.000000000000000000e+01,2.900000000000000000e+01,2.700000000000000000e+01,4.600000000000000200e-01,4.909299300000000000e+09
7.200000000000000000e+01,1.500000000000000000e+02,1.310000000000000000e+02,6.100000000000000000e+01,5.600000000000000000e+01,4.200000000000000000e+01,3.200000000000000000e+01,2.700000000000000000e+01,4.600000000000000200e-01,4.927471100000000000e+09
6.300000000000000000e+01,1.420000000000000000e+02,1.430000000000000000e+02,6.100000000000000000e+01,7.900000000000000000e+01,4.900000000000000000e+01,3.600000000000000000e+01,2.400000000000000000e+01,4.699999999999999734e-01,4.949890800000000000e+09
5.300000000000000000e+01,1.400000000000000000e+02,1.380000000000000000e+02,7.400000000000000000e+01,8.300000000000000000e+01,5.000000000000000000e+01,3.700000000000000000e+01,2.500000000000000000e+01,4.699999999999999734e-01,4.968654900000000000e+09
5.600000000000000000e+01,1.030000000000000000e+02,1.810000000000000000e+02,6.900000000000000000e+01,8.500000000000000000e+01,5.100000000000000000e+01,3.900000000000000000e+01,2.700000000000000000e+01,4.699999999999999734e-01,4.988608400000000000e+09
6.200000000000000000e+01,1.000000000000000000e+02,1.990000000000000000e+02,7.200000000000000000e+01,8.900000000000000000e+01,5.300000000000000000e+01,4.100000000000000000e+01,2.600000000000000000e+01,4.799999999999999822e-01,5.009188900000000000e+09
6.000000000000000000e+01,9.400000000000000000e+01,2.110000000000000000e+02,7.000000000000000000e+01,8.600000000000000000e+01,5.700000000000000000e+01,4.200000000000000000e+01,2.500000000000000000e+01,4.799999999999999822e-01,5.027547300000000000e+09
6.000000000000000000e+01,9.000000000000000000e+01,2.000000000000000000e+02,7.100000000000000000e+01,6.500000000000000000e+01,5.100000000000000000e+01,3.700000000000000000e+01,2.600000000000000000e+01,4.799999999999999822e-01,5.046570100000000000e+09
6.500000000000000000e+01,8.900000000000000000e+01,2.110000000000000000e+02,6.300000000000000000e+01,6.500000000000000000e+01,5.200000000000000000e+01,3.500000000000000000e+01,2.500000000000000000e+01,4.799999999999999822e-01,5.065165900000000000e+09
6.100000000000000000e+01,6.500000000000000000e+01,1.750000000000000000e+02,6.000000000000000000e+01,6.800000000000000000e+01,4.900000000000000000e+01,3.300000000000000000e+01,2.400000000000000000e+01,4.799999999999999822e-01,5.086877900000000000e+09
4.600000000000000000e+01,6.000000000000000000e+01,1.580000000000000000e+02,5.400000000000000000e+01,5.800000000000000000e+01,4.400000000000000000e+01,2.900000000000000000e+01,2.500000000000000000e+01,4.899999999999999911e-01,5.109183600000000000e+09
4.300000000000000000e+01,5.900000000000000000e+01,1.330000000000000000e+02,5.600000000000000000e+01,6.000000000000000000e+01,3.800000000000000000e+01,2.400000000000000000e+01,2.300000000000000000e+01,4.899999999999999911e-01,5.127812200000000000e+09
4.300000000000000000e+01,5.500000000000000000e+01,1.220000000000000000e+02,4.800000000000000000e+01,6.100000000000000000e+01,3.800000000000000000e+01,2.900000000000000000e+01,2.200000000000000000e+01,4.799999999999999822e-01,5.147160200000000000e+09
5.100000000000000000e+01,5.300000000000000000e+01,1.210000000000000000e+02,4.400000000000000000e+01,5.700000000000000000e+01,3.300000000000000000e+01,2.900000000000000000e+01,2.200000000000000000e+01,4.799999999999999822e-01,5.166217700000000000e+09
5.400000000000000000e+01,4.300000000000000000e+01,1.160000000000000000e+02,4.700000000000000000e+01,5.200000000000000000e+01,3.300000000000000000e+01,2.800000000000000000e+01,2.200000000000000000e+01,4.799999999999999822e-01,5.187154400000000000e+09
5.400000000000000000e+01,4.300000000000000000e+01,1.210000000000000000e+02,5.300000000000000000e+01,5.200000000000000000e+01,3.200000000000000000e+01,2.900000000000000000e+01,2.200000000000000000e+01,4.799999999999999822e-01,5.208987200000000000e+09
5.400000000000000000e+01,3.900000000000000000e+01,1.220000000000000000e+02,5.000000000000000000e+01,5.900000000000000000e+01,4.300000000000000000e+01,3.200000000000000000e+01,2.200000000000000000e+01,4.799999999999999822e-01,5.227120500000000000e+09
6.500000000000000000e+01,3.600000000000000000e+01,1.200000000000000000e+02,5.400000000000000000e+01,6.500000000000000000e+01,4.900000000000000000e+01,3.000000000000000000e+01,2.400000000000000000e+01,4.799999999999999822e-01,5.246163700000000000e+09
5.400000000000000000e+01,3.600000000000000000e+01,1.020000000000000000e+02,6.500000000000000000e+01,6.600000000000000000e+01,4.900000000000000000e+01,3.000000000000000000e+01,2.400000000000000000e+01,4.799999999999999822e-01,5.264783900000000000e+09
5.100000000000000000e+01,3.600000000000000000e+01,9.500000000000000000e+01,6.300000000000000000e+01,6.600000000000000000e+01,4.900000000000000000e+01,3.000000000000000000e+01,2.300000000000000000e+01,4.799999999999999822e-01,5.286792800000000000e+09
5.100000000000000000e+01,3.800000000000000000e+01,7.800000000000000000e+01,6.100000000000000000e+01,6.900000000000000000e+01,5.200000000000000000e+01,3.100000000000000000e+01,2.300000000000000000e+01,4.799999999999999822e-01,5.309421800000000000e+09
6.700000000000000000e+01,4.000000000000000000e+01,8.400000000000000000e+01,6.300000000000000000e+01,6.400000000000000000e+01,4.200000000000000000e+01,2.900000000000000000e+01,2.400000000000000000e+01,4.799999999999999822e-01,5.328159300000000000e+09
5.900000000000000000e+01,5.300000000000000000e+01,9.400000000000000000e+01,6.100000000000000000e+01,5.600000000000000000e+01,3.800000000000000000e+01,3.500000000000000000e+01,2.300000000000000000e+01,4.799999999999999822e-01,5.347517700000000000e+09
5.700000000000000000e+01,5.500000000000000000e+01,7.900000000000000000e+01,4.500000000000000000e+01,5.300000000000000000e+01,3.700000000000000000e+01,3.400000000000000000e+01,2.200000000000000000e+01,4.799999999999999822e-01,5.366338100000000000e+09
5.500000000000000000e+01,5.900000000000000000e+01,7.900000000000000000e+01,4.400000000000000000e+01,5.500000000000000000e+01,3.800000000000000000e+01,3.600000000000000000e+01,2.400000000000000000e+01,4.799999999999999822e-01,5.388765200000000000e+09
7.400000000000000000e+01,5.800000000000000000e+01,7.700000000000000000e+01,4.000000000000000000e+01,5.200000000000000000e+01,3.600000000000000000e+01,3.700000000000000000e+01,2.500000000000000000e+01,4.799999999999999822e-01,5.407521800000000000e+09
6.100000000000000000e+01,5.800000000000000000e+01,6.800000000000000000e+01,3.900000000000000000e+01,4.700000000000000000e+01,3.600000000000000000e+01,3.700000000000000000e+01,2.400000000000000000e+01,4.799999999999999822e-01,5.425785900000000000e+09
5.800000000000000000e+01,5.800000000000000000e+01,6.700000000000000000e+01,3.300000000000000000e+01,4.600000000000000000e+01,2.900000000000000000e+01,3.100000000000000000e+01,2.400000000000000000e+01,4.799999999999999822e-01,5.445585600000000000e+09
5.800000000000000000e+01,6.400000000000000000e+01,1.140000000000000000e+02,3.700000000000000000e+01,4.900000000000000000e+01,3.100000000000000000e+01,3.200000000000000000e+01,2.400000000000000000e+01,4.799999999999999822e-01,5.467290700000000000e+09
6.500000000000000000e+01,6.000000000000000000e+01,1.170000000000000000e+02,3.400000000000000000e+01,4.600000000000000000e+01,3.000000000000000000e+01,2.900000000000000000e+01,2.400000000000000000e+01,4.799999999999999822e-01,5.489567500000000000e+09
6.400000000000000000e+01,5.700000000000000000e+01,1.160000000000000000e+02,3.700000000000000000e+01,5.100000000000000000e+01,2.900000000000000000e+01,2.800000000000000000e+01,2.300000000000000000e+01,4.799999999999999822e-01,5.507509500000000000e+09
6.600000000000000000e+01,6.100000000000000000e+01,1.180000000000000000e+02,3.500000000000000000e+01,5.000000000000000000e+01,3.200000000000000000e+01,2.800000000000000000e+01,2.500000000000000000e+01,4.799999999999999822e-01,5.525431700000000000e+09
6.600000000000000000e+01,5.700000000000000000e+01,1.180000000000000000e+02,4.700000000000000000e+01,5.400000000000000000e+01,3.900000000000000000e+01,2.900000000000000000e+01,2.500000000000000000e+01,4.699999999999999734e-01,5.545156800000000000e+09
7.200000000000000000e+01,5.000000000000000000e+01,7.600000000000000000e+01,4.600000000000000000e+01,5.300000000000000000e+01,3.900000000000000000e+01,2.800000000000000000e+01,2.800000000000000000e+01,4.699999999999999734e-01,5.567129400000000000e+09
7.200000000000000000e+01,5.300000000000000000e+01,8.300000000000000000e+01,5.100000000000000000e+01,5.300000000000000000e+01,3.900000000000000000e+01,2.800000000000000000e+01,2.800000000000000000e+01,4.699999999999999734e-01,5.589404500000000000e+09
5.500000000000000000e+01,5.900000000000000000e+01,8.700000000000000000e+01,5.200000000000000000e+01,5.100000000000000000e+01,4.300000000000000000e+01,3.000000000000000000e+01,2.800000000000000000e+01,4.699999999999999734e-01,5.608289500000000000e+09
6.100000000000000000e+01,5.900000000000000000e+01,8.600000000000000000e+01,5.300000000000000000e+01,6.100000000000000000e+01,4.300000000000000000e+01,3.100000000000000000e+01,2.800000000000000000e+01,4.699999999999999734e-01,5.626858300000000000e+09
6.100000000000000000e+01,6.100000000000000000e+01,7.900000000000000000e+01,4.400000000000000000e+01,5.800000000000000000e+01,3.800000000000000000e+01,2.800000000000000000e+01,2.700000000000000000e+01,4.699999999999999734e-01,5.645809100000000000e+09
5.400000000000000000e+01,6.000000000000000000e+01,8.400000000000000000e+01,4.500000000000000000e+01,5.500000000000000000e+01,3.700000000000000000e+01,2.800000000000000000e+01,2.400000000000000000e+01,4.699999999999999734e-01,5.667801200000000000e+09
4.500000000000000000e+01,6.000000000000000000e+01,8.100000000000000000e+01,4.000000000000000000e+01,5.800000000000000000e+01,3.800000000000000000e+01,2.900000000000000000e+01,2.500000000000000000e+01,4.699999999999999734e-01,5.688744900000000000e+09
4.200000000000000000e+01,5.300000000000000000e+01,8.800000000000000000e+01,4.200000000000000000e+01,5.300000000000000000e+01,3.400000000000000000e+01,2.700000000000000000e+01,2.400000000000000000e+01,4.699999999999999734e-01,5.708308700000000000e+09
2.700000000000000000e+01,4.800000000000000000e+01,8.700000000000000000e+01,4.100000000000000000e+01,4.100000000000000000e+01,3.500000000000000000e+01,2.500000000000000000e+01,2.200000000000000000e+01,4.699999999999999734e-01,5.727214400000000000e+09
4.000000000000000000e+01,3.400000000000000000e+01,8.300000000000000000e+01,4.500000000000000000e+01,3.900000000000000000e+01,3.700000000000000000e+01,2.700000000000000000e+01,2.200000000000000000e+01,4.699999999999999734e-01,5.746150000000000000e+09
4.500000000000000000e+01,3.600000000000000000e+01,7.700000000000000000e+01,4.200000000000000000e+01,5.000000000000000000e+01,3.700000000000000000e+01,2.800000000000000000e+01,2.400000000000000000e+01,4.699999999999999734e-01,5.766372000000000000e+09
4.600000000000000000e+01,3.100000000000000000e+01,6.700000000000000000e+01,4.600000000000000000e+01,5.500000000000000000e+01,3.700000000000000000e+01,2.800000000000000000e+01,2.400000000000000000e+01,4.699999999999999734e-01,5.786696800000000000e+09
4.600000000000000000e+01,3.100000000000000000e+01,5.700000000000000000e+01,4.100000000000000000e+01,5.500000000000000000e+01,3.800000000000000000e+01,2.700000000000000000e+01,2.500000000000000000e+01,4.699999999999999734e-01,5.808857000000000000e+09
5.400000000000000000e+01,3.100000000000000000e+01,5.300000000000000000e+01,4.000000000000000000e+01,5.600000000000000000e+01,3.600000000000000000e+01,2.800000000000000000e+01,2.600000000000000000e+01,4.699999999999999734e-01,5.829019900000000000e+09
5.300000000000000000e+01,3.300000000000000000e+01,6.100000000000000000e+01,3.600000000000000000e+01,5.800000000000000000e+01,3.500000000000000000e+01,2.800000000000000000e+01,2.600000000000000000e+01,4.699999999999999734e-01,5.848035400000000000e+09
4.700000000000000000e+01,2.700000000000000000e+01,5.800000000000000000e+01,3.600000000000000000e+01,5.200000000000000000e+01,3.400000000000000000e+01,2.700000000000000000e+01,2.300000000000000000e+01,4.699999999999999734e-01,5.866668600000000000e+09
4.700000000000000000e+01,2.800000000000000000e+01,5.600000000000000000e+01,3.300000000000000000e+01,4.700000000000000000e+01,3.400000000000000000e+01,2.800000000000000000e+01,2.400000000000000000e+01,4.699999999999999734e-01,5.887341300000000000e+09
4.600000000000000000e+01,2.800000000000000000e+01,5.900000000000000000e+01,3.400000000000000000e+01,4.500000000000000000e+01,3.200000000000000000e+01,2.800000000000000000e+01,2.300000000000000000e+01,4.699999999999999734e-01,5.908779100000000000e+09
4.200000000000000000e+01,2.700000000000000000e+01,5.500000000000000000e+01,3.300000000000000000e+01,4.500000000000000000e+01,3.000000000000000000e+01,2.600000000000000000e+01,2.200000000000000000e+01,4.699999999999999734e-01,5.926956400000000000e+09
5.500000000000000000e+01,2.600000000000000000e+01,4.700000000000000000e+01,3.600000000000000000e+01,4.800000000000000000e+01,3.600000000000000000e+01,2.700000000000000000e+01,2.400000000000000000e+01,4.699999999999999734e-01,5.945765500000000000e+09
5.700000000000000000e+01,2.900000000000000000e+01,5.300000000000000000e+01,3.600000000000000000e+01,4.600000000000000000e+01,3.300000000000000000e+01,2.400000000000000000e+01,2.400000000000000000e+01,4.600000000000000200e-01,5.964189700000000000e+09
5.700000000000000000e+01,3.000000000000000000e+01,5.300000000000000000e+01,3.500000000000000000e+01,4.700000000000000000e+01,3.200000000000000000e+01,2.400000000000000000e+01,2.200000000000000000e+01,4.600000000000000200e-01,5.986584400000000000e+09
5.800000000000000000e+01,3.400000000000000000e+01,5.600000000000000000e+01,3.400000000000000000e+01,4.800000000000000000e+01,3.500000000000000000e+01,2.600000000000000000e+01,2.400000000000000000e+01,4.600000000000000200e-01,6.008764800000000000e+09
7.400000000000000000e+01,3.300000000000000000e+01,5.700000000000000000e+01,3.400000000000000000e+01,4.700000000000000000e+01,3.400000000000000000e+01,2.600000000000000000e+01,2.400000000000000000e+01,4.600000000000000200e-01,6.027251300000000000e+09
6.200000000000000000e+01,3.300000000000000000e+01,5.800000000000000000e+01,3.300000000000000000e+01,4.300000000000000000e+01,3.000000000000000000e+01,2.300000000000000000e+01,2.200000000000000000e+01,4.600000000000000200e-01,6.045493800000000000e+09
6.200000000000000000e+01,3.000000000000000000e+01,5.500000000000000000e+01,3.300000000000000000e+01,4.400000000000000000e+01,3.200000000000000000e+01,2.600000000000000000e+01,2.400000000000000000e+01,4.600000000000000200e-01,6.065401300000000000e+09
6.900000000000000000e+01,2.800000000000000000e+01,6.100000000000000000e+01,3.200000000000000000e+01,4.400000000000000000e+01,3.400000000000000000e+01,2.600000000000000000e+01,2.500000000000000000e+01,4.600000000000000200e-01,6.086481400000000000e+09
7.200000000000000000e+01,2.600000000000000000e+01,4.700000000000000000e+01,3.700000000000000000e+01,5.400000000000000000e+01,3.800000000000000000e+01,2.600000000000000000e+01,2.300000000000000000e+01,4.600000000000000200e-01,6.108692200000000000e+09
5.800000000000000000e+01,3.000000000000000000e+01,7.300000000000000000e+01,4.200000000000000000e+01,6.400000000000000000e+01,4.000000000000000000e+01,2.700000000000000000e+01,2.500000000000000000e+01,4.600000000000000200e-01,6.127300700000000000e+09
5.600000000000000000e+01,3.100000000000000000e+01,7.700000000000000000e+01,3.900000000000000000e+01,6.100000000000000000e+01,3.700000000000000000e+01,2.700000000000000000e+01,2.500000000000000000e+01,4.600000000000000200e-01,6.145725700000000000e+09
6.800000000000000000e+01,3.000000000000000000e+01,7.800000000000000000e+01,4.100000000000000000e+01,6.100000000000000000e+01,3.600000000000000000e+01,2.500000000000000000e+01,2.300000000000000000e+01,4.600000000000000200e-01,6.165389400000000000e+09
6.800000000000000000e+01,3.800000000000000000e+01,7.600000000000000000e+01,4.500000000000000000e+01,5.800000000000000000e+01,3.500000000000000000e+01,2.700000000000000000e+01,2.400000000000000000e+01,4.600000000000000200e-01,6.188340200000000000e+09
8.000000000000000000e+01,3.800000000000000000e+01,7.900000000000000000e+01,3.900000000000000000e+01,4.900000000000000000e+01,2.900000000000000000e+01,2.800000000000000000e+01,2.400000000000000000e+01,4.600000000000000200e-01,6.208228000000000000e+09
1.170000000000000000e+02,4.300000000000000000e+01,6.800000000000000000e+01,3.800000000000000000e+01,3.800000000000000000e+01,2.700000000000000000e+01,2.800000000000000000e+01,2.400000000000000000e+01,4.600000000000000200e-01,6.226459000000000000e+09
1.320000000000000000e+02,4.300000000000000000e+01,7.000000000000000000e+01,4.100000000000000000e+01,4.000000000000000000e+01,2.900000000000000000e+01,2.900000000000000000e+01,2.600000000000000000e+01,4.600000000000000200e-01,6.246187800000000000e+09
1.350000000000000000e+02,4.700000000000000000e+01,6.800000000000000000e+01,4.100000000000000000e+01,4.400000000000000000e+01,3.000000000000000000e+01,2.900000000000000000e+01,3.000000000000000000e+01,4.600000000000000200e-01,6.266060800000000000e+09
1.320000000000000000e+02,4.100000000000000000e+01,6.900000000000000000e+01,3.700000000000000000e+01,4.400000000000000000e+01,3.000000000000000000e+01,4.100000000000000000e+01,2.900000000000000000e+01,4.600000000000000200e-01,6.288130000000000000e+09
1.240000000000000000e+02,4.200000000000000000e+01,6.600000000000000000e+01,3.500000000000000000e+01,4.100000000000000000e+01,2.900000000000000000e+01,4.500000000000000000e+01,3.000000000000000000e+01,4.600000000000000200e-01,6.306986700000000000e+09
8.900000000000000000e+01,4.000000000000000000e+01,5.500000000000000000e+01,3.500000000000000000e+01,4.300000000000000000e+01,2.700000000000000000e+01,4.400000000000000000e+01,2.900000000000000000e+01,4.600000000000000200e-01,6.325700200000000000e+09
8.500000000000000000e+01,4.400000000000000000e+01,5.200000000000000000e+01,3.000000000000000000e+01,4.100000000000000000e+01,2.500000000000000000e+01,4.900000000000000000e+01,3.800000000000000000e+01,4.600000000000000200e-01,6.343808100000000000e+09
9.200000000000000000e+01,4.100000000000000000e+01,5.200000000000000000e+01,2.800000000000000000e+01,3.700000000000000000e+01,2.600000000000000000e+01,5.200000000000000000e+01,4.300000000000000000e+01,4.600000000000000200e-01,6.365963500000000000e+09
9.400000000000000000e+01,4.300000000000000000e+01,4.500000000000000000e+01,2.600000000000000000e+01,3.500000000000000000e+01,2.500000000000000000e+01,4.500000000000000000e+01,4.300000000000000000e+01,4.600000000000000200e-01,6.388141200000000000e+09
1.070000000000000000e+02,4.100000000000000000e+01,4.400000000000000000e+01,3.100000000000000000e+01,3.600000000000000000e+01,2.700000000000000000e+01,6.400000000000000000e+01,4.400000000000000000e+01,4.500000000000000111e-01,6.406573300000000000e+09
1.090000000000000000e+02,3.600000000000000000e+01,4.100000000000000000e+01,2.800000000000000000e+01,3.100000000000000000e+01,2.600000000000000000e+01,8.700000000000000000e+01,4.600000000000000000e+01,4.500000000000000111e-01,6.425241800000000000e+09
1.030000000000000000e+02,3.000000000000000000e+01,3.200000000000000000e+01,3.100000000000000000e+01,4.100000000000000000e+01,2.900000000000000000e+01,8.700000000000000000e+01,3.800000000000000000e+01,4.500000000000000111e-01,6.443671800000000000e+09
9.300000000000000000e+01,3.200000000000000000e+01,3.100000000000000000e+01,3.500000000000000000e+01,4.000000000000000000e+01,2.600000000000000000e+01,9.400000000000000000e+01,3.300000000000000000e+01,4.500000000000000111e-01,6.466124700000000000e+09
1.110000000000000000e+02,2.800000000000000000e+01,3.100000000000000000e+01,3.500000000000000000e+01,4.000000000000000000e+01,2.900000000000000000e+01,1.030000000000000000e+02,4.900000000000000000e+01,4.500000000000000111e-01,6.488031500000000000e+09
1.030000000000000000e+02,2.800000000000000000e+01,3.000000000000000000e+01,3.200000000000000000e+01,4.000000000000000000e+01,2.700000000000000000e+01,1.070000000000000000e+02,5.000000000000000000e+01,4.500000000000000111e-01,6.507113200000000000e+09
1.030000000000000000e+02,3.300000000000000000e+01,3.100000000000000000e+01,3.100000000000000000e+01,3.700000000000000000e+01,2.700000000000000000e+01,9.100000000000000000e+01,6.400000000000000000e+01,4.500000000000000111e-01,6.525359300000000000e+09
1.170000000000000000e+02,3.300000000000000000e+01,3.200000000000000000e+01,3.100000000000000000e+01,2.600000000000000000e+01,2.500000000000000000e+01,1.140000000000000000e+02,7.800000000000000000e+01,4.500000000000000111e-01,6.544033600000000000e+09
1.150000000000000000e+02,4.100000000000000000e+01,3.100000000000000000e+01,2.600000000000000000e+01,2.400000000000000000e+01,2.400000000000000000e+01,1.200000000000000000e+02,7.900000000000000000e+01,4.500000000000000111e-01,6.565777800000000000e+09
1.030000000000000000e+02,4.000000000000000000e+01,2.700000000000000000e+01,2.800000000000000000e+01,2.500000000000000000e+01,2.300000000000000000e+01,1.210000000000000000e+02,7.300000000000000000e+01,4.500000000000000111e-01,6.588393100000000000e+09
1.080000000000000000e+02,4.200000000000000000e+01,2.700000000000000000e+01,2.900000000000000000e+01,2.700000000000000000e+01,2.300000000000000000e+01,1.220000000000000000e+02,8.200000000000000000e+01,4.500000000000000111e-01,6.606581700000000000e+09
1.160000000000000000e+02,3.900000000000000000e+01,2.700000000000000000e+01,2.900000000000000000e+01,3.200000000000000000e+01,2.300000000000000000e+01,1.600000000000000000e+02,8.500000000000000000e+01,4.500000000000000111e-01,6.626396400000000000e+09
9.700000000000000000e+01,4.400000000000000000e+01,2.700000000000000000e+01,2.700000000000000000e+01,3.100000000000000000e+01,2.200000000000000000e+01,1.650000000000000000e+02,9.200000000000000000e+01,4.500000000000000111e-01,6.644978900000000000e+09
9.100000000000000000e+01,3.400000000000000000e+01,2.600000000000000000e+01,3.100000000000000000e+01,3.100000000000000000e+01,2.500000000000000000e+01,1.840000000000000000e+02,9.400000000000000000e+01,4.500000000000000111e-01,6.667078200000000000e+09
9.300000000000000000e+01,3.400000000000000000e+01,2.600000000000000000e+01,3.000000000000000000e+01,3.100000000000000000e+01,2.400000000000000000e+01,1.830000000000000000e+02,1.420000000000000000e+02,4.500000000000000111e-01,6.689392200000000000e+09
8.400000000000000000e+01,3.300000000000000000e+01,2.800000000000000000e+01,3.200000000000000000e+01,2.900000000000000000e+01,2.500000000000000000e+01,1.790000000000000000e+02,1.420000000000000000e+02,4.500000000000000111e-01,6.707570500000000000e+09
6.500000000000000000e+01,3.200000000000000000e+01,2.700000000000000000e+01,3.200000000000000000e+01,2.700000000000000000e+01,2.500000000000000000e+01,1.520000000000000000e+02,1.360000000000000000e+02,4.500000000000000111e-01,6.726383700000000000e+09
6.200000000000000000e+01,2.500000000000000000e+01,2.600000000000000000e+01,3.100000000000000000e+01,2.900000000000000000e+01,2.500000000000000000e+01,1.380000000000000000e+02,1.340000000000000000e+02,4.400000000000000022e-01,6.744971500000000000e+09
8.300000000000000000e+01,2.700000000000000000e+01,2.700000000000000000e+01,2.800000000000000000e+01,2.800000000000000000e+01,2.400000000000000000e+01,1.190000000000000000e+02,1.380000000000000000e+02,4.400000000000000022e-01,6.767289700000000000e+09
7.400000000000000000e+01,2.700000000000000000e+01,2.500000000000000000e+01,2.700000000000000000e+01,2.800000000000000000e+01,2.500000000000000000e+01,1.120000000000000000e+02,9.400000000000000000e+01,4.400000000000000022e-01,6.789797300000000000e+09
7.500000000000000000e+01,2.700000000000000000e+01,2.300000000000000000e+01,2.300000000000000000e+01,2.700000000000000000e+01,2.600000000000000000e+01,1.050000000000000000e+02,9.000000000000000000e+01,4.400000000000000022e-01,6.808272200000000000e+09
7.500000000000000000e+01,2.600000000000000000e+01,2.500000000000000000e+01,2.300000000000000000e+01,2.600000000000000000e+01,2.500000000000000000e+01,1.050000000000000000e+02,9.300000000000000000e+01,4.400000000000000022e-01,6.829087600000000000e+09
7.200000000000000000e+01,2.400000000000000000e+01,2.500000000000000000e+01,2.300000000000000000e+01,2.500000000000000000e+01,2.800000000000000000e+01,1.020000000000000000e+02,8.200000000000000000e+01,4.400000000000000022e-01,6.849867900000000000e+09
7.600000000000000000e+01,2.200000000000000000e+01,2.300000000000000000e+01,2.300000000000000000e+01,2.500000000000000000e+01,2.500000000000000000e+01,8.200000000000000000e+01,7.600000000000000000e+01,4.400000000000000022e-01,6.870095200000000000e+09
7.900000000000000000e+01,2.300000000000000000e+01,2.500000000000000000e+01,2.300000000000000000e+01,2.400000000000000000e+01,2.500000000000000000e+01,8.300000000000000000e+01,7.300000000000000000e+01,4.400000000000000022e-01,6.888241800000000000e+09
8.400000000000000000e+01,2.100000000000000000e+01,2.600000000000000000e+01,2.300000000000000000e+01,2.300000000000000000e+01,2.300000000000000000e+01,8.900000000000000000e+01,6.800000000000000000e+01,4.400000000000000022e-01,6.909403900000000000e+09
8.300000000000000000e+01,2.100000000000000000e+01,2.500000000000000000e+01,2.500000000000000000e+01,2.300000000000000000e+01,2.700000000000000000e+01,7.600000000000000000e+01,6.000000000000000000e+01,4.400000000000000022e-01,6.929371200000000000e+09
9.700000000000000000e+01,2.200000000000000000e+01,2.600000000000000000e+01,2.700000000000000000e+01,2.400000000000000000e+01,2.600000000000000000e+01,6.700000000000000000e+01,6.200000000000000000e+01,4.400000000000000022e-01,6.948718400000000000e+09
7.700000000000000000e+01,2.300000000000000000e+01,2.600000000000000000e+01,2.700000000000000000e+01,2.300000000000000000e+01,2.500000000000000000e+01,6.700000000000000000e+01,5.700000000000000000e+01,4.400000000000000022e-01,6.967869400000000000e+09
7.300000000000000000e+01,2.300000000000000000e+01,2.500000000000000000e+01,2.900000000000000000e+01,2.200000000000000000e+01,2.500000000000000000e+01,7.600000000000000000e+01,5.600000000000000000e+01,4.400000000000000022e-01,6.987151600000000000e+09
6.300000000000000000e+01,2.300000000000000000e+01,2.400000000000000000e+01,3.000000000000000000e+01,2.700000000000000000e+01,2.700000000000000000e+01,6.900000000000000000e+01,5.400000000000000000e+01,4.400000000000000022e-01,7.009234500000000000e+09
7.400000000000000000e+01,2.300000000000000000e+01,2.300000000000000000e+01,3.000000000000000000e+01,2.600000000000000000e+01,2.300000000000000000e+01,8.400000000000000000e+01,5.400000000000000000e+01,4.400000000000000022e-01,7.027915300000000000e+09
6.000000000000000000e+01,2.500000000000000000e+01,2.300000000000000000e+01,2.900000000000000000e+01,2.500000000000000000e+01,2.400000000000000000e+01,8.400000000000000000e+01,4.900000000000000000e+01,4.400000000000000022e-01,7.046104800000000000e+09
5.800000000000000000e+01,2.500000000000000000e+01,2.400000000000000000e+01,2.900000000000000000e+01,2.500000000000000000e+01,2.400000000000000000e+01,8.000000000000000000e+01,4.600000000000000000e+01,4.400000000000000022e-01,7.065003100000000000e+09
5.800000000000000000e+01,2.700000000000000000e+01,2.400000000000000000e+01,2.800000000000000000e+01,2.600000000000000000e+01,2.500000000000000000e+01,7.000000000000000000e+01,3.900000000000000000e+01,4.500000000000000111e-01,7.086971700000000000e+09
5.900000000000000000e+01,2.600000000000000000e+01,2.500000000000000000e+01,2.600000000000000000e+01,2.100000000000000000e+01,2.400000000000000000e+01,6.600000000000000000e+01,3.500000000000000000e+01,4.500000000000000111e-01,7.109241700000000000e+09
6.600000000000000000e+01,2.500000000000000000e+01,2.500000000000000000e+01,2.500000000000000000e+01,2.200000000000000000e+01,2.400000000000000000e+01,4.900000000000000000e+01,3.500000000000000000e+01,4.500000000000000111e-01,7.127843800000000000e+09
6.400000000000000000e+01,2.500000000000000000e+01,2.400000000000000000e+01,2.500000000000000000e+01,2.200000000000000000e+01,2.300000000000000000e+01,4.200000000000000000e+01,3.400000000000000000e+01,4.500000000000000111e-01,7.147054500000000000e+09
7.400000000000000000e+01,2.500000000000000000e+01,2.500000000000000000e+01,2.400000000000000000e+01,2.200000000000000000e+01,2.400000000000000000e+01,4.100000000000000000e+01,3.300000000000000000e+01,4.500000000000000111e-01,7.167279100000000000e+09
7.300000000000000000e+01,2.300000000000000000e+01,2.400000000000000000e+01,2.500000000000000000e+01,2.100000000000000000e+01,2.500000000000000000e+01,3.700000000000000000e+01,3.300000000000000000e+01,4.500000000000000111e-01,7.187688800000000000e+09
8.100000000000000000e+01,2.600000000000000000e+01,2.500000000000000000e+01,2.500000000000000000e+01,2.100000000000000000e+01,2.500000000000000000e+01,3.600000000000000000e+01,3.500000000000000000e+01,4.500000000000000111e-01,7.209334100000000000e+09
6.500000000000000000e+01,2.700000000000000000e+01,2.400000000000000000e+01,2.400000000000000000e+01,2.100000000000000000e+01,2.300000000000000000e+01,3.100000000000000000e+01,2.900000000000000000e+01,4.500000000000000111e-01,7.227864100000000000e+09
6.300000000000000000e+01,2.500000000000000000e+01,2.400000000000000000e+01,2.300000000000000000e+01,2.300000000000000000e+01,2.500000000000000000e+01,2.800000000000000000e+01,2.800000000000000000e+01,4.500000000000000111e-01,7.246333100000000000e+09
5.300000000000000000e+01,2.600000000000000000e+01,2.300000000000000000e+01,2.400000000000000000e+01,2.500000000000000000e+01,2.500000000000000000e+01,2.700000000000000000e+01,2.800000000000000000e+01,4.500000000000000111e-01,7.265450100000000000e+09
5.600000000000000000e+01,2.500000000000000000e+01,2.200000000000000000e+01,2.200000000000000000e+01,2.600000000000000000e+01,2.200000000000000000e+01,2.700000000000000000e+01,2.700000000000000000e+01,4.500000000000000111e-01,7.287151900000000000e+09
5.200000000000000000e+01,2.600000000000000000e+01,2.100000000000000000e+01,2.400000000000000000e+01,2.700000000000000000e+01,2.000000000000000000e+01,2.600000000000000000e+01,2.400000000000000000e+01,4.500000000000000111e-01,7.309616000000000000e+09
5.700000000000000000e+01,2.600000000000000000e+01,2.800000000000000000e+01,2.500000000000000000e+01,2.800000000000000000e+01,2.200000000000000000e+01,2.400000000000000000e+01,2.500000000000000000e+01,4.500000000000000111e-01,7.328796400000000000e+09
5.800000000000000000e+01,2.500000000000000000e+01,2.900000000000000000e+01,2.500000000000000000e+01,2.600000000000000000e+01,2.500000000000000000e+01,2.300000000000000000e+01,2.400000000000000000e+01,4.500000000000000111e-01,7.348706600000000000e+09
5.700000000000000000e+01,2.600000000000000000e+01,3.200000000000000000e+01,2.900000000000000000e+01,2.400000000000000000e+01,2.500000000000000000e+01,2.000000000000000000e+01,2.500000000000000000e+01,4.500000000000000111e-01,7.368567700000000000e+09
5.400000000000000000e+01,2.700000000000000000e+01,3.400000000000000000e+01,3.300000000000000000e+01,2.500000000000000000e+01,2.700000000000000000e+01,1.800000000000000000e+01,2.400000000000000000e+01,4.500000000000000111e-01,7.387813500000000000e+09
6.300000000000000000e+01,2.600000000000000000e+01,3.500000000000000000e+01,3.300000000000000000e+01,2.700000000000000000e+01,2.700000000000000000e+01,1.900000000000000000e+01,2.500000000000000000e+01,4.500000000000000111e-01,7.410059400000000000e+09
6.000000000000000000e+01,2.600000000000000000e+01,3.700000000000000000e+01,3.300000000000000000e+01,2.600000000000000000e+01,2.800000000000000000e+01,1.800000000000000000e+01,2.400000000000000000e+01,4.500000000000000111e-01,7.429298400000000000e+09
6.200000000000000000e+01,2.700000000000000000e+01,3.700000000000000000e+01,3.400000000000000000e+01,2.600000000000000000e+01,2.500000000000000000e+01,2.300000000000000000e+01,2.500000000000000000e+01,4.500000000000000111e-01,7.448672700000000000e+09
6.300000000000000000e+01,2.800000000000000000e+01,3.600000000000000000e+01,3.000000000000000000e+01,3.100000000000000000e+01,2.500000000000000000e+01,2.300000000000000000e+01,2.300000000000000000e+01,4.500000000000000111e-01,7.468022700000000000e+09
6.500000000000000000e+01,2.700000000000000000e+01,3.500000000000000000e+01,2.700000000000000000e+01,2.900000000000000000e+01,2.400000000000000000e+01,2.300000000000000000e+01,2.400000000000000000e+01,4.500000000000000111e-01,7.488201700000000000e+09
4.500000000000000000e+01,2.700000000000000000e+01,4.100000000000000000e+01,2.700000000000000000e+01,2.800000000000000000e+01,2.600000000000000000e+01,2.300000000000000000e+01,2.000000000000000000e+01,4.500000000000000111e-01,7.507264900000000000e+09
4.700000000000000000e+01,2.600000000000000000e+01,3.500000000000000000e+01,2.700000000000000000e+01,3.000000000000000000e+01,2.500000000000000000e+01,2.300000000000000000e+01,2.200000000000000000e+01,4.500000000000000111e-01,7.526709600000000000e+09
5.700000000000000000e+01,2.700000000000000000e+01,3.600000000000000000e+01,2.600000000000000000e+01,3.100000000000000000e+01,2.800000000000000000e+01,2.000000000000000000e+01,2.300000000000000000e+01,4.500000000000000111e-01,7.545655300000000000e+09
5.800000000000000000e+01,2.200000000000000000e+01,3.500000000000000000e+01,2.800000000000000000e+01,2.900000000000000000e+01,2.600000000000000000e+01,2.100000000000000000e+01,2.300000000000000000e+01,4.500000000000000111e-01,7.566050600000000000e+09
5.600000000000000000e+01,2.400000000000000000e+01,3.600000000000000000e+01,3.000000000000000000e+01,3.000000000000000000e+01,2.600000000000000000e+01,2.100000000000000000e+01,2.400000000000000000e+01,4.500000000000000111e-01,7.588166800000000000e+09
5.700000000000000000e+01,2.300000000000000000e+01,3.100000000000000000e+01,2.900000000000000000e+01,3.100000000000000000e+01,2.600000000000000000e+01,2.000000000000000000e+01,2.400000000000000000e+01,4.500000000000000111e-01,7.605971900000000000e+09
5.800000000000000000e+01,2.500000000000000000e+01,3.300000000000000000e+01,3.400000000000000000e+01,2.800000000000000000e+01,2.500000000000000000e+01,2.300000000000000000e+01,2.400000000000000000e+01,4.500000000000000111e-01,7.624402900000000000e+09
4.800000000000000000e+01,2.600000000000000000e+01,3.300000000000000000e+01,3.300000000000000000e+01,2.900000000000000000e+01,2.100000000000000000e+01,2.100000000000000000e+01,2.100000000000000000e+01,4.500000000000000111e-01,7.647614000000000000e+09
6.700000000000000000e+01,2.800000000000000000e+01,3.300000000000000000e+01,3.300000000000000000e+01,2.900000000000000000e+01,2.500000000000000000e+01,2.200000000000000000e+01,2.700000000000000000e+01,4.500000000000000111e-01,7.666681300000000000e+09
6.800000000000000000e+01,2.700000000000000000e+01,3.200000000000000000e+01,3.000000000000000000e+01,2.900000000000000000e+01,2.600000000000000000e+01,2.200000000000000000e+01,2.500000000000000000e+01,4.500000000000000111e-01,7.688089600000000000e+09
6.600000000000000000e+01,2.700000000000000000e+01,3.000000000000000000e+01,3.000000000000000000e+01,2.900000000000000000e+01,2.700000000000000000e+01,2.200000000000000000e+01,2.600000000000000000e+01,4.500000000000000111e-01,7.706460100000000000e+09
6.500000000000000000e+01,2.600000000000000000e+01,3.100000000000000000e+01,2.400000000000000000e+01,3.100000000000000000e+01,2.800000000000000000e+01,2.000000000000000000e+01,2.500000000000000000e+01,4.500000000000000111e-01,7.725150500000000000e+09
6.600000000000000000e+01,2.300000000000000000e+01,3.100000000000000000e+01,3.000000000000000000e+01,3.100000000000000000e+01,2.900000000000000000e+01,2.100000000000000000e+01,2.900000000000000000e+01,4.500000000000000111e-01,7.744112400000000000e+09
4.300000000000000000e+01,2.200000000000000000e+01,3.500000000000000000e+01,3.100000000000000000e+01,3.200000000000000000e+01,2.600000000000000000e+01,2.100000000000000000e+01,2.400000000000000000e+01,4.500000000000000111e-01,7.766141200000000000e+09
4.200000000000000000e+01,2.100000000000000000e+01,3.600000000000000000e+01,3.500000000000000000e+01,3.200000000000000000e+01,2.700000000000000000e+01,2.100000000000000000e+01,2.400000000000000000e+01,4.500000000000000111e-01,7.788237800000000000e+09
4.200000000000000000e+01,2.100000000000000000e+01,3.700000000000000000e+01,3.500000000000000000e+01,3.200000000000000000e+01,2.700000000000000000e+01,2.300000000000000000e+01,2.600000000000000000e+01,4.500000000000000111e-01,7.806423300000000000e+09
3.600000000000000000e+01,2.300000000000000000e+01,3.800000000000000000e+01,3.800000000000000000e+01,2.900000000000000000e+01,2.700000000000000000e+01,2.400000000000000000e+01,2.600000000000000000e+01,4.500000000000000111e-01,7.824357500000000000e+09
3.100000000000000000e+01,2.500000000000000000e+01,3.900000000000000000e+01,3.800000000000000000e+01,2.900000000000000000e+01,2.800000000000000000e+01,2.200000000000000000e+01,2.300000000000000000e+01,4.500000000000000111e-01,7.844025400000000000e+09
3.300000000000000000e+01,2.500000000000000000e+01,4.000000000000000000e+01,3.700000000000000000e+01,2.800000000000000000e+01,2.800000000000000000e+01,2.300000000000000000e+01,2.200000000000000000e+01,4.500000000000000111e-01,7.866172700000000000e+09
3.300000000000000000e+01,2.500000000000000000e+01,4.600000000000000000e+01,3.700000000000000000e+01,3.200000000000000000e+01,2.800000000000000000e+01,2.200000000000000000e+01,2.100000000000000000e+01,4.500000000000000111e-01,7.888598800000000000e+09
3.100000000000000000e+01,2.700000000000000000e+01,4.900000000000000000e+01,3.700000000000000000e+01,3.300000000000000000e+01,2.500000000000000000e+01,2.200000000000000000e+01,1.800000000000000000e+01,4.500000000000000111e-01,7.907444800000000000e+09
3.300000000000000000e+01,2.700000000000000000e+01,5.100000000000000000e+01,3.400000000000000000e+01,3.300000000000000000e+01,2.300000000000000000e+01,2.100000000000000000e+01,1.700000000000000000e+01,4.500000000000000111e-01,7.931929400000000000e+09
2.500000000000000000e+01,2.400000000000000000e+01,5.200000000000000000e+01,3.200000000000000000e+01,3.100000000000000000e+01,2.500000000000000000e+01,2.200000000000000000e+01,1.800000000000000000e+01,4.500000000000000111e-01,7.951762500000000000e+09
2.300000000000000000e+01,2.600000000000000000e+01,5.400000000000000000e+01,3.100000000000000000e+01,2.900000000000000000e+01,2.500000000000000000e+01,2.100000000000000000e+01,1.900000000000000000e+01,4.500000000000000111e-01,7.970528700000000000e+09
2.300000000000000000e+01,2.700000000000000000e+01,4.900000000000000000e+01,3.100000000000000000e+01,2.800000000000000000e+01,2.400000000000000000e+01,2.100000000000000000e+01,2.100000000000000000e+01,4.500000000000000111e-01,7.988964900000000000e+09
2.400000000000000000e+01,2.600000000000000000e+01,4.600000000000000000e+01,2.900000000000000000e+01,2.400000000000000000e+01,2.600000000000000000e+01,2.000000000000000000e+01,2.300000000000000000e+01,4.600000000000000200e-01,8.008695400000000000e+09
2.900000000000000000e+01,2.500000000000000000e+01,4.200000000000000000e+01,3.100000000000000000e+01,2.700000000000000000e+01,2.900000000000000000e+01,1.900000000000000000e+01,2.400000000000000000e+01,4.600000000000000200e-01,8.027432500000000000e+09
3.200000000000000000e+01,2.700000000000000000e+01,4.000000000000000000e+01,3.000000000000000000e+01,2.700000000000000000e+01,2.500000000000000000e+01,1.900000000000000000e+01,2.600000000000000000e+01,4.600000000000000200e-01,8.046041900000000000e+09
3.400000000000000000e+01,2.400000000000000000e+01,3.400000000000000000e+01,3.100000000000000000e+01,2.800000000000000000e+01,2.600000000000000000e+01,1.900000000000000000e+01,2.700000000000000000e+01,4.600000000000000200e-01,8.064903600000000000e+09
3.500000000000000000e+01,2.400000000000000000e+01,3.200000000000000000e+01,3.200000000000000000e+01,2.600000000000000000e+01,2.700000000000000000e+01,2.200000000000000000e+01,2.600000000000000000e+01,4.600000000000000200e-01,8.086483900000000000e+09
3.400000000000000000e+01,2.300000000000000000e+01,3.400000000000000000e+01,3.200000000000000000e+01,2.700000000000000000e+01,2.600000000000000000e+01,2.100000000000000000e+01,2.500000000000000000e+01,4.600000000000000200e-01,8.108693000000000000e+09
2.800000000000000000e+01,2.300000000000000000e+01,3.400000000000000000e+01,3.300000000000000000e+01,2.600000000000000000e+01,2.400000000000000000e+01,2.100000000000000000e+01,2.600000000000000000e+01,4.600000000000000200e-01,8.127221000000000000e+09
2.500000000000000000e+01,2.400000000000000000e+01,3.800000000000000000e+01,3.300000000000000000e+01,2.600000000000000000e+01,2.600000000000000000e+01,2.200000000000000000e+01,2.500000000000000000e+01,4.600000000000000200e-01,8.147568400000000000e+09
2.300000000000000000e+01,2.400000000000000000e+01,4.100000000000000000e+01,3.400000000000000000e+01,2.500000000000000000e+01,2.400000000000000000e+01,2.200000000000000000e+01,2.400000000000000000e+01,4.600000000000000200e-01,8.166125200000000000e+09
2.100000000000000000e+01,2.300000000000000000e+01,4.200000000000000000e+01,3.000000000000000000e+01,2.600000000000000000e+01,2.400000000000000000e+01,1.900000000000000000e+01,2.300000000000000000e+01,4.600000000000000200e-01,8.187080400000000000e+09
2.200000000000000000e+01,2.500000000000000000e+01,4.000000000000000000e+01,3.200000000000000000e+01,2.600000000000000000e+01,2.500000000000000000e+01,2.000000000000000000e+01,2.200000000000000000e+01,4.600000000000000200e-01,8.208610700000000000e+09
2.300000000000000000e+01,2.500000000000000000e+01,4.000000000000000000e+01,2.900000000000000000e+01,2.500000000000000000e+01,2.700000000000000000e+01,2.300000000000000000e+01,2.100000000000000000e+01,4.600000000000000200e-01,8.226857900000000000e+09
2.200000000000000000e+01,2.400000000000000000e+01,3.100000000000000000e+01,2.700000000000000000e+01,2.800000000000000000e+01,2.800000000000000000e+01,2.400000000000000000e+01,2.000000000000000000e+01,4.600000000000000200e-01,8.245956600000000000e+09
2.100000000000000000e+01,2.600000000000000000e+01,3.200000000000000000e+01,2.700000000000000000e+01,2.900000000000000000e+01,2.600000000000000000e+01,2.300000000000000000e+01,2.100000000000000000e+01,4.600000000000000200e-01,8.265311300000000000e+09
2.300000000000000000e+01,2.500000000000000000e+01,3.500000000000000000e+01,3.000000000000000000e+01,3.100000000000000000e+01,2.500000000000000000e+01,2.400000000000000000e+01,2.300000000000000000e+01,4.600000000000000200e-01,8.286361900000000000e+09
2.200000000000000000e+01,2.400000000000000000e+01,3.800000000000000000e+01,2.800000000000000000e+01,3.100000000000000000e+01,2.400000000000000000e+01,2.400000000000000000e+01,2.300000000000000000e+01,4.600000000000000200e-01,8.308641300000000000e+09
2.200000000000000000e+01,2.400000000000000000e+01,3.800000000000000000e+01,3.000000000000000000e+01,3.100000000000000000e+01,2.200000000000000000e+01,2.100000000000000000e+01,2.300000000000000000e+01,4.600000000000000200e-01,8.328037200000000000e+09
2.300000000000000000e+01,2.400000000000000000e+01,4.900000000000000000e+01,3.000000000000000000e+01,2.800000000000000000e+01,2.000000000000000000e+01,2.100000000000000000e+01,2.100000000000000000e+01,4.600000000000000200e-01,8.346407900000000000e+09
2.400000000000000000e+01,2.800000000000000000e+01,7.000000000000000000e+01,3.400000000000000000e+01,2.800000000000000000e+01,2.200000000000000000e+01,2.200000000000000000e+01,2.400000000000000000e+01,4.600000000000000200e-01,8.365158700000000000e+09
2.200000000000000000e+01,2.800000000000000000e+01,7.000000000000000000e+01,3.400000000000000000e+01,2.700000000000000000e+01,2.300000000000000000e+01,2.000000000000000000e+01,2.200000000000000000e+01,4.600000000000000200e-01,8.387747900000000000e+09
2.600000000000000000e+01,2.800000000000000000e+01,7.100000000000000000e+01,3.600000000000000000e+01,3.200000000000000000e+01,2.300000000000000000e+01,2.000000000000000000e+01,2.300000000000000000e+01,4.600000000000000200e-01,8.409967900000000000e+09
2.600000000000000000e+01,2.700000000000000000e+01,7.100000000000000000e+01,3.900000000000000000e+01,3.500000000000000000e+01,2.300000000000000000e+01,2.200000000000000000e+01,2.400000000000000000e+01,4.600000000000000200e-01,8.428562700000000000e+09
2.500000000000000000e+01,2.700000000000000000e+01,7.200000000000000000e+01,3.900000000000000000e+01,3.800000000000000000e+01,2.600000000000000000e+01,2.000000000000000000e+01,2.300000000000000000e+01,4.600000000000000200e-01,8.446980000000000000e+09
2.400000000000000000e+01,2.200000000000000000e+01,7.100000000000000000e+01,3.700000000000000000e+01,3.900000000000000000e+01,2.600000000000000000e+01,2.100000000000000000e+01,2.200000000000000000e+01,4.600000000000000200e-01,8.465387200000000000e+09
2.300000000000000000e+01,2.500000000000000000e+01,8.500000000000000000e+01,3.500000000000000000e+01,3.800000000000000000e+01,2.600000000000000000e+01,2.200000000000000000e+01,2.100000000000000000e+01,4.600000000000000200e-01,8.487643700000000000e+09
2.200000000000000000e+01,2.500000000000000000e+01,9.100000000000000000e+01,3.900000000000000000e+01,3.400000000000000000e+01,2.500000000000000000e+01,2.200000000000000000e+01,2.200000000000000000e+01,4.600000000000000200e-01,8.505897400000000000e+09
2.100000000000000000e+01,2.900000000000000000e+01,1.120000000000000000e+02,3.900000000000000000e+01,3.100000000000000000e+01,2.700000000000000000e+01,2.100000000000000000e+01,2.400000000000000000e+01,4.600000000000000200e-01,8.526733700000000000e+09
2.100000000000000000e+01,3.500000000000000000e+01,1.300000000000000000e+02,4.700000000000000000e+01,2.900000000000000000e+01,2.900000000000000000e+01,2.300000000000000000e+01,2.400000000000000000e+01,4.600000000000000200e-01,8.546489400000000000e+09
3.300000000000000000e+01,4.200000000000000000e+01,1.870000000000000000e+02,6.000000000000000000e+01,3.300000000000000000e+01,3.200000000000000000e+01,2.600000000000000000e+01,2.300000000000000000e+01,4.699999999999999734e-01,8.565749600000000000e+09
3.300000000000000000e+01,4.400000000000000000e+01,2.050000000000000000e+02,6.700000000000000000e+01,3.200000000000000000e+01,3.200000000000000000e+01,2.600000000000000000e+01,2.300000000000000000e+01,4.699999999999999734e-01,8.587890000000000000e+09
3.100000000000000000e+01,4.700000000000000000e+01,3.060000000000000000e+02,9.400000000000000000e+01,3.400000000000000000e+01,3.300000000000000000e+01,2.500000000000000000e+01,2.200000000000000000e+01,4.699999999999999734e-01,8.606620300000000000e+09
3.500000000000000000e+01,4.800000000000000000e+01,3.120000000000000000e+02,9.700000000000000000e+01,3.900000000000000000e+01,4.100000000000000000e+01,3.100000000000000000e+01,2.000000000000000000e+01,4.799999999999999822e-01,8.627438500000000000e+09
3.900000000000000000e+01,4.700000000000000000e+01,3.100000000000000000e+02,1.050000000000000000e+02,5.300000000000000000e+01,4.000000000000000000e+01,3.000000000000000000e+01,2.100000000000000000e+01,4.799999999999999822e-01,8.646126100000000000e+09
3.200000000000000000e+01,4.200000000000000000e+01,2.850000000000000000e+02,1.080000000000000000e+02,6.100000000000000000e+01,4.000000000000000000e+01,3.000000000000000000e+01,2.200000000000000000e+01,4.899999999999999911e-01,8.665426700000000000e+09
3.300000000000000000e+01,4.100000000000000000e+01,2.980000000000000000e+02,1.170000000000000000e+02,6.300000000000000000e+01,4.200000000000000000e+01,3.000000000000000000e+01,2.300000000000000000e+01,4.899999999999999911e-01,8.687731500000000000e+09
3.300000000000000000e+01,3.800000000000000000e+01,2.110000000000000000e+02,1.070000000000000000e+02,7.000000000000000000e+01,4.500000000000000000e+01,3.000000000000000000e+01,2.400000000000000000e+01,5.000000000000000000e-01,8.709816400000000000e+09
3.200000000000000000e+01,4.000000000000000000e+01,2.340000000000000000e+02,1.120000000000000000e+02,6.800000000000000000e+01,3.800000000000000000e+01,2.600000000000000000e+01,2.400000000000000000e+01,5.100000000000000089e-01,8.728306200000000000e+09
3.200000000000000000e+01,4.200000000000000000e+01,2.450000000000000000e+02,1.340000000000000000e+02,7.400000000000000000e+01,5.300000000000000000e+01,3.300000000000000000e+01,2.400000000000000000e+01,5.100000000000000089e-01,8.747966000000000000e+09
3.400000000000000000e+01,4.600000000000000000e+01,2.750000000000000000e+02,1.410000000000000000e+02,7.700000000000000000e+01,5.600000000000000000e+01,3.200000000000000000e+01,2.600000000000000000e+01,5.200000000000000178e-01,8.766491900000000000e+09
3.400000000000000000e+01,4.400000000000000000e+01,2.980000000000000000e+02,1.460000000000000000e+02,7.800000000000000000e+01,5.400000000000000000e+01,3.500000000000000000e+01,2.600000000000000000e+01,5.200000000000000178e-01,8.787556100000000000e+09
3.500000000000000000e+01,4.800000000000000000e+01,3.950000000000000000e+02,1.440000000000000000e+02,7.800000000000000000e+01,5.800000000000000000e+01,3.700000000000000000e+01,2.800000000000000000e+01,5.300000000000000266e-01,8.809864100000000000e+09
3.400000000000000000e+01,4.800000000000000000e+01,3.910000000000000000e+02,1.510000000000000000e+02,8.200000000000000000e+01,6.000000000000000000e+01,3.900000000000000000e+01,2.800000000000000000e+01,5.300000000000000266e-01,8.828758700000000000e+09
3.100000000000000000e+01,5.100000000000000000e+01,4.120000000000000000e+02,1.380000000000000000e+02,7.100000000000000000e+01,5.100000000000000000e+01,3.600000000000000000e+01,2.800000000000000000e+01,5.400000000000000355e-01,8.847719600000000000e+09
2.800000000000000000e+01,5.500000000000000000e+01,4.280000000000000000e+02,1.530000000000000000e+02,6.300000000000000000e+01,5.000000000000000000e+01,3.400000000000000000e+01,2.600000000000000000e+01,5.400000000000000355e-01,8.866707600000000000e+09
2.700000000000000000e+01,5.800000000000000000e+01,3.990000000000000000e+02,1.430000000000000000e+02,6.500000000000000000e+01,5.300000000000000000e+01,3.300000000000000000e+01,2.600000000000000000e+01,5.400000000000000355e-01,8.887640800000000000e+09
2.600000000000000000e+01,5.700000000000000000e+01,3.180000000000000000e+02,1.600000000000000000e+02,6.800000000000000000e+01,5.000000000000000000e+01,3.300000000000000000e+01,2.500000000000000000e+01,5.500000000000000444e-01,8.909793400000000000e+09
2.500000000000000000e+01,5.400000000000000000e+01,3.130000000000000000e+02,1.550000000000000000e+02,6.500000000000000000e+01,5.100000000000000000e+01,3.300000000000000000e+01,2.500000000000000000e+01,5.500000000000000444e-01,8.928225600000000000e+09
2.400000000000000000e+01,5.200000000000000000e+01,3.040000000000000000e+02,1.540000000000000000e+02,6.500000000000000000e+01,4.800000000000000000e+01,3.200000000000000000e+01,2.700000000000000000e+01,5.600000000000000533e-01,8.946763700000000000e+09
2.500000000000000000e+01,4.700000000000000000e+01,3.040000000000000000e+02,1.410000000000000000e+02,6.300000000000000000e+01,4.600000000000000000e+01,3.100000000000000000e+01,2.700000000000000000e+01,5.600000000000000533e-01,8.965526700000000000e+09
2.400000000000000000e+01,4.400000000000000000e+01,3.010000000000000000e+02,1.390000000000000000e+02,6.400000000000000000e+01,4.500000000000000000e+01,3.100000000000000000e+01,2.700000000000000000e+01,5.600000000000000533e-01,8.987761200000000000e+09
2.700000000000000000e+01,4.200000000000000000e+01,2.840000000000000000e+02,1.190000000000000000e+02,5.600000000000000000e+01,4.500000000000000000e+01,2.900000000000000000e+01,2.500000000000000000e+01,5.699999999999999512e-01,9.006965200000000000e+09
2.600000000000000000e+01,4.400000000000000000e+01,2.670000000000000000e+02,1.300000000000000000e+02,6.600000000000000000e+01,4.500000000000000000e+01,2.700000000000000000e+01,2.600000000000000000e+01,5.699999999999999512e-01,9.026352600000000000e+09
3.400000000000000000e+01,4.100000000000000000e+01,2.680000000000000000e+02,1.250000000000000000e+02,7.200000000000000000e+01,5.200000000000000000e+01,3.100000000000000000e+01,2.300000000000000000e+01,5.699999999999999512e-01,9.045676400000000000e+09
3.300000000000000000e+01,4.800000000000000000e+01,2.530000000000000000e+02,1.130000000000000000e+02,7.400000000000000000e+01,5.600000000000000000e+01,3.500000000000000000e+01,2.300000000000000000e+01,5.699999999999999512e-01,9.065192000000000000e+09
3.600000000000000000e+01,4.900000000000000000e+01,2.760000000000000000e+02,1.190000000000000000e+02,7.700000000000000000e+01,5.700000000000000000e+01,3.500000000000000000e+01,2.600000000000000000e+01,5.699999999999999512e-01,9.087556300000000000e+09
3.600000000000000000e+01,5.000000000000000000e+01,3.100000000000000000e+02,1.510000000000000000e+02,9.700000000000000000e+01,6.200000000000000000e+01,3.900000000000000000e+01,2.700000000000000000e+01,5.699999999999999512e-01,9.109830500000000000e+09
3.600000000000000000e+01,5.400000000000000000e+01,3.540000000000000000e+02,1.960000000000000000e+02,1.070000000000000000e+02,6.600000000000000000e+01,4.200000000000000000e+01,2.700000000000000000e+01,5.699999999999999512e-01,9.128955000000000000e+09
2.900000000000000000e+01,5.700000000000000000e+01,3.510000000000000000e+02,1.940000000000000000e+02,1.080000000000000000e+02,6.400000000000000000e+01,4.100000000000000000e+01,2.900000000000000000e+01,5.699999999999999512e-01,9.148801500000000000e+09
3.200000000000000000e+01,5.300000000000000000e+01,4.050000000000000000e+02,2.020000000000000000e+02,1.060000000000000000e+02,6.100000000000000000e+01,3.800000000000000000e+01,2.900000000000000000e+01,5.699999999999999512e-01,9.167304200000000000e+09
3.100000000000000000e+01,6.000000000000000000e+01,4.590000000000000000e+02,2.220000000000000000e+02,1.050000000000000000e+02,6.200000000000000000e+01,3.800000000000000000e+01,2.700000000000000000e+01,5.699999999999999512e-01,9.187967900000000000e+09
3.000000000000000000e+01,6.600000000000000000e+01,4.850000000000000000e+02,2.160000000000000000e+02,9.600000000000000000e+01,6.100000000000000000e+01,4.100000000000000000e+01,2.600000000000000000e+01,5.699999999999999512e-01,9.209645300000000000e+09
3.100000000000000000e+01,7.000000000000000000e+01,5.310000000000000000e+02,1.770000000000000000e+02,8.700000000000000000e+01,6.100000000000000000e+01,4.000000000000000000e+01,2.700000000000000000e+01,5.699999999999999512e-01,9.228812200000000000e+09
3.400000000000000000e+01,7.400000000000000000e+01,6.130000000000000000e+02,1.810000000000000000e+02,8.300000000000000000e+01,5.800000000000000000e+01,3.900000000000000000e+01,2.600000000000000000e+01,5.600000000000000533e-01,9.247952400000000000e+09
3.000000000000000000e+01,8.200000000000000000e+01,6.250000000000000000e+02,1.730000000000000000e+02,9.400000000000000000e+01,5.900000000000000000e+01,4.200000000000000000e+01,2.900000000000000000e+01,5.600000000000000533e-01,9.268169700000000000e+09
3.300000000000000000e+01,7.900000000000000000e+01,6.500000000000000000e+02,1.420000000000000000e+02,9.500000000000000000e+01,5.800000000000000000e+01,4.100000000000000000e+01,2.800000000000000000e+01,5.600000000000000533e-01,9.287510000000000000e+09
4.100000000000000000e+01,7.800000000000000000e+01,6.300000000000000000e+02,1.210000000000000000e+02,8.500000000000000000e+01,5.400000000000000000e+01,3.600000000000000000e+01,2.900000000000000000e+01,5.500000000000000444e-01,9.309686500000000000e+09
4.400000000000000000e+01,8.200000000000000000e+01,6.320000000000000000e+02,1.260000000000000000e+02,7.800000000000000000e+01,4.800000000000000000e+01,3.400000000000000000e+01,3.100000000000000000e+01,5.500000000000000444e-01,9.329541800000000000e+09
4.800000000000000000e+01,1.220000000000000000e+02,6.570000000000000000e+02,1.640000000000000000e+02,9.300000000000000000e+01,5.400000000000000000e+01,3.800000000000000000e+01,3.100000000000000000e+01,5.500000000000000444e-01,9.349282900000000000e+09
4.900000000000000000e+01,1.180000000000000000e+02,6.450000000000000000e+02,1.970000000000000000e+02,9.000000000000000000e+01,5.400000000000000000e+01,3.800000000000000000e+01,3.000000000000000000e+01,5.400000000000000355e-01,9.369568600000000000e+09
4.700000000000000000e+01,1.170000000000000000e+02,6.450000000000000000e+02,2.170000000000000000e+02,9.400000000000000000e+01,5.600000000000000000e+01,3.900000000000000000e+01,3.200000000000000000e+01,5.400000000000000355e-01,9.392443100000000000e+09
4.400000000000000000e+01,1.180000000000000000e+02,7.320000000000000000e+02,2.300000000000000000e+02,1.010000000000000000e+02,5.800000000000000000e+01,4.100000000000000000e+01,3.800000000000000000e+01,5.300000000000000266e-01,9.411133000000000000e+09
4.600000000000000000e+01,1.230000000000000000e+02,7.980000000000000000e+02,2.580000000000000000e+02,1.240000000000000000e+02,6.600000000000000000e+01,4.200000000000000000e+01,4.200000000000000000e+01,5.200000000000000178e-01,9.429595500000000000e+09
3.900000000000000000e+01,1.220000000000000000e+02,8.250000000000000000e+02,2.420000000000000000e+02,1.210000000000000000e+02,6.400000000000000000e+01,4.100000000000000000e+01,4.200000000000000000e+01,5.100000000000000089e-01,9.450397500000000000e+09
4.000000000000000000e+01,1.370000000000000000e+02,8.480000000000000000e+02,2.180000000000000000e+02,1.150000000000000000e+02,6.000000000000000000e+01,3.800000000000000000e+01,4.100000000000000000e+01,5.000000000000000000e-01,9.469464300000000000e+09
4.600000000000000000e+01,1.500000000000000000e+02,8.260000000000000000e+02,2.040000000000000000e+02,1.100000000000000000e+02,5.700000000000000000e+01,3.800000000000000000e+01,4.100000000000000000e+01,4.899999999999999911e-01,9.489185800000000000e+09
4.100000000000000000e+01,1.500000000000000000e+02,8.020000000000000000e+02,2.040000000000000000e+02,1.020000000000000000e+02,5.400000000000000000e+01,3.600000000000000000e+01,3.600000000000000000e+01,4.799999999999999822e-01,9.508021000000000000e+09
3.500000000000000000e+01,1.720000000000000000e+02,7.230000000000000000e+02,1.550000000000000000e+02,6.800000000000000000e+01,4.000000000000000000e+01,3.200000000000000000e+01,3.200000000000000000e+01,4.799999999999999822e-01,9.529450400000000000e+09
4.000000000000000000e+01,2.190000000000000000e+02,7.180000000000000000e+02,1.760000000000000000e+02,5.400000000000000000e+01,3.500000000000000000e+01,3.000000000000000000e+01,3.900000000000000000e+01,4.799999999999999822e-01,9.548893300000000000e+09
4.200000000000000000e+01,2.420000000000000000e+02,6.710000000000000000e+02,1.710000000000000000e+02,5.300000000000000000e+01,3.700000000000000000e+01,3.100000000000000000e+01,4.000000000000000000e+01,4.699999999999999734e-01,9.568877200000000000e+09
3.700000000000000000e+01,2.770000000000000000e+02,6.670000000000000000e+02,1.680000000000000000e+02,5.200000000000000000e+01,3.500000000000000000e+01,2.900000000000000000e+01,4.000000000000000000e+01,4.799999999999999822e-01,9.588306600000000000e+09
4.200000000000000000e+01,2.890000000000000000e+02,6.760000000000000000e+02,1.470000000000000000e+02,5.100000000000000000e+01,4.100000000000000000e+01,3.400000000000000000e+01,5.300000000000000000e+01,4.799999999999999822e-01,9.607310400000000000e+09
5.400000000000000000e+01,2.810000000000000000e+02,6.720000000000000000e+02,1.480000000000000000e+02,5.700000000000000000e+01,4.400000000000000000e+01,3.600000000000000000e+01,5.100000000000000000e+01,4.699999999999999734e-01,9.629611700000000000e+09
9.000000000000000000e+01,3.030000000000000000e+02,5.250000000000000000e+02,1.040000000000000000e+02,5.200000000000000000e+01,4.200000000000000000e+01,3.500000000000000000e+01,4.700000000000000000e+01,4.799999999999999822e-01,9.648087400000000000e+09
1.150000000000000000e+02,2.950000000000000000e+02,5.110000000000000000e+02,1.030000000000000000e+02,5.200000000000000000e+01,4.200000000000000000e+01,3.800000000000000000e+01,1.290000000000000000e+02,4.899999999999999911e-01,9.667377100000000000e+09
1.220000000000000000e+02,2.590000000000000000e+02,5.250000000000000000e+02,1.010000000000000000e+02,4.800000000000000000e+01,4.200000000000000000e+01,4.100000000000000000e+01,1.520000000000000000e+02,5.000000000000000000e-01,9.686781800000000000e+09
1.340000000000000000e+02,2.600000000000000000e+02,4.300000000000000000e+02,1.060000000000000000e+02,5.100000000000000000e+01,4.100000000000000000e+01,4.600000000000000000e+01,2.340000000000000000e+02,5.100000000000000089e-01,9.707121500000000000e+09
1.490000000000000000e+02,2.560000000000000000e+02,3.780000000000000000e+02,1.040000000000000000e+02,4.700000000000000000e+01,4.200000000000000000e+01,5.100000000000000000e+01,2.640000000000000000e+02,5.100000000000000089e-01,9.726406100000000000e+09
1.310000000000000000e+02,1.880000000000000000e+02,4.670000000000000000e+02,1.050000000000000000e+02,5.500000000000000000e+01,5.200000000000000000e+01,5.900000000000000000e+01,2.730000000000000000e+02,5.200000000000000178e-01,9.745065000000000000e+09
1.350000000000000000e+02,1.710000000000000000e+02,4.700000000000000000e+02,1.250000000000000000e+02,6.000000000000000000e+01,5.900000000000000000e+01,6.300000000000000000e+01,3.430000000000000000e+02,5.200000000000000178e-01,9.764318500000000000e+09
1.370000000000000000e+02,1.700000000000000000e+02,4.040000000000000000e+02,1.280000000000000000e+02,6.100000000000000000e+01,6.800000000000000000e+01,6.900000000000000000e+01,3.510000000000000000e+02,5.100000000000000089e-01,9.784837900000000000e+09
1.440000000000000000e+02,2.760000000000000000e+02,5.440000000000000000e+02,1.500000000000000000e+02,6.500000000000000000e+01,7.400000000000000000e+01,7.100000000000000000e+01,3.340000000000000000e+02,5.100000000000000089e-01,9.807002000000000000e+09
1.430000000000000000e+02,3.560000000000000000e+02,6.600000000000000000e+02,1.690000000000000000e+02,7.700000000000000000e+01,1.240000000000000000e+02,8.200000000000000000e+01,3.570000000000000000e+02,5.100000000000000089e-01,9.829376000000000000e+09
1.520000000000000000e+02,3.830000000000000000e+02,6.980000000000000000e+02,1.760000000000000000e+02,7.200000000000000000e+01,1.390000000000000000e+02,8.300000000000000000e+01,3.630000000000000000e+02,5.000000000000000000e-01,9.847750100000000000e+09
1.520000000000000000e+02,4.070000000000000000e+02,6.990000000000000000e+02,1.650000000000000000e+02,7.100000000000000000e+01,1.570000000000000000e+02,8.100000000000000000e+01,3.330000000000000000e+02,5.000000000000000000e-01,9.866814100000000000e+09
1.510000000000000000e+02,4.140000000000000000e+02,7.340000000000000000e+02,1.630000000000000000e+02,7.900000000000000000e+01,2.000000000000000000e+02,1.240000000000000000e+02,3.200000000000000000e+02,4.899999999999999911e-01,9.885768700000000000e+09
1.380000000000000000e+02,3.480000000000000000e+02,6.360000000000000000e+02,1.400000000000000000e+02,7.600000000000000000e+01,2.190000000000000000e+02,1.450000000000000000e+02,3.120000000000000000e+02,4.799999999999999822e-01,9.907539100000000000e+09
1.360000000000000000e+02,2.940000000000000000e+02,5.120000000000000000e+02,1.200000000000000000e+02,6.800000000000000000e+01,2.020000000000000000e+02,1.450000000000000000e+02,3.250000000000000000e+02,4.699999999999999734e-01,9.930197800000000000e+09
1.450000000000000000e+02,2.530000000000000000e+02,3.680000000000000000e+02,1.030000000000000000e+02,6.600000000000000000e+01,2.200000000000000000e+02,1.600000000000000000e+02,3.210000000000000000e+02,4.699999999999999734e-01,9.949075300000000000e+09
1.500000000000000000e+02,2.190000000000000000e+02,3.350000000000000000e+02,1.190000000000000000e+02,6.600000000000000000e+01,2.490000000000000000e+02,1.800000000000000000e+02,3.080000000000000000e+02,4.600000000000000200e-01,9.968149400000000000e+09
1.470000000000000000e+02,2.080000000000000000e+02,2.700000000000000000e+02,1.610000000000000000e+02,6.700000000000000000e+01,2.260000000000000000e+02,1.640000000000000000e+02,3.080000000000000000e+02,4.600000000000000200e-01,9.987380400000000000e+09
1.820000000000000000e+02,1.970000000000000000e+02,2.270000000000000000e+02,1.700000000000000000e+02,7.500000000000000000e+01,2.830000000000000000e+02,2.070000000000000000e+02,2.980000000000000000e+02,4.600000000000000200e-01,1.000948370000000000e+10
1.740000000000000000e+02,1.440000000000000000e+02,2.020000000000000000e+02,1.640000000000000000e+02,7.000000000000000000e+01,3.630000000000000000e+02,2.270000000000000000e+02,2.850000000000000000e+02,4.699999999999999734e-01,1.002766570000000000e+10
1.660000000000000000e+02,1.160000000000000000e+02,2.100000000000000000e+02,1.770000000000000000e+02,7.500000000000000000e+01,3.700000000000000000e+02,2.220000000000000000e+02,2.920000000000000000e+02,4.699999999999999734e-01,1.004688790000000000e+10
1.630000000000000000e+02,1.320000000000000000e+02,2.030000000000000000e+02,1.650000000000000000e+02,7.500000000000000000e+01,3.600000000000000000e+02,2.290000000000000000e+02,2.680000000000000000e+02,4.699999999999999734e-01,1.007522440000000000e+10
1.640000000000000000e+02,1.400000000000000000e+02,1.810000000000000000e+02,1.170000000000000000e+02,7.000000000000000000e+01,3.970000000000000000e+02,2.580000000000000000e+02,2.800000000000000000e+02,4.699999999999999734e-01,1.009749440000000000e+10
1.230000000000000000e+02,1.420000000000000000e+02,1.890000000000000000e+02,9.800000000000000000e+01,5.600000000000000000e+01,3.830000000000000000e+02,2.190000000000000000e+02,2.800000000000000000e+02,4.799999999999999822e-01,1.011663340000000000e+10
1.300000000000000000e+02,1.500000000000000000e+02,2.090000000000000000e+02,9.400000000000000000e+01,5.700000000000000000e+01,3.190000000000000000e+02,2.050000000000000000e+02,2.780000000000000000e+02,4.799999999999999822e-01,1.013537190000000000e+10
1.240000000000000000e+02,1.530000000000000000e+02,2.190000000000000000e+02,6.500000000000000000e+01,5.600000000000000000e+01,3.050000000000000000e+02,2.200000000000000000e+02,2.690000000000000000e+02,4.799999999999999822e-01,1.015345210000000000e+10
1.000000000000000000e+02,1.150000000000000000e+02,2.420000000000000000e+02,6.900000000000000000e+01,6.300000000000000000e+01,3.240000000000000000e+02,2.190000000000000000e+02,2.470000000000000000e+02,4.799999999999999822e-01,1.017116580000000000e+10
1.070000000000000000e+02,1.000000000000000000e+02,2.760000000000000000e+02,7.500000000000000000e+01,6.200000000000000000e+01,2.890000000000000000e+02,1.950000000000000000e+02,2.320000000000000000e+02,4.799999999999999822e-01,1.018984810000000000e+10
1.170000000000000000e+02,9.400000000000000000e+01,2.810000000000000000e+02,8.100000000000000000e+01,6.300000000000000000e+01,2.560000000000000000e+02,1.950000000000000000e+02,2.220000000000000000e+02,4.799999999999999822e-01,1.020806510000000000e+10
1.150000000000000000e+02,8.200000000000000000e+01,3.150000000000000000e+02,8.600000000000000000e+01,6.400000000000000000e+01,2.540000000000000000e+02,2.030000000000000000e+02,2.020000000000000000e+02,4.799999999999999822e-01,1.022914560000000000e+10
1.140000000000000000e+02,8.800000000000000000e+01,3.020000000000000000e+02,8.200000000000000000e+01,6.000000000000000000e+01,2.470000000000000000e+02,1.810000000000000000e+02,1.970000000000000000e+02,4.799999999999999822e-01,1.024746110000000000e+10
1.120000000000000000e+02,8.400000000000000000e+01,2.830000000000000000e+02,7.800000000000000000e+01,5.400000000000000000e+01,2.390000000000000000e+02,1.910000000000000000e+02,1.910000000000000000e+02,4.799999999999999822e-01,1.026783860000000000e+10
1.040000000000000000e+02,7.700000000000000000e+01,2.400000000000000000e+02,7.800000000000000000e+01,5.500000000000000000e+01,2.260000000000000000e+02,1.880000000000000000e+02,1.880000000000000000e+02,4.699999999999999734e-01,1.028654800000000000e+10
8.600000000000000000e+01,9.100000000000000000e+01,2.230000000000000000e+02,7.500000000000000000e+01,6.000000000000000000e+01,2.080000000000000000e+02,1.830000000000000000e+02,1.830000000000000000e+02,4.699999999999999734e-01,1.030695090000000000e+10
9.400000000000000000e+01,1.270000000000000000e+02,2.590000000000000000e+02,6.700000000000000000e+01,5.800000000000000000e+01,2.090000000000000000e+02,1.910000000000000000e+02,1.320000000000000000e+02,4.699999999999999734e-01,1.032913740000000000e+10
9.400000000000000000e+01,1.380000000000000000e+02,2.620000000000000000e+02,7.300000000000000000e+01,6.100000000000000000e+01,2.390000000000000000e+02,2.010000000000000000e+02,1.530000000000000000e+02,4.699999999999999734e-01,1.034775580000000000e+10
9.200000000000000000e+01,2.050000000000000000e+02,2.890000000000000000e+02,7.600000000000000000e+01,6.400000000000000000e+01,2.010000000000000000e+02,1.690000000000000000e+02,1.530000000000000000e+02,4.699999999999999734e-01,1.037256490000000000e+10
8.800000000000000000e+01,2.070000000000000000e+02,2.950000000000000000e+02,6.800000000000000000e+01,6.400000000000000000e+01,2.110000000000000000e+02,1.590000000000000000e+02,1.490000000000000000e+02,4.699999999999999734e-01,1.039184800000000000e+10
8.900000000000000000e+01,2.020000000000000000e+02,2.940000000000000000e+02,7.100000000000000000e+01,6.300000000000000000e+01,2.120000000000000000e+02,1.540000000000000000e+02,1.470000000000000000e+02,4.699999999999999734e-01,1.041253160000000000e+10
6.100000000000000000e+01,1.850000000000000000e+02,2.110000000000000000e+02,8.600000000000000000e+01,6.900000000000000000e+01,2.010000000000000000e+02,1.250000000000000000e+02,1.300000000000000000e+02,4.699999999999999734e-01,1.043190270000000000e+10
5.900000000000000000e+01,2.010000000000000000e+02,2.280000000000000000e+02,9.500000000000000000e+01,8.200000000000000000e+01,3.180000000000000000e+02,1.860000000000000000e+02,1.000000000000000000e+02,4.799999999999999822e-01,1.045100400000000000e+10
6.600000000000000000e+01,1.570000000000000000e+02,2.560000000000000000e+02,9.600000000000000000e+01,8.100000000000000000e+01,3.390000000000000000e+02,2.040000000000000000e+02,9.900000000000000000e+01,4.799999999999999822e-01,1.046975340000000000e+10
