3.950000000000000000e+02,2.730000000000000000e+02,7.680000000000000000e+02,3.650000000000000000e+02,1.970000000000000000e+02,4.910000000000000000e+02,1.700000000000000000e+02,1.230000000000000000e+02,3.599999999999999867e-01,4.747615000000000000e+08
4.100000000000000000e+02,2.760000000000000000e+02,7.710000000000000000e+02,3.680000000000000000e+02,1.970000000000000000e+02,3.750000000000000000e+02,1.400000000000000000e+02,1.160000000000000000e+02,3.699999999999999956e-01,5.021237000000000000e+08
4.200000000000000000e+02,2.770000000000000000e+02,6.540000000000000000e+02,3.220000000000000000e+02,1.870000000000000000e+02,2.590000000000000000e+02,1.320000000000000000e+02,1.210000000000000000e+02,3.800000000000000044e-01,1.146742800000000000e+09
4.400000000000000000e+02,3.270000000000000000e+02,7.410000000000000000e+02,3.060000000000000000e+02,1.750000000000000000e+02,2.010000000000000000e+02,1.200000000000000000e+02,1.050000000000000000e+02,3.800000000000000044e-01,1.172543800000000000e+09
4.120000000000000000e+02,3.140000000000000000e+02,7.000000000000000000e+02,3.200000000000000000e+02,1.890000000000000000e+02,1.930000000000000000e+02,1.140000000000000000e+02,1.000000000000000000e+02,3.800000000000000044e-01,1.202063700000000000e+09
4.060000000000000000e+02,2.860000000000000000e+02,7.200000000000000000e+02,2.920000000000000000e+02,2.040000000000000000e+02,2.390000000000000000e+02,1.020000000000000000e+02,9.700000000000000000e+01,3.800000000000000044e-01,1.232238600000000000e+09
3.930000000000000000e+02,3.550000000000000000e+02,7.270000000000000000e+02,3.260000000000000000e+02,1.970000000000000000e+02,2.290000000000000000e+02,1.000000000000000000e+02,1.010000000000000000e+02,3.800000000000000044e-01,1.258988900000000000e+09
2.950000000000000000e+02,4.290000000000000000e+02,7.720000000000000000e+02,3.340000000000000000e+02,1.950000000000000000e+02,2.300000000000000000e+02,9.300000000000000000e+01,9.400000000000000000e+01,3.699999999999999956e-01,1.283956500000000000e+09
2.280000000000000000e+02,4.210000000000000000e+02,8.250000000000000000e+02,3.270000000000000000e+02,1.970000000000000000e+02,2.220000000000000000e+02,8.700000000000000000e+01,8.200000000000000000e+01,3.599999999999999867e-01,1.314856900000000000e+09
2.410000000000000000e+02,4.300000000000000000e+02,8.150000000000000000e+02,3.300000000000000000e+02,1.850000000000000000e+02,2.080000000000000000e+02,7.500000000000000000e+01,9.200000000000000000e+01,3.400000000000000244e-01,1.349518000000000000e+09
2.730000000000000000e+02,4.430000000000000000e+02,8.130000000000000000e+02,3.170000000000000000e+02,1.520000000000000000e+02,1.300000000000000000e+02,7.600000000000000000e+01,1.000000000000000000e+02,3.300000000000000155e-01,1.380041900000000000e+09
2.740000000000000000e+02,3.830000000000000000e+02,8.430000000000000000e+02,2.830000000000000000e+02,1.590000000000000000e+02,1.430000000000000000e+02,8.200000000000000000e+01,1.010000000000000000e+02,3.200000000000000067e-01,1.418727700000000000e+09
2.630000000000000000e+02,2.930000000000000000e+02,8.250000000000000000e+02,2.810000000000000000e+02,1.660000000000000000e+02,1.650000000000000000e+02,1.240000000000000000e+02,9.900000000000000000e+01,3.099999999999999978e-01,1.447133500000000000e+09
2.980000000000000000e+02,2.460000000000000000e+02,7.190000000000000000e+02,2.960000000000000000e+02,1.660000000000000000e+02,2.350000000000000000e+02,1.570000000000000000e+02,1.140000000000000000e+02,2.999999999999999889e-01,1.465407000000000000e+09
3.200000000000000000e+02,2.520000000000000000e+02,6.610000000000000000e+02,2.770000000000000000e+02,1.560000000000000000e+02,2.420000000000000000e+02,1.550000000000000000e+02,1.060000000000000000e+02,2.999999999999999889e-01,1.484099000000000000e+09
3.020000000000000000e+02,2.440000000000000000e+02,6.530000000000000000e+02,2.720000000000000000e+02,1.570000000000000000e+02,2.360000000000000000e+02,1.570000000000000000e+02,1.040000000000000000e+02,2.999999999999999889e-01,1.502454800000000000e+09
3.110000000000000000e+02,2.240000000000000000e+02,6.590000000000000000e+02,2.560000000000000000e+02,1.620000000000000000e+02,2.860000000000000000e+02,1.650000000000000000e+02,1.100000000000000000e+02,2.999999999999999889e-01,1.521329200000000000e+09
3.280000000000000000e+02,2.120000000000000000e+02,6.020000000000000000e+02,2.830000000000000000e+02,1.660000000000000000e+02,3.130000000000000000e+02,1.500000000000000000e+02,1.170000000000000000e+02,2.999999999999999889e-01,1.539749800000000000e+09
3.020000000000000000e+02,2.000000000000000000e+02,5.420000000000000000e+02,2.480000000000000000e+02,1.690000000000000000e+02,2.960000000000000000e+02,1.210000000000000000e+02,1.000000000000000000e+02,2.999999999999999889e-01,1.571375200000000000e+09
2.830000000000000000e+02,1.710000000000000000e+02,6.280000000000000000e+02,3.520000000000000000e+02,1.820000000000000000e+02,2.910000000000000000e+02,1.200000000000000000e+02,1.010000000000000000e+02,3.099999999999999978e-01,1.589724600000000000e+09
3.220000000000000000e+02,1.840000000000000000e+02,6.990000000000000000e+02,3.710000000000000000e+02,1.760000000000000000e+02,2.980000000000000000e+02,1.210000000000000000e+02,1.020000000000000000e+02,3.200000000000000067e-01,1.608424000000000000e+09
2.990000000000000000e+02,2.120000000000000000e+02,7.060000000000000000e+02,3.780000000000000000e+02,2.190000000000000000e+02,2.740000000000000000e+02,1.240000000000000000e+02,9.200000000000000000e+01,3.300000000000000155e-01,1.628206900000000000e+09
2.770000000000000000e+02,2.230000000000000000e+02,6.990000000000000000e+02,4.080000000000000000e+02,2.430000000000000000e+02,2.450000000000000000e+02,1.110000000000000000e+02,8.900000000000000000e+01,3.300000000000000155e-01,1.647457200000000000e+09
3.040000000000000000e+02,2.260000000000000000e+02,7.590000000000000000e+02,4.250000000000000000e+02,2.350000000000000000e+02,2.150000000000000000e+02,1.100000000000000000e+02,1.120000000000000000e+02,3.400000000000000244e-01,1.665988000000000000e+09
3.750000000000000000e+02,2.120000000000000000e+02,8.050000000000000000e+02,3.490000000000000000e+02,2.220000000000000000e+02,2.090000000000000000e+02,1.090000000000000000e+02,1.170000000000000000e+02,3.499999999999999778e-01,1.684564700000000000e+09
3.380000000000000000e+02,1.810000000000000000e+02,7.800000000000000000e+02,3.220000000000000000e+02,2.190000000000000000e+02,2.040000000000000000e+02,9.900000000000000000e+01,1.100000000000000000e+02,3.499999999999999778e-01,1.702584400000000000e+09
3.340000000000000000e+02,1.490000000000000000e+02,7.580000000000000000e+02,3.330000000000000000e+02,1.620000000000000000e+02,1.530000000000000000e+02,7.000000000000000000e+01,1.030000000000000000e+02,3.499999999999999778e-01,1.721274200000000000e+09
3.370000000000000000e+02,1.470000000000000000e+02,7.730000000000000000e+02,2.800000000000000000e+02,9.700000000000000000e+01,1.130000000000000000e+02,6.000000000000000000e+01,9.500000000000000000e+01,3.599999999999999867e-01,1.739988300000000000e+09
3.220000000000000000e+02,1.970000000000000000e+02,8.730000000000000000e+02,3.070000000000000000e+02,1.020000000000000000e+02,9.100000000000000000e+01,5.000000000000000000e+01,7.400000000000000000e+01,3.800000000000000044e-01,1.758579500000000000e+09
2.650000000000000000e+02,1.960000000000000000e+02,8.140000000000000000e+02,2.940000000000000000e+02,1.000000000000000000e+02,7.700000000000000000e+01,5.200000000000000000e+01,6.400000000000000000e+01,3.900000000000000133e-01,1.776977100000000000e+09
2.700000000000000000e+02,1.960000000000000000e+02,8.440000000000000000e+02,2.940000000000000000e+02,9.600000000000000000e+01,6.500000000000000000e+01,6.900000000000000000e+01,6.900000000000000000e+01,4.000000000000000222e-01,1.796126400000000000e+09
3.010000000000000000e+02,2.150000000000000000e+02,8.860000000000000000e+02,2.660000000000000000e+02,1.050000000000000000e+02,6.500000000000000000e+01,6.900000000000000000e+01,8.200000000000000000e+01,4.099999999999999756e-01,1.814187400000000000e+09
3.120000000000000000e+02,2.100000000000000000e+02,8.920000000000000000e+02,2.560000000000000000e+02,1.250000000000000000e+02,7.700000000000000000e+01,6.900000000000000000e+01,8.400000000000000000e+01,4.099999999999999756e-01,1.832346100000000000e+09
3.090000000000000000e+02,1.800000000000000000e+02,8.260000000000000000e+02,1.870000000000000000e+02,1.200000000000000000e+02,7.900000000000000000e+01,8.100000000000000000e+01,1.030000000000000000e+02,4.199999999999999845e-01,1.850857600000000000e+09
2.930000000000000000e+02,1.940000000000000000e+02,8.270000000000000000e+02,1.930000000000000000e+02,1.520000000000000000e+02,1.080000000000000000e+02,7.800000000000000000e+01,1.040000000000000000e+02,4.299999999999999933e-01,1.869961700000000000e+09
2.870000000000000000e+02,1.880000000000000000e+02,7.350000000000000000e+02,2.170000000000000000e+02,1.760000000000000000e+02,2.150000000000000000e+02,1.050000000000000000e+02,1.070000000000000000e+02,4.400000000000000022e-01,1.889393700000000000e+09
2.720000000000000000e+02,1.640000000000000000e+02,6.350000000000000000e+02,2.210000000000000000e+02,1.930000000000000000e+02,2.510000000000000000e+02,1.040000000000000000e+02,9.900000000000000000e+01,4.500000000000000111e-01,1.908959100000000000e+09
2.780000000000000000e+02,1.740000000000000000e+02,6.110000000000000000e+02,2.600000000000000000e+02,2.520000000000000000e+02,2.620000000000000000e+02,1.140000000000000000e+02,9.800000000000000000e+01,4.500000000000000111e-01,1.927830100000000000e+09
2.560000000000000000e+02,1.520000000000000000e+02,4.900000000000000000e+02,3.030000000000000000e+02,2.560000000000000000e+02,3.290000000000000000e+02,1.680000000000000000e+02,7.200000000000000000e+01,4.500000000000000111e-01,1.946403500000000000e+09
2.260000000000000000e+02,1.220000000000000000e+02,3.980000000000000000e+02,3.100000000000000000e+02,2.440000000000000000e+02,3.450000000000000000e+02,1.740000000000000000e+02,6.300000000000000000e+01,4.400000000000000022e-01,1.965139900000000000e+09
2.370000000000000000e+02,1.260000000000000000e+02,3.790000000000000000e+02,2.980000000000000000e+02,2.440000000000000000e+02,2.990000000000000000e+02,1.640000000000000000e+02,5.800000000000000000e+01,4.400000000000000022e-01,1.983524300000000000e+09
2.560000000000000000e+02,1.260000000000000000e+02,4.090000000000000000e+02,3.200000000000000000e+02,2.550000000000000000e+02,2.880000000000000000e+02,1.650000000000000000e+02,6.100000000000000000e+01,4.299999999999999933e-01,2.001950100000000000e+09
2.310000000000000000e+02,9.500000000000000000e+01,4.310000000000000000e+02,2.920000000000000000e+02,1.980000000000000000e+02,3.600000000000000000e+02,1.730000000000000000e+02,5.600000000000000000e+01,4.299999999999999933e-01,2.020482800000000000e+09
2.520000000000000000e+02,9.100000000000000000e+01,4.340000000000000000e+02,2.760000000000000000e+02,1.980000000000000000e+02,3.150000000000000000e+02,1.140000000000000000e+02,5.800000000000000000e+01,4.199999999999999845e-01,2.039177200000000000e+09
2.410000000000000000e+02,9.600000000000000000e+01,7.560000000000000000e+02,3.110000000000000000e+02,2.070000000000000000e+02,2.880000000000000000e+02,1.040000000000000000e+02,6.100000000000000000e+01,4.199999999999999845e-01,2.058720900000000000e+09
2.270000000000000000e+02,1.070000000000000000e+02,8.180000000000000000e+02,3.270000000000000000e+02,1.930000000000000000e+02,2.870000000000000000e+02,8.800000000000000000e+01,6.300000000000000000e+01,4.099999999999999756e-01,2.077455900000000000e+09
2.120000000000000000e+02,1.880000000000000000e+02,8.700000000000000000e+02,3.510000000000000000e+02,1.680000000000000000e+02,2.760000000000000000e+02,9.200000000000000000e+01,7.600000000000000000e+01,4.099999999999999756e-01,2.096164000000000000e+09
2.150000000000000000e+02,2.120000000000000000e+02,8.340000000000000000e+02,3.530000000000000000e+02,1.600000000000000000e+02,2.650000000000000000e+02,7.200000000000000000e+01,8.300000000000000000e+01,4.099999999999999756e-01,2.115459100000000000e+09
1.820000000000000000e+02,2.160000000000000000e+02,8.260000000000000000e+02,3.290000000000000000e+02,1.710000000000000000e+02,2.540000000000000000e+02,8.000000000000000000e+01,8.100000000000000000e+01,4.000000000000000222e-01,2.133777600000000000e+09
1.840000000000000000e+02,2.200000000000000000e+02,6.120000000000000000e+02,2.830000000000000000e+02,1.590000000000000000e+02,2.850000000000000000e+02,9.500000000000000000e+01,7.700000000000000000e+01,4.099999999999999756e-01,2.151958200000000000e+09
1.750000000000000000e+02,2.190000000000000000e+02,5.630000000000000000e+02,2.900000000000000000e+02,1.750000000000000000e+02,3.850000000000000000e+02,1.090000000000000000e+02,7.300000000000000000e+01,4.099999999999999756e-01,2.172011300000000000e+09
1.110000000000000000e+02,1.550000000000000000e+02,6.020000000000000000e+02,2.250000000000000000e+02,1.670000000000000000e+02,3.870000000000000000e+02,1.020000000000000000e+02,4.800000000000000000e+01,4.099999999999999756e-01,2.192799700000000000e+09
8.900000000000000000e+01,1.300000000000000000e+02,6.550000000000000000e+02,2.320000000000000000e+02,1.820000000000000000e+02,3.220000000000000000e+02,1.000000000000000000e+02,3.300000000000000000e+01,4.099999999999999756e-01,2.210930100000000000e+09
1.020000000000000000e+02,1.210000000000000000e+02,6.490000000000000000e+02,2.410000000000000000e+02,1.810000000000000000e+02,4.160000000000000000e+02,1.100000000000000000e+02,8.200000000000000000e+01,4.000000000000000222e-01,2.229430600000000000e+09
9.700000000000000000e+01,1.050000000000000000e+02,6.470000000000000000e+02,2.480000000000000000e+02,1.980000000000000000e+02,4.320000000000000000e+02,1.070000000000000000e+02,9.000000000000000000e+01,4.000000000000000222e-01,2.248227200000000000e+09
9.700000000000000000e+01,8.600000000000000000e+01,6.410000000000000000e+02,2.230000000000000000e+02,1.900000000000000000e+02,3.610000000000000000e+02,1.260000000000000000e+02,9.100000000000000000e+01,3.900000000000000133e-01,2.266992900000000000e+09
9.600000000000000000e+01,8.300000000000000000e+01,5.060000000000000000e+02,2.520000000000000000e+02,2.230000000000000000e+02,4.520000000000000000e+02,1.560000000000000000e+02,1.880000000000000000e+02,3.900000000000000133e-01,2.286065300000000000e+09
1.070000000000000000e+02,8.000000000000000000e+01,4.850000000000000000e+02,2.870000000000000000e+02,2.110000000000000000e+02,4.880000000000000000e+02,1.900000000000000000e+02,2.740000000000000000e+02,3.900000000000000133e-01,2.305108500000000000e+09
9.200000000000000000e+01,8.600000000000000000e+01,4.910000000000000000e+02,2.950000000000000000e+02,2.050000000000000000e+02,4.220000000000000000e+02,1.860000000000000000e+02,2.970000000000000000e+02,3.900000000000000133e-01,2.323622100000000000e+09
8.500000000000000000e+01,1.200000000000000000e+02,4.550000000000000000e+02,3.150000000000000000e+02,1.970000000000000000e+02,4.370000000000000000e+02,2.050000000000000000e+02,3.050000000000000000e+02,3.900000000000000133e-01,2.343156800000000000e+09
8.100000000000000000e+01,1.190000000000000000e+02,4.420000000000000000e+02,3.260000000000000000e+02,2.150000000000000000e+02,4.590000000000000000e+02,1.890000000000000000e+02,3.280000000000000000e+02,3.900000000000000133e-01,2.361613200000000000e+09
8.400000000000000000e+01,1.190000000000000000e+02,4.580000000000000000e+02,3.000000000000000000e+02,1.820000000000000000e+02,4.000000000000000000e+02,1.970000000000000000e+02,3.470000000000000000e+02,3.900000000000000133e-01,2.380079800000000000e+09
9.500000000000000000e+01,1.140000000000000000e+02,4.420000000000000000e+02,2.420000000000000000e+02,1.740000000000000000e+02,4.340000000000000000e+02,1.950000000000000000e+02,4.080000000000000000e+02,3.800000000000000044e-01,2.398893700000000000e+09
9.200000000000000000e+01,1.360000000000000000e+02,4.860000000000000000e+02,2.310000000000000000e+02,1.730000000000000000e+02,4.460000000000000000e+02,1.940000000000000000e+02,3.970000000000000000e+02,3.699999999999999956e-01,2.420141600000000000e+09
9.000000000000000000e+01,1.120000000000000000e+02,4.740000000000000000e+02,2.000000000000000000e+02,1.710000000000000000e+02,4.300000000000000000e+02,1.830000000000000000e+02,3.960000000000000000e+02,3.699999999999999956e-01,2.439042700000000000e+09
9.100000000000000000e+01,1.150000000000000000e+02,5.350000000000000000e+02,1.660000000000000000e+02,1.320000000000000000e+02,4.760000000000000000e+02,1.960000000000000000e+02,4.150000000000000000e+02,3.699999999999999956e-01,2.458356000000000000e+09
9.600000000000000000e+01,1.530000000000000000e+02,6.470000000000000000e+02,1.540000000000000000e+02,1.180000000000000000e+02,4.860000000000000000e+02,1.850000000000000000e+02,4.380000000000000000e+02,3.599999999999999867e-01,2.477294000000000000e+09
7.400000000000000000e+01,1.660000000000000000e+02,6.710000000000000000e+02,2.660000000000000000e+02,1.610000000000000000e+02,4.720000000000000000e+02,1.580000000000000000e+02,3.550000000000000000e+02,3.599999999999999867e-01,2.495763700000000000e+09
6.900000000000000000e+01,1.490000000000000000e+02,7.250000000000000000e+02,2.570000000000000000e+02,1.830000000000000000e+02,5.110000000000000000e+02,1.700000000000000000e+02,3.560000000000000000e+02,3.599999999999999867e-01,2.515068900000000000e+09
7.100000000000000000e+01,1.500000000000000000e+02,7.740000000000000000e+02,2.570000000000000000e+02,1.870000000000000000e+02,5.500000000000000000e+02,1.770000000000000000e+02,3.970000000000000000e+02,3.499999999999999778e-01,2.541130000000000000e+09
7.400000000000000000e+01,1.510000000000000000e+02,7.990000000000000000e+02,2.530000000000000000e+02,1.910000000000000000e+02,4.780000000000000000e+02,1.640000000000000000e+02,3.700000000000000000e+02,3.400000000000000244e-01,2.560643500000000000e+09
7.100000000000000000e+01,1.130000000000000000e+02,7.130000000000000000e+02,2.710000000000000000e+02,1.930000000000000000e+02,4.460000000000000000e+02,1.640000000000000000e+02,3.120000000000000000e+02,3.300000000000000155e-01,2.578823000000000000e+09
7.300000000000000000e+01,8.700000000000000000e+01,7.090000000000000000e+02,2.010000000000000000e+02,1.870000000000000000e+02,4.220000000000000000e+02,1.760000000000000000e+02,4.240000000000000000e+02,3.300000000000000155e-01,2.597518300000000000e+09
8.000000000000000000e+01,9.400000000000000000e+01,6.400000000000000000e+02,2.130000000000000000e+02,1.680000000000000000e+02,3.640000000000000000e+02,1.640000000000000000e+02,4.160000000000000000e+02,3.200000000000000067e-01,2.617552000000000000e+09
8.900000000000000000e+01,1.290000000000000000e+02,6.070000000000000000e+02,2.270000000000000000e+02,1.610000000000000000e+02,2.580000000000000000e+02,1.430000000000000000e+02,3.860000000000000000e+02,3.200000000000000067e-01,2.635917800000000000e+09
9.300000000000000000e+01,1.900000000000000000e+02,5.420000000000000000e+02,2.390000000000000000e+02,1.600000000000000000e+02,2.870000000000000000e+02,1.600000000000000000e+02,3.830000000000000000e+02,3.099999999999999978e-01,2.655502300000000000e+09
9.900000000000000000e+01,1.910000000000000000e+02,5.960000000000000000e+02,2.210000000000000000e+02,1.580000000000000000e+02,3.750000000000000000e+02,1.380000000000000000e+02,3.710000000000000000e+02,3.099999999999999978e-01,2.674205600000000000e+09
9.500000000000000000e+01,2.020000000000000000e+02,6.470000000000000000e+02,1.790000000000000000e+02,1.280000000000000000e+02,3.580000000000000000e+02,1.120000000000000000e+02,2.000000000000000000e+02,3.099999999999999978e-01,2.692770900000000000e+09
9.100000000000000000e+01,1.990000000000000000e+02,6.410000000000000000e+02,1.600000000000000000e+02,1.100000000000000000e+02,3.650000000000000000e+02,1.190000000000000000e+02,2.520000000000000000e+02,2.999999999999999889e-01,2.711746500000000000e+09
8.000000000000000000e+01,1.770000000000000000e+02,6.390000000000000000e+02,1.290000000000000000e+02,9.500000000000000000e+01,3.740000000000000000e+02,1.150000000000000000e+02,2.500000000000000000e+02,2.999999999999999889e-01,2.731207400000000000e+09
6.800000000000000000e+01,1.160000000000000000e+02,6.040000000000000000e+02,1.070000000000000000e+02,8.400000000000000000e+01,3.670000000000000000e+02,9.500000000000000000e+01,2.370000000000000000e+02,2.999999999999999889e-01,2.749638900000000000e+09
4.900000000000000000e+01,1.280000000000000000e+02,5.630000000000000000e+02,9.900000000000000000e+01,8.300000000000000000e+01,2.680000000000000000e+02,1.130000000000000000e+02,2.210000000000000000e+02,3.099999999999999978e-01,2.769010600000000000e+09
5.900000000000000000e+01,1.090000000000000000e+02,5.260000000000000000e+02,1.320000000000000000e+02,9.100000000000000000e+01,2.530000000000000000e+02,1.340000000000000000e+02,2.500000000000000000e+02,3.099999999999999978e-01,2.787095800000000000e+09
6.700000000000000000e+01,1.200000000000000000e+02,5.080000000000000000e+02,1.370000000000000000e+02,1.060000000000000000e+02,2.070000000000000000e+02,1.420000000000000000e+02,1.880000000000000000e+02,3.200000000000000067e-01,2.805830700000000000e+09
6.800000000000000000e+01,1.190000000000000000e+02,5.310000000000000000e+02,1.530000000000000000e+02,1.090000000000000000e+02,2.370000000000000000e+02,1.500000000000000000e+02,1.630000000000000000e+02,3.300000000000000155e-01,2.823924000000000000e+09
6.800000000000000000e+01,1.180000000000000000e+02,6.100000000000000000e+02,1.510000000000000000e+02,1.200000000000000000e+02,2.850000000000000000e+02,1.560000000000000000e+02,1.890000000000000000e+02,3.400000000000000244e-01,2.842801000000000000e+09
6.500000000000000000e+01,1.010000000000000000e+02,5.630000000000000000e+02,1.500000000000000000e+02,1.130000000000000000e+02,2.860000000000000000e+02,1.420000000000000000e+02,2.020000000000000000e+02,3.400000000000000244e-01,2.861882700000000000e+09
5.400000000000000000e+01,1.390000000000000000e+02,4.910000000000000000e+02,1.360000000000000000e+02,1.010000000000000000e+02,2.780000000000000000e+02,1.280000000000000000e+02,1.750000000000000000e+02,3.499999999999999778e-01,2.880146100000000000e+09
4.900000000000000000e+01,1.660000000000000000e+02,5.470000000000000000e+02,1.530000000000000000e+02,9.200000000000000000e+01,2.750000000000000000e+02,1.240000000000000000e+02,1.820000000000000000e+02,3.599999999999999867e-01,2.898743000000000000e+09
4.800000000000000000e+01,1.760000000000000000e+02,4.830000000000000000e+02,1.480000000000000000e+02,8.900000000000000000e+01,2.510000000000000000e+02,1.250000000000000000e+02,1.770000000000000000e+02,3.699999999999999956e-01,2.917865200000000000e+09
5.000000000000000000e+01,1.810000000000000000e+02,4.430000000000000000e+02,1.400000000000000000e+02,7.900000000000000000e+01,1.840000000000000000e+02,1.130000000000000000e+02,1.540000000000000000e+02,3.800000000000000044e-01,2.936557600000000000e+09
5.200000000000000000e+01,2.220000000000000000e+02,4.970000000000000000e+02,1.370000000000000000e+02,8.200000000000000000e+01,2.070000000000000000e+02,1.170000000000000000e+02,2.210000000000000000e+02,3.900000000000000133e-01,2.956510500000000000e+09
6.200000000000000000e+01,2.180000000000000000e+02,5.280000000000000000e+02,1.480000000000000000e+02,9.000000000000000000e+01,2.140000000000000000e+02,1.220000000000000000e+02,2.200000000000000000e+02,4.000000000000000222e-01,2.974871200000000000e+09
6.700000000000000000e+01,1.940000000000000000e+02,4.620000000000000000e+02,1.380000000000000000e+02,9.300000000000000000e+01,2.380000000000000000e+02,1.330000000000000000e+02,2.170000000000000000e+02,4.000000000000000222e-01,2.995002200000000000e+09
7.200000000000000000e+01,2.190000000000000000e+02,4.760000000000000000e+02,1.260000000000000000e+02,8.900000000000000000e+01,2.260000000000000000e+02,1.320000000000000000e+02,2.200000000000000000e+02,4.099999999999999756e-01,3.013879900000000000e+09
7.500000000000000000e+01,2.210000000000000000e+02,4.090000000000000000e+02,1.450000000000000000e+02,8.600000000000000000e+01,2.050000000000000000e+02,1.340000000000000000e+02,3.310000000000000000e+02,4.099999999999999756e-01,3.032566300000000000e+09
7.700000000000000000e+01,2.430000000000000000e+02,3.760000000000000000e+02,1.480000000000000000e+02,8.600000000000000000e+01,1.670000000000000000e+02,1.340000000000000000e+02,2.870000000000000000e+02,4.099999999999999756e-01,3.051575500000000000e+09
7.100000000000000000e+01,2.350000000000000000e+02,4.070000000000000000e+02,1.330000000000000000e+02,7.800000000000000000e+01,1.650000000000000000e+02,1.330000000000000000e+02,2.900000000000000000e+02,4.099999999999999756e-01,3.070349600000000000e+09
6.200000000000000000e+01,2.720000000000000000e+02,4.220000000000000000e+02,1.280000000000000000e+02,7.900000000000000000e+01,1.360000000000000000e+02,1.130000000000000000e+02,3.030000000000000000e+02,4.099999999999999756e-01,3.088841000000000000e+09
8.800000000000000000e+01,2.890000000000000000e+02,4.110000000000000000e+02,1.290000000000000000e+02,7.800000000000000000e+01,1.160000000000000000e+02,1.150000000000000000e+02,3.470000000000000000e+02,4.099999999999999756e-01,3.108895200000000000e+09
9.200000000000000000e+01,2.970000000000000000e+02,4.200000000000000000e+02,1.110000000000000000e+02,8.000000000000000000e+01,1.190000000000000000e+02,1.070000000000000000e+02,2.430000000000000000e+02,4.099999999999999756e-01,3.126685000000000000e+09
9.300000000000000000e+01,2.640000000000000000e+02,4.070000000000000000e+02,1.170000000000000000e+02,8.500000000000000000e+01,1.370000000000000000e+02,1.080000000000000000e+02,2.390000000000000000e+02,4.099999999999999756e-01,3.143856700000000000e+09
9.700000000000000000e+01,3.070000000000000000e+02,3.310000000000000000e+02,1.120000000000000000e+02,8.300000000000000000e+01,1.350000000000000000e+02,9.800000000000000000e+01,2.930000000000000000e+02,4.099999999999999756e-01,3.160829600000000000e+09
1.010000000000000000e+02,2.960000000000000000e+02,3.450000000000000000e+02,1.300000000000000000e+02,7.800000000000000000e+01,1.400000000000000000e+02,1.010000000000000000e+02,5.730000000000000000e+02,4.000000000000000222e-01,3.179250700000000000e+09
7.400000000000000000e+01,2.580000000000000000e+02,3.620000000000000000e+02,1.370000000000000000e+02,8.200000000000000000e+01,1.560000000000000000e+02,1.110000000000000000e+02,5.940000000000000000e+02,4.000000000000000222e-01,3.196832700000000000e+09
6.600000000000000000e+01,2.800000000000000000e+02,3.770000000000000000e+02,1.570000000000000000e+02,8.100000000000000000e+01,1.580000000000000000e+02,1.180000000000000000e+02,6.130000000000000000e+02,3.900000000000000133e-01,3.215125900000000000e+09
6.600000000000000000e+01,2.670000000000000000e+02,4.610000000000000000e+02,1.760000000000000000e+02,1.110000000000000000e+02,2.720000000000000000e+02,1.420000000000000000e+02,6.160000000000000000e+02,3.800000000000000044e-01,3.232113100000000000e+09
6.100000000000000000e+01,2.150000000000000000e+02,4.760000000000000000e+02,1.840000000000000000e+02,1.190000000000000000e+02,2.780000000000000000e+02,1.540000000000000000e+02,6.260000000000000000e+02,3.599999999999999867e-01,3.249495800000000000e+09
5.400000000000000000e+01,1.850000000000000000e+02,5.270000000000000000e+02,1.740000000000000000e+02,1.200000000000000000e+02,2.820000000000000000e+02,1.470000000000000000e+02,3.810000000000000000e+02,3.599999999999999867e-01,3.266796900000000000e+09
6.100000000000000000e+01,1.930000000000000000e+02,5.480000000000000000e+02,1.780000000000000000e+02,1.190000000000000000e+02,2.900000000000000000e+02,1.310000000000000000e+02,3.100000000000000000e+02,3.499999999999999778e-01,3.283877900000000000e+09
8.200000000000000000e+01,2.450000000000000000e+02,5.740000000000000000e+02,1.720000000000000000e+02,1.240000000000000000e+02,2.940000000000000000e+02,1.280000000000000000e+02,3.450000000000000000e+02,3.400000000000000244e-01,3.301679700000000000e+09
8.400000000000000000e+01,2.580000000000000000e+02,5.160000000000000000e+02,1.670000000000000000e+02,9.800000000000000000e+01,2.190000000000000000e+02,1.030000000000000000e+02,3.630000000000000000e+02,3.400000000000000244e-01,3.319968800000000000e+09
8.800000000000000000e+01,2.570000000000000000e+02,5.360000000000000000e+02,1.590000000000000000e+02,9.400000000000000000e+01,2.130000000000000000e+02,9.500000000000000000e+01,3.270000000000000000e+02,3.300000000000000155e-01,3.337388700000000000e+09
9.800000000000000000e+01,2.660000000000000000e+02,4.840000000000000000e+02,1.800000000000000000e+02,1.040000000000000000e+02,2.130000000000000000e+02,1.270000000000000000e+02,3.340000000000000000e+02,3.300000000000000155e-01,3.354213600000000000e+09
1.150000000000000000e+02,2.660000000000000000e+02,4.850000000000000000e+02,1.820000000000000000e+02,1.000000000000000000e+02,3.590000000000000000e+02,1.480000000000000000e+02,4.060000000000000000e+02,3.200000000000000067e-01,3.371118900000000000e+09
1.040000000000000000e+02,1.760000000000000000e+02,4.380000000000000000e+02,1.850000000000000000e+02,9.400000000000000000e+01,3.680000000000000000e+02,1.490000000000000000e+02,4.400000000000000000e+02,3.200000000000000067e-01,3.388758400000000000e+09
1.030000000000000000e+02,1.610000000000000000e+02,4.840000000000000000e+02,1.840000000000000000e+02,1.020000000000000000e+02,3.610000000000000000e+02,1.500000000000000000e+02,8.170000000000000000e+02,3.099999999999999978e-01,3.407619000000000000e+09
1.020000000000000000e+02,1.760000000000000000e+02,4.410000000000000000e+02,1.920000000000000000e+02,1.010000000000000000e+02,3.730000000000000000e+02,1.520000000000000000e+02,8.940000000000000000e+02,3.099999999999999978e-01,3.426250500000000000e+09
1.040000000000000000e+02,1.760000000000000000e+02,5.080000000000000000e+02,1.750000000000000000e+02,8.700000000000000000e+01,4.060000000000000000e+02,1.300000000000000000e+02,9.250000000000000000e+02,3.099999999999999978e-01,3.443524800000000000e+09
1.100000000000000000e+02,1.760000000000000000e+02,4.840000000000000000e+02,1.630000000000000000e+02,8.700000000000000000e+01,2.880000000000000000e+02,1.230000000000000000e+02,9.040000000000000000e+02,3.099999999999999978e-01,3.460760900000000000e+09
1.080000000000000000e+02,1.680000000000000000e+02,5.590000000000000000e+02,1.450000000000000000e+02,8.800000000000000000e+01,2.710000000000000000e+02,1.310000000000000000e+02,8.980000000000000000e+02,3.099999999999999978e-01,3.477569300000000000e+09
1.130000000000000000e+02,1.890000000000000000e+02,6.440000000000000000e+02,1.640000000000000000e+02,8.100000000000000000e+01,2.680000000000000000e+02,1.480000000000000000e+02,5.910000000000000000e+02,2.999999999999999889e-01,3.494855600000000000e+09
1.150000000000000000e+02,1.980000000000000000e+02,7.060000000000000000e+02,1.810000000000000000e+02,8.500000000000000000e+01,2.620000000000000000e+02,1.890000000000000000e+02,4.940000000000000000e+02,2.999999999999999889e-01,3.512287100000000000e+09
1.170000000000000000e+02,1.860000000000000000e+02,7.430000000000000000e+02,2.420000000000000000e+02,1.030000000000000000e+02,2.060000000000000000e+02,2.050000000000000000e+02,4.340000000000000000e+02,2.999999999999999889e-01,3.530485400000000000e+09
9.700000000000000000e+01,1.760000000000000000e+02,7.920000000000000000e+02,2.550000000000000000e+02,1.110000000000000000e+02,3.640000000000000000e+02,2.070000000000000000e+02,4.410000000000000000e+02,2.999999999999999889e-01,3.547927800000000000e+09
9.900000000000000000e+01,1.740000000000000000e+02,8.070000000000000000e+02,2.750000000000000000e+02,1.190000000000000000e+02,4.280000000000000000e+02,2.060000000000000000e+02,4.750000000000000000e+02,2.999999999999999889e-01,3.566148700000000000e+09
1.020000000000000000e+02,1.500000000000000000e+02,7.040000000000000000e+02,2.580000000000000000e+02,1.140000000000000000e+02,4.340000000000000000e+02,1.910000000000000000e+02,4.630000000000000000e+02,2.999999999999999889e-01,3.591011800000000000e+09
9.700000000000000000e+01,1.090000000000000000e+02,6.750000000000000000e+02,2.440000000000000000e+02,1.120000000000000000e+02,4.540000000000000000e+02,1.500000000000000000e+02,4.140000000000000000e+02,3.099999999999999978e-01,3.613205600000000000e+09
9.100000000000000000e+01,1.110000000000000000e+02,6.030000000000000000e+02,1.830000000000000000e+02,1.030000000000000000e+02,4.610000000000000000e+02,1.420000000000000000e+02,4.510000000000000000e+02,3.099999999999999978e-01,3.633120100000000000e+09
8.300000000000000000e+01,1.300000000000000000e+02,5.540000000000000000e+02,1.750000000000000000e+02,9.500000000000000000e+01,3.450000000000000000e+02,1.350000000000000000e+02,4.330000000000000000e+02,3.099999999999999978e-01,3.651137000000000000e+09
8.200000000000000000e+01,2.040000000000000000e+02,4.980000000000000000e+02,1.700000000000000000e+02,1.220000000000000000e+02,2.880000000000000000e+02,1.510000000000000000e+02,3.120000000000000000e+02,3.200000000000000067e-01,3.669042200000000000e+09
9.700000000000000000e+01,2.120000000000000000e+02,4.900000000000000000e+02,1.710000000000000000e+02,1.260000000000000000e+02,2.690000000000000000e+02,1.530000000000000000e+02,2.750000000000000000e+02,3.200000000000000067e-01,3.687095700000000000e+09
1.010000000000000000e+02,2.160000000000000000e+02,5.130000000000000000e+02,2.080000000000000000e+02,1.280000000000000000e+02,2.480000000000000000e+02,1.540000000000000000e+02,2.620000000000000000e+02,3.300000000000000155e-01,3.705740300000000000e+09
9.500000000000000000e+01,2.120000000000000000e+02,4.840000000000000000e+02,2.110000000000000000e+02,1.200000000000000000e+02,2.320000000000000000e+02,1.430000000000000000e+02,1.950000000000000000e+02,3.499999999999999778e-01,3.723202800000000000e+09
9.700000000000000000e+01,1.990000000000000000e+02,4.280000000000000000e+02,2.020000000000000000e+02,1.190000000000000000e+02,2.220000000000000000e+02,1.370000000000000000e+02,2.100000000000000000e+02,3.599999999999999867e-01,3.742343800000000000e+09
9.400000000000000000e+01,1.170000000000000000e+02,3.570000000000000000e+02,1.770000000000000000e+02,7.600000000000000000e+01,1.940000000000000000e+02,1.050000000000000000e+02,1.920000000000000000e+02,3.599999999999999867e-01,3.760606800000000000e+09
6.900000000000000000e+01,8.600000000000000000e+01,3.490000000000000000e+02,1.710000000000000000e+02,7.500000000000000000e+01,2.010000000000000000e+02,1.090000000000000000e+02,1.870000000000000000e+02,3.699999999999999956e-01,3.777936700000000000e+09
5.800000000000000000e+01,9.100000000000000000e+01,2.860000000000000000e+02,1.300000000000000000e+02,7.300000000000000000e+01,1.570000000000000000e+02,9.800000000000000000e+01,1.800000000000000000e+02,3.800000000000000044e-01,3.795942000000000000e+09
6.000000000000000000e+01,1.220000000000000000e+02,2.550000000000000000e+02,1.100000000000000000e+02,7.300000000000000000e+01,1.610000000000000000e+02,1.140000000000000000e+02,1.500000000000000000e+02,3.900000000000000133e-01,3.813227900000000000e+09
5.200000000000000000e+01,1.280000000000000000e+02,2.910000000000000000e+02,1.180000000000000000e+02,7.900000000000000000e+01,1.530000000000000000e+02,1.140000000000000000e+02,9.000000000000000000e+01,4.000000000000000222e-01,3.830228500000000000e+09
4.900000000000000000e+01,1.260000000000000000e+02,3.120000000000000000e+02,1.180000000000000000e+02,7.800000000000000000e+01,1.440000000000000000e+02,1.140000000000000000e+02,8.200000000000000000e+01,4.099999999999999756e-01,3.847409400000000000e+09
4.300000000000000000e+01,1.380000000000000000e+02,3.320000000000000000e+02,1.270000000000000000e+02,7.200000000000000000e+01,1.330000000000000000e+02,1.100000000000000000e+02,1.740000000000000000e+02,4.199999999999999845e-01,3.865009400000000000e+09
5.200000000000000000e+01,1.350000000000000000e+02,3.310000000000000000e+02,1.320000000000000000e+02,6.700000000000000000e+01,1.350000000000000000e+02,1.120000000000000000e+02,1.800000000000000000e+02,4.299999999999999933e-01,3.883502600000000000e+09
4.900000000000000000e+01,1.320000000000000000e+02,3.430000000000000000e+02,1.490000000000000000e+02,7.100000000000000000e+01,1.220000000000000000e+02,9.500000000000000000e+01,1.840000000000000000e+02,4.400000000000000022e-01,3.902195400000000000e+09
8.500000000000000000e+01,1.630000000000000000e+02,3.100000000000000000e+02,1.410000000000000000e+02,6.200000000000000000e+01,1.200000000000000000e+02,9.100000000000000000e+01,1.850000000000000000e+02,4.500000000000000111e-01,3.922497000000000000e+09
1.100000000000000000e+02,2.150000000000000000e+02,2.870000000000000000e+02,1.500000000000000000e+02,7.300000000000000000e+01,1.230000000000000000e+02,9.500000000000000000e+01,1.920000000000000000e+02,4.600000000000000200e-01,3.940838100000000000e+09
1.110000000000000000e+02,2.190000000000000000e+02,2.700000000000000000e+02,1.430000000000000000e+02,7.600000000000000000e+01,1.050000000000000000e+02,8.700000000000000000e+01,1.160000000000000000e+02,4.699999999999999734e-01,3.958690600000000000e+09
1.090000000000000000e+02,2.150000000000000000e+02,2.040000000000000000e+02,1.280000000000000000e+02,7.200000000000000000e+01,9.800000000000000000e+01,8.200000000000000000e+01,1.060000000000000000e+02,4.699999999999999734e-01,3.975842500000000000e+09
1.090000000000000000e+02,2.090000000000000000e+02,1.930000000000000000e+02,1.080000000000000000e+02,6.800000000000000000e+01,8.400000000000000000e+01,6.700000000000000000e+01,9.100000000000000000e+01,4.799999999999999822e-01,3.993167700000000000e+09
1.180000000000000000e+02,2.610000000000000000e+02,2.140000000000000000e+02,1.100000000000000000e+02,6.700000000000000000e+01,7.400000000000000000e+01,5.800000000000000000e+01,7.700000000000000000e+01,4.899999999999999911e-01,4.009986200000000000e+09
1.090000000000000000e+02,2.250000000000000000e+02,2.400000000000000000e+02,9.500000000000000000e+01,5.600000000000000000e+01,6.100000000000000000e+01,4.300000000000000000e+01,5.900000000000000000e+01,4.899999999999999911e-01,4.027649700000000000e+09
1.080000000000000000e+02,2.220000000000000000e+02,3.000000000000000000e+02,1.300000000000000000e+02,6.600000000000000000e+01,6.100000000000000000e+01,4.500000000000000000e+01,4.500000000000000000e+01,5.000000000000000000e-01,4.046541100000000000e+09
1.230000000000000000e+02,2.790000000000000000e+02,3.150000000000000000e+02,1.400000000000000000e+02,7.000000000000000000e+01,6.300000000000000000e+01,4.600000000000000000e+01,5.500000000000000000e+01,5.100000000000000089e-01,4.065669200000000000e+09
2.370000000000000000e+02,3.130000000000000000e+02,3.640000000000000000e+02,1.490000000000000000e+02,7.500000000000000000e+01,6.500000000000000000e+01,5.400000000000000000e+01,6.500000000000000000e+01,5.100000000000000089e-01,4.082642600000000000e+09
2.390000000000000000e+02,2.640000000000000000e+02,3.700000000000000000e+02,1.890000000000000000e+02,9.300000000000000000e+01,6.400000000000000000e+01,6.000000000000000000e+01,7.000000000000000000e+01,5.200000000000000178e-01,4.099629000000000000e+09
2.370000000000000000e+02,2.710000000000000000e+02,3.630000000000000000e+02,1.940000000000000000e+02,9.800000000000000000e+01,6.700000000000000000e+01,6.200000000000000000e+01,7.000000000000000000e+01,5.300000000000000266e-01,4.116314800000000000e+09
2.390000000000000000e+02,2.660000000000000000e+02,3.210000000000000000e+02,1.750000000000000000e+02,8.700000000000000000e+01,9.000000000000000000e+01,5.700000000000000000e+01,6.700000000000000000e+01,5.300000000000000266e-01,4.133425000000000000e+09
2.400000000000000000e+02,3.310000000000000000e+02,3.100000000000000000e+02,1.680000000000000000e+02,9.500000000000000000e+01,9.300000000000000000e+01,6.000000000000000000e+01,9.100000000000000000e+01,5.300000000000000266e-01,4.150458100000000000e+09
1.650000000000000000e+02,3.330000000000000000e+02,2.260000000000000000e+02,1.710000000000000000e+02,9.400000000000000000e+01,1.000000000000000000e+02,6.100000000000000000e+01,1.200000000000000000e+02,5.400000000000000355e-01,4.168496400000000000e+09
1.780000000000000000e+02,3.370000000000000000e+02,2.290000000000000000e+02,1.280000000000000000e+02,7.900000000000000000e+01,1.050000000000000000e+02,7.400000000000000000e+01,1.360000000000000000e+02,5.400000000000000355e-01,4.186522000000000000e+09
1.790000000000000000e+02,3.470000000000000000e+02,2.240000000000000000e+02,1.250000000000000000e+02,7.400000000000000000e+01,2.320000000000000000e+02,7.600000000000000000e+01,1.430000000000000000e+02,5.400000000000000355e-01,4.203956100000000000e+09
2.520000000000000000e+02,3.580000000000000000e+02,2.060000000000000000e+02,1.430000000000000000e+02,8.700000000000000000e+01,2.300000000000000000e+02,1.030000000000000000e+02,1.630000000000000000e+02,5.400000000000000355e-01,4.220912500000000000e+09
2.730000000000000000e+02,2.520000000000000000e+02,2.420000000000000000e+02,1.590000000000000000e+02,8.200000000000000000e+01,2.370000000000000000e+02,1.100000000000000000e+02,1.490000000000000000e+02,5.500000000000000444e-01,4.237994800000000000e+09
2.870000000000000000e+02,1.960000000000000000e+02,2.470000000000000000e+02,1.480000000000000000e+02,8.800000000000000000e+01,2.380000000000000000e+02,1.190000000000000000e+02,1.270000000000000000e+02,5.500000000000000444e-01,4.254918400000000000e+09
2.790000000000000000e+02,1.710000000000000000e+02,2.560000000000000000e+02,1.610000000000000000e+02,1.370000000000000000e+02,2.450000000000000000e+02,1.210000000000000000e+02,1.100000000000000000e+02,5.500000000000000444e-01,4.272603600000000000e+09
3.100000000000000000e+02,1.350000000000000000e+02,2.870000000000000000e+02,1.890000000000000000e+02,1.620000000000000000e+02,1.450000000000000000e+02,1.240000000000000000e+02,1.040000000000000000e+02,5.500000000000000444e-01,4.290371700000000000e+09
2.570000000000000000e+02,1.200000000000000000e+02,3.180000000000000000e+02,1.710000000000000000e+02,1.560000000000000000e+02,1.320000000000000000e+02,1.040000000000000000e+02,7.000000000000000000e+01,5.500000000000000444e-01,4.307602500000000000e+09
2.730000000000000000e+02,2.500000000000000000e+02,2.960000000000000000e+02,1.480000000000000000e+02,1.520000000000000000e+02,1.140000000000000000e+02,9.500000000000000000e+01,7.300000000000000000e+01,5.400000000000000355e-01,4.324648100000000000e+09
3.280000000000000000e+02,3.060000000000000000e+02,3.130000000000000000e+02,1.640000000000000000e+02,1.480000000000000000e+02,1.050000000000000000e+02,8.200000000000000000e+01,6.700000000000000000e+01,5.400000000000000355e-01,4.341951400000000000e+09
3.580000000000000000e+02,3.790000000000000000e+02,3.080000000000000000e+02,1.800000000000000000e+02,1.100000000000000000e+02,8.100000000000000000e+01,6.100000000000000000e+01,6.400000000000000000e+01,5.400000000000000355e-01,4.359593500000000000e+09
3.390000000000000000e+02,4.150000000000000000e+02,3.660000000000000000e+02,1.570000000000000000e+02,8.200000000000000000e+01,5.500000000000000000e+01,5.300000000000000000e+01,5.800000000000000000e+01,5.400000000000000355e-01,4.378547700000000000e+09
3.420000000000000000e+02,4.130000000000000000e+02,3.430000000000000000e+02,1.670000000000000000e+02,8.700000000000000000e+01,6.400000000000000000e+01,5.600000000000000000e+01,5.500000000000000000e+01,5.400000000000000355e-01,4.395698200000000000e+09
3.130000000000000000e+02,3.590000000000000000e+02,3.550000000000000000e+02,2.020000000000000000e+02,1.180000000000000000e+02,7.400000000000000000e+01,6.500000000000000000e+01,4.700000000000000000e+01,5.400000000000000355e-01,4.413015100000000000e+09
2.260000000000000000e+02,3.180000000000000000e+02,3.530000000000000000e+02,2.430000000000000000e+02,1.280000000000000000e+02,7.800000000000000000e+01,6.900000000000000000e+01,3.600000000000000000e+01,5.300000000000000266e-01,4.430049100000000000e+09
1.600000000000000000e+02,2.290000000000000000e+02,3.590000000000000000e+02,2.330000000000000000e+02,1.260000000000000000e+02,8.400000000000000000e+01,8.100000000000000000e+01,3.300000000000000000e+01,5.300000000000000266e-01,4.448919500000000000e+09
1.610000000000000000e+02,1.660000000000000000e+02,2.700000000000000000e+02,2.340000000000000000e+02,1.330000000000000000e+02,8.200000000000000000e+01,8.200000000000000000e+01,3.500000000000000000e+01,5.300000000000000266e-01,4.465935900000000000e+09
1.540000000000000000e+02,1.580000000000000000e+02,2.680000000000000000e+02,2.310000000000000000e+02,1.310000000000000000e+02,8.700000000000000000e+01,7.900000000000000000e+01,3.400000000000000000e+01,5.300000000000000266e-01,4.483778200000000000e+09
1.420000000000000000e+02,1.440000000000000000e+02,2.510000000000000000e+02,2.000000000000000000e+02,1.050000000000000000e+02,1.180000000000000000e+02,7.400000000000000000e+01,5.300000000000000000e+01,5.300000000000000266e-01,4.500996300000000000e+09
1.290000000000000000e+02,1.420000000000000000e+02,2.280000000000000000e+02,1.290000000000000000e+02,9.000000000000000000e+01,2.420000000000000000e+02,9.300000000000000000e+01,8.700000000000000000e+01,5.300000000000000266e-01,4.519196800000000000e+09
2.020000000000000000e+02,1.530000000000000000e+02,1.930000000000000000e+02,1.470000000000000000e+02,8.700000000000000000e+01,2.640000000000000000e+02,1.040000000000000000e+02,1.090000000000000000e+02,5.400000000000000355e-01,4.536783400000000000e+09
2.020000000000000000e+02,1.440000000000000000e+02,2.520000000000000000e+02,1.850000000000000000e+02,9.700000000000000000e+01,2.990000000000000000e+02,1.370000000000000000e+02,1.090000000000000000e+02,5.400000000000000355e-01,4.553739600000000000e+09
1.950000000000000000e+02,1.520000000000000000e+02,2.610000000000000000e+02,2.350000000000000000e+02,1.310000000000000000e+02,3.060000000000000000e+02,1.460000000000000000e+02,1.130000000000000000e+02,5.400000000000000355e-01,4.570851300000000000e+09
1.930000000000000000e+02,1.330000000000000000e+02,2.490000000000000000e+02,2.410000000000000000e+02,1.520000000000000000e+02,3.000000000000000000e+02,1.460000000000000000e+02,1.070000000000000000e+02,5.400000000000000355e-01,4.589183100000000000e+09
2.070000000000000000e+02,1.180000000000000000e+02,2.460000000000000000e+02,2.460000000000000000e+02,1.520000000000000000e+02,2.300000000000000000e+02,1.440000000000000000e+02,9.100000000000000000e+01,5.400000000000000355e-01,4.607191700000000000e+09
1.820000000000000000e+02,9.400000000000000000e+01,2.290000000000000000e+02,2.270000000000000000e+02,1.520000000000000000e+02,2.430000000000000000e+02,1.660000000000000000e+02,1.220000000000000000e+02,5.400000000000000355e-01,4.624871600000000000e+09
1.750000000000000000e+02,7.700000000000000000e+01,3.780000000000000000e+02,2.110000000000000000e+02,1.370000000000000000e+02,2.080000000000000000e+02,1.420000000000000000e+02,1.300000000000000000e+02,5.500000000000000444e-01,4.644232100000000000e+09
1.770000000000000000e+02,6.000000000000000000e+01,3.780000000000000000e+02,1.850000000000000000e+02,1.300000000000000000e+02,1.970000000000000000e+02,1.380000000000000000e+02,1.270000000000000000e+02,5.500000000000000444e-01,4.662210100000000000e+09
2.330000000000000000e+02,9.500000000000000000e+01,4.340000000000000000e+02,1.910000000000000000e+02,1.180000000000000000e+02,1.890000000000000000e+02,1.430000000000000000e+02,1.330000000000000000e+02,5.500000000000000444e-01,4.680449400000000000e+09
4.100000000000000000e+02,1.260000000000000000e+02,5.020000000000000000e+02,1.960000000000000000e+02,1.330000000000000000e+02,1.760000000000000000e+02,1.390000000000000000e+02,1.400000000000000000e+02,5.500000000000000444e-01,4.699397300000000000e+09
4.500000000000000000e+02,2.250000000000000000e+02,5.280000000000000000e+02,1.920000000000000000e+02,1.330000000000000000e+02,1.170000000000000000e+02,1.120000000000000000e+02,1.080000000000000000e+02,5.500000000000000444e-01,4.717511600000000000e+09
5.450000000000000000e+02,2.750000000000000000e+02,4.000000000000000000e+02,1.700000000000000000e+02,1.300000000000000000e+02,1.050000000000000000e+02,1.240000000000000000e+02,1.320000000000000000e+02,5.500000000000000444e-01,4.736321900000000000e+09
5.940000000000000000e+02,3.380000000000000000e+02,3.970000000000000000e+02,1.310000000000000000e+02,1.040000000000000000e+02,1.000000000000000000e+02,1.500000000000000000e+02,1.770000000000000000e+02,5.500000000000000444e-01,4.754040700000000000e+09
5.850000000000000000e+02,3.490000000000000000e+02,3.620000000000000000e+02,1.310000000000000000e+02,1.000000000000000000e+02,9.600000000000000000e+01,1.490000000000000000e+02,1.830000000000000000e+02,5.400000000000000355e-01,4.772840100000000000e+09
4.980000000000000000e+02,3.610000000000000000e+02,2.940000000000000000e+02,1.170000000000000000e+02,8.600000000000000000e+01,7.600000000000000000e+01,1.450000000000000000e+02,1.780000000000000000e+02,5.400000000000000355e-01,4.791637700000000000e+09
4.470000000000000000e+02,3.170000000000000000e+02,2.460000000000000000e+02,1.310000000000000000e+02,8.900000000000000000e+01,9.900000000000000000e+01,1.480000000000000000e+02,1.740000000000000000e+02,5.400000000000000355e-01,4.809453100000000000e+09
3.190000000000000000e+02,2.790000000000000000e+02,2.500000000000000000e+02,1.290000000000000000e+02,9.100000000000000000e+01,9.500000000000000000e+01,1.340000000000000000e+02,1.520000000000000000e+02,5.400000000000000355e-01,4.827780300000000000e+09
2.470000000000000000e+02,2.030000000000000000e+02,2.630000000000000000e+02,1.340000000000000000e+02,9.300000000000000000e+01,1.300000000000000000e+02,9.900000000000000000e+01,1.170000000000000000e+02,5.400000000000000355e-01,4.845516000000000000e+09
2.410000000000000000e+02,1.920000000000000000e+02,2.410000000000000000e+02,1.250000000000000000e+02,9.800000000000000000e+01,1.960000000000000000e+02,1.060000000000000000e+02,1.480000000000000000e+02,5.400000000000000355e-01,4.863712400000000000e+09
1.820000000000000000e+02,1.520000000000000000e+02,2.290000000000000000e+02,1.440000000000000000e+02,9.600000000000000000e+01,2.310000000000000000e+02,1.240000000000000000e+02,1.450000000000000000e+02,5.400000000000000355e-01,4.881857900000000000e+09
1.720000000000000000e+02,1.350000000000000000e+02,2.680000000000000000e+02,1.370000000000000000e+02,9.300000000000000000e+01,2.730000000000000000e+02,1.320000000000000000e+02,1.420000000000000000e+02,5.300000000000000266e-01,4.899996800000000000e+09
1.730000000000000000e+02,1.270000000000000000e+02,2.650000000000000000e+02,1.340000000000000000e+02,8.500000000000000000e+01,3.040000000000000000e+02,1.450000000000000000e+02,1.410000000000000000e+02,5.300000000000000266e-01,4.917698700000000000e+09
1.250000000000000000e+02,1.180000000000000000e+02,2.870000000000000000e+02,1.280000000000000000e+02,9.000000000000000000e+01,3.590000000000000000e+02,1.640000000000000000e+02,1.250000000000000000e+02,5.300000000000000266e-01,4.935874700000000000e+09
7.400000000000000000e+01,6.900000000000000000e+01,2.880000000000000000e+02,1.230000000000000000e+02,6.900000000000000000e+01,3.510000000000000000e+02,1.690000000000000000e+02,7.500000000000000000e+01,5.300000000000000266e-01,4.953870100000000000e+09
6.400000000000000000e+01,6.300000000000000000e+01,2.980000000000000000e+02,1.000000000000000000e+02,6.800000000000000000e+01,3.320000000000000000e+02,1.580000000000000000e+02,7.100000000000000000e+01,5.300000000000000266e-01,4.972650600000000000e+09
6.300000000000000000e+01,5.800000000000000000e+01,2.770000000000000000e+02,9.400000000000000000e+01,7.000000000000000000e+01,2.920000000000000000e+02,1.400000000000000000e+02,7.500000000000000000e+01,5.300000000000000266e-01,4.990862000000000000e+09
5.200000000000000000e+01,7.700000000000000000e+01,3.560000000000000000e+02,9.200000000000000000e+01,8.700000000000000000e+01,2.830000000000000000e+02,1.300000000000000000e+02,7.000000000000000000e+01,5.300000000000000266e-01,5.008481500000000000e+09
4.400000000000000000e+01,8.300000000000000000e+01,4.030000000000000000e+02,8.400000000000000000e+01,8.300000000000000000e+01,3.140000000000000000e+02,1.070000000000000000e+02,6.600000000000000000e+01,5.300000000000000266e-01,5.026580200000000000e+09
3.600000000000000000e+01,8.300000000000000000e+01,4.040000000000000000e+02,7.800000000000000000e+01,8.300000000000000000e+01,2.940000000000000000e+02,9.200000000000000000e+01,5.500000000000000000e+01,5.300000000000000266e-01,5.045260700000000000e+09
4.300000000000000000e+01,8.100000000000000000e+01,3.940000000000000000e+02,6.300000000000000000e+01,7.800000000000000000e+01,2.980000000000000000e+02,8.700000000000000000e+01,1.560000000000000000e+02,5.200000000000000178e-01,5.062865500000000000e+09
4.400000000000000000e+01,8.300000000000000000e+01,3.900000000000000000e+02,5.600000000000000000e+01,7.500000000000000000e+01,3.660000000000000000e+02,8.400000000000000000e+01,1.630000000000000000e+02,5.200000000000000178e-01,5.081206600000000000e+09
4.500000000000000000e+01,8.600000000000000000e+01,3.350000000000000000e+02,5.900000000000000000e+01,5.800000000000000000e+01,3.640000000000000000e+02,8.000000000000000000e+01,1.950000000000000000e+02,5.100000000000000089e-01,5.100030900000000000e+09
6.400000000000000000e+01,9.700000000000000000e+01,2.430000000000000000e+02,8.300000000000000000e+01,6.300000000000000000e+01,2.670000000000000000e+02,7.700000000000000000e+01,2.140000000000000000e+02,5.100000000000000089e-01,5.118263900000000000e+09
6.600000000000000000e+01,1.340000000000000000e+02,2.360000000000000000e+02,8.500000000000000000e+01,6.400000000000000000e+01,2.610000000000000000e+02,6.300000000000000000e+01,2.150000000000000000e+02,5.000000000000000000e-01,5.137261400000000000e+09
7.500000000000000000e+01,1.620000000000000000e+02,3.050000000000000000e+02,1.010000000000000000e+02,7.300000000000000000e+01,2.570000000000000000e+02,5.700000000000000000e+01,1.830000000000000000e+02,5.000000000000000000e-01,5.155605100000000000e+09
7.800000000000000000e+01,1.830000000000000000e+02,3.090000000000000000e+02,1.090000000000000000e+02,8.000000000000000000e+01,1.560000000000000000e+02,4.900000000000000000e+01,2.040000000000000000e+02,5.000000000000000000e-01,5.173996400000000000e+09
7.700000000000000000e+01,1.770000000000000000e+02,3.180000000000000000e+02,1.200000000000000000e+02,8.000000000000000000e+01,1.320000000000000000e+02,7.000000000000000000e+01,1.810000000000000000e+02,4.899999999999999911e-01,5.193279800000000000e+09
6.200000000000000000e+01,1.670000000000000000e+02,3.190000000000000000e+02,1.200000000000000000e+02,7.500000000000000000e+01,2.160000000000000000e+02,7.500000000000000000e+01,1.610000000000000000e+02,4.899999999999999911e-01,5.213804200000000000e+09
6.200000000000000000e+01,1.410000000000000000e+02,3.160000000000000000e+02,1.390000000000000000e+02,7.800000000000000000e+01,2.350000000000000000e+02,7.800000000000000000e+01,1.620000000000000000e+02,4.899999999999999911e-01,5.233847600000000000e+09
5.900000000000000000e+01,1.130000000000000000e+02,2.340000000000000000e+02,1.320000000000000000e+02,7.700000000000000000e+01,2.360000000000000000e+02,8.800000000000000000e+01,2.120000000000000000e+02,4.899999999999999911e-01,5.252588600000000000e+09
1.020000000000000000e+02,9.500000000000000000e+01,2.510000000000000000e+02,1.330000000000000000e+02,7.400000000000000000e+01,2.320000000000000000e+02,9.000000000000000000e+01,1.920000000000000000e+02,4.899999999999999911e-01,5.272040000000000000e+09
1.070000000000000000e+02,9.200000000000000000e+01,3.260000000000000000e+02,1.290000000000000000e+02,7.500000000000000000e+01,2.420000000000000000e+02,1.060000000000000000e+02,1.900000000000000000e+02,4.899999999999999911e-01,5.291625800000000000e+09
1.100000000000000000e+02,9.300000000000000000e+01,3.540000000000000000e+02,1.180000000000000000e+02,7.300000000000000000e+01,1.890000000000000000e+02,1.040000000000000000e+02,1.900000000000000000e+02,4.899999999999999911e-01,5.313698200000000000e+09
1.130000000000000000e+02,1.180000000000000000e+02,3.790000000000000000e+02,9.700000000000000000e+01,6.800000000000000000e+01,1.730000000000000000e+02,1.200000000000000000e+02,1.990000000000000000e+02,4.899999999999999911e-01,5.333037700000000000e+09
1.190000000000000000e+02,1.490000000000000000e+02,3.740000000000000000e+02,1.000000000000000000e+02,6.100000000000000000e+01,2.110000000000000000e+02,1.170000000000000000e+02,1.860000000000000000e+02,4.899999999999999911e-01,5.351720800000000000e+09
1.120000000000000000e+02,2.370000000000000000e+02,3.530000000000000000e+02,9.900000000000000000e+01,5.400000000000000000e+01,2.190000000000000000e+02,1.320000000000000000e+02,2.100000000000000000e+02,4.899999999999999911e-01,5.371270300000000000e+09
1.750000000000000000e+02,2.840000000000000000e+02,3.150000000000000000e+02,9.600000000000000000e+01,5.000000000000000000e+01,1.980000000000000000e+02,1.120000000000000000e+02,2.080000000000000000e+02,4.899999999999999911e-01,5.391448900000000000e+09
1.860000000000000000e+02,3.190000000000000000e+02,4.180000000000000000e+02,9.900000000000000000e+01,5.400000000000000000e+01,1.770000000000000000e+02,1.150000000000000000e+02,2.080000000000000000e+02,4.899999999999999911e-01,5.414042600000000000e+09
1.880000000000000000e+02,3.210000000000000000e+02,4.160000000000000000e+02,1.370000000000000000e+02,7.100000000000000000e+01,1.780000000000000000e+02,1.090000000000000000e+02,2.000000000000000000e+02,4.899999999999999911e-01,5.432558600000000000e+09
1.920000000000000000e+02,3.110000000000000000e+02,4.510000000000000000e+02,1.980000000000000000e+02,1.300000000000000000e+02,1.400000000000000000e+02,1.170000000000000000e+02,1.330000000000000000e+02,5.000000000000000000e-01,5.451566900000000000e+09
1.820000000000000000e+02,2.470000000000000000e+02,4.820000000000000000e+02,2.050000000000000000e+02,1.520000000000000000e+02,1.200000000000000000e+02,1.040000000000000000e+02,6.800000000000000000e+01,5.000000000000000000e-01,5.471206800000000000e+09
1.670000000000000000e+02,1.940000000000000000e+02,4.540000000000000000e+02,2.110000000000000000e+02,1.550000000000000000e+02,1.250000000000000000e+02,1.200000000000000000e+02,6.800000000000000000e+01,5.000000000000000000e-01,5.491494800000000000e+09
1.620000000000000000e+02,1.280000000000000000e+02,3.390000000000000000e+02,2.180000000000000000e+02,1.550000000000000000e+02,1.250000000000000000e+02,1.220000000000000000e+02,6.200000000000000000e+01,5.000000000000000000e-01,5.513527000000000000e+09
1.580000000000000000e+02,1.140000000000000000e+02,3.800000000000000000e+02,1.980000000000000000e+02,1.490000000000000000e+02,1.140000000000000000e+02,1.140000000000000000e+02,4.900000000000000000e+01,5.100000000000000089e-01,5.531967800000000000e+09
1.460000000000000000e+02,1.020000000000000000e+02,3.410000000000000000e+02,1.590000000000000000e+02,1.220000000000000000e+02,1.910000000000000000e+02,1.130000000000000000e+02,4.800000000000000000e+01,5.100000000000000089e-01,5.551206100000000000e+09
1.420000000000000000e+02,9.100000000000000000e+01,3.020000000000000000e+02,1.460000000000000000e+02,9.400000000000000000e+01,2.310000000000000000e+02,1.120000000000000000e+02,7.500000000000000000e+01,5.200000000000000178e-01,5.570127000000000000e+09
1.180000000000000000e+02,1.000000000000000000e+02,2.970000000000000000e+02,1.310000000000000000e+02,8.600000000000000000e+01,2.380000000000000000e+02,9.300000000000000000e+01,9.800000000000000000e+01,5.200000000000000178e-01,5.591549000000000000e+09
1.170000000000000000e+02,9.800000000000000000e+01,2.950000000000000000e+02,1.210000000000000000e+02,9.900000000000000000e+01,2.770000000000000000e+02,1.210000000000000000e+02,1.160000000000000000e+02,5.200000000000000178e-01,5.614295400000000000e+09
1.180000000000000000e+02,8.200000000000000000e+01,1.920000000000000000e+02,1.120000000000000000e+02,1.130000000000000000e+02,3.080000000000000000e+02,1.240000000000000000e+02,1.440000000000000000e+02,5.200000000000000178e-01,5.632740800000000000e+09
1.210000000000000000e+02,7.900000000000000000e+01,2.190000000000000000e+02,8.200000000000000000e+01,9.600000000000000000e+01,2.830000000000000000e+02,1.280000000000000000e+02,1.520000000000000000e+02,5.100000000000000089e-01,5.651956100000000000e+09
1.170000000000000000e+02,8.000000000000000000e+01,2.310000000000000000e+02,9.800000000000000000e+01,1.020000000000000000e+02,2.670000000000000000e+02,1.320000000000000000e+02,1.460000000000000000e+02,5.100000000000000089e-01,5.671656700000000000e+09
8.200000000000000000e+01,5.900000000000000000e+01,2.190000000000000000e+02,1.240000000000000000e+02,1.110000000000000000e+02,2.770000000000000000e+02,1.400000000000000000e+02,1.340000000000000000e+02,5.100000000000000089e-01,5.694791600000000000e+09
1.440000000000000000e+02,9.400000000000000000e+01,2.060000000000000000e+02,1.350000000000000000e+02,1.130000000000000000e+02,2.430000000000000000e+02,1.150000000000000000e+02,1.210000000000000000e+02,5.100000000000000089e-01,5.712681500000000000e+09
4.080000000000000000e+02,1.540000000000000000e+02,2.240000000000000000e+02,1.640000000000000000e+02,1.150000000000000000e+02,2.120000000000000000e+02,1.400000000000000000e+02,1.160000000000000000e+02,5.100000000000000089e-01,5.731966400000000000e+09
4.520000000000000000e+02,1.600000000000000000e+02,2.070000000000000000e+02,2.010000000000000000e+02,1.540000000000000000e+02,1.940000000000000000e+02,1.440000000000000000e+02,1.260000000000000000e+02,5.000000000000000000e-01,5.751360200000000000e+09
4.570000000000000000e+02,1.620000000000000000e+02,2.180000000000000000e+02,2.050000000000000000e+02,1.560000000000000000e+02,1.680000000000000000e+02,1.380000000000000000e+02,1.190000000000000000e+02,5.000000000000000000e-01,5.773665500000000000e+09
4.580000000000000000e+02,1.690000000000000000e+02,2.270000000000000000e+02,2.090000000000000000e+02,1.640000000000000000e+02,1.340000000000000000e+02,1.320000000000000000e+02,1.140000000000000000e+02,5.000000000000000000e-01,5.792055100000000000e+09
4.490000000000000000e+02,1.600000000000000000e+02,2.720000000000000000e+02,2.080000000000000000e+02,1.570000000000000000e+02,1.280000000000000000e+02,1.290000000000000000e+02,1.180000000000000000e+02,5.000000000000000000e-01,5.812012300000000000e+09
2.490000000000000000e+02,1.310000000000000000e+02,2.740000000000000000e+02,2.120000000000000000e+02,1.620000000000000000e+02,1.150000000000000000e+02,1.190000000000000000e+02,9.700000000000000000e+01,5.000000000000000000e-01,5.832795300000000000e+09
1.550000000000000000e+02,1.350000000000000000e+02,2.800000000000000000e+02,1.800000000000000000e+02,1.270000000000000000e+02,8.200000000000000000e+01,1.000000000000000000e+02,7.200000000000000000e+01,5.000000000000000000e-01,5.852727800000000000e+09
1.670000000000000000e+02,1.370000000000000000e+02,2.540000000000000000e+02,1.740000000000000000e+02,1.290000000000000000e+02,8.100000000000000000e+01,1.020000000000000000e+02,7.500000000000000000e+01,5.000000000000000000e-01,5.874233700000000000e+09
2.050000000000000000e+02,1.450000000000000000e+02,2.460000000000000000e+02,1.600000000000000000e+02,1.140000000000000000e+02,8.200000000000000000e+01,1.080000000000000000e+02,7.500000000000000000e+01,5.100000000000000089e-01,5.893754000000000000e+09
2.300000000000000000e+02,1.770000000000000000e+02,1.910000000000000000e+02,1.560000000000000000e+02,1.110000000000000000e+02,1.030000000000000000e+02,1.130000000000000000e+02,8.000000000000000000e+01,5.100000000000000089e-01,5.913423700000000000e+09
2.360000000000000000e+02,1.730000000000000000e+02,1.710000000000000000e+02,1.290000000000000000e+02,8.400000000000000000e+01,1.230000000000000000e+02,9.600000000000000000e+01,8.600000000000000000e+01,5.100000000000000089e-01,5.933183700000000000e+09
2.410000000000000000e+02,1.950000000000000000e+02,1.570000000000000000e+02,1.220000000000000000e+02,8.400000000000000000e+01,1.500000000000000000e+02,9.700000000000000000e+01,1.620000000000000000e+02,5.200000000000000178e-01,5.951687600000000000e+09
2.340000000000000000e+02,1.980000000000000000e+02,1.670000000000000000e+02,1.160000000000000000e+02,7.500000000000000000e+01,1.680000000000000000e+02,9.500000000000000000e+01,1.630000000000000000e+02,5.200000000000000178e-01,5.971925600000000000e+09
2.040000000000000000e+02,2.180000000000000000e+02,1.500000000000000000e+02,1.120000000000000000e+02,7.600000000000000000e+01,2.800000000000000000e+02,9.000000000000000000e+01,1.710000000000000000e+02,5.200000000000000178e-01,5.994637500000000000e+09
1.560000000000000000e+02,2.040000000000000000e+02,1.510000000000000000e+02,1.050000000000000000e+02,8.100000000000000000e+01,3.400000000000000000e+02,9.600000000000000000e+01,1.660000000000000000e+02,5.200000000000000178e-01,6.013882700000000000e+09
1.510000000000000000e+02,1.930000000000000000e+02,1.980000000000000000e+02,1.160000000000000000e+02,7.800000000000000000e+01,3.350000000000000000e+02,9.300000000000000000e+01,3.000000000000000000e+02,5.200000000000000178e-01,6.032682000000000000e+09
1.400000000000000000e+02,1.610000000000000000e+02,2.430000000000000000e+02,1.250000000000000000e+02,7.900000000000000000e+01,3.400000000000000000e+02,9.700000000000000000e+01,8.250000000000000000e+02,5.200000000000000178e-01,6.052009300000000000e+09
1.230000000000000000e+02,1.550000000000000000e+02,2.570000000000000000e+02,1.390000000000000000e+02,8.400000000000000000e+01,3.340000000000000000e+02,1.010000000000000000e+02,9.960000000000000000e+02,5.200000000000000178e-01,6.072133100000000000e+09
1.180000000000000000e+02,1.090000000000000000e+02,3.020000000000000000e+02,1.670000000000000000e+02,1.160000000000000000e+02,2.730000000000000000e+02,1.130000000000000000e+02,1.061000000000000000e+03,5.100000000000000089e-01,6.094137200000000000e+09
1.220000000000000000e+02,1.420000000000000000e+02,3.680000000000000000e+02,1.690000000000000000e+02,1.200000000000000000e+02,2.920000000000000000e+02,1.000000000000000000e+02,1.068000000000000000e+03,5.000000000000000000e-01,6.112859000000000000e+09
1.000000000000000000e+02,1.640000000000000000e+02,4.790000000000000000e+02,1.760000000000000000e+02,1.340000000000000000e+02,3.190000000000000000e+02,1.070000000000000000e+02,1.180000000000000000e+03,4.899999999999999911e-01,6.132153200000000000e+09
1.010000000000000000e+02,1.920000000000000000e+02,4.960000000000000000e+02,1.890000000000000000e+02,1.320000000000000000e+02,3.270000000000000000e+02,9.900000000000000000e+01,1.220000000000000000e+03,4.799999999999999822e-01,6.150620000000000000e+09
1.110000000000000000e+02,2.240000000000000000e+02,6.260000000000000000e+02,2.060000000000000000e+02,1.320000000000000000e+02,3.360000000000000000e+02,1.030000000000000000e+02,1.140000000000000000e+03,4.699999999999999734e-01,6.171816100000000000e+09
1.050000000000000000e+02,2.240000000000000000e+02,7.530000000000000000e+02,1.920000000000000000e+02,1.030000000000000000e+02,3.240000000000000000e+02,8.100000000000000000e+01,1.306000000000000000e+03,4.600000000000000200e-01,6.194060300000000000e+09
9.200000000000000000e+01,1.930000000000000000e+02,7.430000000000000000e+02,1.990000000000000000e+02,1.130000000000000000e+02,2.460000000000000000e+02,8.000000000000000000e+01,1.411000000000000000e+03,4.600000000000000200e-01,6.212778300000000000e+09
9.100000000000000000e+01,2.000000000000000000e+02,6.820000000000000000e+02,1.890000000000000000e+02,1.040000000000000000e+02,2.030000000000000000e+02,6.400000000000000000e+01,1.312000000000000000e+03,4.500000000000000111e-01,6.231979700000000000e+09
9.300000000000000000e+01,2.240000000000000000e+02,7.070000000000000000e+02,1.700000000000000000e+02,1.020000000000000000e+02,1.580000000000000000e+02,6.000000000000000000e+01,1.013000000000000000e+03,4.400000000000000022e-01,6.250598400000000000e+09
9.400000000000000000e+01,2.740000000000000000e+02,6.190000000000000000e+02,1.530000000000000000e+02,9.500000000000000000e+01,1.290000000000000000e+02,4.000000000000000000e+01,9.530000000000000000e+02,4.199999999999999845e-01,6.272349000000000000e+09
9.300000000000000000e+01,2.940000000000000000e+02,4.750000000000000000e+02,1.440000000000000000e+02,9.400000000000000000e+01,9.800000000000000000e+01,4.000000000000000000e+01,6.090000000000000000e+02,4.099999999999999756e-01,6.294938100000000000e+09
9.300000000000000000e+01,3.060000000000000000e+02,4.580000000000000000e+02,1.660000000000000000e+02,7.500000000000000000e+01,4.300000000000000000e+01,3.800000000000000000e+01,2.690000000000000000e+02,4.099999999999999756e-01,6.313939600000000000e+09
7.500000000000000000e+01,3.020000000000000000e+02,4.460000000000000000e+02,1.580000000000000000e+02,6.700000000000000000e+01,3.200000000000000000e+01,3.700000000000000000e+01,1.590000000000000000e+02,4.099999999999999756e-01,6.333374500000000000e+09
7.100000000000000000e+01,2.720000000000000000e+02,3.520000000000000000e+02,1.560000000000000000e+02,6.500000000000000000e+01,3.000000000000000000e+01,3.800000000000000000e+01,1.260000000000000000e+02,4.199999999999999845e-01,6.353131300000000000e+09
4.900000000000000000e+01,1.900000000000000000e+02,3.270000000000000000e+02,1.410000000000000000e+02,5.700000000000000000e+01,3.100000000000000000e+01,3.200000000000000000e+01,9.700000000000000000e+01,4.299999999999999933e-01,6.372690300000000000e+09
3.700000000000000000e+01,1.530000000000000000e+02,2.630000000000000000e+02,1.350000000000000000e+02,5.400000000000000000e+01,1.170000000000000000e+02,2.500000000000000000e+01,6.700000000000000000e+01,4.400000000000000022e-01,6.395087800000000000e+09
3.100000000000000000e+01,1.220000000000000000e+02,2.450000000000000000e+02,9.900000000000000000e+01,4.200000000000000000e+01,1.270000000000000000e+02,3.200000000000000000e+01,5.500000000000000000e+01,4.500000000000000111e-01,6.413296900000000000e+09
3.300000000000000000e+01,8.600000000000000000e+01,2.230000000000000000e+02,1.130000000000000000e+02,4.300000000000000000e+01,1.290000000000000000e+02,3.200000000000000000e+01,4.500000000000000000e+01,4.600000000000000200e-01,6.432124200000000000e+09
3.500000000000000000e+01,7.700000000000000000e+01,3.740000000000000000e+02,1.120000000000000000e+02,6.000000000000000000e+01,1.320000000000000000e+02,3.400000000000000000e+01,3.800000000000000000e+01,4.699999999999999734e-01,6.451305400000000000e+09
3.700000000000000000e+01,1.150000000000000000e+02,3.570000000000000000e+02,1.020000000000000000e+02,6.300000000000000000e+01,1.340000000000000000e+02,3.500000000000000000e+01,3.400000000000000000e+01,4.799999999999999822e-01,6.474248200000000000e+09
3.700000000000000000e+01,1.160000000000000000e+02,3.580000000000000000e+02,9.800000000000000000e+01,6.300000000000000000e+01,7.400000000000000000e+01,3.500000000000000000e+01,3.100000000000000000e+01,4.899999999999999911e-01,6.493029800000000000e+09
3.900000000000000000e+01,1.170000000000000000e+02,3.520000000000000000e+02,8.500000000000000000e+01,6.100000000000000000e+01,5.400000000000000000e+01,2.800000000000000000e+01,3.000000000000000000e+01,5.000000000000000000e-01,6.513205900000000000e+09
3.500000000000000000e+01,1.160000000000000000e+02,3.490000000000000000e+02,5.300000000000000000e+01,5.500000000000000000e+01,4.700000000000000000e+01,2.400000000000000000e+01,2.800000000000000000e+01,5.200000000000000178e-01,6.532329700000000000e+09
3.300000000000000000e+01,1.070000000000000000e+02,1.830000000000000000e+02,4.900000000000000000e+01,3.700000000000000000e+01,4.100000000000000000e+01,2.300000000000000000e+01,2.400000000000000000e+01,5.200000000000000178e-01,6.551543900000000000e+09
2.500000000000000000e+01,6.000000000000000000e+01,1.950000000000000000e+02,1.270000000000000000e+02,3.200000000000000000e+01,3.500000000000000000e+01,2.400000000000000000e+01,2.000000000000000000e+01,5.300000000000000266e-01,6.572296100000000000e+09
2.800000000000000000e+01,5.600000000000000000e+01,2.660000000000000000e+02,1.380000000000000000e+02,4.100000000000000000e+01,3.200000000000000000e+01,2.600000000000000000e+01,2.100000000000000000e+01,5.400000000000000355e-01,6.594364900000000000e+09
2.700000000000000000e+01,5.700000000000000000e+01,3.120000000000000000e+02,1.450000000000000000e+02,4.400000000000000000e+01,3.300000000000000000e+01,2.600000000000000000e+01,2.300000000000000000e+01,5.400000000000000355e-01,6.612879500000000000e+09
2.800000000000000000e+01,5.100000000000000000e+01,3.140000000000000000e+02,1.470000000000000000e+02,4.600000000000000000e+01,3.400000000000000000e+01,2.700000000000000000e+01,2.300000000000000000e+01,5.500000000000000444e-01,6.631554700000000000e+09
3.300000000000000000e+01,1.010000000000000000e+02,3.910000000000000000e+02,1.620000000000000000e+02,4.700000000000000000e+01,3.100000000000000000e+01,2.700000000000000000e+01,2.500000000000000000e+01,5.600000000000000533e-01,6.650508600000000000e+09
3.500000000000000000e+01,1.140000000000000000e+02,4.410000000000000000e+02,1.210000000000000000e+02,6.200000000000000000e+01,4.500000000000000000e+01,2.900000000000000000e+01,2.700000000000000000e+01,5.600000000000000533e-01,6.672526900000000000e+09
3.400000000000000000e+01,1.190000000000000000e+02,4.650000000000000000e+02,1.130000000000000000e+02,7.100000000000000000e+01,5.300000000000000000e+01,3.000000000000000000e+01,2.800000000000000000e+01,5.600000000000000533e-01,6.694209100000000000e+09
3.400000000000000000e+01,1.240000000000000000e+02,5.190000000000000000e+02,1.070000000000000000e+02,7.500000000000000000e+01,5.300000000000000000e+01,3.000000000000000000e+01,2.800000000000000000e+01,5.600000000000000533e-01,6.712825200000000000e+09
3.800000000000000000e+01,1.340000000000000000e+02,6.050000000000000000e+02,1.150000000000000000e+02,7.600000000000000000e+01,6.000000000000000000e+01,3.500000000000000000e+01,2.900000000000000000e+01,5.699999999999999512e-01,6.731358100000000000e+09
3.800000000000000000e+01,1.120000000000000000e+02,5.760000000000000000e+02,9.700000000000000000e+01,7.400000000000000000e+01,6.200000000000000000e+01,3.500000000000000000e+01,2.700000000000000000e+01,5.699999999999999512e-01,6.751579300000000000e+09
4.500000000000000000e+01,1.200000000000000000e+02,5.650000000000000000e+02,1.030000000000000000e+02,6.700000000000000000e+01,5.500000000000000000e+01,3.400000000000000000e+01,3.100000000000000000e+01,5.699999999999999512e-01,6.772812000000000000e+09
7.100000000000000000e+01,1.450000000000000000e+02,6.490000000000000000e+02,1.360000000000000000e+02,6.400000000000000000e+01,5.100000000000000000e+01,3.800000000000000000e+01,5.300000000000000000e+01,5.699999999999999512e-01,6.798915700000000000e+09
7.200000000000000000e+01,1.470000000000000000e+02,6.400000000000000000e+02,1.450000000000000000e+02,6.400000000000000000e+01,1.030000000000000000e+02,1.090000000000000000e+02,5.600000000000000000e+01,5.699999999999999512e-01,6.818243300000000000e+09
7.500000000000000000e+01,1.590000000000000000e+02,6.760000000000000000e+02,1.420000000000000000e+02,6.800000000000000000e+01,1.220000000000000000e+02,1.130000000000000000e+02,8.800000000000000000e+01,5.600000000000000533e-01,6.836831700000000000e+09
7.600000000000000000e+01,1.510000000000000000e+02,6.760000000000000000e+02,1.550000000000000000e+02,7.200000000000000000e+01,1.390000000000000000e+02,1.140000000000000000e+02,1.670000000000000000e+02,5.500000000000000444e-01,6.855568000000000000e+09
8.700000000000000000e+01,1.950000000000000000e+02,7.220000000000000000e+02,1.710000000000000000e+02,7.300000000000000000e+01,1.940000000000000000e+02,1.390000000000000000e+02,1.720000000000000000e+02,5.500000000000000444e-01,6.874967100000000000e+09
8.200000000000000000e+01,1.990000000000000000e+02,6.940000000000000000e+02,1.530000000000000000e+02,7.500000000000000000e+01,2.320000000000000000e+02,1.800000000000000000e+02,2.220000000000000000e+02,5.300000000000000266e-01,6.902049300000000000e+09
9.800000000000000000e+01,2.290000000000000000e+02,7.500000000000000000e+02,1.630000000000000000e+02,7.100000000000000000e+01,2.230000000000000000e+02,1.630000000000000000e+02,3.530000000000000000e+02,5.200000000000000178e-01,6.921744600000000000e+09
1.020000000000000000e+02,2.980000000000000000e+02,6.670000000000000000e+02,1.680000000000000000e+02,6.900000000000000000e+01,2.410000000000000000e+02,1.680000000000000000e+02,3.900000000000000000e+02,5.100000000000000089e-01,6.940639200000000000e+09
1.020000000000000000e+02,3.480000000000000000e+02,7.270000000000000000e+02,1.680000000000000000e+02,6.800000000000000000e+01,2.820000000000000000e+02,1.750000000000000000e+02,4.270000000000000000e+02,4.899999999999999911e-01,6.958890800000000000e+09
9.900000000000000000e+01,4.130000000000000000e+02,6.980000000000000000e+02,1.540000000000000000e+02,7.400000000000000000e+01,2.590000000000000000e+02,1.930000000000000000e+02,4.430000000000000000e+02,4.799999999999999822e-01,6.978015600000000000e+09
9.300000000000000000e+01,4.230000000000000000e+02,6.380000000000000000e+02,1.650000000000000000e+02,8.100000000000000000e+01,2.360000000000000000e+02,1.910000000000000000e+02,4.280000000000000000e+02,4.600000000000000200e-01,6.997926400000000000e+09
8.300000000000000000e+01,4.130000000000000000e+02,5.270000000000000000e+02,1.480000000000000000e+02,8.800000000000000000e+01,2.320000000000000000e+02,1.810000000000000000e+02,3.410000000000000000e+02,4.500000000000000111e-01,7.017118100000000000e+09
8.100000000000000000e+01,3.710000000000000000e+02,5.640000000000000000e+02,1.490000000000000000e+02,9.500000000000000000e+01,2.090000000000000000e+02,1.750000000000000000e+02,3.060000000000000000e+02,4.400000000000000022e-01,7.036629700000000000e+09
8.300000000000000000e+01,3.560000000000000000e+02,5.280000000000000000e+02,1.400000000000000000e+02,9.400000000000000000e+01,1.370000000000000000e+02,1.730000000000000000e+02,2.660000000000000000e+02,4.299999999999999933e-01,7.055087900000000000e+09
7.300000000000000000e+01,2.580000000000000000e+02,4.900000000000000000e+02,1.360000000000000000e+02,8.800000000000000000e+01,1.270000000000000000e+02,1.330000000000000000e+02,2.480000000000000000e+02,4.199999999999999845e-01,7.073520400000000000e+09
7.000000000000000000e+01,2.760000000000000000e+02,4.930000000000000000e+02,1.180000000000000000e+02,8.500000000000000000e+01,1.120000000000000000e+02,7.600000000000000000e+01,2.400000000000000000e+02,4.099999999999999756e-01,7.092467700000000000e+09
6.500000000000000000e+01,2.880000000000000000e+02,4.910000000000000000e+02,1.370000000000000000e+02,8.100000000000000000e+01,1.040000000000000000e+02,7.100000000000000000e+01,2.240000000000000000e+02,4.099999999999999756e-01,7.113025100000000000e+09
6.600000000000000000e+01,3.000000000000000000e+02,4.430000000000000000e+02,1.250000000000000000e+02,7.100000000000000000e+01,1.050000000000000000e+02,7.200000000000000000e+01,2.330000000000000000e+02,4.099999999999999756e-01,7.135668100000000000e+09
6.600000000000000000e+01,2.880000000000000000e+02,4.050000000000000000e+02,1.150000000000000000e+02,7.900000000000000000e+01,1.360000000000000000e+02,5.800000000000000000e+01,1.700000000000000000e+02,4.099999999999999756e-01,7.154571100000000000e+09
7.000000000000000000e+01,3.680000000000000000e+02,4.090000000000000000e+02,1.110000000000000000e+02,8.700000000000000000e+01,1.340000000000000000e+02,5.300000000000000000e+01,1.520000000000000000e+02,4.099999999999999756e-01,7.173689800000000000e+09
6.700000000000000000e+01,3.480000000000000000e+02,3.950000000000000000e+02,1.060000000000000000e+02,7.800000000000000000e+01,1.320000000000000000e+02,5.200000000000000000e+01,1.570000000000000000e+02,4.199999999999999845e-01,7.194525200000000000e+09
8.000000000000000000e+01,4.000000000000000000e+02,3.840000000000000000e+02,9.100000000000000000e+01,8.800000000000000000e+01,1.410000000000000000e+02,6.200000000000000000e+01,1.900000000000000000e+02,4.299999999999999933e-01,7.219684100000000000e+09
1.700000000000000000e+02,5.620000000000000000e+02,3.880000000000000000e+02,1.280000000000000000e+02,9.900000000000000000e+01,1.360000000000000000e+02,6.600000000000000000e+01,1.560000000000000000e+02,4.299999999999999933e-01,7.239140000000000000e+09
1.860000000000000000e+02,5.720000000000000000e+02,4.400000000000000000e+02,1.900000000000000000e+02,9.300000000000000000e+01,1.030000000000000000e+02,6.500000000000000000e+01,1.610000000000000000e+02,4.400000000000000022e-01,7.258911400000000000e+09
1.880000000000000000e+02,5.720000000000000000e+02,4.300000000000000000e+02,1.890000000000000000e+02,8.300000000000000000e+01,8.700000000000000000e+01,6.400000000000000000e+01,1.870000000000000000e+02,4.500000000000000111e-01,7.276796300000000000e+09
2.030000000000000000e+02,5.750000000000000000e+02,4.250000000000000000e+02,1.880000000000000000e+02,7.800000000000000000e+01,8.200000000000000000e+01,6.000000000000000000e+01,1.730000000000000000e+02,4.500000000000000111e-01,7.295166400000000000e+09
2.900000000000000000e+02,5.910000000000000000e+02,5.620000000000000000e+02,2.120000000000000000e+02,6.700000000000000000e+01,6.100000000000000000e+01,5.200000000000000000e+01,1.370000000000000000e+02,4.600000000000000200e-01,7.313769400000000000e+09
2.740000000000000000e+02,4.800000000000000000e+02,6.110000000000000000e+02,1.980000000000000000e+02,5.300000000000000000e+01,4.400000000000000000e+01,3.800000000000000000e+01,1.310000000000000000e+02,4.699999999999999734e-01,7.335011300000000000e+09
2.660000000000000000e+02,4.980000000000000000e+02,6.050000000000000000e+02,1.500000000000000000e+02,5.300000000000000000e+01,4.300000000000000000e+01,3.800000000000000000e+01,1.200000000000000000e+02,4.799999999999999822e-01,7.353112100000000000e+09
2.660000000000000000e+02,4.430000000000000000e+02,6.080000000000000000e+02,1.460000000000000000e+02,5.300000000000000000e+01,6.000000000000000000e+01,3.700000000000000000e+01,7.400000000000000000e+01,4.899999999999999911e-01,7.372446500000000000e+09
2.610000000000000000e+02,4.570000000000000000e+02,6.130000000000000000e+02,1.610000000000000000e+02,6.000000000000000000e+01,6.300000000000000000e+01,1.550000000000000000e+02,7.400000000000000000e+01,5.000000000000000000e-01,7.393943300000000000e+09
1.660000000000000000e+02,3.800000000000000000e+02,4.890000000000000000e+02,1.240000000000000000e+02,6.500000000000000000e+01,6.900000000000000000e+01,1.610000000000000000e+02,9.300000000000000000e+01,5.100000000000000089e-01,7.413669800000000000e+09
1.220000000000000000e+02,3.090000000000000000e+02,4.060000000000000000e+02,1.150000000000000000e+02,6.700000000000000000e+01,2.020000000000000000e+02,1.750000000000000000e+02,1.060000000000000000e+02,5.100000000000000089e-01,7.434966700000000000e+09
1.720000000000000000e+02,2.350000000000000000e+02,3.700000000000000000e+02,1.120000000000000000e+02,6.700000000000000000e+01,2.280000000000000000e+02,2.070000000000000000e+02,1.100000000000000000e+02,5.200000000000000178e-01,7.453826700000000000e+09
1.720000000000000000e+02,2.370000000000000000e+02,3.400000000000000000e+02,1.100000000000000000e+02,6.600000000000000000e+01,2.280000000000000000e+02,2.120000000000000000e+02,1.130000000000000000e+02,5.300000000000000266e-01,7.472459900000000000e+09
1.880000000000000000e+02,1.810000000000000000e+02,3.000000000000000000e+02,1.140000000000000000e+02,6.600000000000000000e+01,2.570000000000000000e+02,1.690000000000000000e+02,1.130000000000000000e+02,5.300000000000000266e-01,7.491934300000000000e+09
1.900000000000000000e+02,1.690000000000000000e+02,3.380000000000000000e+02,1.130000000000000000e+02,6.100000000000000000e+01,3.490000000000000000e+02,1.780000000000000000e+02,1.200000000000000000e+02,5.400000000000000355e-01,7.513194400000000000e+09
2.010000000000000000e+02,2.550000000000000000e+02,3.590000000000000000e+02,1.220000000000000000e+02,5.400000000000000000e+01,3.050000000000000000e+02,1.680000000000000000e+02,1.420000000000000000e+02,5.500000000000000444e-01,7.535400100000000000e+09
2.330000000000000000e+02,2.930000000000000000e+02,3.020000000000000000e+02,1.140000000000000000e+02,5.400000000000000000e+01,2.900000000000000000e+02,1.270000000000000000e+02,1.420000000000000000e+02,5.500000000000000444e-01,7.553669500000000000e+09
2.850000000000000000e+02,2.940000000000000000e+02,3.210000000000000000e+02,1.340000000000000000e+02,6.400000000000000000e+01,2.900000000000000000e+02,1.200000000000000000e+02,1.400000000000000000e+02,5.500000000000000444e-01,7.572241000000000000e+09
2.920000000000000000e+02,3.120000000000000000e+02,4.090000000000000000e+02,1.820000000000000000e+02,6.300000000000000000e+01,2.670000000000000000e+02,9.000000000000000000e+01,1.390000000000000000e+02,5.600000000000000533e-01,7.592866900000000000e+09
2.880000000000000000e+02,3.230000000000000000e+02,4.280000000000000000e+02,2.300000000000000000e+02,6.900000000000000000e+01,1.290000000000000000e+02,5.000000000000000000e+01,1.120000000000000000e+02,5.600000000000000533e-01,7.613940600000000000e+09
3.010000000000000000e+02,4.650000000000000000e+02,6.390000000000000000e+02,4.970000000000000000e+02,7.200000000000000000e+01,9.700000000000000000e+01,4.100000000000000000e+01,6.700000000000000000e+01,5.500000000000000444e-01,7.635053300000000000e+09
2.960000000000000000e+02,4.590000000000000000e+02,6.860000000000000000e+02,5.230000000000000000e+02,8.900000000000000000e+01,9.000000000000000000e+01,4.100000000000000000e+01,6.100000000000000000e+01,5.500000000000000444e-01,7.654568800000000000e+09
2.720000000000000000e+02,4.990000000000000000e+02,7.380000000000000000e+02,5.300000000000000000e+02,8.800000000000000000e+01,8.000000000000000000e+01,4.100000000000000000e+01,5.200000000000000000e+01,5.400000000000000355e-01,7.674662500000000000e+09
2.650000000000000000e+02,4.950000000000000000e+02,7.280000000000000000e+02,5.180000000000000000e+02,8.500000000000000000e+01,8.300000000000000000e+01,5.300000000000000000e+01,5.300000000000000000e+01,5.300000000000000266e-01,7.693359000000000000e+09
2.660000000000000000e+02,5.040000000000000000e+02,7.090000000000000000e+02,5.080000000000000000e+02,7.500000000000000000e+01,6.700000000000000000e+01,5.600000000000000000e+01,5.200000000000000000e+01,5.200000000000000178e-01,7.712738700000000000e+09
2.510000000000000000e+02,3.500000000000000000e+02,5.380000000000000000e+02,2.710000000000000000e+02,7.200000000000000000e+01,6.500000000000000000e+01,6.800000000000000000e+01,7.400000000000000000e+01,5.200000000000000178e-01,7.735284500000000000e+09
2.090000000000000000e+02,3.800000000000000000e+02,5.270000000000000000e+02,2.300000000000000000e+02,5.200000000000000000e+01,6.000000000000000000e+01,8.500000000000000000e+01,7.400000000000000000e+01,5.300000000000000266e-01,7.753704900000000000e+09
1.870000000000000000e+02,3.630000000000000000e+02,4.630000000000000000e+02,2.190000000000000000e+02,4.700000000000000000e+01,6.700000000000000000e+01,9.100000000000000000e+01,7.700000000000000000e+01,5.300000000000000266e-01,7.772480200000000000e+09
1.820000000000000000e+02,3.670000000000000000e+02,4.830000000000000000e+02,2.030000000000000000e+02,5.000000000000000000e+01,1.290000000000000000e+02,1.230000000000000000e+02,8.400000000000000000e+01,5.300000000000000266e-01,7.792514900000000000e+09
1.880000000000000000e+02,3.670000000000000000e+02,4.860000000000000000e+02,1.780000000000000000e+02,5.000000000000000000e+01,1.730000000000000000e+02,1.280000000000000000e+02,8.800000000000000000e+01,5.400000000000000355e-01,7.815588700000000000e+09
1.890000000000000000e+02,3.820000000000000000e+02,4.880000000000000000e+02,1.450000000000000000e+02,5.100000000000000000e+01,1.800000000000000000e+02,1.210000000000000000e+02,9.000000000000000000e+01,5.400000000000000355e-01,7.834249900000000000e+09
1.710000000000000000e+02,3.350000000000000000e+02,4.870000000000000000e+02,1.240000000000000000e+02,4.800000000000000000e+01,1.810000000000000000e+02,1.220000000000000000e+02,9.400000000000000000e+01,5.400000000000000355e-01,7.853170000000000000e+09
1.690000000000000000e+02,3.040000000000000000e+02,5.380000000000000000e+02,1.120000000000000000e+02,4.700000000000000000e+01,1.840000000000000000e+02,1.220000000000000000e+02,9.400000000000000000e+01,5.500000000000000444e-01,7.871915000000000000e+09
1.770000000000000000e+02,3.050000000000000000e+02,5.360000000000000000e+02,1.150000000000000000e+02,5.100000000000000000e+01,1.730000000000000000e+02,9.900000000000000000e+01,9.700000000000000000e+01,5.600000000000000533e-01,7.894698800000000000e+09
1.620000000000000000e+02,3.420000000000000000e+02,5.550000000000000000e+02,1.230000000000000000e+02,5.500000000000000000e+01,1.470000000000000000e+02,1.000000000000000000e+02,1.430000000000000000e+02,5.699999999999999512e-01,7.914936200000000000e+09
1.610000000000000000e+02,3.190000000000000000e+02,5.220000000000000000e+02,1.230000000000000000e+02,5.600000000000000000e+01,1.820000000000000000e+02,1.600000000000000000e+02,2.540000000000000000e+02,5.699999999999999512e-01,7.933765400000000000e+09
1.610000000000000000e+02,3.360000000000000000e+02,5.340000000000000000e+02,1.240000000000000000e+02,5.600000000000000000e+01,1.870000000000000000e+02,1.730000000000000000e+02,2.650000000000000000e+02,5.799999999999999600e-01,7.952672500000000000e+09
1.480000000000000000e+02,3.770000000000000000e+02,5.470000000000000000e+02,1.160000000000000000e+02,6.200000000000000000e+01,2.200000000000000000e+02,1.870000000000000000e+02,2.860000000000000000e+02,5.799999999999999600e-01,7.975236000000000000e+09
1.140000000000000000e+02,3.710000000000000000e+02,4.940000000000000000e+02,1.060000000000000000e+02,5.600000000000000000e+01,2.070000000000000000e+02,1.870000000000000000e+02,3.020000000000000000e+02,5.699999999999999512e-01,7.994263500000000000e+09
1.160000000000000000e+02,3.420000000000000000e+02,6.450000000000000000e+02,1.050000000000000000e+02,5.700000000000000000e+01,2.220000000000000000e+02,1.970000000000000000e+02,3.290000000000000000e+02,5.600000000000000533e-01,8.017165400000000000e+09
9.400000000000000000e+01,3.510000000000000000e+02,6.980000000000000000e+02,1.120000000000000000e+02,5.900000000000000000e+01,2.160000000000000000e+02,1.530000000000000000e+02,2.730000000000000000e+02,5.500000000000000444e-01,8.037419100000000000e+09
9.400000000000000000e+01,3.510000000000000000e+02,7.890000000000000000e+02,1.290000000000000000e+02,6.700000000000000000e+01,2.170000000000000000e+02,1.330000000000000000e+02,2.840000000000000000e+02,5.300000000000000266e-01,8.057254400000000000e+09
9.100000000000000000e+01,2.900000000000000000e+02,7.670000000000000000e+02,1.550000000000000000e+02,7.200000000000000000e+01,1.820000000000000000e+02,1.130000000000000000e+02,2.670000000000000000e+02,5.200000000000000178e-01,8.075233800000000000e+09
9.600000000000000000e+01,2.820000000000000000e+02,8.450000000000000000e+02,1.890000000000000000e+02,9.100000000000000000e+01,1.770000000000000000e+02,1.040000000000000000e+02,2.510000000000000000e+02,5.000000000000000000e-01,8.094494700000000000e+09
9.600000000000000000e+01,2.600000000000000000e+02,7.350000000000000000e+02,2.160000000000000000e+02,9.600000000000000000e+01,1.440000000000000000e+02,7.500000000000000000e+01,1.900000000000000000e+02,4.899999999999999911e-01,8.113825900000000000e+09
9.500000000000000000e+01,2.310000000000000000e+02,7.840000000000000000e+02,2.340000000000000000e+02,9.700000000000000000e+01,1.000000000000000000e+02,7.300000000000000000e+01,1.520000000000000000e+02,4.699999999999999734e-01,8.134662900000000000e+09
1.050000000000000000e+02,2.320000000000000000e+02,6.730000000000000000e+02,2.470000000000000000e+02,9.700000000000000000e+01,9.400000000000000000e+01,6.800000000000000000e+01,1.120000000000000000e+02,4.699999999999999734e-01,8.152694600000000000e+09
1.020000000000000000e+02,2.380000000000000000e+02,6.920000000000000000e+02,2.440000000000000000e+02,9.100000000000000000e+01,8.700000000000000000e+01,5.900000000000000000e+01,1.040000000000000000e+02,4.600000000000000200e-01,8.171210600000000000e+09
9.700000000000000000e+01,2.300000000000000000e+02,6.740000000000000000e+02,2.190000000000000000e+02,7.300000000000000000e+01,1.190000000000000000e+02,7.800000000000000000e+01,1.310000000000000000e+02,4.500000000000000111e-01,8.190137900000000000e+09
8.800000000000000000e+01,2.120000000000000000e+02,7.010000000000000000e+02,2.010000000000000000e+02,7.300000000000000000e+01,1.610000000000000000e+02,8.400000000000000000e+01,1.230000000000000000e+02,4.500000000000000111e-01,8.212633500000000000e+09
8.400000000000000000e+01,1.910000000000000000e+02,6.330000000000000000e+02,1.760000000000000000e+02,7.800000000000000000e+01,2.100000000000000000e+02,8.700000000000000000e+01,1.220000000000000000e+02,4.400000000000000022e-01,8.234756700000000000e+09
6.100000000000000000e+01,1.440000000000000000e+02,6.690000000000000000e+02,1.600000000000000000e+02,8.400000000000000000e+01,2.240000000000000000e+02,8.500000000000000000e+01,1.170000000000000000e+02,4.400000000000000022e-01,8.253127400000000000e+09
5.100000000000000000e+01,1.100000000000000000e+02,6.280000000000000000e+02,1.320000000000000000e+02,8.300000000000000000e+01,2.290000000000000000e+02,8.400000000000000000e+01,1.130000000000000000e+02,4.400000000000000022e-01,8.272003500000000000e+09
4.500000000000000000e+01,1.020000000000000000e+02,5.890000000000000000e+02,1.360000000000000000e+02,8.100000000000000000e+01,2.090000000000000000e+02,5.900000000000000000e+01,6.200000000000000000e+01,4.400000000000000022e-01,8.291895400000000000e+09
4.400000000000000000e+01,9.600000000000000000e+01,5.520000000000000000e+02,1.210000000000000000e+02,7.300000000000000000e+01,1.790000000000000000e+02,4.700000000000000000e+01,5.900000000000000000e+01,4.500000000000000111e-01,8.312397100000000000e+09
3.900000000000000000e+01,9.000000000000000000e+01,5.140000000000000000e+02,1.120000000000000000e+02,6.800000000000000000e+01,1.240000000000000000e+02,3.700000000000000000e+01,4.900000000000000000e+01,4.600000000000000200e-01,8.334386400000000000e+09
3.500000000000000000e+01,7.200000000000000000e+01,5.420000000000000000e+02,1.030000000000000000e+02,5.700000000000000000e+01,9.500000000000000000e+01,3.500000000000000000e+01,4.000000000000000000e+01,4.699999999999999734e-01,8.353141700000000000e+09
3.700000000000000000e+01,8.600000000000000000e+01,5.540000000000000000e+02,1.040000000000000000e+02,6.000000000000000000e+01,8.000000000000000000e+01,3.300000000000000000e+01,3.600000000000000000e+01,4.699999999999999734e-01,8.371916600000000000e+09
3.800000000000000000e+01,8.400000000000000000e+01,5.060000000000000000e+02,9.300000000000000000e+01,6.000000000000000000e+01,7.800000000000000000e+01,3.300000000000000000e+01,3.000000000000000000e+01,4.799999999999999822e-01,8.392071100000000000e+09
3.400000000000000000e+01,8.000000000000000000e+01,4.690000000000000000e+02,8.500000000000000000e+01,5.500000000000000000e+01,6.800000000000000000e+01,2.900000000000000000e+01,2.800000000000000000e+01,4.899999999999999911e-01,8.412601800000000000e+09
4.100000000000000000e+01,9.700000000000000000e+01,5.840000000000000000e+02,1.000000000000000000e+02,5.600000000000000000e+01,6.100000000000000000e+01,3.300000000000000000e+01,3.100000000000000000e+01,4.899999999999999911e-01,8.434442600000000000e+09
3.900000000000000000e+01,9.400000000000000000e+01,5.100000000000000000e+02,8.400000000000000000e+01,6.200000000000000000e+01,7.000000000000000000e+01,3.300000000000000000e+01,3.000000000000000000e+01,5.000000000000000000e-01,8.453614200000000000e+09
3.700000000000000000e+01,8.900000000000000000e+01,5.480000000000000000e+02,1.270000000000000000e+02,8.200000000000000000e+01,7.100000000000000000e+01,3.100000000000000000e+01,2.900000000000000000e+01,5.000000000000000000e-01,8.472288100000000000e+09
4.700000000000000000e+01,1.030000000000000000e+02,6.230000000000000000e+02,2.130000000000000000e+02,1.690000000000000000e+02,1.090000000000000000e+02,4.400000000000000000e+01,3.800000000000000000e+01,5.100000000000000089e-01,8.490913400000000000e+09
5.000000000000000000e+01,1.080000000000000000e+02,6.330000000000000000e+02,2.670000000000000000e+02,2.000000000000000000e+02,1.190000000000000000e+02,4.800000000000000000e+01,3.800000000000000000e+01,5.000000000000000000e-01,8.513528000000000000e+09
4.900000000000000000e+01,9.400000000000000000e+01,6.030000000000000000e+02,2.770000000000000000e+02,2.130000000000000000e+02,1.140000000000000000e+02,4.600000000000000000e+01,3.800000000000000000e+01,4.899999999999999911e-01,8.532011300000000000e+09
4.900000000000000000e+01,9.300000000000000000e+01,5.810000000000000000e+02,2.860000000000000000e+02,2.370000000000000000e+02,1.190000000000000000e+02,4.900000000000000000e+01,3.600000000000000000e+01,4.799999999999999822e-01,8.550373000000000000e+09
5.400000000000000000e+01,9.100000000000000000e+01,5.450000000000000000e+02,4.120000000000000000e+02,2.660000000000000000e+02,1.300000000000000000e+02,5.200000000000000000e+01,3.900000000000000000e+01,4.699999999999999734e-01,8.570225000000000000e+09
5.200000000000000000e+01,9.300000000000000000e+01,5.730000000000000000e+02,4.520000000000000000e+02,2.690000000000000000e+02,1.160000000000000000e+02,4.800000000000000000e+01,3.400000000000000000e+01,4.600000000000000200e-01,8.593401000000000000e+09
5.700000000000000000e+01,9.500000000000000000e+01,6.050000000000000000e+02,4.670000000000000000e+02,2.630000000000000000e+02,1.210000000000000000e+02,4.800000000000000000e+01,3.500000000000000000e+01,4.500000000000000111e-01,8.611710600000000000e+09
5.400000000000000000e+01,9.300000000000000000e+01,5.480000000000000000e+02,4.630000000000000000e+02,2.750000000000000000e+02,1.510000000000000000e+02,5.000000000000000000e+01,3.500000000000000000e+01,4.299999999999999933e-01,8.630046300000000000e+09
6.500000000000000000e+01,9.500000000000000000e+01,5.730000000000000000e+02,5.650000000000000000e+02,3.010000000000000000e+02,1.640000000000000000e+02,5.000000000000000000e+01,3.700000000000000000e+01,4.199999999999999845e-01,8.650115900000000000e+09
6.300000000000000000e+01,9.200000000000000000e+01,5.570000000000000000e+02,5.310000000000000000e+02,3.160000000000000000e+02,1.710000000000000000e+02,5.200000000000000000e+01,3.700000000000000000e+01,4.000000000000000222e-01,8.672443700000000000e+09
5.900000000000000000e+01,7.400000000000000000e+01,4.850000000000000000e+02,6.130000000000000000e+02,3.410000000000000000e+02,2.010000000000000000e+02,5.500000000000000000e+01,3.500000000000000000e+01,3.900000000000000133e-01,8.694483300000000000e+09
5.900000000000000000e+01,6.400000000000000000e+01,4.620000000000000000e+02,6.740000000000000000e+02,4.250000000000000000e+02,2.180000000000000000e+02,6.200000000000000000e+01,3.800000000000000000e+01,3.800000000000000044e-01,8.713812000000000000e+09
6.900000000000000000e+01,6.600000000000000000e+01,4.690000000000000000e+02,7.980000000000000000e+02,4.420000000000000000e+02,2.310000000000000000e+02,6.800000000000000000e+01,4.200000000000000000e+01,3.699999999999999956e-01,8.733430800000000000e+09
6.900000000000000000e+01,6.600000000000000000e+01,4.350000000000000000e+02,7.990000000000000000e+02,4.420000000000000000e+02,2.380000000000000000e+02,7.300000000000000000e+01,4.300000000000000000e+01,3.800000000000000044e-01,8.752956700000000000e+09
7.700000000000000000e+01,6.300000000000000000e+01,4.170000000000000000e+02,8.380000000000000000e+02,4.880000000000000000e+02,2.810000000000000000e+02,8.100000000000000000e+01,4.400000000000000000e+01,3.800000000000000044e-01,8.771817100000000000e+09
9.600000000000000000e+01,5.800000000000000000e+01,3.370000000000000000e+02,7.550000000000000000e+02,4.750000000000000000e+02,3.070000000000000000e+02,8.300000000000000000e+01,4.700000000000000000e+01,3.900000000000000133e-01,8.793781200000000000e+09
1.040000000000000000e+02,6.100000000000000000e+01,4.510000000000000000e+02,7.200000000000000000e+02,3.980000000000000000e+02,3.050000000000000000e+02,8.300000000000000000e+01,4.600000000000000000e+01,3.900000000000000133e-01,8.812761600000000000e+09
1.020000000000000000e+02,5.500000000000000000e+01,4.760000000000000000e+02,6.080000000000000000e+02,3.840000000000000000e+02,2.900000000000000000e+02,7.900000000000000000e+01,4.200000000000000000e+01,3.900000000000000133e-01,8.831655900000000000e+09
1.040000000000000000e+02,5.200000000000000000e+01,5.310000000000000000e+02,5.390000000000000000e+02,3.520000000000000000e+02,2.900000000000000000e+02,7.300000000000000000e+01,4.000000000000000000e+01,3.900000000000000133e-01,8.851317400000000000e+09
9.700000000000000000e+01,5.200000000000000000e+01,6.170000000000000000e+02,4.630000000000000000e+02,2.490000000000000000e+02,2.490000000000000000e+02,7.000000000000000000e+01,3.800000000000000000e+01,4.000000000000000222e-01,8.871497400000000000e+09
7.700000000000000000e+01,5.400000000000000000e+01,6.490000000000000000e+02,4.510000000000000000e+02,2.100000000000000000e+02,1.840000000000000000e+02,6.500000000000000000e+01,3.500000000000000000e+01,4.000000000000000222e-01,8.893682500000000000e+09
1.150000000000000000e+02,5.100000000000000000e+01,5.670000000000000000e+02,3.930000000000000000e+02,2.170000000000000000e+02,1.650000000000000000e+02,6.000000000000000000e+01,3.700000000000000000e+01,4.000000000000000222e-01,8.912404000000000000e+09
1.290000000000000000e+02,6.400000000000000000e+01,5.840000000000000000e+02,3.670000000000000000e+02,1.750000000000000000e+02,1.470000000000000000e+02,5.600000000000000000e+01,3.900000000000000000e+01,4.000000000000000222e-01,8.930926500000000000e+09
1.300000000000000000e+02,8.200000000000000000e+01,6.190000000000000000e+02,3.280000000000000000e+02,1.700000000000000000e+02,1.120000000000000000e+02,5.500000000000000000e+01,3.800000000000000000e+01,4.000000000000000222e-01,8.950266400000000000e+09
1.350000000000000000e+02,1.100000000000000000e+02,5.640000000000000000e+02,2.550000000000000000e+02,1.480000000000000000e+02,2.590000000000000000e+02,5.600000000000000000e+01,1.280000000000000000e+02,4.000000000000000222e-01,8.971320400000000000e+09
1.400000000000000000e+02,1.210000000000000000e+02,6.350000000000000000e+02,2.480000000000000000e+02,1.300000000000000000e+02,3.040000000000000000e+02,1.100000000000000000e+02,2.110000000000000000e+02,4.000000000000000222e-01,8.993894200000000000e+09
1.120000000000000000e+02,1.230000000000000000e+02,6.910000000000000000e+02,2.240000000000000000e+02,1.050000000000000000e+02,3.270000000000000000e+02,1.310000000000000000e+02,2.440000000000000000e+02,4.000000000000000222e-01,9.012463300000000000e+09
9.500000000000000000e+01,1.210000000000000000e+02,6.450000000000000000e+02,1.780000000000000000e+02,1.140000000000000000e+02,3.310000000000000000e+02,1.460000000000000000e+02,2.570000000000000000e+02,4.000000000000000222e-01,9.031169500000000000e+09
8.800000000000000000e+01,1.150000000000000000e+02,6.030000000000000000e+02,1.770000000000000000e+02,1.160000000000000000e+02,3.370000000000000000e+02,1.530000000000000000e+02,2.780000000000000000e+02,3.900000000000000133e-01,9.050889400000000000e+09
1.050000000000000000e+02,1.210000000000000000e+02,5.870000000000000000e+02,1.660000000000000000e+02,1.100000000000000000e+02,2.910000000000000000e+02,1.560000000000000000e+02,2.520000000000000000e+02,3.900000000000000133e-01,9.071510400000000000e+09
9.800000000000000000e+01,1.180000000000000000e+02,4.780000000000000000e+02,1.660000000000000000e+02,9.700000000000000000e+01,2.500000000000000000e+02,1.340000000000000000e+02,1.930000000000000000e+02,4.000000000000000222e-01,9.101077800000000000e+09
9.200000000000000000e+01,1.250000000000000000e+02,5.430000000000000000e+02,1.700000000000000000e+02,9.700000000000000000e+01,2.260000000000000000e+02,1.200000000000000000e+02,2.390000000000000000e+02,4.000000000000000222e-01,9.122881700000000000e+09
1.430000000000000000e+02,1.650000000000000000e+02,6.240000000000000000e+02,1.920000000000000000e+02,9.300000000000000000e+01,3.600000000000000000e+02,1.330000000000000000e+02,2.550000000000000000e+02,4.000000000000000222e-01,9.142141700000000000e+09
1.570000000000000000e+02,1.830000000000000000e+02,6.780000000000000000e+02,1.860000000000000000e+02,8.700000000000000000e+01,3.860000000000000000e+02,1.760000000000000000e+02,2.710000000000000000e+02,4.099999999999999756e-01,9.160939300000000000e+09
1.440000000000000000e+02,1.660000000000000000e+02,6.770000000000000000e+02,1.840000000000000000e+02,8.800000000000000000e+01,3.590000000000000000e+02,1.860000000000000000e+02,3.050000000000000000e+02,4.099999999999999756e-01,9.179456900000000000e+09
1.430000000000000000e+02,1.610000000000000000e+02,6.810000000000000000e+02,1.710000000000000000e+02,9.700000000000000000e+01,3.610000000000000000e+02,1.830000000000000000e+02,3.050000000000000000e+02,4.099999999999999756e-01,9.199014700000000000e+09
1.420000000000000000e+02,1.630000000000000000e+02,5.640000000000000000e+02,1.600000000000000000e+02,9.300000000000000000e+01,3.620000000000000000e+02,1.810000000000000000e+02,2.470000000000000000e+02,4.199999999999999845e-01,9.217234100000000000e+09
1.110000000000000000e+02,1.630000000000000000e+02,4.600000000000000000e+02,1.400000000000000000e+02,8.400000000000000000e+01,2.350000000000000000e+02,1.620000000000000000e+02,2.300000000000000000e+02,4.199999999999999845e-01,9.236642900000000000e+09
9.600000000000000000e+01,1.440000000000000000e+02,3.870000000000000000e+02,1.450000000000000000e+02,9.600000000000000000e+01,2.820000000000000000e+02,1.210000000000000000e+02,2.060000000000000000e+02,4.199999999999999845e-01,9.255356800000000000e+09
1.060000000000000000e+02,1.540000000000000000e+02,4.020000000000000000e+02,1.420000000000000000e+02,9.600000000000000000e+01,2.900000000000000000e+02,1.130000000000000000e+02,1.570000000000000000e+02,4.299999999999999933e-01,9.274252500000000000e+09
1.110000000000000000e+02,1.560000000000000000e+02,4.290000000000000000e+02,1.400000000000000000e+02,8.800000000000000000e+01,2.900000000000000000e+02,1.180000000000000000e+02,1.520000000000000000e+02,4.400000000000000022e-01,9.293612200000000000e+09
1.180000000000000000e+02,1.490000000000000000e+02,4.510000000000000000e+02,1.340000000000000000e+02,8.500000000000000000e+01,4.650000000000000000e+02,1.590000000000000000e+02,1.560000000000000000e+02,4.500000000000000111e-01,9.312893300000000000e+09
1.000000000000000000e+02,1.050000000000000000e+02,4.940000000000000000e+02,1.690000000000000000e+02,1.060000000000000000e+02,5.400000000000000000e+02,2.380000000000000000e+02,2.540000000000000000e+02,4.500000000000000111e-01,9.334088500000000000e+09
1.060000000000000000e+02,1.300000000000000000e+02,4.890000000000000000e+02,1.730000000000000000e+02,9.700000000000000000e+01,5.200000000000000000e+02,2.390000000000000000e+02,2.400000000000000000e+02,4.600000000000000200e-01,9.352643500000000000e+09
1.250000000000000000e+02,1.510000000000000000e+02,4.800000000000000000e+02,1.780000000000000000e+02,1.040000000000000000e+02,5.520000000000000000e+02,2.360000000000000000e+02,2.540000000000000000e+02,4.699999999999999734e-01,9.371412300000000000e+09
1.530000000000000000e+02,1.550000000000000000e+02,4.720000000000000000e+02,1.950000000000000000e+02,1.090000000000000000e+02,5.810000000000000000e+02,2.680000000000000000e+02,3.930000000000000000e+02,4.799999999999999822e-01,9.390986900000000000e+09
1.470000000000000000e+02,1.530000000000000000e+02,5.030000000000000000e+02,2.210000000000000000e+02,1.110000000000000000e+02,5.110000000000000000e+02,2.910000000000000000e+02,4.030000000000000000e+02,4.799999999999999822e-01,9.412686100000000000e+09
1.460000000000000000e+02,1.500000000000000000e+02,5.430000000000000000e+02,2.060000000000000000e+02,9.900000000000000000e+01,4.760000000000000000e+02,2.530000000000000000e+02,3.480000000000000000e+02,4.899999999999999911e-01,9.434148500000000000e+09
1.450000000000000000e+02,1.280000000000000000e+02,5.850000000000000000e+02,2.000000000000000000e+02,1.070000000000000000e+02,5.500000000000000000e+02,2.790000000000000000e+02,3.550000000000000000e+02,5.000000000000000000e-01,9.452663100000000000e+09
1.330000000000000000e+02,1.030000000000000000e+02,5.970000000000000000e+02,2.070000000000000000e+02,1.080000000000000000e+02,5.780000000000000000e+02,3.050000000000000000e+02,4.370000000000000000e+02,5.100000000000000089e-01,9.473056500000000000e+09
1.500000000000000000e+02,2.310000000000000000e+02,5.890000000000000000e+02,1.900000000000000000e+02,9.900000000000000000e+01,5.850000000000000000e+02,3.340000000000000000e+02,3.940000000000000000e+02,5.200000000000000178e-01,9.492392900000000000e+09
1.640000000000000000e+02,2.650000000000000000e+02,5.320000000000000000e+02,1.700000000000000000e+02,9.500000000000000000e+01,5.600000000000000000e+02,3.430000000000000000e+02,3.870000000000000000e+02,5.200000000000000178e-01,9.511754600000000000e+09
1.670000000000000000e+02,2.690000000000000000e+02,4.520000000000000000e+02,1.530000000000000000e+02,8.500000000000000000e+01,5.470000000000000000e+02,3.370000000000000000e+02,6.490000000000000000e+02,5.100000000000000089e-01,9.534243800000000000e+09
1.630000000000000000e+02,2.710000000000000000e+02,3.480000000000000000e+02,1.620000000000000000e+02,8.200000000000000000e+01,5.170000000000000000e+02,3.660000000000000000e+02,1.026000000000000000e+03,5.000000000000000000e-01,9.552320600000000000e+09
1.720000000000000000e+02,2.640000000000000000e+02,3.100000000000000000e+02,1.480000000000000000e+02,7.000000000000000000e+01,4.710000000000000000e+02,3.730000000000000000e+02,1.017000000000000000e+03,5.000000000000000000e-01,9.571459600000000000e+09
1.330000000000000000e+02,1.720000000000000000e+02,3.050000000000000000e+02,1.400000000000000000e+02,6.800000000000000000e+01,4.310000000000000000e+02,3.280000000000000000e+02,1.035000000000000000e+03,4.899999999999999911e-01,9.589806500000000000e+09
1.150000000000000000e+02,1.140000000000000000e+02,3.040000000000000000e+02,1.260000000000000000e+02,7.600000000000000000e+01,3.960000000000000000e+02,2.890000000000000000e+02,1.037000000000000000e+03,4.799999999999999822e-01,9.611800100000000000e+09
1.150000000000000000e+02,2.590000000000000000e+02,3.230000000000000000e+02,1.550000000000000000e+02,9.700000000000000000e+01,3.570000000000000000e+02,2.790000000000000000e+02,8.950000000000000000e+02,4.699999999999999734e-01,9.633873800000000000e+09
1.340000000000000000e+02,3.130000000000000000e+02,4.270000000000000000e+02,2.610000000000000000e+02,1.190000000000000000e+02,2.390000000000000000e+02,1.980000000000000000e+02,4.070000000000000000e+02,4.699999999999999734e-01,9.653058700000000000e+09
1.410000000000000000e+02,3.630000000000000000e+02,4.480000000000000000e+02,3.680000000000000000e+02,1.440000000000000000e+02,1.470000000000000000e+02,1.280000000000000000e+02,3.320000000000000000e+02,4.600000000000000200e-01,9.672764700000000000e+09
1.520000000000000000e+02,4.320000000000000000e+02,5.040000000000000000e+02,3.900000000000000000e+02,1.650000000000000000e+02,1.090000000000000000e+02,1.030000000000000000e+02,1.420000000000000000e+02,4.400000000000000022e-01,9.691267000000000000e+09
1.520000000000000000e+02,4.650000000000000000e+02,5.180000000000000000e+02,4.160000000000000000e+02,1.630000000000000000e+02,9.300000000000000000e+01,7.300000000000000000e+01,1.010000000000000000e+02,4.299999999999999933e-01,9.713366700000000000e+09
1.500000000000000000e+02,4.320000000000000000e+02,5.720000000000000000e+02,4.720000000000000000e+02,1.680000000000000000e+02,7.900000000000000000e+01,6.800000000000000000e+01,8.800000000000000000e+01,4.099999999999999756e-01,9.732132900000000000e+09
1.580000000000000000e+02,4.090000000000000000e+02,5.130000000000000000e+02,4.490000000000000000e+02,1.800000000000000000e+02,7.200000000000000000e+01,7.000000000000000000e+01,8.400000000000000000e+01,4.000000000000000222e-01,9.751017700000000000e+09
1.350000000000000000e+02,3.680000000000000000e+02,6.210000000000000000e+02,3.820000000000000000e+02,1.710000000000000000e+02,6.900000000000000000e+01,7.000000000000000000e+01,7.500000000000000000e+01,3.900000000000000133e-01,9.770837000000000000e+09
1.130000000000000000e+02,2.800000000000000000e+02,6.230000000000000000e+02,3.720000000000000000e+02,1.680000000000000000e+02,6.700000000000000000e+01,7.400000000000000000e+01,6.800000000000000000e+01,3.800000000000000044e-01,9.794216000000000000e+09
1.190000000000000000e+02,2.230000000000000000e+02,6.480000000000000000e+02,3.720000000000000000e+02,1.710000000000000000e+02,5.900000000000000000e+01,6.500000000000000000e+01,6.300000000000000000e+01,3.699999999999999956e-01,9.813615200000000000e+09
1.250000000000000000e+02,1.540000000000000000e+02,6.270000000000000000e+02,3.400000000000000000e+02,1.680000000000000000e+02,5.600000000000000000e+01,6.200000000000000000e+01,5.800000000000000000e+01,3.699999999999999956e-01,9.833753600000000000e+09
1.050000000000000000e+02,1.050000000000000000e+02,6.610000000000000000e+02,3.040000000000000000e+02,1.370000000000000000e+02,2.500000000000000000e+02,6.500000000000000000e+01,4.100000000000000000e+01,3.599999999999999867e-01,9.854122400000000000e+09
1.000000000000000000e+02,9.700000000000000000e+01,5.410000000000000000e+02,2.930000000000000000e+02,1.280000000000000000e+02,5.280000000000000000e+02,1.610000000000000000e+02,6.100000000000000000e+01,3.699999999999999956e-01,9.873641100000000000e+09
1.040000000000000000e+02,8.300000000000000000e+01,5.290000000000000000e+02,2.810000000000000000e+02,1.200000000000000000e+02,5.950000000000000000e+02,2.790000000000000000e+02,7.400000000000000000e+01,3.900000000000000133e-01,9.893807100000000000e+09
9.800000000000000000e+01,8.600000000000000000e+01,5.470000000000000000e+02,2.560000000000000000e+02,1.210000000000000000e+02,6.210000000000000000e+02,3.000000000000000000e+02,7.700000000000000000e+01,4.000000000000000222e-01,9.912691800000000000e+09
8.700000000000000000e+01,1.020000000000000000e+02,6.060000000000000000e+02,1.880000000000000000e+02,1.140000000000000000e+02,7.020000000000000000e+02,3.470000000000000000e+02,7.700000000000000000e+01,4.099999999999999756e-01,9.935541900000000000e+09
7.000000000000000000e+01,1.180000000000000000e+02,5.750000000000000000e+02,2.140000000000000000e+02,1.150000000000000000e+02,6.740000000000000000e+02,3.720000000000000000e+02,8.200000000000000000e+01,4.400000000000000022e-01,9.954786500000000000e+09
7.300000000000000000e+01,1.210000000000000000e+02,5.940000000000000000e+02,2.150000000000000000e+02,1.280000000000000000e+02,4.990000000000000000e+02,3.470000000000000000e+02,7.200000000000000000e+01,4.500000000000000111e-01,9.974099800000000000e+09
6.700000000000000000e+01,1.230000000000000000e+02,5.560000000000000000e+02,2.210000000000000000e+02,1.440000000000000000e+02,4.900000000000000000e+02,2.710000000000000000e+02,5.900000000000000000e+01,4.699999999999999734e-01,9.993146200000000000e+09
7.100000000000000000e+01,1.160000000000000000e+02,5.420000000000000000e+02,2.150000000000000000e+02,1.480000000000000000e+02,4.680000000000000000e+02,2.640000000000000000e+02,5.700000000000000000e+01,4.899999999999999911e-01,1.001487040000000000e+10
6.800000000000000000e+01,1.020000000000000000e+02,4.520000000000000000e+02,2.230000000000000000e+02,1.620000000000000000e+02,3.650000000000000000e+02,2.330000000000000000e+02,5.700000000000000000e+01,5.100000000000000089e-01,1.003480480000000000e+10
7.400000000000000000e+01,7.800000000000000000e+01,4.330000000000000000e+02,2.220000000000000000e+02,1.590000000000000000e+02,4.230000000000000000e+02,1.970000000000000000e+02,7.300000000000000000e+01,5.300000000000000266e-01,1.005433410000000000e+10
1.360000000000000000e+02,8.700000000000000000e+01,4.540000000000000000e+02,2.220000000000000000e+02,1.530000000000000000e+02,4.400000000000000000e+02,2.390000000000000000e+02,9.400000000000000000e+01,5.500000000000000444e-01,1.007326000000000000e+10
1.410000000000000000e+02,8.400000000000000000e+01,5.440000000000000000e+02,2.220000000000000000e+02,1.360000000000000000e+02,3.630000000000000000e+02,2.580000000000000000e+02,9.700000000000000000e+01,5.600000000000000533e-01,1.009254090000000000e+10
1.430000000000000000e+02,8.800000000000000000e+01,5.610000000000000000e+02,2.230000000000000000e+02,1.330000000000000000e+02,3.580000000000000000e+02,2.740000000000000000e+02,1.450000000000000000e+02,5.699999999999999512e-01,1.011466520000000000e+10
1.540000000000000000e+02,8.800000000000000000e+01,5.600000000000000000e+02,2.250000000000000000e+02,1.120000000000000000e+02,3.390000000000000000e+02,3.730000000000000000e+02,2.090000000000000000e+02,5.699999999999999512e-01,1.013263920000000000e+10
1.540000000000000000e+02,8.800000000000000000e+01,5.490000000000000000e+02,2.100000000000000000e+02,1.270000000000000000e+02,3.210000000000000000e+02,4.680000000000000000e+02,2.880000000000000000e+02,5.600000000000000533e-01,1.015342700000000000e+10
1.050000000000000000e+02,1.010000000000000000e+02,5.270000000000000000e+02,2.490000000000000000e+02,1.540000000000000000e+02,2.920000000000000000e+02,4.540000000000000000e+02,7.930000000000000000e+02,5.500000000000000444e-01,1.017228430000000000e+10
1.770000000000000000e+02,1.210000000000000000e+02,4.860000000000000000e+02,3.430000000000000000e+02,1.700000000000000000e+02,3.090000000000000000e+02,4.710000000000000000e+02,9.330000000000000000e+02,5.300000000000000266e-01,1.020190790000000000e+10
1.850000000000000000e+02,1.270000000000000000e+02,4.320000000000000000e+02,3.750000000000000000e+02,1.860000000000000000e+02,3.800000000000000000e+02,4.680000000000000000e+02,9.510000000000000000e+02,5.100000000000000089e-01,1.022264720000000000e+10
2.040000000000000000e+02,1.400000000000000000e+02,4.700000000000000000e+02,3.780000000000000000e+02,1.900000000000000000e+02,3.810000000000000000e+02,3.850000000000000000e+02,1.079000000000000000e+03,4.899999999999999911e-01,1.024108460000000000e+10
2.000000000000000000e+02,1.440000000000000000e+02,5.030000000000000000e+02,3.750000000000000000e+02,1.850000000000000000e+02,3.140000000000000000e+02,2.630000000000000000e+02,1.138000000000000000e+03,4.799999999999999822e-01,1.026051970000000000e+10
2.000000000000000000e+02,1.270000000000000000e+02,4.870000000000000000e+02,3.440000000000000000e+02,1.630000000000000000e+02,3.150000000000000000e+02,2.490000000000000000e+02,8.770000000000000000e+02,4.600000000000000200e-01,1.027850560000000000e+10
1.680000000000000000e+02,1.280000000000000000e+02,4.910000000000000000e+02,2.440000000000000000e+02,1.450000000000000000e+02,3.070000000000000000e+02,1.780000000000000000e+02,7.380000000000000000e+02,4.400000000000000022e-01,1.029722100000000000e+10
1.570000000000000000e+02,1.420000000000000000e+02,4.870000000000000000e+02,1.840000000000000000e+02,1.140000000000000000e+02,2.500000000000000000e+02,1.310000000000000000e+02,7.080000000000000000e+02,4.199999999999999845e-01,1.031627940000000000e+10
1.220000000000000000e+02,1.320000000000000000e+02,4.370000000000000000e+02,1.470000000000000000e+02,1.120000000000000000e+02,2.410000000000000000e+02,1.030000000000000000e+02,4.740000000000000000e+02,4.000000000000000222e-01,1.033551370000000000e+10
1.230000000000000000e+02,1.400000000000000000e+02,4.070000000000000000e+02,1.510000000000000000e+02,1.260000000000000000e+02,2.250000000000000000e+02,9.400000000000000000e+01,2.360000000000000000e+02,3.800000000000000044e-01,1.035398230000000000e+10
1.210000000000000000e+02,1.410000000000000000e+02,4.190000000000000000e+02,1.940000000000000000e+02,1.240000000000000000e+02,2.070000000000000000e+02,8.100000000000000000e+01,1.800000000000000000e+02,3.699999999999999956e-01,1.037261390000000000e+10
7.000000000000000000e+01,1.300000000000000000e+02,4.200000000000000000e+02,2.050000000000000000e+02,1.230000000000000000e+02,1.840000000000000000e+02,9.900000000000000000e+01,1.240000000000000000e+02,3.699999999999999956e-01,1.039207050000000000e+10
8.100000000000000000e+01,1.130000000000000000e+02,4.540000000000000000e+02,2.200000000000000000e+02,1.270000000000000000e+02,1.160000000000000000e+02,1.110000000000000000e+02,1.130000000000000000e+02,3.800000000000000044e-01,1.041202760000000000e+10
8.200000000000000000e+01,1.140000000000000000e+02,5.150000000000000000e+02,2.380000000000000000e+02,1.240000000000000000e+02,1.370000000000000000e+02,1.190000000000000000e+02,1.040000000000000000e+02,3.900000000000000133e-01,1.043390890000000000e+10
8.000000000000000000e+01,9.700000000000000000e+01,5.470000000000000000e+02,2.370000000000000000e+02,1.120000000000000000e+02,1.570000000000000000e+02,1.230000000000000000e+02,9.000000000000000000e+01,4.000000000000000222e-01,1.045400120000000000e+10
1.170000000000000000e+02,1.040000000000000000e+02,5.670000000000000000e+02,2.100000000000000000e+02,1.200000000000000000e+02,2.440000000000000000e+02,1.900000000000000000e+02,1.180000000000000000e+02,4.099999999999999756e-01,1.047332920000000000e+10
