4.400000000000000000e+01,3.500000000000000000e+01,1.810000000000000000e+02,1.350000000000000000e+02,3.700000000000000000e+01,3.300000000000000000e+01,3.500000000000000000e+01,3.400000000000000000e+01,6.199999999999999956e-01,4.738714000000000000e+08
4.100000000000000000e+01,3.900000000000000000e+01,1.820000000000000000e+02,1.320000000000000000e+02,3.400000000000000000e+01,3.700000000000000000e+01,3.600000000000000000e+01,3.600000000000000000e+01,6.199999999999999956e-01,5.038553000000000000e+08
4.100000000000000000e+01,3.900000000000000000e+01,2.210000000000000000e+02,1.730000000000000000e+02,3.300000000000000000e+01,4.300000000000000000e+01,3.300000000000000000e+01,3.700000000000000000e+01,6.199999999999999956e-01,1.261728600000000000e+09
4.200000000000000000e+01,3.900000000000000000e+01,1.980000000000000000e+02,1.670000000000000000e+02,3.400000000000000000e+01,4.800000000000000000e+01,4.000000000000000000e+01,3.600000000000000000e+01,6.199999999999999956e-01,1.281317500000000000e+09
4.000000000000000000e+01,3.700000000000000000e+01,1.980000000000000000e+02,1.540000000000000000e+02,3.300000000000000000e+01,5.000000000000000000e+01,4.000000000000000000e+01,3.500000000000000000e+01,6.199999999999999956e-01,1.300742600000000000e+09
4.300000000000000000e+01,4.700000000000000000e+01,2.000000000000000000e+02,1.520000000000000000e+02,2.900000000000000000e+01,5.200000000000000000e+01,4.300000000000000000e+01,3.600000000000000000e+01,6.199999999999999956e-01,1.318578600000000000e+09
4.400000000000000000e+01,4.700000000000000000e+01,2.100000000000000000e+02,1.600000000000000000e+02,3.000000000000000000e+01,4.800000000000000000e+01,4.200000000000000000e+01,3.400000000000000000e+01,6.199999999999999956e-01,1.336979600000000000e+09
4.800000000000000000e+01,4.700000000000000000e+01,1.710000000000000000e+02,1.320000000000000000e+02,3.100000000000000000e+01,4.400000000000000000e+01,4.300000000000000000e+01,3.100000000000000000e+01,6.199999999999999956e-01,1.355199000000000000e+09
4.700000000000000000e+01,4.800000000000000000e+01,1.740000000000000000e+02,1.260000000000000000e+02,2.900000000000000000e+01,3.900000000000000000e+01,3.900000000000000000e+01,2.800000000000000000e+01,6.199999999999999956e-01,1.372873800000000000e+09
4.500000000000000000e+01,4.900000000000000000e+01,1.760000000000000000e+02,1.270000000000000000e+02,3.100000000000000000e+01,4.000000000000000000e+01,3.600000000000000000e+01,2.900000000000000000e+01,6.199999999999999956e-01,1.390879000000000000e+09
4.600000000000000000e+01,3.800000000000000000e+01,1.750000000000000000e+02,1.350000000000000000e+02,3.200000000000000000e+01,3.900000000000000000e+01,3.200000000000000000e+01,2.700000000000000000e+01,6.199999999999999956e-01,1.410069800000000000e+09
5.200000000000000000e+01,4.000000000000000000e+01,1.530000000000000000e+02,1.220000000000000000e+02,3.300000000000000000e+01,4.500000000000000000e+01,3.800000000000000000e+01,2.700000000000000000e+01,6.199999999999999956e-01,1.428731000000000000e+09
4.800000000000000000e+01,3.900000000000000000e+01,1.410000000000000000e+02,1.060000000000000000e+02,3.100000000000000000e+01,4.600000000000000000e+01,3.900000000000000000e+01,2.600000000000000000e+01,6.199999999999999956e-01,1.447231700000000000e+09
5.000000000000000000e+01,3.800000000000000000e+01,1.680000000000000000e+02,1.280000000000000000e+02,3.300000000000000000e+01,4.700000000000000000e+01,4.100000000000000000e+01,3.000000000000000000e+01,6.199999999999999956e-01,1.465156000000000000e+09
5.300000000000000000e+01,4.500000000000000000e+01,2.030000000000000000e+02,1.450000000000000000e+02,3.400000000000000000e+01,4.700000000000000000e+01,4.600000000000000000e+01,2.900000000000000000e+01,6.199999999999999956e-01,1.483119000000000000e+09
5.400000000000000000e+01,4.700000000000000000e+01,2.050000000000000000e+02,1.490000000000000000e+02,3.400000000000000000e+01,4.500000000000000000e+01,4.600000000000000000e+01,3.000000000000000000e+01,6.199999999999999956e-01,1.501299200000000000e+09
4.600000000000000000e+01,4.600000000000000000e+01,2.110000000000000000e+02,1.560000000000000000e+02,3.300000000000000000e+01,4.100000000000000000e+01,4.200000000000000000e+01,3.300000000000000000e+01,6.199999999999999956e-01,1.519519700000000000e+09
5.100000000000000000e+01,4.800000000000000000e+01,2.420000000000000000e+02,1.580000000000000000e+02,3.100000000000000000e+01,4.100000000000000000e+01,4.400000000000000000e+01,3.300000000000000000e+01,6.199999999999999956e-01,1.537664900000000000e+09
4.600000000000000000e+01,5.000000000000000000e+01,2.220000000000000000e+02,1.540000000000000000e+02,2.800000000000000000e+01,4.200000000000000000e+01,4.600000000000000000e+01,3.400000000000000000e+01,6.199999999999999956e-01,1.594022500000000000e+09
4.600000000000000000e+01,4.400000000000000000e+01,1.980000000000000000e+02,1.430000000000000000e+02,2.600000000000000000e+01,4.200000000000000000e+01,4.200000000000000000e+01,3.300000000000000000e+01,6.199999999999999956e-01,1.613232800000000000e+09
4.400000000000000000e+01,4.700000000000000000e+01,2.300000000000000000e+02,1.440000000000000000e+02,2.600000000000000000e+01,4.200000000000000000e+01,4.400000000000000000e+01,3.100000000000000000e+01,6.199999999999999956e-01,1.633661700000000000e+09
4.500000000000000000e+01,5.100000000000000000e+01,2.340000000000000000e+02,1.540000000000000000e+02,2.800000000000000000e+01,4.000000000000000000e+01,4.600000000000000000e+01,3.000000000000000000e+01,6.199999999999999956e-01,1.651726300000000000e+09
4.300000000000000000e+01,5.100000000000000000e+01,2.030000000000000000e+02,1.520000000000000000e+02,2.900000000000000000e+01,3.900000000000000000e+01,4.300000000000000000e+01,3.000000000000000000e+01,6.199999999999999956e-01,1.670190200000000000e+09
4.500000000000000000e+01,4.900000000000000000e+01,2.220000000000000000e+02,1.520000000000000000e+02,3.100000000000000000e+01,3.800000000000000000e+01,3.800000000000000000e+01,2.800000000000000000e+01,6.199999999999999956e-01,1.687559900000000000e+09
4.500000000000000000e+01,5.200000000000000000e+01,2.450000000000000000e+02,1.920000000000000000e+02,3.200000000000000000e+01,3.500000000000000000e+01,3.500000000000000000e+01,2.800000000000000000e+01,6.300000000000000044e-01,1.706175200000000000e+09
4.200000000000000000e+01,5.000000000000000000e+01,2.170000000000000000e+02,1.930000000000000000e+02,3.400000000000000000e+01,3.700000000000000000e+01,3.800000000000000000e+01,2.900000000000000000e+01,6.300000000000000044e-01,1.726518100000000000e+09
4.300000000000000000e+01,4.700000000000000000e+01,2.260000000000000000e+02,1.890000000000000000e+02,3.300000000000000000e+01,4.200000000000000000e+01,3.300000000000000000e+01,2.800000000000000000e+01,6.300000000000000044e-01,1.746303300000000000e+09
4.600000000000000000e+01,5.000000000000000000e+01,2.330000000000000000e+02,1.870000000000000000e+02,3.300000000000000000e+01,4.200000000000000000e+01,3.400000000000000000e+01,3.400000000000000000e+01,6.300000000000000044e-01,1.766072400000000000e+09
4.600000000000000000e+01,4.900000000000000000e+01,2.180000000000000000e+02,1.780000000000000000e+02,3.300000000000000000e+01,4.100000000000000000e+01,3.500000000000000000e+01,3.100000000000000000e+01,6.400000000000000133e-01,1.784800900000000000e+09
4.500000000000000000e+01,4.400000000000000000e+01,1.780000000000000000e+02,1.400000000000000000e+02,3.300000000000000000e+01,4.200000000000000000e+01,3.600000000000000000e+01,3.300000000000000000e+01,6.400000000000000133e-01,1.805005200000000000e+09
4.500000000000000000e+01,4.600000000000000000e+01,1.850000000000000000e+02,1.340000000000000000e+02,3.000000000000000000e+01,4.000000000000000000e+01,3.300000000000000000e+01,3.400000000000000000e+01,6.400000000000000133e-01,1.822894900000000000e+09
4.500000000000000000e+01,4.300000000000000000e+01,1.610000000000000000e+02,1.290000000000000000e+02,3.300000000000000000e+01,4.000000000000000000e+01,3.400000000000000000e+01,3.400000000000000000e+01,6.400000000000000133e-01,1.841675200000000000e+09
3.700000000000000000e+01,3.900000000000000000e+01,1.530000000000000000e+02,1.390000000000000000e+02,3.300000000000000000e+01,4.600000000000000000e+01,3.100000000000000000e+01,2.900000000000000000e+01,6.400000000000000133e-01,1.860305100000000000e+09
4.400000000000000000e+01,4.300000000000000000e+01,2.050000000000000000e+02,1.510000000000000000e+02,3.600000000000000000e+01,5.100000000000000000e+01,3.500000000000000000e+01,3.000000000000000000e+01,6.400000000000000133e-01,1.878118500000000000e+09
4.600000000000000000e+01,4.300000000000000000e+01,2.040000000000000000e+02,1.380000000000000000e+02,3.500000000000000000e+01,5.300000000000000000e+01,3.800000000000000000e+01,2.800000000000000000e+01,6.400000000000000133e-01,1.896720700000000000e+09
4.900000000000000000e+01,3.800000000000000000e+01,1.980000000000000000e+02,1.300000000000000000e+02,3.600000000000000000e+01,5.500000000000000000e+01,4.000000000000000000e+01,2.900000000000000000e+01,6.300000000000000044e-01,1.916696400000000000e+09
4.800000000000000000e+01,3.900000000000000000e+01,2.220000000000000000e+02,1.470000000000000000e+02,3.400000000000000000e+01,5.300000000000000000e+01,4.000000000000000000e+01,3.000000000000000000e+01,6.300000000000000044e-01,1.935942300000000000e+09
4.900000000000000000e+01,3.800000000000000000e+01,2.270000000000000000e+02,1.450000000000000000e+02,3.300000000000000000e+01,4.900000000000000000e+01,4.900000000000000000e+01,3.200000000000000000e+01,6.300000000000000044e-01,1.954085400000000000e+09
4.300000000000000000e+01,3.900000000000000000e+01,2.180000000000000000e+02,1.660000000000000000e+02,3.000000000000000000e+01,4.500000000000000000e+01,4.600000000000000000e+01,3.200000000000000000e+01,6.300000000000000044e-01,1.972482600000000000e+09
4.700000000000000000e+01,4.000000000000000000e+01,2.170000000000000000e+02,1.660000000000000000e+02,3.300000000000000000e+01,4.500000000000000000e+01,5.000000000000000000e+01,3.300000000000000000e+01,6.300000000000000044e-01,1.990606200000000000e+09
4.700000000000000000e+01,4.200000000000000000e+01,2.230000000000000000e+02,1.720000000000000000e+02,3.200000000000000000e+01,4.500000000000000000e+01,4.900000000000000000e+01,3.100000000000000000e+01,6.300000000000000044e-01,2.008651200000000000e+09
4.900000000000000000e+01,4.600000000000000000e+01,2.290000000000000000e+02,1.690000000000000000e+02,3.100000000000000000e+01,5.000000000000000000e+01,5.100000000000000000e+01,2.900000000000000000e+01,6.300000000000000044e-01,2.027775500000000000e+09
4.900000000000000000e+01,4.700000000000000000e+01,2.260000000000000000e+02,1.660000000000000000e+02,3.100000000000000000e+01,5.000000000000000000e+01,4.600000000000000000e+01,3.000000000000000000e+01,6.300000000000000044e-01,2.046660800000000000e+09
4.900000000000000000e+01,4.800000000000000000e+01,1.980000000000000000e+02,1.490000000000000000e+02,3.300000000000000000e+01,5.000000000000000000e+01,4.800000000000000000e+01,2.800000000000000000e+01,6.300000000000000044e-01,2.066511200000000000e+09
4.900000000000000000e+01,5.000000000000000000e+01,2.100000000000000000e+02,1.560000000000000000e+02,3.000000000000000000e+01,4.900000000000000000e+01,4.300000000000000000e+01,2.900000000000000000e+01,6.300000000000000044e-01,2.084405300000000000e+09
4.800000000000000000e+01,5.200000000000000000e+01,1.930000000000000000e+02,1.490000000000000000e+02,3.000000000000000000e+01,5.300000000000000000e+01,4.600000000000000000e+01,3.000000000000000000e+01,6.300000000000000044e-01,2.102811700000000000e+09
4.500000000000000000e+01,5.000000000000000000e+01,1.850000000000000000e+02,1.390000000000000000e+02,3.200000000000000000e+01,4.800000000000000000e+01,4.900000000000000000e+01,2.900000000000000000e+01,6.300000000000000044e-01,2.120718600000000000e+09
4.600000000000000000e+01,5.100000000000000000e+01,1.910000000000000000e+02,1.400000000000000000e+02,3.200000000000000000e+01,4.600000000000000000e+01,5.100000000000000000e+01,2.700000000000000000e+01,6.400000000000000133e-01,2.138499500000000000e+09
4.500000000000000000e+01,5.000000000000000000e+01,1.890000000000000000e+02,1.370000000000000000e+02,3.200000000000000000e+01,4.500000000000000000e+01,5.300000000000000000e+01,2.800000000000000000e+01,6.400000000000000133e-01,2.156160800000000000e+09
3.900000000000000000e+01,4.600000000000000000e+01,1.970000000000000000e+02,1.370000000000000000e+02,3.200000000000000000e+01,4.400000000000000000e+01,5.300000000000000000e+01,2.700000000000000000e+01,6.400000000000000133e-01,2.174235000000000000e+09
3.800000000000000000e+01,4.200000000000000000e+01,2.070000000000000000e+02,1.410000000000000000e+02,3.100000000000000000e+01,3.800000000000000000e+01,4.800000000000000000e+01,2.600000000000000000e+01,6.400000000000000133e-01,2.193493600000000000e+09
4.000000000000000000e+01,3.900000000000000000e+01,1.810000000000000000e+02,1.350000000000000000e+02,3.300000000000000000e+01,3.800000000000000000e+01,4.400000000000000000e+01,2.800000000000000000e+01,6.300000000000000044e-01,2.211558800000000000e+09
3.900000000000000000e+01,3.300000000000000000e+01,1.670000000000000000e+02,1.450000000000000000e+02,3.300000000000000000e+01,3.700000000000000000e+01,4.200000000000000000e+01,2.900000000000000000e+01,6.300000000000000044e-01,2.230794900000000000e+09
3.900000000000000000e+01,3.200000000000000000e+01,1.590000000000000000e+02,1.330000000000000000e+02,3.100000000000000000e+01,3.900000000000000000e+01,3.900000000000000000e+01,3.200000000000000000e+01,6.300000000000000044e-01,2.249684000000000000e+09
4.500000000000000000e+01,4.000000000000000000e+01,1.480000000000000000e+02,1.330000000000000000e+02,3.100000000000000000e+01,4.000000000000000000e+01,3.900000000000000000e+01,3.300000000000000000e+01,6.300000000000000044e-01,2.268469000000000000e+09
4.500000000000000000e+01,3.900000000000000000e+01,1.470000000000000000e+02,1.540000000000000000e+02,3.500000000000000000e+01,4.000000000000000000e+01,4.000000000000000000e+01,3.700000000000000000e+01,6.300000000000000044e-01,2.286926800000000000e+09
4.400000000000000000e+01,4.300000000000000000e+01,1.470000000000000000e+02,1.510000000000000000e+02,3.200000000000000000e+01,4.300000000000000000e+01,4.200000000000000000e+01,3.800000000000000000e+01,6.300000000000000044e-01,2.305132400000000000e+09
4.800000000000000000e+01,4.500000000000000000e+01,1.540000000000000000e+02,1.330000000000000000e+02,3.300000000000000000e+01,4.800000000000000000e+01,4.000000000000000000e+01,3.800000000000000000e+01,6.300000000000000044e-01,2.323687200000000000e+09
4.800000000000000000e+01,4.800000000000000000e+01,1.720000000000000000e+02,1.430000000000000000e+02,3.400000000000000000e+01,4.600000000000000000e+01,3.700000000000000000e+01,3.600000000000000000e+01,6.300000000000000044e-01,2.342825000000000000e+09
4.700000000000000000e+01,4.500000000000000000e+01,1.640000000000000000e+02,1.400000000000000000e+02,3.400000000000000000e+01,4.700000000000000000e+01,4.400000000000000000e+01,3.500000000000000000e+01,6.300000000000000044e-01,2.360593100000000000e+09
4.900000000000000000e+01,4.800000000000000000e+01,1.800000000000000000e+02,1.170000000000000000e+02,3.100000000000000000e+01,4.500000000000000000e+01,4.400000000000000000e+01,3.200000000000000000e+01,6.300000000000000044e-01,2.378079600000000000e+09
5.200000000000000000e+01,4.600000000000000000e+01,1.990000000000000000e+02,1.150000000000000000e+02,3.200000000000000000e+01,4.200000000000000000e+01,4.100000000000000000e+01,3.200000000000000000e+01,6.199999999999999956e-01,2.395055100000000000e+09
4.900000000000000000e+01,4.500000000000000000e+01,2.150000000000000000e+02,1.340000000000000000e+02,3.200000000000000000e+01,3.900000000000000000e+01,4.200000000000000000e+01,3.000000000000000000e+01,6.199999999999999956e-01,2.411622800000000000e+09
5.500000000000000000e+01,5.300000000000000000e+01,2.490000000000000000e+02,1.260000000000000000e+02,3.500000000000000000e+01,4.200000000000000000e+01,4.300000000000000000e+01,3.200000000000000000e+01,6.199999999999999956e-01,2.428580800000000000e+09
5.000000000000000000e+01,5.100000000000000000e+01,2.510000000000000000e+02,1.300000000000000000e+02,3.500000000000000000e+01,3.800000000000000000e+01,3.500000000000000000e+01,3.300000000000000000e+01,6.199999999999999956e-01,2.445735900000000000e+09
4.700000000000000000e+01,5.000000000000000000e+01,2.380000000000000000e+02,1.310000000000000000e+02,3.700000000000000000e+01,3.900000000000000000e+01,3.400000000000000000e+01,3.100000000000000000e+01,6.199999999999999956e-01,2.464538300000000000e+09
4.500000000000000000e+01,5.100000000000000000e+01,2.370000000000000000e+02,1.320000000000000000e+02,3.400000000000000000e+01,3.900000000000000000e+01,3.500000000000000000e+01,2.900000000000000000e+01,6.199999999999999956e-01,2.481896200000000000e+09
4.400000000000000000e+01,5.500000000000000000e+01,2.220000000000000000e+02,1.250000000000000000e+02,3.700000000000000000e+01,3.900000000000000000e+01,3.800000000000000000e+01,3.300000000000000000e+01,6.199999999999999956e-01,2.499335300000000000e+09
4.000000000000000000e+01,5.200000000000000000e+01,1.650000000000000000e+02,1.130000000000000000e+02,3.500000000000000000e+01,3.900000000000000000e+01,3.900000000000000000e+01,3.200000000000000000e+01,6.199999999999999956e-01,2.515717700000000000e+09
3.900000000000000000e+01,5.200000000000000000e+01,1.590000000000000000e+02,1.210000000000000000e+02,3.700000000000000000e+01,4.100000000000000000e+01,3.900000000000000000e+01,3.100000000000000000e+01,6.199999999999999956e-01,2.532183500000000000e+09
4.200000000000000000e+01,6.200000000000000000e+01,1.690000000000000000e+02,1.320000000000000000e+02,3.800000000000000000e+01,3.900000000000000000e+01,4.100000000000000000e+01,3.100000000000000000e+01,6.099999999999999867e-01,2.549485000000000000e+09
4.800000000000000000e+01,6.000000000000000000e+01,1.470000000000000000e+02,1.450000000000000000e+02,3.900000000000000000e+01,4.000000000000000000e+01,4.300000000000000000e+01,3.200000000000000000e+01,6.099999999999999867e-01,2.566233300000000000e+09
5.300000000000000000e+01,5.800000000000000000e+01,1.460000000000000000e+02,1.400000000000000000e+02,3.600000000000000000e+01,3.900000000000000000e+01,4.000000000000000000e+01,3.100000000000000000e+01,6.099999999999999867e-01,2.582956400000000000e+09
5.000000000000000000e+01,5.300000000000000000e+01,1.510000000000000000e+02,1.610000000000000000e+02,3.400000000000000000e+01,4.100000000000000000e+01,3.700000000000000000e+01,2.900000000000000000e+01,6.199999999999999956e-01,2.600720200000000000e+09
5.100000000000000000e+01,5.600000000000000000e+01,1.550000000000000000e+02,1.500000000000000000e+02,3.100000000000000000e+01,3.900000000000000000e+01,3.700000000000000000e+01,2.800000000000000000e+01,6.199999999999999956e-01,2.618016600000000000e+09
4.900000000000000000e+01,4.600000000000000000e+01,1.640000000000000000e+02,1.610000000000000000e+02,3.000000000000000000e+01,4.400000000000000000e+01,3.800000000000000000e+01,3.000000000000000000e+01,6.199999999999999956e-01,2.634704700000000000e+09
4.700000000000000000e+01,4.900000000000000000e+01,1.660000000000000000e+02,1.420000000000000000e+02,2.800000000000000000e+01,4.400000000000000000e+01,4.000000000000000000e+01,2.900000000000000000e+01,6.199999999999999956e-01,2.651517100000000000e+09
4.500000000000000000e+01,4.900000000000000000e+01,1.880000000000000000e+02,1.530000000000000000e+02,3.100000000000000000e+01,4.700000000000000000e+01,4.100000000000000000e+01,2.800000000000000000e+01,6.199999999999999956e-01,2.668499200000000000e+09
4.800000000000000000e+01,4.700000000000000000e+01,1.890000000000000000e+02,1.410000000000000000e+02,3.300000000000000000e+01,4.200000000000000000e+01,4.300000000000000000e+01,3.000000000000000000e+01,6.199999999999999956e-01,2.687158700000000000e+09
4.800000000000000000e+01,4.600000000000000000e+01,1.870000000000000000e+02,1.440000000000000000e+02,3.200000000000000000e+01,4.000000000000000000e+01,4.300000000000000000e+01,2.900000000000000000e+01,6.199999999999999956e-01,2.705730700000000000e+09
4.900000000000000000e+01,4.800000000000000000e+01,1.730000000000000000e+02,1.210000000000000000e+02,3.200000000000000000e+01,4.600000000000000000e+01,4.100000000000000000e+01,2.700000000000000000e+01,6.199999999999999956e-01,2.723711700000000000e+09
4.800000000000000000e+01,4.900000000000000000e+01,1.890000000000000000e+02,1.360000000000000000e+02,3.100000000000000000e+01,4.700000000000000000e+01,4.000000000000000000e+01,2.700000000000000000e+01,6.199999999999999956e-01,2.741184400000000000e+09
4.500000000000000000e+01,4.800000000000000000e+01,2.120000000000000000e+02,1.440000000000000000e+02,2.900000000000000000e+01,5.100000000000000000e+01,3.800000000000000000e+01,2.900000000000000000e+01,6.199999999999999956e-01,2.758736000000000000e+09
4.700000000000000000e+01,4.800000000000000000e+01,2.310000000000000000e+02,1.530000000000000000e+02,2.900000000000000000e+01,5.500000000000000000e+01,3.600000000000000000e+01,2.900000000000000000e+01,6.199999999999999956e-01,2.776437100000000000e+09
4.600000000000000000e+01,4.700000000000000000e+01,2.390000000000000000e+02,1.560000000000000000e+02,2.800000000000000000e+01,5.700000000000000000e+01,3.500000000000000000e+01,3.100000000000000000e+01,6.300000000000000044e-01,2.793675100000000000e+09
4.200000000000000000e+01,4.900000000000000000e+01,2.390000000000000000e+02,1.570000000000000000e+02,2.700000000000000000e+01,5.200000000000000000e+01,3.900000000000000000e+01,3.100000000000000000e+01,6.300000000000000044e-01,2.810694900000000000e+09
4.200000000000000000e+01,4.600000000000000000e+01,2.490000000000000000e+02,1.510000000000000000e+02,3.100000000000000000e+01,5.100000000000000000e+01,3.800000000000000000e+01,3.400000000000000000e+01,6.300000000000000044e-01,2.829903900000000000e+09
4.500000000000000000e+01,4.700000000000000000e+01,2.170000000000000000e+02,1.350000000000000000e+02,3.100000000000000000e+01,4.600000000000000000e+01,3.800000000000000000e+01,3.300000000000000000e+01,6.300000000000000044e-01,2.846844500000000000e+09
3.900000000000000000e+01,5.200000000000000000e+01,1.920000000000000000e+02,1.170000000000000000e+02,2.900000000000000000e+01,4.300000000000000000e+01,4.100000000000000000e+01,3.200000000000000000e+01,6.199999999999999956e-01,2.863327300000000000e+09
4.100000000000000000e+01,5.200000000000000000e+01,2.370000000000000000e+02,1.560000000000000000e+02,3.100000000000000000e+01,4.300000000000000000e+01,4.000000000000000000e+01,3.000000000000000000e+01,6.199999999999999956e-01,2.880888900000000000e+09
4.500000000000000000e+01,4.900000000000000000e+01,2.370000000000000000e+02,1.580000000000000000e+02,3.100000000000000000e+01,4.200000000000000000e+01,3.600000000000000000e+01,3.400000000000000000e+01,6.300000000000000044e-01,2.899300700000000000e+09
4.200000000000000000e+01,4.700000000000000000e+01,2.170000000000000000e+02,1.550000000000000000e+02,2.900000000000000000e+01,4.000000000000000000e+01,3.700000000000000000e+01,3.100000000000000000e+01,6.300000000000000044e-01,2.917276300000000000e+09
4.000000000000000000e+01,4.700000000000000000e+01,2.320000000000000000e+02,1.660000000000000000e+02,2.900000000000000000e+01,4.300000000000000000e+01,4.000000000000000000e+01,3.100000000000000000e+01,6.300000000000000044e-01,2.934418800000000000e+09
4.300000000000000000e+01,4.400000000000000000e+01,2.300000000000000000e+02,1.670000000000000000e+02,3.100000000000000000e+01,4.000000000000000000e+01,3.700000000000000000e+01,3.300000000000000000e+01,6.300000000000000044e-01,2.951309000000000000e+09
4.100000000000000000e+01,4.600000000000000000e+01,1.740000000000000000e+02,1.290000000000000000e+02,3.000000000000000000e+01,4.100000000000000000e+01,3.800000000000000000e+01,3.800000000000000000e+01,6.300000000000000044e-01,2.968675900000000000e+09
4.500000000000000000e+01,4.800000000000000000e+01,2.020000000000000000e+02,1.370000000000000000e+02,3.500000000000000000e+01,4.000000000000000000e+01,3.600000000000000000e+01,3.400000000000000000e+01,6.300000000000000044e-01,2.985272100000000000e+09
4.300000000000000000e+01,4.700000000000000000e+01,2.080000000000000000e+02,1.460000000000000000e+02,3.400000000000000000e+01,4.100000000000000000e+01,3.700000000000000000e+01,3.300000000000000000e+01,6.300000000000000044e-01,3.001921100000000000e+09
4.600000000000000000e+01,5.500000000000000000e+01,1.970000000000000000e+02,1.390000000000000000e+02,3.500000000000000000e+01,3.900000000000000000e+01,3.900000000000000000e+01,3.500000000000000000e+01,6.300000000000000044e-01,3.020029100000000000e+09
4.800000000000000000e+01,5.400000000000000000e+01,2.230000000000000000e+02,1.720000000000000000e+02,3.500000000000000000e+01,4.500000000000000000e+01,4.300000000000000000e+01,3.500000000000000000e+01,6.300000000000000044e-01,3.037270900000000000e+09
5.100000000000000000e+01,5.200000000000000000e+01,2.270000000000000000e+02,1.720000000000000000e+02,3.800000000000000000e+01,4.800000000000000000e+01,4.400000000000000000e+01,3.000000000000000000e+01,6.300000000000000044e-01,3.055240600000000000e+09
4.700000000000000000e+01,6.000000000000000000e+01,2.160000000000000000e+02,1.620000000000000000e+02,3.400000000000000000e+01,4.900000000000000000e+01,4.500000000000000000e+01,3.300000000000000000e+01,6.300000000000000044e-01,3.073408700000000000e+09
5.100000000000000000e+01,6.100000000000000000e+01,2.270000000000000000e+02,1.660000000000000000e+02,3.500000000000000000e+01,4.900000000000000000e+01,4.300000000000000000e+01,3.500000000000000000e+01,6.300000000000000044e-01,3.091369800000000000e+09
5.000000000000000000e+01,5.900000000000000000e+01,2.230000000000000000e+02,1.580000000000000000e+02,3.500000000000000000e+01,5.000000000000000000e+01,3.800000000000000000e+01,3.200000000000000000e+01,6.300000000000000044e-01,3.108097100000000000e+09
4.700000000000000000e+01,5.800000000000000000e+01,2.230000000000000000e+02,1.260000000000000000e+02,3.400000000000000000e+01,5.000000000000000000e+01,3.800000000000000000e+01,3.000000000000000000e+01,6.300000000000000044e-01,3.125177800000000000e+09
4.600000000000000000e+01,5.700000000000000000e+01,2.200000000000000000e+02,1.290000000000000000e+02,3.200000000000000000e+01,4.700000000000000000e+01,3.800000000000000000e+01,3.100000000000000000e+01,6.300000000000000044e-01,3.142438200000000000e+09
4.500000000000000000e+01,4.800000000000000000e+01,2.130000000000000000e+02,1.340000000000000000e+02,3.300000000000000000e+01,4.600000000000000000e+01,4.200000000000000000e+01,3.000000000000000000e+01,6.300000000000000044e-01,3.158786000000000000e+09
4.200000000000000000e+01,5.400000000000000000e+01,2.200000000000000000e+02,1.330000000000000000e+02,3.600000000000000000e+01,5.000000000000000000e+01,4.200000000000000000e+01,3.000000000000000000e+01,6.300000000000000044e-01,3.175964500000000000e+09
4.400000000000000000e+01,5.300000000000000000e+01,2.180000000000000000e+02,1.460000000000000000e+02,3.600000000000000000e+01,4.900000000000000000e+01,4.400000000000000000e+01,3.300000000000000000e+01,6.300000000000000044e-01,3.193652300000000000e+09
4.200000000000000000e+01,5.300000000000000000e+01,1.970000000000000000e+02,1.570000000000000000e+02,3.500000000000000000e+01,4.600000000000000000e+01,4.200000000000000000e+01,3.400000000000000000e+01,6.300000000000000044e-01,3.211520600000000000e+09
4.600000000000000000e+01,5.300000000000000000e+01,2.030000000000000000e+02,1.600000000000000000e+02,3.800000000000000000e+01,4.500000000000000000e+01,4.100000000000000000e+01,3.400000000000000000e+01,6.300000000000000044e-01,3.229501200000000000e+09
4.600000000000000000e+01,4.900000000000000000e+01,1.940000000000000000e+02,1.590000000000000000e+02,3.600000000000000000e+01,4.200000000000000000e+01,3.500000000000000000e+01,3.500000000000000000e+01,6.300000000000000044e-01,3.247834500000000000e+09
4.700000000000000000e+01,4.200000000000000000e+01,1.560000000000000000e+02,1.510000000000000000e+02,3.200000000000000000e+01,3.700000000000000000e+01,3.500000000000000000e+01,3.600000000000000000e+01,6.300000000000000044e-01,3.265196700000000000e+09
4.600000000000000000e+01,4.000000000000000000e+01,1.690000000000000000e+02,1.540000000000000000e+02,3.500000000000000000e+01,3.300000000000000000e+01,3.300000000000000000e+01,3.400000000000000000e+01,6.300000000000000044e-01,3.282491100000000000e+09
4.900000000000000000e+01,4.200000000000000000e+01,1.670000000000000000e+02,1.620000000000000000e+02,3.600000000000000000e+01,3.700000000000000000e+01,3.200000000000000000e+01,3.400000000000000000e+01,6.300000000000000044e-01,3.298764400000000000e+09
4.200000000000000000e+01,4.400000000000000000e+01,1.610000000000000000e+02,1.590000000000000000e+02,3.200000000000000000e+01,3.800000000000000000e+01,3.700000000000000000e+01,3.600000000000000000e+01,6.300000000000000044e-01,3.316404000000000000e+09
4.100000000000000000e+01,4.600000000000000000e+01,1.760000000000000000e+02,1.560000000000000000e+02,3.200000000000000000e+01,4.100000000000000000e+01,3.700000000000000000e+01,3.500000000000000000e+01,6.300000000000000044e-01,3.334981800000000000e+09
4.100000000000000000e+01,4.600000000000000000e+01,1.790000000000000000e+02,1.540000000000000000e+02,3.300000000000000000e+01,4.100000000000000000e+01,3.900000000000000000e+01,3.300000000000000000e+01,6.300000000000000044e-01,3.352744600000000000e+09
3.700000000000000000e+01,4.300000000000000000e+01,1.600000000000000000e+02,1.360000000000000000e+02,2.800000000000000000e+01,4.500000000000000000e+01,4.000000000000000000e+01,3.100000000000000000e+01,6.300000000000000044e-01,3.370594500000000000e+09
3.400000000000000000e+01,4.100000000000000000e+01,1.590000000000000000e+02,1.150000000000000000e+02,2.700000000000000000e+01,4.600000000000000000e+01,4.200000000000000000e+01,2.900000000000000000e+01,6.300000000000000044e-01,3.387697100000000000e+09
3.600000000000000000e+01,4.400000000000000000e+01,1.540000000000000000e+02,1.170000000000000000e+02,2.700000000000000000e+01,5.200000000000000000e+01,4.100000000000000000e+01,2.800000000000000000e+01,6.300000000000000044e-01,3.404892400000000000e+09
3.600000000000000000e+01,4.400000000000000000e+01,1.510000000000000000e+02,1.200000000000000000e+02,2.700000000000000000e+01,5.100000000000000000e+01,4.200000000000000000e+01,2.700000000000000000e+01,6.300000000000000044e-01,3.423018000000000000e+09
3.800000000000000000e+01,4.700000000000000000e+01,1.860000000000000000e+02,1.390000000000000000e+02,2.800000000000000000e+01,5.300000000000000000e+01,4.100000000000000000e+01,2.700000000000000000e+01,6.300000000000000044e-01,3.440623500000000000e+09
4.400000000000000000e+01,4.600000000000000000e+01,2.060000000000000000e+02,1.650000000000000000e+02,3.100000000000000000e+01,5.400000000000000000e+01,4.100000000000000000e+01,2.900000000000000000e+01,6.300000000000000044e-01,3.457709400000000000e+09
4.300000000000000000e+01,5.000000000000000000e+01,2.160000000000000000e+02,1.760000000000000000e+02,3.300000000000000000e+01,5.200000000000000000e+01,4.300000000000000000e+01,2.900000000000000000e+01,6.300000000000000044e-01,3.475037700000000000e+09
4.600000000000000000e+01,4.600000000000000000e+01,2.160000000000000000e+02,1.710000000000000000e+02,3.500000000000000000e+01,4.500000000000000000e+01,4.100000000000000000e+01,2.900000000000000000e+01,6.300000000000000044e-01,3.491719700000000000e+09
4.700000000000000000e+01,4.500000000000000000e+01,2.170000000000000000e+02,1.750000000000000000e+02,3.600000000000000000e+01,4.600000000000000000e+01,4.200000000000000000e+01,2.700000000000000000e+01,6.300000000000000044e-01,3.508694300000000000e+09
4.300000000000000000e+01,4.300000000000000000e+01,2.030000000000000000e+02,1.610000000000000000e+02,3.700000000000000000e+01,4.700000000000000000e+01,4.100000000000000000e+01,2.700000000000000000e+01,6.300000000000000044e-01,3.527715600000000000e+09
4.000000000000000000e+01,4.200000000000000000e+01,2.170000000000000000e+02,1.660000000000000000e+02,3.600000000000000000e+01,4.400000000000000000e+01,4.000000000000000000e+01,2.900000000000000000e+01,6.300000000000000044e-01,3.545709600000000000e+09
4.700000000000000000e+01,4.300000000000000000e+01,2.280000000000000000e+02,1.590000000000000000e+02,3.600000000000000000e+01,4.100000000000000000e+01,4.000000000000000000e+01,3.100000000000000000e+01,6.300000000000000044e-01,3.562832500000000000e+09
4.300000000000000000e+01,4.200000000000000000e+01,2.320000000000000000e+02,1.580000000000000000e+02,3.500000000000000000e+01,4.200000000000000000e+01,3.900000000000000000e+01,3.000000000000000000e+01,6.300000000000000044e-01,3.580634300000000000e+09
4.400000000000000000e+01,4.300000000000000000e+01,2.220000000000000000e+02,1.510000000000000000e+02,3.600000000000000000e+01,3.900000000000000000e+01,3.900000000000000000e+01,3.100000000000000000e+01,6.300000000000000044e-01,3.597142900000000000e+09
4.800000000000000000e+01,4.300000000000000000e+01,2.100000000000000000e+02,1.580000000000000000e+02,3.600000000000000000e+01,4.000000000000000000e+01,4.000000000000000000e+01,3.100000000000000000e+01,6.300000000000000044e-01,3.615160000000000000e+09
4.700000000000000000e+01,4.100000000000000000e+01,1.760000000000000000e+02,1.290000000000000000e+02,3.500000000000000000e+01,4.200000000000000000e+01,4.100000000000000000e+01,3.100000000000000000e+01,6.300000000000000044e-01,3.632252800000000000e+09
4.200000000000000000e+01,3.800000000000000000e+01,1.560000000000000000e+02,1.320000000000000000e+02,3.300000000000000000e+01,4.900000000000000000e+01,4.100000000000000000e+01,2.900000000000000000e+01,6.300000000000000044e-01,3.649295300000000000e+09
4.100000000000000000e+01,3.700000000000000000e+01,1.740000000000000000e+02,1.500000000000000000e+02,3.600000000000000000e+01,5.200000000000000000e+01,4.100000000000000000e+01,2.800000000000000000e+01,6.300000000000000044e-01,3.667051100000000000e+09
4.000000000000000000e+01,3.800000000000000000e+01,1.710000000000000000e+02,1.450000000000000000e+02,3.400000000000000000e+01,5.100000000000000000e+01,3.900000000000000000e+01,2.700000000000000000e+01,6.300000000000000044e-01,3.685268600000000000e+09
3.700000000000000000e+01,4.200000000000000000e+01,1.750000000000000000e+02,1.390000000000000000e+02,3.000000000000000000e+01,5.100000000000000000e+01,3.700000000000000000e+01,2.700000000000000000e+01,6.300000000000000044e-01,3.702832800000000000e+09
3.400000000000000000e+01,4.400000000000000000e+01,1.710000000000000000e+02,1.400000000000000000e+02,3.000000000000000000e+01,5.000000000000000000e+01,4.100000000000000000e+01,2.600000000000000000e+01,6.300000000000000044e-01,3.719914400000000000e+09
3.800000000000000000e+01,4.400000000000000000e+01,1.890000000000000000e+02,1.400000000000000000e+02,3.100000000000000000e+01,4.800000000000000000e+01,3.900000000000000000e+01,2.800000000000000000e+01,6.300000000000000044e-01,3.736400300000000000e+09
4.000000000000000000e+01,4.500000000000000000e+01,1.690000000000000000e+02,1.210000000000000000e+02,2.900000000000000000e+01,5.400000000000000000e+01,4.000000000000000000e+01,2.900000000000000000e+01,6.300000000000000044e-01,3.754185100000000000e+09
4.000000000000000000e+01,4.800000000000000000e+01,1.740000000000000000e+02,1.180000000000000000e+02,3.000000000000000000e+01,5.200000000000000000e+01,4.100000000000000000e+01,3.100000000000000000e+01,6.199999999999999956e-01,3.771449900000000000e+09
3.800000000000000000e+01,4.600000000000000000e+01,1.840000000000000000e+02,1.210000000000000000e+02,3.000000000000000000e+01,5.200000000000000000e+01,4.200000000000000000e+01,3.200000000000000000e+01,6.199999999999999956e-01,3.788920200000000000e+09
4.000000000000000000e+01,4.800000000000000000e+01,1.850000000000000000e+02,1.240000000000000000e+02,3.300000000000000000e+01,5.000000000000000000e+01,3.800000000000000000e+01,3.200000000000000000e+01,6.199999999999999956e-01,3.806289900000000000e+09
4.000000000000000000e+01,4.900000000000000000e+01,1.540000000000000000e+02,9.800000000000000000e+01,3.100000000000000000e+01,4.700000000000000000e+01,3.500000000000000000e+01,3.200000000000000000e+01,6.199999999999999956e-01,3.823682500000000000e+09
3.900000000000000000e+01,4.800000000000000000e+01,1.650000000000000000e+02,1.140000000000000000e+02,3.200000000000000000e+01,3.800000000000000000e+01,3.600000000000000000e+01,3.200000000000000000e+01,6.199999999999999956e-01,3.841214300000000000e+09
3.800000000000000000e+01,4.500000000000000000e+01,1.680000000000000000e+02,1.230000000000000000e+02,3.200000000000000000e+01,4.100000000000000000e+01,3.300000000000000000e+01,3.100000000000000000e+01,6.199999999999999956e-01,3.859724900000000000e+09
4.000000000000000000e+01,4.200000000000000000e+01,1.540000000000000000e+02,1.280000000000000000e+02,3.200000000000000000e+01,3.800000000000000000e+01,3.100000000000000000e+01,2.900000000000000000e+01,6.199999999999999956e-01,3.877939800000000000e+09
4.100000000000000000e+01,4.000000000000000000e+01,1.710000000000000000e+02,1.450000000000000000e+02,3.100000000000000000e+01,4.100000000000000000e+01,3.100000000000000000e+01,2.900000000000000000e+01,6.199999999999999956e-01,3.895831800000000000e+09
4.000000000000000000e+01,3.700000000000000000e+01,1.740000000000000000e+02,1.460000000000000000e+02,3.100000000000000000e+01,4.300000000000000000e+01,3.300000000000000000e+01,2.700000000000000000e+01,6.199999999999999956e-01,3.913600400000000000e+09
3.900000000000000000e+01,4.500000000000000000e+01,1.530000000000000000e+02,1.350000000000000000e+02,3.000000000000000000e+01,4.400000000000000000e+01,3.000000000000000000e+01,2.700000000000000000e+01,6.199999999999999956e-01,3.930362100000000000e+09
3.900000000000000000e+01,4.400000000000000000e+01,1.440000000000000000e+02,1.350000000000000000e+02,3.100000000000000000e+01,4.500000000000000000e+01,3.200000000000000000e+01,2.700000000000000000e+01,6.099999999999999867e-01,3.947884700000000000e+09
3.700000000000000000e+01,4.500000000000000000e+01,1.510000000000000000e+02,1.330000000000000000e+02,3.000000000000000000e+01,4.500000000000000000e+01,3.100000000000000000e+01,2.700000000000000000e+01,6.099999999999999867e-01,3.964479400000000000e+09
4.300000000000000000e+01,4.700000000000000000e+01,1.340000000000000000e+02,1.130000000000000000e+02,3.000000000000000000e+01,4.500000000000000000e+01,3.300000000000000000e+01,3.100000000000000000e+01,6.099999999999999867e-01,3.982028500000000000e+09
4.200000000000000000e+01,4.800000000000000000e+01,1.260000000000000000e+02,1.130000000000000000e+02,2.900000000000000000e+01,4.500000000000000000e+01,3.300000000000000000e+01,3.300000000000000000e+01,6.099999999999999867e-01,4.000240500000000000e+09
4.400000000000000000e+01,4.100000000000000000e+01,1.300000000000000000e+02,1.170000000000000000e+02,3.100000000000000000e+01,4.600000000000000000e+01,3.800000000000000000e+01,3.300000000000000000e+01,6.099999999999999867e-01,4.019183400000000000e+09
4.300000000000000000e+01,4.300000000000000000e+01,1.620000000000000000e+02,1.310000000000000000e+02,3.000000000000000000e+01,4.200000000000000000e+01,3.900000000000000000e+01,3.100000000000000000e+01,6.099999999999999867e-01,4.036063800000000000e+09
4.200000000000000000e+01,4.400000000000000000e+01,1.520000000000000000e+02,1.270000000000000000e+02,2.900000000000000000e+01,4.200000000000000000e+01,3.900000000000000000e+01,3.200000000000000000e+01,6.099999999999999867e-01,4.054178400000000000e+09
3.600000000000000000e+01,3.800000000000000000e+01,1.650000000000000000e+02,1.270000000000000000e+02,2.900000000000000000e+01,4.400000000000000000e+01,3.800000000000000000e+01,3.000000000000000000e+01,6.099999999999999867e-01,4.074763500000000000e+09
3.900000000000000000e+01,4.000000000000000000e+01,1.780000000000000000e+02,1.350000000000000000e+02,2.900000000000000000e+01,4.100000000000000000e+01,3.700000000000000000e+01,3.000000000000000000e+01,6.099999999999999867e-01,4.092570900000000000e+09
3.700000000000000000e+01,4.100000000000000000e+01,1.870000000000000000e+02,1.480000000000000000e+02,2.600000000000000000e+01,3.900000000000000000e+01,3.500000000000000000e+01,3.000000000000000000e+01,6.099999999999999867e-01,4.112002800000000000e+09
3.900000000000000000e+01,4.400000000000000000e+01,1.670000000000000000e+02,1.370000000000000000e+02,2.800000000000000000e+01,4.300000000000000000e+01,3.300000000000000000e+01,3.100000000000000000e+01,6.099999999999999867e-01,4.129979100000000000e+09
4.400000000000000000e+01,4.400000000000000000e+01,1.710000000000000000e+02,1.350000000000000000e+02,2.900000000000000000e+01,4.500000000000000000e+01,3.300000000000000000e+01,3.100000000000000000e+01,6.099999999999999867e-01,4.148079200000000000e+09
4.600000000000000000e+01,4.800000000000000000e+01,1.800000000000000000e+02,1.650000000000000000e+02,3.100000000000000000e+01,4.200000000000000000e+01,3.400000000000000000e+01,2.900000000000000000e+01,6.099999999999999867e-01,4.165656400000000000e+09
4.600000000000000000e+01,4.700000000000000000e+01,1.650000000000000000e+02,1.570000000000000000e+02,3.000000000000000000e+01,4.400000000000000000e+01,3.500000000000000000e+01,2.600000000000000000e+01,6.099999999999999867e-01,4.183084600000000000e+09
4.500000000000000000e+01,4.800000000000000000e+01,1.880000000000000000e+02,1.640000000000000000e+02,3.100000000000000000e+01,4.500000000000000000e+01,3.500000000000000000e+01,2.500000000000000000e+01,6.199999999999999956e-01,4.201323200000000000e+09
4.500000000000000000e+01,4.400000000000000000e+01,1.920000000000000000e+02,1.660000000000000000e+02,3.100000000000000000e+01,4.300000000000000000e+01,3.600000000000000000e+01,2.600000000000000000e+01,6.199999999999999956e-01,4.218999600000000000e+09
4.300000000000000000e+01,4.300000000000000000e+01,2.010000000000000000e+02,1.680000000000000000e+02,3.200000000000000000e+01,4.300000000000000000e+01,3.700000000000000000e+01,2.800000000000000000e+01,6.199999999999999956e-01,4.236845300000000000e+09
4.000000000000000000e+01,4.100000000000000000e+01,2.060000000000000000e+02,1.600000000000000000e+02,3.100000000000000000e+01,4.600000000000000000e+01,3.800000000000000000e+01,2.900000000000000000e+01,6.199999999999999956e-01,4.259278200000000000e+09
4.000000000000000000e+01,4.400000000000000000e+01,2.080000000000000000e+02,1.600000000000000000e+02,3.200000000000000000e+01,4.800000000000000000e+01,3.700000000000000000e+01,3.200000000000000000e+01,6.199999999999999956e-01,4.278535800000000000e+09
4.200000000000000000e+01,4.400000000000000000e+01,1.910000000000000000e+02,1.430000000000000000e+02,3.200000000000000000e+01,4.700000000000000000e+01,3.700000000000000000e+01,3.300000000000000000e+01,6.300000000000000044e-01,4.297347200000000000e+09
4.600000000000000000e+01,4.300000000000000000e+01,1.880000000000000000e+02,1.600000000000000000e+02,3.300000000000000000e+01,4.800000000000000000e+01,3.600000000000000000e+01,3.200000000000000000e+01,6.300000000000000044e-01,4.318388400000000000e+09
4.600000000000000000e+01,4.400000000000000000e+01,1.820000000000000000e+02,1.580000000000000000e+02,3.300000000000000000e+01,4.700000000000000000e+01,3.400000000000000000e+01,3.200000000000000000e+01,6.300000000000000044e-01,4.336220600000000000e+09
4.400000000000000000e+01,4.400000000000000000e+01,1.740000000000000000e+02,1.350000000000000000e+02,3.400000000000000000e+01,4.500000000000000000e+01,3.600000000000000000e+01,3.100000000000000000e+01,6.300000000000000044e-01,4.355073900000000000e+09
4.500000000000000000e+01,4.300000000000000000e+01,2.040000000000000000e+02,1.650000000000000000e+02,3.300000000000000000e+01,4.300000000000000000e+01,3.800000000000000000e+01,3.100000000000000000e+01,6.300000000000000044e-01,4.373774900000000000e+09
4.600000000000000000e+01,4.200000000000000000e+01,2.090000000000000000e+02,1.670000000000000000e+02,3.200000000000000000e+01,4.500000000000000000e+01,4.000000000000000000e+01,3.100000000000000000e+01,6.300000000000000044e-01,4.395989000000000000e+09
4.300000000000000000e+01,4.200000000000000000e+01,2.130000000000000000e+02,1.650000000000000000e+02,3.200000000000000000e+01,4.700000000000000000e+01,4.000000000000000000e+01,3.200000000000000000e+01,6.300000000000000044e-01,4.418060400000000000e+09
4.300000000000000000e+01,3.900000000000000000e+01,2.150000000000000000e+02,1.650000000000000000e+02,3.000000000000000000e+01,4.900000000000000000e+01,4.100000000000000000e+01,3.100000000000000000e+01,6.300000000000000044e-01,4.435835600000000000e+09
4.700000000000000000e+01,4.000000000000000000e+01,2.300000000000000000e+02,1.780000000000000000e+02,2.900000000000000000e+01,5.000000000000000000e+01,4.100000000000000000e+01,3.100000000000000000e+01,6.300000000000000044e-01,4.456372900000000000e+09
4.600000000000000000e+01,3.700000000000000000e+01,2.070000000000000000e+02,1.630000000000000000e+02,3.000000000000000000e+01,4.800000000000000000e+01,3.900000000000000000e+01,3.100000000000000000e+01,6.300000000000000044e-01,4.474588600000000000e+09
4.400000000000000000e+01,3.900000000000000000e+01,2.000000000000000000e+02,1.540000000000000000e+02,3.000000000000000000e+01,4.800000000000000000e+01,3.500000000000000000e+01,3.000000000000000000e+01,6.300000000000000044e-01,4.495835200000000000e+09
4.500000000000000000e+01,4.000000000000000000e+01,2.000000000000000000e+02,1.410000000000000000e+02,2.700000000000000000e+01,4.400000000000000000e+01,3.600000000000000000e+01,3.000000000000000000e+01,6.300000000000000044e-01,4.518022100000000000e+09
4.600000000000000000e+01,4.300000000000000000e+01,1.940000000000000000e+02,1.410000000000000000e+02,3.200000000000000000e+01,4.600000000000000000e+01,3.700000000000000000e+01,2.800000000000000000e+01,6.300000000000000044e-01,4.536435700000000000e+09
4.200000000000000000e+01,4.300000000000000000e+01,1.790000000000000000e+02,1.330000000000000000e+02,3.300000000000000000e+01,4.400000000000000000e+01,3.700000000000000000e+01,2.900000000000000000e+01,6.300000000000000044e-01,4.555431800000000000e+09
3.800000000000000000e+01,4.100000000000000000e+01,1.880000000000000000e+02,1.490000000000000000e+02,3.100000000000000000e+01,4.500000000000000000e+01,3.700000000000000000e+01,2.900000000000000000e+01,6.300000000000000044e-01,4.573687900000000000e+09
3.700000000000000000e+01,3.700000000000000000e+01,1.850000000000000000e+02,1.460000000000000000e+02,3.300000000000000000e+01,4.300000000000000000e+01,3.800000000000000000e+01,3.100000000000000000e+01,6.300000000000000044e-01,4.595885600000000000e+09
3.300000000000000000e+01,3.700000000000000000e+01,1.760000000000000000e+02,1.470000000000000000e+02,3.400000000000000000e+01,4.700000000000000000e+01,3.700000000000000000e+01,2.900000000000000000e+01,6.300000000000000044e-01,4.618015300000000000e+09
3.300000000000000000e+01,3.800000000000000000e+01,2.070000000000000000e+02,1.580000000000000000e+02,3.200000000000000000e+01,4.700000000000000000e+01,3.500000000000000000e+01,3.200000000000000000e+01,6.300000000000000044e-01,4.636704300000000000e+09
4.000000000000000000e+01,4.100000000000000000e+01,1.980000000000000000e+02,1.450000000000000000e+02,3.300000000000000000e+01,5.000000000000000000e+01,3.500000000000000000e+01,3.300000000000000000e+01,6.300000000000000044e-01,4.655449800000000000e+09
4.100000000000000000e+01,4.400000000000000000e+01,2.060000000000000000e+02,1.300000000000000000e+02,3.500000000000000000e+01,4.900000000000000000e+01,3.400000000000000000e+01,3.200000000000000000e+01,6.300000000000000044e-01,4.679132200000000000e+09
4.600000000000000000e+01,4.900000000000000000e+01,2.160000000000000000e+02,1.370000000000000000e+02,3.700000000000000000e+01,4.700000000000000000e+01,3.900000000000000000e+01,3.400000000000000000e+01,6.300000000000000044e-01,4.697431500000000000e+09
5.400000000000000000e+01,4.900000000000000000e+01,2.570000000000000000e+02,1.390000000000000000e+02,3.500000000000000000e+01,4.500000000000000000e+01,4.100000000000000000e+01,3.300000000000000000e+01,6.300000000000000044e-01,4.714892200000000000e+09
5.200000000000000000e+01,4.800000000000000000e+01,2.270000000000000000e+02,1.230000000000000000e+02,3.300000000000000000e+01,4.300000000000000000e+01,4.400000000000000000e+01,3.000000000000000000e+01,6.300000000000000044e-01,4.733026300000000000e+09
5.000000000000000000e+01,4.400000000000000000e+01,2.230000000000000000e+02,1.290000000000000000e+02,3.300000000000000000e+01,4.400000000000000000e+01,4.200000000000000000e+01,3.100000000000000000e+01,6.300000000000000044e-01,4.752984100000000000e+09
5.600000000000000000e+01,4.100000000000000000e+01,2.530000000000000000e+02,1.520000000000000000e+02,3.200000000000000000e+01,4.800000000000000000e+01,4.100000000000000000e+01,3.000000000000000000e+01,6.300000000000000044e-01,4.775141900000000000e+09
5.100000000000000000e+01,4.100000000000000000e+01,2.460000000000000000e+02,1.490000000000000000e+02,2.900000000000000000e+01,4.800000000000000000e+01,3.900000000000000000e+01,2.700000000000000000e+01,6.300000000000000044e-01,4.797666100000000000e+09
4.200000000000000000e+01,4.200000000000000000e+01,2.000000000000000000e+02,1.390000000000000000e+02,3.000000000000000000e+01,4.700000000000000000e+01,3.800000000000000000e+01,2.800000000000000000e+01,6.300000000000000044e-01,4.816460000000000000e+09
5.000000000000000000e+01,4.200000000000000000e+01,2.180000000000000000e+02,1.630000000000000000e+02,3.100000000000000000e+01,4.600000000000000000e+01,3.600000000000000000e+01,3.100000000000000000e+01,6.300000000000000044e-01,4.836492900000000000e+09
4.600000000000000000e+01,4.100000000000000000e+01,2.160000000000000000e+02,1.610000000000000000e+02,3.100000000000000000e+01,4.200000000000000000e+01,3.600000000000000000e+01,3.100000000000000000e+01,6.300000000000000044e-01,4.856645400000000000e+09
3.900000000000000000e+01,4.500000000000000000e+01,1.800000000000000000e+02,1.340000000000000000e+02,3.000000000000000000e+01,3.900000000000000000e+01,3.900000000000000000e+01,3.100000000000000000e+01,6.300000000000000044e-01,4.876770200000000000e+09
3.900000000000000000e+01,4.300000000000000000e+01,1.740000000000000000e+02,1.360000000000000000e+02,3.000000000000000000e+01,4.200000000000000000e+01,3.800000000000000000e+01,3.200000000000000000e+01,6.199999999999999956e-01,4.897384500000000000e+09
4.300000000000000000e+01,4.200000000000000000e+01,1.740000000000000000e+02,1.350000000000000000e+02,3.200000000000000000e+01,4.300000000000000000e+01,4.000000000000000000e+01,3.000000000000000000e+01,6.199999999999999956e-01,4.916238900000000000e+09
3.700000000000000000e+01,4.200000000000000000e+01,1.930000000000000000e+02,1.290000000000000000e+02,3.200000000000000000e+01,4.700000000000000000e+01,3.800000000000000000e+01,3.000000000000000000e+01,6.199999999999999956e-01,4.935006200000000000e+09
3.800000000000000000e+01,4.500000000000000000e+01,2.110000000000000000e+02,1.410000000000000000e+02,3.200000000000000000e+01,4.500000000000000000e+01,3.800000000000000000e+01,2.900000000000000000e+01,6.199999999999999956e-01,4.961219600000000000e+09
3.900000000000000000e+01,4.400000000000000000e+01,1.880000000000000000e+02,1.330000000000000000e+02,3.200000000000000000e+01,4.700000000000000000e+01,3.800000000000000000e+01,2.900000000000000000e+01,6.199999999999999956e-01,4.993056700000000000e+09
4.200000000000000000e+01,4.400000000000000000e+01,1.840000000000000000e+02,1.340000000000000000e+02,3.400000000000000000e+01,4.400000000000000000e+01,3.900000000000000000e+01,2.900000000000000000e+01,6.199999999999999956e-01,5.011159400000000000e+09
4.400000000000000000e+01,4.500000000000000000e+01,1.980000000000000000e+02,1.430000000000000000e+02,3.400000000000000000e+01,4.700000000000000000e+01,3.500000000000000000e+01,2.900000000000000000e+01,6.199999999999999956e-01,5.029076400000000000e+09
4.400000000000000000e+01,4.600000000000000000e+01,1.570000000000000000e+02,1.220000000000000000e+02,3.500000000000000000e+01,4.500000000000000000e+01,3.500000000000000000e+01,3.400000000000000000e+01,6.199999999999999956e-01,5.047349400000000000e+09
4.500000000000000000e+01,4.700000000000000000e+01,1.460000000000000000e+02,1.110000000000000000e+02,3.400000000000000000e+01,4.800000000000000000e+01,3.600000000000000000e+01,3.400000000000000000e+01,6.199999999999999956e-01,5.065604000000000000e+09
4.600000000000000000e+01,5.100000000000000000e+01,1.650000000000000000e+02,1.220000000000000000e+02,3.400000000000000000e+01,4.600000000000000000e+01,3.500000000000000000e+01,3.600000000000000000e+01,6.199999999999999956e-01,5.085035800000000000e+09
4.600000000000000000e+01,5.200000000000000000e+01,1.790000000000000000e+02,1.210000000000000000e+02,3.200000000000000000e+01,4.500000000000000000e+01,3.400000000000000000e+01,3.600000000000000000e+01,6.199999999999999956e-01,5.102527900000000000e+09
4.100000000000000000e+01,4.800000000000000000e+01,1.590000000000000000e+02,1.140000000000000000e+02,2.900000000000000000e+01,4.300000000000000000e+01,3.200000000000000000e+01,3.700000000000000000e+01,6.199999999999999956e-01,5.121454200000000000e+09
5.400000000000000000e+01,4.800000000000000000e+01,2.100000000000000000e+02,1.330000000000000000e+02,2.900000000000000000e+01,4.700000000000000000e+01,3.500000000000000000e+01,3.300000000000000000e+01,6.199999999999999956e-01,5.140054200000000000e+09
5.600000000000000000e+01,4.900000000000000000e+01,2.120000000000000000e+02,1.380000000000000000e+02,3.000000000000000000e+01,5.200000000000000000e+01,3.400000000000000000e+01,3.300000000000000000e+01,6.199999999999999956e-01,5.157770500000000000e+09
5.300000000000000000e+01,4.500000000000000000e+01,2.070000000000000000e+02,1.440000000000000000e+02,3.000000000000000000e+01,5.300000000000000000e+01,3.400000000000000000e+01,3.100000000000000000e+01,6.199999999999999956e-01,5.177404000000000000e+09
5.400000000000000000e+01,4.700000000000000000e+01,1.940000000000000000e+02,1.420000000000000000e+02,2.800000000000000000e+01,5.400000000000000000e+01,3.400000000000000000e+01,3.200000000000000000e+01,6.199999999999999956e-01,5.196133200000000000e+09
5.600000000000000000e+01,5.100000000000000000e+01,2.140000000000000000e+02,1.480000000000000000e+02,3.100000000000000000e+01,5.200000000000000000e+01,3.500000000000000000e+01,3.100000000000000000e+01,6.199999999999999956e-01,5.217765800000000000e+09
4.100000000000000000e+01,5.100000000000000000e+01,1.860000000000000000e+02,1.330000000000000000e+02,2.900000000000000000e+01,4.600000000000000000e+01,3.300000000000000000e+01,2.900000000000000000e+01,6.199999999999999956e-01,5.235851600000000000e+09
4.000000000000000000e+01,4.600000000000000000e+01,1.920000000000000000e+02,1.340000000000000000e+02,2.700000000000000000e+01,4.100000000000000000e+01,3.400000000000000000e+01,3.000000000000000000e+01,6.199999999999999956e-01,5.256488600000000000e+09
4.300000000000000000e+01,5.600000000000000000e+01,2.030000000000000000e+02,1.440000000000000000e+02,3.100000000000000000e+01,4.000000000000000000e+01,3.200000000000000000e+01,3.300000000000000000e+01,6.199999999999999956e-01,5.276061000000000000e+09
4.000000000000000000e+01,5.000000000000000000e+01,2.070000000000000000e+02,1.410000000000000000e+02,3.100000000000000000e+01,3.900000000000000000e+01,3.400000000000000000e+01,3.000000000000000000e+01,6.199999999999999956e-01,5.295588700000000000e+09
4.000000000000000000e+01,4.800000000000000000e+01,2.060000000000000000e+02,1.330000000000000000e+02,3.200000000000000000e+01,3.900000000000000000e+01,3.700000000000000000e+01,3.100000000000000000e+01,6.199999999999999956e-01,5.317844300000000000e+09
4.200000000000000000e+01,4.500000000000000000e+01,1.970000000000000000e+02,1.550000000000000000e+02,3.300000000000000000e+01,4.500000000000000000e+01,3.900000000000000000e+01,3.200000000000000000e+01,6.199999999999999956e-01,5.335850200000000000e+09
4.300000000000000000e+01,4.800000000000000000e+01,1.820000000000000000e+02,1.550000000000000000e+02,3.500000000000000000e+01,4.200000000000000000e+01,3.900000000000000000e+01,3.000000000000000000e+01,6.199999999999999956e-01,5.355228900000000000e+09
4.200000000000000000e+01,3.800000000000000000e+01,2.440000000000000000e+02,2.100000000000000000e+02,3.300000000000000000e+01,4.200000000000000000e+01,3.800000000000000000e+01,3.000000000000000000e+01,6.300000000000000044e-01,5.374006700000000000e+09
4.400000000000000000e+01,4.300000000000000000e+01,2.450000000000000000e+02,2.170000000000000000e+02,3.400000000000000000e+01,4.400000000000000000e+01,3.900000000000000000e+01,3.500000000000000000e+01,6.300000000000000044e-01,5.395528300000000000e+09
4.200000000000000000e+01,4.300000000000000000e+01,2.320000000000000000e+02,2.170000000000000000e+02,3.100000000000000000e+01,4.500000000000000000e+01,3.700000000000000000e+01,3.400000000000000000e+01,6.300000000000000044e-01,5.417798900000000000e+09
4.400000000000000000e+01,4.700000000000000000e+01,2.650000000000000000e+02,2.350000000000000000e+02,3.100000000000000000e+01,4.400000000000000000e+01,3.900000000000000000e+01,3.500000000000000000e+01,6.300000000000000044e-01,5.435565800000000000e+09
4.300000000000000000e+01,4.600000000000000000e+01,2.700000000000000000e+02,2.300000000000000000e+02,3.000000000000000000e+01,4.700000000000000000e+01,4.200000000000000000e+01,3.800000000000000000e+01,6.400000000000000133e-01,5.454867300000000000e+09
4.200000000000000000e+01,4.600000000000000000e+01,2.020000000000000000e+02,1.630000000000000000e+02,2.900000000000000000e+01,4.500000000000000000e+01,4.400000000000000000e+01,3.700000000000000000e+01,6.400000000000000133e-01,5.474112100000000000e+09
4.000000000000000000e+01,4.600000000000000000e+01,2.170000000000000000e+02,1.650000000000000000e+02,3.100000000000000000e+01,4.900000000000000000e+01,4.700000000000000000e+01,3.300000000000000000e+01,6.400000000000000133e-01,5.495566400000000000e+09
4.400000000000000000e+01,4.900000000000000000e+01,2.340000000000000000e+02,1.700000000000000000e+02,3.200000000000000000e+01,4.800000000000000000e+01,4.800000000000000000e+01,3.100000000000000000e+01,6.400000000000000133e-01,5.517793600000000000e+09
4.000000000000000000e+01,4.800000000000000000e+01,2.100000000000000000e+02,1.340000000000000000e+02,3.200000000000000000e+01,4.700000000000000000e+01,4.400000000000000000e+01,3.000000000000000000e+01,6.400000000000000133e-01,5.535771900000000000e+09
4.500000000000000000e+01,5.600000000000000000e+01,2.370000000000000000e+02,1.600000000000000000e+02,3.100000000000000000e+01,4.900000000000000000e+01,4.600000000000000000e+01,3.100000000000000000e+01,6.500000000000000222e-01,5.554683000000000000e+09
4.800000000000000000e+01,5.400000000000000000e+01,2.500000000000000000e+02,1.670000000000000000e+02,3.200000000000000000e+01,5.100000000000000000e+01,4.900000000000000000e+01,3.300000000000000000e+01,6.500000000000000222e-01,5.573508500000000000e+09
4.900000000000000000e+01,5.200000000000000000e+01,2.330000000000000000e+02,1.630000000000000000e+02,3.200000000000000000e+01,4.700000000000000000e+01,4.600000000000000000e+01,3.400000000000000000e+01,6.500000000000000222e-01,5.596024100000000000e+09
4.500000000000000000e+01,5.100000000000000000e+01,2.190000000000000000e+02,1.650000000000000000e+02,3.000000000000000000e+01,5.000000000000000000e+01,4.600000000000000000e+01,3.800000000000000000e+01,6.500000000000000222e-01,5.614704600000000000e+09
4.900000000000000000e+01,5.700000000000000000e+01,2.090000000000000000e+02,1.560000000000000000e+02,3.100000000000000000e+01,4.800000000000000000e+01,4.700000000000000000e+01,3.800000000000000000e+01,6.500000000000000222e-01,5.634635700000000000e+09
4.400000000000000000e+01,5.000000000000000000e+01,1.750000000000000000e+02,1.360000000000000000e+02,3.100000000000000000e+01,4.300000000000000000e+01,4.200000000000000000e+01,3.700000000000000000e+01,6.500000000000000222e-01,5.653306700000000000e+09
3.900000000000000000e+01,4.900000000000000000e+01,1.550000000000000000e+02,1.230000000000000000e+02,3.300000000000000000e+01,4.400000000000000000e+01,3.600000000000000000e+01,3.700000000000000000e+01,6.400000000000000133e-01,5.676255200000000000e+09
4.300000000000000000e+01,5.000000000000000000e+01,1.770000000000000000e+02,1.290000000000000000e+02,3.100000000000000000e+01,4.400000000000000000e+01,3.400000000000000000e+01,3.600000000000000000e+01,6.400000000000000133e-01,5.694487400000000000e+09
4.400000000000000000e+01,5.000000000000000000e+01,1.970000000000000000e+02,1.240000000000000000e+02,3.000000000000000000e+01,4.100000000000000000e+01,3.700000000000000000e+01,3.400000000000000000e+01,6.400000000000000133e-01,5.715075600000000000e+09
4.000000000000000000e+01,4.300000000000000000e+01,1.960000000000000000e+02,1.220000000000000000e+02,2.900000000000000000e+01,4.100000000000000000e+01,4.000000000000000000e+01,3.300000000000000000e+01,6.400000000000000133e-01,5.734660800000000000e+09
4.100000000000000000e+01,4.300000000000000000e+01,1.890000000000000000e+02,1.130000000000000000e+02,3.000000000000000000e+01,4.100000000000000000e+01,3.900000000000000000e+01,2.900000000000000000e+01,6.400000000000000133e-01,5.754233100000000000e+09
4.300000000000000000e+01,4.400000000000000000e+01,1.870000000000000000e+02,1.170000000000000000e+02,2.800000000000000000e+01,3.800000000000000000e+01,4.200000000000000000e+01,3.000000000000000000e+01,6.300000000000000044e-01,5.776462800000000000e+09
4.100000000000000000e+01,4.300000000000000000e+01,1.960000000000000000e+02,1.250000000000000000e+02,3.000000000000000000e+01,3.900000000000000000e+01,4.200000000000000000e+01,2.800000000000000000e+01,6.300000000000000044e-01,5.795606000000000000e+09
4.500000000000000000e+01,4.000000000000000000e+01,1.870000000000000000e+02,1.280000000000000000e+02,3.200000000000000000e+01,3.500000000000000000e+01,3.800000000000000000e+01,2.700000000000000000e+01,6.300000000000000044e-01,5.815044400000000000e+09
5.200000000000000000e+01,4.400000000000000000e+01,1.920000000000000000e+02,1.300000000000000000e+02,3.200000000000000000e+01,3.900000000000000000e+01,3.300000000000000000e+01,2.900000000000000000e+01,6.300000000000000044e-01,5.833350900000000000e+09
5.200000000000000000e+01,4.100000000000000000e+01,1.950000000000000000e+02,1.320000000000000000e+02,3.000000000000000000e+01,3.700000000000000000e+01,3.300000000000000000e+01,3.000000000000000000e+01,6.199999999999999956e-01,5.853045600000000000e+09
5.100000000000000000e+01,4.100000000000000000e+01,1.940000000000000000e+02,1.310000000000000000e+02,3.000000000000000000e+01,4.100000000000000000e+01,3.500000000000000000e+01,3.000000000000000000e+01,6.199999999999999956e-01,5.875145600000000000e+09
4.800000000000000000e+01,4.400000000000000000e+01,1.680000000000000000e+02,1.110000000000000000e+02,3.000000000000000000e+01,4.600000000000000000e+01,3.900000000000000000e+01,3.200000000000000000e+01,6.199999999999999956e-01,5.897656500000000000e+09
4.400000000000000000e+01,4.600000000000000000e+01,1.490000000000000000e+02,9.400000000000000000e+01,2.900000000000000000e+01,5.000000000000000000e+01,3.900000000000000000e+01,3.200000000000000000e+01,6.199999999999999956e-01,5.916491200000000000e+09
3.600000000000000000e+01,4.500000000000000000e+01,1.460000000000000000e+02,1.000000000000000000e+02,2.800000000000000000e+01,4.900000000000000000e+01,4.000000000000000000e+01,3.200000000000000000e+01,6.099999999999999867e-01,5.935626400000000000e+09
4.300000000000000000e+01,4.600000000000000000e+01,1.690000000000000000e+02,1.180000000000000000e+02,3.300000000000000000e+01,5.100000000000000000e+01,4.100000000000000000e+01,3.200000000000000000e+01,6.099999999999999867e-01,5.954374500000000000e+09
4.400000000000000000e+01,4.700000000000000000e+01,1.700000000000000000e+02,1.290000000000000000e+02,3.300000000000000000e+01,5.200000000000000000e+01,4.000000000000000000e+01,2.900000000000000000e+01,6.099999999999999867e-01,5.975175500000000000e+09
4.500000000000000000e+01,4.400000000000000000e+01,1.710000000000000000e+02,1.360000000000000000e+02,3.200000000000000000e+01,5.000000000000000000e+01,3.900000000000000000e+01,2.700000000000000000e+01,6.099999999999999867e-01,5.997489600000000000e+09
4.900000000000000000e+01,4.300000000000000000e+01,1.800000000000000000e+02,1.460000000000000000e+02,3.400000000000000000e+01,4.800000000000000000e+01,3.900000000000000000e+01,2.800000000000000000e+01,6.099999999999999867e-01,6.016074700000000000e+09
4.900000000000000000e+01,4.900000000000000000e+01,1.830000000000000000e+02,1.470000000000000000e+02,3.400000000000000000e+01,4.700000000000000000e+01,3.800000000000000000e+01,2.600000000000000000e+01,6.099999999999999867e-01,6.033949000000000000e+09
4.200000000000000000e+01,5.000000000000000000e+01,1.680000000000000000e+02,1.450000000000000000e+02,3.000000000000000000e+01,4.500000000000000000e+01,3.600000000000000000e+01,2.600000000000000000e+01,6.099999999999999867e-01,6.053753900000000000e+09
4.200000000000000000e+01,5.000000000000000000e+01,1.650000000000000000e+02,1.360000000000000000e+02,3.200000000000000000e+01,4.200000000000000000e+01,3.600000000000000000e+01,2.700000000000000000e+01,6.099999999999999867e-01,6.075396200000000000e+09
4.200000000000000000e+01,4.900000000000000000e+01,1.680000000000000000e+02,1.260000000000000000e+02,3.200000000000000000e+01,3.700000000000000000e+01,3.300000000000000000e+01,3.000000000000000000e+01,6.099999999999999867e-01,6.097505300000000000e+09
3.700000000000000000e+01,4.800000000000000000e+01,2.050000000000000000e+02,1.760000000000000000e+02,3.100000000000000000e+01,4.100000000000000000e+01,3.400000000000000000e+01,2.700000000000000000e+01,6.099999999999999867e-01,6.123662600000000000e+09
3.800000000000000000e+01,4.000000000000000000e+01,2.030000000000000000e+02,1.730000000000000000e+02,3.200000000000000000e+01,4.200000000000000000e+01,3.600000000000000000e+01,3.000000000000000000e+01,6.199999999999999956e-01,6.141697400000000000e+09
3.900000000000000000e+01,3.800000000000000000e+01,2.010000000000000000e+02,1.660000000000000000e+02,3.400000000000000000e+01,4.500000000000000000e+01,3.600000000000000000e+01,3.100000000000000000e+01,6.199999999999999956e-01,6.159573000000000000e+09
3.800000000000000000e+01,4.100000000000000000e+01,2.130000000000000000e+02,1.690000000000000000e+02,3.300000000000000000e+01,4.600000000000000000e+01,3.500000000000000000e+01,3.200000000000000000e+01,6.199999999999999956e-01,6.178255000000000000e+09
3.800000000000000000e+01,4.300000000000000000e+01,2.220000000000000000e+02,1.770000000000000000e+02,3.400000000000000000e+01,4.800000000000000000e+01,3.800000000000000000e+01,3.200000000000000000e+01,6.199999999999999956e-01,6.196457800000000000e+09
3.900000000000000000e+01,4.400000000000000000e+01,1.950000000000000000e+02,1.340000000000000000e+02,3.500000000000000000e+01,4.300000000000000000e+01,3.700000000000000000e+01,3.200000000000000000e+01,6.199999999999999956e-01,6.218000900000000000e+09
3.600000000000000000e+01,4.900000000000000000e+01,1.950000000000000000e+02,1.390000000000000000e+02,3.500000000000000000e+01,4.500000000000000000e+01,3.600000000000000000e+01,3.200000000000000000e+01,6.199999999999999956e-01,6.236372900000000000e+09
4.000000000000000000e+01,5.400000000000000000e+01,1.940000000000000000e+02,1.370000000000000000e+02,3.200000000000000000e+01,5.000000000000000000e+01,3.800000000000000000e+01,3.200000000000000000e+01,6.300000000000000044e-01,6.255394500000000000e+09
3.800000000000000000e+01,5.400000000000000000e+01,1.900000000000000000e+02,1.490000000000000000e+02,3.300000000000000000e+01,5.000000000000000000e+01,4.300000000000000000e+01,3.100000000000000000e+01,6.300000000000000044e-01,6.274058000000000000e+09
4.000000000000000000e+01,5.300000000000000000e+01,1.660000000000000000e+02,1.370000000000000000e+02,3.100000000000000000e+01,4.900000000000000000e+01,4.200000000000000000e+01,2.900000000000000000e+01,6.300000000000000044e-01,6.295126700000000000e+09
3.800000000000000000e+01,5.500000000000000000e+01,1.470000000000000000e+02,1.240000000000000000e+02,2.900000000000000000e+01,5.600000000000000000e+01,4.500000000000000000e+01,2.900000000000000000e+01,6.300000000000000044e-01,6.317323100000000000e+09
4.200000000000000000e+01,6.000000000000000000e+01,1.570000000000000000e+02,1.270000000000000000e+02,2.800000000000000000e+01,5.400000000000000000e+01,4.700000000000000000e+01,2.900000000000000000e+01,6.300000000000000044e-01,6.335425000000000000e+09
3.900000000000000000e+01,5.900000000000000000e+01,1.640000000000000000e+02,1.270000000000000000e+02,3.200000000000000000e+01,5.200000000000000000e+01,4.700000000000000000e+01,2.800000000000000000e+01,6.300000000000000044e-01,6.353605200000000000e+09
3.800000000000000000e+01,5.700000000000000000e+01,1.730000000000000000e+02,1.270000000000000000e+02,2.900000000000000000e+01,4.900000000000000000e+01,4.400000000000000000e+01,3.100000000000000000e+01,6.300000000000000044e-01,6.372802200000000000e+09
3.700000000000000000e+01,5.800000000000000000e+01,2.060000000000000000e+02,1.460000000000000000e+02,3.200000000000000000e+01,4.900000000000000000e+01,4.400000000000000000e+01,3.200000000000000000e+01,6.300000000000000044e-01,6.395062800000000000e+09
3.900000000000000000e+01,5.600000000000000000e+01,2.070000000000000000e+02,1.470000000000000000e+02,3.200000000000000000e+01,4.100000000000000000e+01,4.200000000000000000e+01,3.300000000000000000e+01,6.300000000000000044e-01,6.417172100000000000e+09
3.600000000000000000e+01,4.500000000000000000e+01,1.880000000000000000e+02,1.400000000000000000e+02,3.300000000000000000e+01,4.000000000000000000e+01,4.100000000000000000e+01,3.100000000000000000e+01,6.300000000000000044e-01,6.435956700000000000e+09
3.500000000000000000e+01,4.300000000000000000e+01,1.780000000000000000e+02,1.360000000000000000e+02,2.800000000000000000e+01,3.500000000000000000e+01,4.300000000000000000e+01,3.200000000000000000e+01,6.300000000000000044e-01,6.455852300000000000e+09
3.700000000000000000e+01,4.600000000000000000e+01,1.820000000000000000e+02,1.300000000000000000e+02,2.900000000000000000e+01,3.500000000000000000e+01,4.200000000000000000e+01,3.000000000000000000e+01,6.300000000000000044e-01,6.474071500000000000e+09
3.900000000000000000e+01,4.700000000000000000e+01,1.590000000000000000e+02,1.320000000000000000e+02,2.600000000000000000e+01,3.600000000000000000e+01,4.100000000000000000e+01,2.900000000000000000e+01,6.300000000000000044e-01,6.495082500000000000e+09
4.000000000000000000e+01,4.800000000000000000e+01,1.900000000000000000e+02,1.410000000000000000e+02,2.900000000000000000e+01,4.200000000000000000e+01,4.100000000000000000e+01,2.900000000000000000e+01,6.300000000000000044e-01,6.517463900000000000e+09
4.200000000000000000e+01,5.000000000000000000e+01,2.030000000000000000e+02,1.390000000000000000e+02,2.700000000000000000e+01,4.100000000000000000e+01,3.800000000000000000e+01,3.600000000000000000e+01,6.300000000000000044e-01,6.535398500000000000e+09
4.300000000000000000e+01,4.900000000000000000e+01,2.030000000000000000e+02,1.440000000000000000e+02,3.200000000000000000e+01,4.400000000000000000e+01,3.900000000000000000e+01,3.900000000000000000e+01,6.300000000000000044e-01,6.553599100000000000e+09
4.600000000000000000e+01,5.000000000000000000e+01,1.900000000000000000e+02,1.460000000000000000e+02,3.200000000000000000e+01,4.500000000000000000e+01,3.700000000000000000e+01,3.900000000000000000e+01,6.300000000000000044e-01,6.573971700000000000e+09
4.800000000000000000e+01,4.900000000000000000e+01,1.970000000000000000e+02,1.440000000000000000e+02,3.600000000000000000e+01,4.500000000000000000e+01,3.700000000000000000e+01,3.900000000000000000e+01,6.300000000000000044e-01,6.596699100000000000e+09
4.600000000000000000e+01,5.900000000000000000e+01,1.720000000000000000e+02,1.320000000000000000e+02,3.400000000000000000e+01,4.200000000000000000e+01,3.800000000000000000e+01,3.800000000000000000e+01,6.300000000000000044e-01,6.614813400000000000e+09
4.900000000000000000e+01,6.200000000000000000e+01,1.690000000000000000e+02,1.490000000000000000e+02,3.600000000000000000e+01,4.400000000000000000e+01,3.800000000000000000e+01,3.200000000000000000e+01,6.300000000000000044e-01,6.633854500000000000e+09
4.800000000000000000e+01,6.500000000000000000e+01,1.680000000000000000e+02,1.510000000000000000e+02,3.300000000000000000e+01,4.200000000000000000e+01,3.400000000000000000e+01,2.900000000000000000e+01,6.300000000000000044e-01,6.653167000000000000e+09
4.900000000000000000e+01,6.300000000000000000e+01,1.670000000000000000e+02,1.500000000000000000e+02,3.200000000000000000e+01,4.400000000000000000e+01,3.400000000000000000e+01,3.000000000000000000e+01,6.300000000000000044e-01,6.674971200000000000e+09
4.800000000000000000e+01,6.500000000000000000e+01,1.570000000000000000e+02,1.480000000000000000e+02,3.300000000000000000e+01,4.600000000000000000e+01,3.700000000000000000e+01,3.000000000000000000e+01,6.300000000000000044e-01,6.696971800000000000e+09
4.900000000000000000e+01,5.900000000000000000e+01,1.690000000000000000e+02,1.620000000000000000e+02,3.600000000000000000e+01,4.400000000000000000e+01,3.600000000000000000e+01,3.100000000000000000e+01,6.300000000000000044e-01,6.715604200000000000e+09
4.700000000000000000e+01,5.300000000000000000e+01,1.660000000000000000e+02,1.500000000000000000e+02,3.300000000000000000e+01,4.300000000000000000e+01,3.500000000000000000e+01,3.300000000000000000e+01,6.300000000000000044e-01,6.733549700000000000e+09
4.800000000000000000e+01,5.400000000000000000e+01,1.690000000000000000e+02,1.620000000000000000e+02,3.600000000000000000e+01,4.500000000000000000e+01,3.700000000000000000e+01,3.200000000000000000e+01,6.300000000000000044e-01,6.752987900000000000e+09
4.100000000000000000e+01,5.400000000000000000e+01,1.690000000000000000e+02,1.550000000000000000e+02,3.700000000000000000e+01,4.500000000000000000e+01,3.800000000000000000e+01,2.900000000000000000e+01,6.300000000000000044e-01,6.774745400000000000e+09
4.000000000000000000e+01,5.100000000000000000e+01,1.750000000000000000e+02,1.470000000000000000e+02,3.500000000000000000e+01,4.300000000000000000e+01,3.600000000000000000e+01,3.100000000000000000e+01,6.300000000000000044e-01,6.797027400000000000e+09
3.800000000000000000e+01,4.800000000000000000e+01,1.780000000000000000e+02,1.370000000000000000e+02,3.300000000000000000e+01,4.900000000000000000e+01,3.400000000000000000e+01,3.000000000000000000e+01,6.300000000000000044e-01,6.815302000000000000e+09
3.700000000000000000e+01,5.700000000000000000e+01,1.900000000000000000e+02,1.460000000000000000e+02,3.300000000000000000e+01,4.900000000000000000e+01,3.400000000000000000e+01,2.700000000000000000e+01,6.300000000000000044e-01,6.833404900000000000e+09
3.800000000000000000e+01,5.300000000000000000e+01,1.980000000000000000e+02,1.390000000000000000e+02,3.200000000000000000e+01,4.800000000000000000e+01,3.400000000000000000e+01,2.900000000000000000e+01,6.300000000000000044e-01,6.853392300000000000e+09
3.800000000000000000e+01,5.300000000000000000e+01,2.070000000000000000e+02,1.360000000000000000e+02,3.000000000000000000e+01,4.600000000000000000e+01,3.500000000000000000e+01,3.100000000000000000e+01,6.300000000000000044e-01,6.875820800000000000e+09
4.000000000000000000e+01,5.300000000000000000e+01,1.960000000000000000e+02,1.250000000000000000e+02,2.900000000000000000e+01,4.800000000000000000e+01,3.600000000000000000e+01,3.000000000000000000e+01,6.300000000000000044e-01,6.897868600000000000e+09
4.400000000000000000e+01,5.300000000000000000e+01,1.970000000000000000e+02,1.350000000000000000e+02,3.000000000000000000e+01,4.300000000000000000e+01,3.400000000000000000e+01,3.100000000000000000e+01,6.300000000000000044e-01,6.916213300000000000e+09
4.400000000000000000e+01,5.100000000000000000e+01,2.010000000000000000e+02,1.280000000000000000e+02,3.000000000000000000e+01,4.300000000000000000e+01,3.600000000000000000e+01,3.400000000000000000e+01,6.300000000000000044e-01,6.934615300000000000e+09
4.300000000000000000e+01,4.900000000000000000e+01,1.910000000000000000e+02,1.230000000000000000e+02,2.900000000000000000e+01,4.500000000000000000e+01,3.500000000000000000e+01,3.300000000000000000e+01,6.300000000000000044e-01,6.953701000000000000e+09
4.500000000000000000e+01,4.700000000000000000e+01,1.840000000000000000e+02,1.440000000000000000e+02,3.000000000000000000e+01,4.700000000000000000e+01,3.400000000000000000e+01,3.100000000000000000e+01,6.300000000000000044e-01,6.975713400000000000e+09
4.500000000000000000e+01,5.300000000000000000e+01,1.860000000000000000e+02,1.500000000000000000e+02,3.200000000000000000e+01,4.400000000000000000e+01,3.100000000000000000e+01,3.200000000000000000e+01,6.300000000000000044e-01,6.998212600000000000e+09
4.100000000000000000e+01,5.600000000000000000e+01,1.780000000000000000e+02,1.430000000000000000e+02,3.000000000000000000e+01,4.800000000000000000e+01,3.200000000000000000e+01,3.100000000000000000e+01,6.300000000000000044e-01,7.016812800000000000e+09
4.200000000000000000e+01,4.900000000000000000e+01,1.840000000000000000e+02,1.380000000000000000e+02,3.100000000000000000e+01,5.000000000000000000e+01,3.100000000000000000e+01,3.000000000000000000e+01,6.300000000000000044e-01,7.035607400000000000e+09
4.500000000000000000e+01,5.400000000000000000e+01,2.170000000000000000e+02,1.560000000000000000e+02,3.100000000000000000e+01,5.200000000000000000e+01,3.000000000000000000e+01,3.100000000000000000e+01,6.300000000000000044e-01,7.053989500000000000e+09
4.600000000000000000e+01,5.400000000000000000e+01,2.120000000000000000e+02,1.390000000000000000e+02,3.200000000000000000e+01,5.000000000000000000e+01,3.100000000000000000e+01,3.200000000000000000e+01,6.300000000000000044e-01,7.075864800000000000e+09
4.600000000000000000e+01,4.600000000000000000e+01,2.110000000000000000e+02,1.420000000000000000e+02,3.000000000000000000e+01,5.100000000000000000e+01,3.300000000000000000e+01,3.200000000000000000e+01,6.300000000000000044e-01,7.097966300000000000e+09
4.700000000000000000e+01,4.400000000000000000e+01,2.150000000000000000e+02,1.440000000000000000e+02,3.100000000000000000e+01,4.800000000000000000e+01,3.500000000000000000e+01,3.100000000000000000e+01,6.300000000000000044e-01,7.116308400000000000e+09
4.400000000000000000e+01,4.700000000000000000e+01,1.830000000000000000e+02,1.430000000000000000e+02,2.900000000000000000e+01,4.700000000000000000e+01,3.500000000000000000e+01,3.200000000000000000e+01,6.300000000000000044e-01,7.134460900000000000e+09
4.100000000000000000e+01,4.600000000000000000e+01,1.390000000000000000e+02,1.310000000000000000e+02,2.900000000000000000e+01,4.200000000000000000e+01,3.400000000000000000e+01,3.200000000000000000e+01,6.300000000000000044e-01,7.157762000000000000e+09
4.200000000000000000e+01,4.400000000000000000e+01,1.570000000000000000e+02,1.250000000000000000e+02,3.100000000000000000e+01,4.200000000000000000e+01,3.200000000000000000e+01,3.200000000000000000e+01,6.300000000000000044e-01,7.176078800000000000e+09
4.300000000000000000e+01,4.700000000000000000e+01,1.680000000000000000e+02,1.180000000000000000e+02,3.200000000000000000e+01,4.100000000000000000e+01,3.100000000000000000e+01,3.100000000000000000e+01,6.300000000000000044e-01,7.198160300000000000e+09
4.300000000000000000e+01,4.500000000000000000e+01,1.490000000000000000e+02,1.080000000000000000e+02,3.200000000000000000e+01,4.000000000000000000e+01,3.000000000000000000e+01,3.100000000000000000e+01,6.199999999999999956e-01,7.217407300000000000e+09
4.300000000000000000e+01,4.100000000000000000e+01,1.630000000000000000e+02,1.100000000000000000e+02,3.200000000000000000e+01,4.000000000000000000e+01,3.400000000000000000e+01,3.300000000000000000e+01,6.199999999999999956e-01,7.235763800000000000e+09
4.300000000000000000e+01,3.800000000000000000e+01,1.640000000000000000e+02,1.110000000000000000e+02,3.500000000000000000e+01,4.000000000000000000e+01,3.600000000000000000e+01,3.200000000000000000e+01,6.199999999999999956e-01,7.254190300000000000e+09
3.900000000000000000e+01,4.500000000000000000e+01,1.430000000000000000e+02,1.210000000000000000e+02,3.500000000000000000e+01,4.100000000000000000e+01,4.000000000000000000e+01,3.000000000000000000e+01,6.199999999999999956e-01,7.274329600000000000e+09
3.600000000000000000e+01,4.800000000000000000e+01,1.300000000000000000e+02,1.190000000000000000e+02,3.500000000000000000e+01,4.200000000000000000e+01,4.200000000000000000e+01,3.100000000000000000e+01,6.199999999999999956e-01,7.296587600000000000e+09
4.900000000000000000e+01,5.000000000000000000e+01,1.350000000000000000e+02,1.230000000000000000e+02,3.400000000000000000e+01,4.200000000000000000e+01,4.000000000000000000e+01,3.100000000000000000e+01,6.099999999999999867e-01,7.314971400000000000e+09
5.300000000000000000e+01,5.300000000000000000e+01,1.450000000000000000e+02,1.260000000000000000e+02,3.600000000000000000e+01,4.600000000000000000e+01,3.600000000000000000e+01,3.400000000000000000e+01,6.099999999999999867e-01,7.333435000000000000e+09
5.400000000000000000e+01,5.800000000000000000e+01,1.410000000000000000e+02,1.070000000000000000e+02,3.200000000000000000e+01,4.700000000000000000e+01,3.600000000000000000e+01,3.400000000000000000e+01,6.099999999999999867e-01,7.352130000000000000e+09
5.800000000000000000e+01,5.500000000000000000e+01,1.740000000000000000e+02,1.300000000000000000e+02,3.100000000000000000e+01,4.700000000000000000e+01,3.600000000000000000e+01,3.600000000000000000e+01,6.099999999999999867e-01,7.374297200000000000e+09
5.900000000000000000e+01,5.700000000000000000e+01,1.890000000000000000e+02,1.580000000000000000e+02,3.300000000000000000e+01,4.900000000000000000e+01,3.700000000000000000e+01,3.600000000000000000e+01,6.099999999999999867e-01,7.396657700000000000e+09
5.000000000000000000e+01,5.700000000000000000e+01,1.870000000000000000e+02,1.590000000000000000e+02,3.200000000000000000e+01,4.900000000000000000e+01,3.900000000000000000e+01,3.500000000000000000e+01,6.099999999999999867e-01,7.415836300000000000e+09
5.200000000000000000e+01,5.900000000000000000e+01,2.080000000000000000e+02,1.820000000000000000e+02,3.400000000000000000e+01,4.700000000000000000e+01,3.800000000000000000e+01,3.200000000000000000e+01,6.099999999999999867e-01,7.434209900000000000e+09
5.400000000000000000e+01,6.000000000000000000e+01,2.160000000000000000e+02,1.830000000000000000e+02,3.400000000000000000e+01,4.600000000000000000e+01,3.600000000000000000e+01,3.200000000000000000e+01,6.099999999999999867e-01,7.458702200000000000e+09
5.100000000000000000e+01,5.900000000000000000e+01,1.940000000000000000e+02,1.670000000000000000e+02,3.300000000000000000e+01,4.400000000000000000e+01,3.200000000000000000e+01,3.300000000000000000e+01,6.199999999999999956e-01,7.477940900000000000e+09
5.300000000000000000e+01,5.400000000000000000e+01,1.810000000000000000e+02,1.580000000000000000e+02,2.900000000000000000e+01,4.000000000000000000e+01,3.300000000000000000e+01,3.700000000000000000e+01,6.199999999999999956e-01,7.496365600000000000e+09
5.200000000000000000e+01,5.500000000000000000e+01,1.850000000000000000e+02,1.600000000000000000e+02,3.300000000000000000e+01,4.000000000000000000e+01,3.300000000000000000e+01,3.700000000000000000e+01,6.199999999999999956e-01,7.517616200000000000e+09
4.500000000000000000e+01,4.900000000000000000e+01,1.610000000000000000e+02,1.340000000000000000e+02,2.800000000000000000e+01,3.900000000000000000e+01,3.400000000000000000e+01,3.500000000000000000e+01,6.199999999999999956e-01,7.536455000000000000e+09
4.200000000000000000e+01,4.500000000000000000e+01,1.710000000000000000e+02,1.800000000000000000e+02,2.800000000000000000e+01,4.600000000000000000e+01,3.700000000000000000e+01,3.600000000000000000e+01,6.199999999999999956e-01,7.556825600000000000e+09
4.000000000000000000e+01,4.900000000000000000e+01,1.750000000000000000e+02,1.830000000000000000e+02,2.900000000000000000e+01,4.800000000000000000e+01,3.700000000000000000e+01,3.500000000000000000e+01,6.300000000000000044e-01,7.575271000000000000e+09
3.400000000000000000e+01,5.100000000000000000e+01,1.710000000000000000e+02,1.740000000000000000e+02,3.100000000000000000e+01,5.100000000000000000e+01,3.500000000000000000e+01,2.900000000000000000e+01,6.300000000000000044e-01,7.595407400000000000e+09
3.600000000000000000e+01,4.800000000000000000e+01,1.760000000000000000e+02,1.860000000000000000e+02,3.100000000000000000e+01,5.000000000000000000e+01,3.500000000000000000e+01,3.000000000000000000e+01,6.300000000000000044e-01,7.617757400000000000e+09
3.800000000000000000e+01,4.900000000000000000e+01,1.930000000000000000e+02,2.020000000000000000e+02,3.400000000000000000e+01,4.800000000000000000e+01,3.600000000000000000e+01,3.200000000000000000e+01,6.400000000000000133e-01,7.637955300000000000e+09
3.800000000000000000e+01,4.600000000000000000e+01,1.740000000000000000e+02,1.690000000000000000e+02,3.500000000000000000e+01,4.200000000000000000e+01,3.900000000000000000e+01,3.100000000000000000e+01,6.400000000000000133e-01,7.656735700000000000e+09
4.100000000000000000e+01,4.100000000000000000e+01,1.970000000000000000e+02,1.760000000000000000e+02,3.400000000000000000e+01,4.000000000000000000e+01,3.900000000000000000e+01,2.900000000000000000e+01,6.400000000000000133e-01,7.675099400000000000e+09
4.500000000000000000e+01,4.300000000000000000e+01,2.120000000000000000e+02,1.750000000000000000e+02,3.300000000000000000e+01,4.000000000000000000e+01,3.800000000000000000e+01,3.000000000000000000e+01,6.400000000000000133e-01,7.695497200000000000e+09
4.100000000000000000e+01,4.400000000000000000e+01,2.120000000000000000e+02,1.620000000000000000e+02,3.000000000000000000e+01,4.100000000000000000e+01,3.700000000000000000e+01,3.100000000000000000e+01,6.400000000000000133e-01,7.717416500000000000e+09
4.700000000000000000e+01,4.200000000000000000e+01,2.450000000000000000e+02,1.990000000000000000e+02,2.800000000000000000e+01,4.200000000000000000e+01,3.600000000000000000e+01,3.000000000000000000e+01,6.400000000000000133e-01,7.735517900000000000e+09
4.900000000000000000e+01,4.000000000000000000e+01,2.580000000000000000e+02,2.000000000000000000e+02,2.800000000000000000e+01,4.400000000000000000e+01,3.300000000000000000e+01,3.200000000000000000e+01,6.400000000000000133e-01,7.755531800000000000e+09
4.600000000000000000e+01,4.300000000000000000e+01,2.530000000000000000e+02,2.040000000000000000e+02,3.100000000000000000e+01,4.500000000000000000e+01,4.000000000000000000e+01,3.300000000000000000e+01,6.500000000000000222e-01,7.774389100000000000e+09
4.300000000000000000e+01,4.200000000000000000e+01,2.480000000000000000e+02,2.060000000000000000e+02,3.200000000000000000e+01,5.000000000000000000e+01,4.400000000000000000e+01,3.600000000000000000e+01,6.500000000000000222e-01,7.795176000000000000e+09
4.300000000000000000e+01,4.700000000000000000e+01,2.440000000000000000e+02,2.030000000000000000e+02,3.200000000000000000e+01,5.100000000000000000e+01,4.400000000000000000e+01,3.500000000000000000e+01,6.500000000000000222e-01,7.817711400000000000e+09
3.600000000000000000e+01,5.100000000000000000e+01,2.000000000000000000e+02,1.470000000000000000e+02,3.200000000000000000e+01,4.900000000000000000e+01,4.500000000000000000e+01,3.300000000000000000e+01,6.500000000000000222e-01,7.836178600000000000e+09
3.500000000000000000e+01,5.300000000000000000e+01,1.860000000000000000e+02,1.480000000000000000e+02,3.100000000000000000e+01,4.600000000000000000e+01,4.500000000000000000e+01,3.100000000000000000e+01,6.500000000000000222e-01,7.854646400000000000e+09
3.200000000000000000e+01,5.500000000000000000e+01,1.590000000000000000e+02,1.230000000000000000e+02,2.600000000000000000e+01,4.400000000000000000e+01,4.200000000000000000e+01,3.000000000000000000e+01,6.500000000000000222e-01,7.873527700000000000e+09
3.700000000000000000e+01,5.200000000000000000e+01,1.490000000000000000e+02,1.340000000000000000e+02,2.600000000000000000e+01,4.100000000000000000e+01,3.900000000000000000e+01,2.500000000000000000e+01,6.500000000000000222e-01,7.895725800000000000e+09
4.100000000000000000e+01,4.900000000000000000e+01,1.570000000000000000e+02,1.410000000000000000e+02,2.800000000000000000e+01,4.000000000000000000e+01,3.800000000000000000e+01,2.700000000000000000e+01,6.500000000000000222e-01,7.917799200000000000e+09
3.900000000000000000e+01,4.700000000000000000e+01,1.360000000000000000e+02,1.310000000000000000e+02,2.700000000000000000e+01,4.100000000000000000e+01,3.700000000000000000e+01,2.600000000000000000e+01,6.500000000000000222e-01,7.936764200000000000e+09
3.900000000000000000e+01,4.700000000000000000e+01,1.520000000000000000e+02,1.310000000000000000e+02,2.700000000000000000e+01,4.400000000000000000e+01,3.400000000000000000e+01,2.800000000000000000e+01,6.500000000000000222e-01,7.955825700000000000e+09
4.000000000000000000e+01,4.200000000000000000e+01,1.990000000000000000e+02,1.460000000000000000e+02,2.700000000000000000e+01,4.600000000000000000e+01,3.500000000000000000e+01,2.800000000000000000e+01,6.500000000000000222e-01,7.973784700000000000e+09
4.000000000000000000e+01,4.500000000000000000e+01,2.000000000000000000e+02,1.320000000000000000e+02,2.800000000000000000e+01,4.300000000000000000e+01,3.500000000000000000e+01,3.100000000000000000e+01,6.400000000000000133e-01,7.995564300000000000e+09
3.800000000000000000e+01,4.100000000000000000e+01,2.110000000000000000e+02,1.420000000000000000e+02,2.800000000000000000e+01,4.400000000000000000e+01,4.200000000000000000e+01,3.300000000000000000e+01,6.400000000000000133e-01,8.018252100000000000e+09
4.200000000000000000e+01,3.900000000000000000e+01,2.260000000000000000e+02,1.530000000000000000e+02,3.400000000000000000e+01,4.600000000000000000e+01,4.200000000000000000e+01,3.500000000000000000e+01,6.400000000000000133e-01,8.037407900000000000e+09
4.900000000000000000e+01,4.900000000000000000e+01,2.280000000000000000e+02,1.530000000000000000e+02,3.400000000000000000e+01,4.700000000000000000e+01,4.400000000000000000e+01,3.300000000000000000e+01,6.400000000000000133e-01,8.055574000000000000e+09
4.900000000000000000e+01,5.500000000000000000e+01,2.210000000000000000e+02,1.770000000000000000e+02,3.800000000000000000e+01,5.000000000000000000e+01,4.200000000000000000e+01,3.400000000000000000e+01,6.400000000000000133e-01,8.076032000000000000e+09
4.700000000000000000e+01,5.300000000000000000e+01,2.460000000000000000e+02,1.880000000000000000e+02,3.900000000000000000e+01,5.100000000000000000e+01,4.000000000000000000e+01,3.200000000000000000e+01,6.400000000000000133e-01,8.096620100000000000e+09
4.800000000000000000e+01,5.400000000000000000e+01,2.500000000000000000e+02,1.870000000000000000e+02,3.900000000000000000e+01,4.900000000000000000e+01,3.300000000000000000e+01,3.000000000000000000e+01,6.400000000000000133e-01,8.115484700000000000e+09
4.700000000000000000e+01,5.500000000000000000e+01,2.460000000000000000e+02,1.860000000000000000e+02,3.300000000000000000e+01,4.800000000000000000e+01,3.300000000000000000e+01,2.800000000000000000e+01,6.400000000000000133e-01,8.134000900000000000e+09
3.900000000000000000e+01,4.700000000000000000e+01,2.450000000000000000e+02,1.760000000000000000e+02,3.400000000000000000e+01,5.000000000000000000e+01,3.000000000000000000e+01,3.100000000000000000e+01,6.400000000000000133e-01,8.153459200000000000e+09
4.000000000000000000e+01,4.100000000000000000e+01,2.370000000000000000e+02,1.460000000000000000e+02,2.900000000000000000e+01,4.600000000000000000e+01,3.100000000000000000e+01,2.900000000000000000e+01,6.400000000000000133e-01,8.174232000000000000e+09
3.900000000000000000e+01,4.900000000000000000e+01,2.120000000000000000e+02,1.330000000000000000e+02,2.900000000000000000e+01,4.600000000000000000e+01,3.300000000000000000e+01,2.900000000000000000e+01,6.400000000000000133e-01,8.196450700000000000e+09
4.000000000000000000e+01,4.900000000000000000e+01,1.970000000000000000e+02,1.190000000000000000e+02,3.300000000000000000e+01,4.700000000000000000e+01,3.500000000000000000e+01,3.000000000000000000e+01,6.400000000000000133e-01,8.215619700000000000e+09
4.000000000000000000e+01,5.100000000000000000e+01,2.100000000000000000e+02,1.220000000000000000e+02,3.500000000000000000e+01,4.600000000000000000e+01,3.600000000000000000e+01,2.900000000000000000e+01,6.400000000000000133e-01,8.235060700000000000e+09
4.200000000000000000e+01,5.200000000000000000e+01,2.190000000000000000e+02,1.350000000000000000e+02,3.700000000000000000e+01,4.300000000000000000e+01,3.700000000000000000e+01,3.000000000000000000e+01,6.400000000000000133e-01,8.255397300000000000e+09
4.100000000000000000e+01,5.100000000000000000e+01,2.060000000000000000e+02,1.420000000000000000e+02,3.600000000000000000e+01,4.200000000000000000e+01,3.900000000000000000e+01,3.200000000000000000e+01,6.400000000000000133e-01,8.277330100000000000e+09
4.100000000000000000e+01,4.500000000000000000e+01,2.010000000000000000e+02,1.530000000000000000e+02,3.300000000000000000e+01,4.000000000000000000e+01,3.700000000000000000e+01,3.300000000000000000e+01,6.400000000000000133e-01,8.297763300000000000e+09
4.200000000000000000e+01,4.400000000000000000e+01,1.910000000000000000e+02,1.530000000000000000e+02,2.900000000000000000e+01,4.400000000000000000e+01,3.700000000000000000e+01,3.200000000000000000e+01,6.400000000000000133e-01,8.318191800000000000e+09
4.400000000000000000e+01,4.900000000000000000e+01,1.630000000000000000e+02,1.450000000000000000e+02,3.000000000000000000e+01,4.500000000000000000e+01,3.700000000000000000e+01,3.300000000000000000e+01,6.300000000000000044e-01,8.336280700000000000e+09
4.200000000000000000e+01,4.700000000000000000e+01,1.360000000000000000e+02,1.330000000000000000e+02,2.900000000000000000e+01,4.200000000000000000e+01,3.500000000000000000e+01,3.400000000000000000e+01,6.300000000000000044e-01,8.354614200000000000e+09
4.300000000000000000e+01,4.600000000000000000e+01,1.390000000000000000e+02,1.360000000000000000e+02,3.100000000000000000e+01,4.400000000000000000e+01,3.200000000000000000e+01,3.300000000000000000e+01,6.300000000000000044e-01,8.373191200000000000e+09
4.200000000000000000e+01,4.500000000000000000e+01,1.410000000000000000e+02,1.250000000000000000e+02,3.100000000000000000e+01,4.600000000000000000e+01,3.500000000000000000e+01,3.000000000000000000e+01,6.300000000000000044e-01,8.394171700000000000e+09
4.400000000000000000e+01,4.300000000000000000e+01,1.620000000000000000e+02,1.300000000000000000e+02,3.200000000000000000e+01,4.000000000000000000e+01,3.500000000000000000e+01,3.200000000000000000e+01,6.300000000000000044e-01,8.416454200000000000e+09
3.900000000000000000e+01,3.400000000000000000e+01,1.870000000000000000e+02,1.370000000000000000e+02,2.900000000000000000e+01,4.100000000000000000e+01,3.500000000000000000e+01,3.000000000000000000e+01,6.300000000000000044e-01,8.434958200000000000e+09
4.100000000000000000e+01,3.200000000000000000e+01,1.970000000000000000e+02,1.490000000000000000e+02,3.000000000000000000e+01,4.200000000000000000e+01,3.900000000000000000e+01,2.800000000000000000e+01,6.300000000000000044e-01,8.453338200000000000e+09
4.000000000000000000e+01,3.500000000000000000e+01,1.980000000000000000e+02,1.440000000000000000e+02,3.000000000000000000e+01,4.100000000000000000e+01,3.800000000000000000e+01,2.800000000000000000e+01,6.300000000000000044e-01,8.472255300000000000e+09
4.100000000000000000e+01,3.700000000000000000e+01,2.090000000000000000e+02,1.450000000000000000e+02,3.100000000000000000e+01,3.800000000000000000e+01,3.600000000000000000e+01,3.000000000000000000e+01,6.300000000000000044e-01,8.494268700000000000e+09
3.400000000000000000e+01,4.500000000000000000e+01,2.050000000000000000e+02,1.460000000000000000e+02,2.900000000000000000e+01,4.000000000000000000e+01,3.800000000000000000e+01,3.100000000000000000e+01,6.300000000000000044e-01,8.516286100000000000e+09
3.600000000000000000e+01,4.400000000000000000e+01,1.810000000000000000e+02,1.400000000000000000e+02,2.900000000000000000e+01,4.300000000000000000e+01,3.900000000000000000e+01,3.300000000000000000e+01,6.300000000000000044e-01,8.535002900000000000e+09
3.800000000000000000e+01,4.800000000000000000e+01,1.760000000000000000e+02,1.400000000000000000e+02,2.900000000000000000e+01,4.600000000000000000e+01,3.400000000000000000e+01,3.200000000000000000e+01,6.300000000000000044e-01,8.554055800000000000e+09
3.600000000000000000e+01,5.000000000000000000e+01,1.720000000000000000e+02,1.390000000000000000e+02,2.800000000000000000e+01,4.900000000000000000e+01,3.500000000000000000e+01,3.300000000000000000e+01,6.300000000000000044e-01,8.573116200000000000e+09
3.800000000000000000e+01,5.000000000000000000e+01,1.670000000000000000e+02,1.380000000000000000e+02,2.800000000000000000e+01,5.100000000000000000e+01,3.600000000000000000e+01,3.300000000000000000e+01,6.300000000000000044e-01,8.594004700000000000e+09
3.800000000000000000e+01,5.300000000000000000e+01,1.660000000000000000e+02,1.400000000000000000e+02,2.900000000000000000e+01,5.100000000000000000e+01,3.500000000000000000e+01,3.300000000000000000e+01,6.300000000000000044e-01,8.616369500000000000e+09
3.700000000000000000e+01,5.200000000000000000e+01,1.700000000000000000e+02,1.510000000000000000e+02,2.900000000000000000e+01,4.800000000000000000e+01,3.500000000000000000e+01,3.300000000000000000e+01,6.300000000000000044e-01,8.634689700000000000e+09
3.600000000000000000e+01,5.100000000000000000e+01,1.720000000000000000e+02,1.450000000000000000e+02,2.900000000000000000e+01,4.800000000000000000e+01,3.500000000000000000e+01,3.400000000000000000e+01,6.300000000000000044e-01,8.653747000000000000e+09
3.700000000000000000e+01,5.100000000000000000e+01,1.740000000000000000e+02,1.500000000000000000e+02,2.900000000000000000e+01,4.600000000000000000e+01,3.500000000000000000e+01,3.400000000000000000e+01,6.300000000000000044e-01,8.671857900000000000e+09
3.300000000000000000e+01,5.200000000000000000e+01,1.720000000000000000e+02,1.490000000000000000e+02,2.800000000000000000e+01,4.100000000000000000e+01,3.500000000000000000e+01,3.400000000000000000e+01,6.300000000000000044e-01,8.694092300000000000e+09
3.900000000000000000e+01,4.400000000000000000e+01,1.730000000000000000e+02,1.350000000000000000e+02,2.900000000000000000e+01,4.100000000000000000e+01,3.400000000000000000e+01,3.200000000000000000e+01,6.300000000000000044e-01,8.716277800000000000e+09
3.900000000000000000e+01,4.500000000000000000e+01,1.650000000000000000e+02,1.220000000000000000e+02,2.900000000000000000e+01,3.800000000000000000e+01,3.200000000000000000e+01,2.900000000000000000e+01,6.300000000000000044e-01,8.735059700000000000e+09
3.600000000000000000e+01,4.400000000000000000e+01,1.670000000000000000e+02,1.420000000000000000e+02,2.900000000000000000e+01,3.800000000000000000e+01,3.300000000000000000e+01,2.900000000000000000e+01,6.300000000000000044e-01,8.754292100000000000e+09
3.700000000000000000e+01,3.800000000000000000e+01,1.700000000000000000e+02,1.330000000000000000e+02,2.900000000000000000e+01,3.900000000000000000e+01,3.500000000000000000e+01,3.000000000000000000e+01,6.300000000000000044e-01,8.772980400000000000e+09
4.400000000000000000e+01,3.500000000000000000e+01,2.080000000000000000e+02,1.440000000000000000e+02,3.300000000000000000e+01,4.300000000000000000e+01,3.400000000000000000e+01,2.800000000000000000e+01,6.300000000000000044e-01,8.794727200000000000e+09
4.100000000000000000e+01,3.400000000000000000e+01,2.020000000000000000e+02,1.700000000000000000e+02,3.100000000000000000e+01,4.100000000000000000e+01,3.300000000000000000e+01,3.300000000000000000e+01,6.300000000000000044e-01,8.817439200000000000e+09
4.000000000000000000e+01,3.600000000000000000e+01,2.120000000000000000e+02,1.760000000000000000e+02,3.400000000000000000e+01,4.200000000000000000e+01,4.100000000000000000e+01,3.200000000000000000e+01,6.300000000000000044e-01,8.835339000000000000e+09
4.300000000000000000e+01,4.300000000000000000e+01,2.040000000000000000e+02,1.620000000000000000e+02,3.400000000000000000e+01,4.200000000000000000e+01,4.100000000000000000e+01,3.200000000000000000e+01,6.300000000000000044e-01,8.855357500000000000e+09
4.600000000000000000e+01,4.700000000000000000e+01,2.090000000000000000e+02,1.600000000000000000e+02,3.500000000000000000e+01,4.500000000000000000e+01,4.000000000000000000e+01,3.600000000000000000e+01,6.300000000000000044e-01,8.874052900000000000e+09
3.800000000000000000e+01,4.800000000000000000e+01,1.730000000000000000e+02,1.560000000000000000e+02,3.300000000000000000e+01,4.900000000000000000e+01,4.200000000000000000e+01,3.800000000000000000e+01,6.300000000000000044e-01,8.896460400000000000e+09
3.800000000000000000e+01,5.000000000000000000e+01,1.800000000000000000e+02,1.380000000000000000e+02,3.400000000000000000e+01,4.900000000000000000e+01,4.200000000000000000e+01,3.400000000000000000e+01,6.300000000000000044e-01,8.914932400000000000e+09
3.800000000000000000e+01,5.000000000000000000e+01,1.820000000000000000e+02,1.280000000000000000e+02,3.100000000000000000e+01,4.900000000000000000e+01,3.800000000000000000e+01,3.600000000000000000e+01,6.300000000000000044e-01,8.933032800000000000e+09
3.400000000000000000e+01,4.700000000000000000e+01,1.740000000000000000e+02,1.190000000000000000e+02,3.000000000000000000e+01,5.200000000000000000e+01,3.900000000000000000e+01,3.400000000000000000e+01,6.300000000000000044e-01,8.953945700000000000e+09
3.200000000000000000e+01,4.700000000000000000e+01,2.180000000000000000e+02,1.530000000000000000e+02,3.100000000000000000e+01,5.100000000000000000e+01,3.900000000000000000e+01,2.900000000000000000e+01,6.300000000000000044e-01,8.974122400000000000e+09
3.600000000000000000e+01,4.500000000000000000e+01,2.150000000000000000e+02,1.480000000000000000e+02,3.100000000000000000e+01,4.600000000000000000e+01,3.700000000000000000e+01,2.800000000000000000e+01,6.300000000000000044e-01,8.996216300000000000e+09
3.800000000000000000e+01,4.600000000000000000e+01,2.230000000000000000e+02,1.610000000000000000e+02,3.200000000000000000e+01,4.700000000000000000e+01,3.700000000000000000e+01,3.000000000000000000e+01,6.300000000000000044e-01,9.014253100000000000e+09
3.800000000000000000e+01,4.800000000000000000e+01,2.160000000000000000e+02,1.630000000000000000e+02,3.000000000000000000e+01,4.800000000000000000e+01,4.100000000000000000e+01,3.000000000000000000e+01,6.300000000000000044e-01,9.032909300000000000e+09
4.600000000000000000e+01,4.400000000000000000e+01,2.250000000000000000e+02,1.670000000000000000e+02,3.200000000000000000e+01,4.200000000000000000e+01,4.000000000000000000e+01,3.200000000000000000e+01,6.300000000000000044e-01,9.052078300000000000e+09
4.500000000000000000e+01,3.900000000000000000e+01,1.840000000000000000e+02,1.560000000000000000e+02,3.100000000000000000e+01,4.100000000000000000e+01,3.700000000000000000e+01,3.400000000000000000e+01,6.300000000000000044e-01,9.074194700000000000e+09
4.400000000000000000e+01,4.300000000000000000e+01,1.810000000000000000e+02,1.600000000000000000e+02,3.000000000000000000e+01,4.300000000000000000e+01,3.900000000000000000e+01,3.400000000000000000e+01,6.300000000000000044e-01,9.096166400000000000e+09
4.300000000000000000e+01,4.200000000000000000e+01,1.570000000000000000e+02,1.340000000000000000e+02,3.100000000000000000e+01,4.500000000000000000e+01,3.900000000000000000e+01,3.200000000000000000e+01,6.300000000000000044e-01,9.115207200000000000e+09
4.400000000000000000e+01,3.800000000000000000e+01,1.570000000000000000e+02,1.360000000000000000e+02,3.000000000000000000e+01,4.600000000000000000e+01,3.100000000000000000e+01,3.200000000000000000e+01,6.300000000000000044e-01,9.135283900000000000e+09
4.000000000000000000e+01,4.300000000000000000e+01,1.540000000000000000e+02,1.330000000000000000e+02,2.900000000000000000e+01,5.000000000000000000e+01,3.200000000000000000e+01,3.100000000000000000e+01,6.300000000000000044e-01,9.154586700000000000e+09
4.000000000000000000e+01,4.500000000000000000e+01,1.360000000000000000e+02,1.180000000000000000e+02,2.900000000000000000e+01,5.200000000000000000e+01,3.500000000000000000e+01,2.900000000000000000e+01,6.300000000000000044e-01,9.174886400000000000e+09
4.100000000000000000e+01,4.200000000000000000e+01,1.620000000000000000e+02,1.290000000000000000e+02,2.800000000000000000e+01,5.000000000000000000e+01,3.300000000000000000e+01,2.900000000000000000e+01,6.300000000000000044e-01,9.197044000000000000e+09
4.000000000000000000e+01,4.000000000000000000e+01,1.900000000000000000e+02,1.480000000000000000e+02,2.900000000000000000e+01,4.700000000000000000e+01,3.400000000000000000e+01,3.100000000000000000e+01,6.300000000000000044e-01,9.215118600000000000e+09
3.900000000000000000e+01,4.100000000000000000e+01,1.860000000000000000e+02,1.440000000000000000e+02,3.000000000000000000e+01,4.700000000000000000e+01,3.500000000000000000e+01,3.000000000000000000e+01,6.300000000000000044e-01,9.233714100000000000e+09
3.600000000000000000e+01,3.700000000000000000e+01,2.080000000000000000e+02,1.720000000000000000e+02,3.100000000000000000e+01,4.300000000000000000e+01,3.500000000000000000e+01,3.000000000000000000e+01,6.300000000000000044e-01,9.253384300000000000e+09
3.600000000000000000e+01,3.700000000000000000e+01,2.080000000000000000e+02,1.650000000000000000e+02,2.900000000000000000e+01,4.200000000000000000e+01,3.500000000000000000e+01,3.100000000000000000e+01,6.300000000000000044e-01,9.274770200000000000e+09
3.500000000000000000e+01,3.900000000000000000e+01,1.940000000000000000e+02,1.490000000000000000e+02,3.000000000000000000e+01,4.000000000000000000e+01,3.500000000000000000e+01,3.100000000000000000e+01,6.300000000000000044e-01,9.297142700000000000e+09
4.000000000000000000e+01,4.500000000000000000e+01,1.810000000000000000e+02,1.470000000000000000e+02,2.700000000000000000e+01,4.300000000000000000e+01,3.600000000000000000e+01,2.900000000000000000e+01,6.300000000000000044e-01,9.315357000000000000e+09
4.300000000000000000e+01,4.400000000000000000e+01,1.820000000000000000e+02,1.470000000000000000e+02,2.900000000000000000e+01,4.300000000000000000e+01,3.900000000000000000e+01,2.900000000000000000e+01,6.300000000000000044e-01,9.333126700000000000e+09
4.400000000000000000e+01,4.300000000000000000e+01,1.480000000000000000e+02,1.100000000000000000e+02,2.800000000000000000e+01,4.300000000000000000e+01,3.900000000000000000e+01,3.000000000000000000e+01,6.300000000000000044e-01,9.352678900000000000e+09
4.700000000000000000e+01,4.600000000000000000e+01,1.430000000000000000e+02,1.280000000000000000e+02,3.200000000000000000e+01,4.800000000000000000e+01,4.100000000000000000e+01,2.900000000000000000e+01,6.199999999999999956e-01,9.374794300000000000e+09
4.700000000000000000e+01,4.600000000000000000e+01,1.420000000000000000e+02,1.250000000000000000e+02,3.100000000000000000e+01,5.300000000000000000e+01,4.300000000000000000e+01,3.000000000000000000e+01,6.199999999999999956e-01,9.411854800000000000e+09
4.200000000000000000e+01,4.700000000000000000e+01,1.630000000000000000e+02,1.390000000000000000e+02,3.400000000000000000e+01,5.300000000000000000e+01,4.700000000000000000e+01,3.000000000000000000e+01,6.199999999999999956e-01,9.429867200000000000e+09
4.300000000000000000e+01,4.900000000000000000e+01,1.690000000000000000e+02,1.470000000000000000e+02,3.300000000000000000e+01,5.000000000000000000e+01,4.500000000000000000e+01,3.200000000000000000e+01,6.300000000000000044e-01,9.447927700000000000e+09
4.100000000000000000e+01,5.000000000000000000e+01,1.840000000000000000e+02,1.520000000000000000e+02,3.300000000000000000e+01,5.200000000000000000e+01,4.300000000000000000e+01,3.100000000000000000e+01,6.300000000000000044e-01,9.465575800000000000e+09
3.500000000000000000e+01,4.800000000000000000e+01,1.980000000000000000e+02,1.500000000000000000e+02,3.100000000000000000e+01,4.400000000000000000e+01,4.200000000000000000e+01,3.300000000000000000e+01,6.300000000000000044e-01,9.483521900000000000e+09
3.700000000000000000e+01,4.800000000000000000e+01,2.080000000000000000e+02,1.610000000000000000e+02,3.100000000000000000e+01,4.000000000000000000e+01,4.400000000000000000e+01,3.000000000000000000e+01,6.300000000000000044e-01,9.501400000000000000e+09
4.200000000000000000e+01,4.000000000000000000e+01,1.870000000000000000e+02,1.400000000000000000e+02,2.600000000000000000e+01,3.900000000000000000e+01,4.000000000000000000e+01,3.300000000000000000e+01,6.199999999999999956e-01,9.519205000000000000e+09
4.100000000000000000e+01,4.600000000000000000e+01,1.880000000000000000e+02,1.470000000000000000e+02,2.800000000000000000e+01,4.300000000000000000e+01,3.900000000000000000e+01,3.000000000000000000e+01,6.199999999999999956e-01,9.537207200000000000e+09
4.300000000000000000e+01,4.400000000000000000e+01,1.860000000000000000e+02,1.460000000000000000e+02,2.800000000000000000e+01,4.200000000000000000e+01,4.300000000000000000e+01,3.000000000000000000e+01,6.199999999999999956e-01,9.555433300000000000e+09
4.800000000000000000e+01,4.200000000000000000e+01,1.840000000000000000e+02,1.380000000000000000e+02,3.100000000000000000e+01,4.400000000000000000e+01,4.300000000000000000e+01,2.900000000000000000e+01,6.199999999999999956e-01,9.573772100000000000e+09
4.700000000000000000e+01,4.100000000000000000e+01,1.840000000000000000e+02,1.390000000000000000e+02,3.500000000000000000e+01,4.400000000000000000e+01,4.500000000000000000e+01,2.800000000000000000e+01,6.300000000000000044e-01,9.593655500000000000e+09
4.500000000000000000e+01,4.300000000000000000e+01,1.810000000000000000e+02,1.320000000000000000e+02,3.500000000000000000e+01,4.400000000000000000e+01,4.300000000000000000e+01,2.500000000000000000e+01,6.300000000000000044e-01,9.615853300000000000e+09
4.300000000000000000e+01,3.400000000000000000e+01,1.740000000000000000e+02,1.420000000000000000e+02,3.400000000000000000e+01,4.300000000000000000e+01,4.400000000000000000e+01,2.800000000000000000e+01,6.300000000000000044e-01,9.638249300000000000e+09
4.200000000000000000e+01,3.700000000000000000e+01,1.760000000000000000e+02,1.480000000000000000e+02,3.300000000000000000e+01,4.200000000000000000e+01,4.200000000000000000e+01,2.700000000000000000e+01,6.300000000000000044e-01,9.656656700000000000e+09
4.200000000000000000e+01,3.800000000000000000e+01,1.740000000000000000e+02,1.580000000000000000e+02,3.100000000000000000e+01,4.200000000000000000e+01,4.100000000000000000e+01,2.500000000000000000e+01,6.300000000000000044e-01,9.674928700000000000e+09
4.400000000000000000e+01,4.400000000000000000e+01,1.980000000000000000e+02,1.770000000000000000e+02,3.000000000000000000e+01,4.000000000000000000e+01,3.500000000000000000e+01,2.700000000000000000e+01,6.300000000000000044e-01,9.693717100000000000e+09
4.200000000000000000e+01,4.500000000000000000e+01,1.970000000000000000e+02,1.820000000000000000e+02,3.200000000000000000e+01,3.900000000000000000e+01,3.500000000000000000e+01,2.600000000000000000e+01,6.300000000000000044e-01,9.715734600000000000e+09
4.400000000000000000e+01,4.600000000000000000e+01,2.120000000000000000e+02,1.710000000000000000e+02,3.100000000000000000e+01,3.800000000000000000e+01,3.200000000000000000e+01,2.800000000000000000e+01,6.300000000000000044e-01,9.738066700000000000e+09
4.600000000000000000e+01,4.600000000000000000e+01,2.220000000000000000e+02,1.880000000000000000e+02,3.500000000000000000e+01,4.200000000000000000e+01,3.100000000000000000e+01,3.200000000000000000e+01,6.300000000000000044e-01,9.756356000000000000e+09
4.500000000000000000e+01,4.600000000000000000e+01,2.210000000000000000e+02,1.790000000000000000e+02,3.400000000000000000e+01,4.400000000000000000e+01,3.400000000000000000e+01,3.400000000000000000e+01,6.300000000000000044e-01,9.776675500000000000e+09
4.400000000000000000e+01,4.000000000000000000e+01,2.010000000000000000e+02,1.700000000000000000e+02,3.200000000000000000e+01,4.500000000000000000e+01,3.400000000000000000e+01,3.500000000000000000e+01,6.300000000000000044e-01,9.795676500000000000e+09
4.300000000000000000e+01,3.800000000000000000e+01,1.960000000000000000e+02,1.710000000000000000e+02,3.100000000000000000e+01,4.600000000000000000e+01,3.400000000000000000e+01,3.400000000000000000e+01,6.300000000000000044e-01,9.816879400000000000e+09
4.200000000000000000e+01,4.300000000000000000e+01,2.000000000000000000e+02,1.670000000000000000e+02,3.700000000000000000e+01,4.800000000000000000e+01,3.700000000000000000e+01,3.000000000000000000e+01,6.300000000000000044e-01,9.838022100000000000e+09
4.000000000000000000e+01,4.700000000000000000e+01,1.980000000000000000e+02,1.530000000000000000e+02,3.600000000000000000e+01,4.700000000000000000e+01,3.800000000000000000e+01,2.700000000000000000e+01,6.400000000000000133e-01,9.856550000000000000e+09
3.700000000000000000e+01,4.700000000000000000e+01,1.870000000000000000e+02,1.510000000000000000e+02,3.600000000000000000e+01,4.800000000000000000e+01,3.700000000000000000e+01,2.400000000000000000e+01,6.400000000000000133e-01,9.874588400000000000e+09
3.500000000000000000e+01,5.000000000000000000e+01,1.700000000000000000e+02,1.270000000000000000e+02,3.700000000000000000e+01,4.700000000000000000e+01,3.500000000000000000e+01,2.900000000000000000e+01,6.400000000000000133e-01,9.895553600000000000e+09
3.700000000000000000e+01,5.200000000000000000e+01,1.900000000000000000e+02,1.330000000000000000e+02,3.700000000000000000e+01,4.900000000000000000e+01,3.500000000000000000e+01,3.000000000000000000e+01,6.400000000000000133e-01,9.916157000000000000e+09
3.700000000000000000e+01,4.900000000000000000e+01,1.690000000000000000e+02,1.590000000000000000e+02,3.300000000000000000e+01,4.800000000000000000e+01,3.300000000000000000e+01,3.300000000000000000e+01,6.400000000000000133e-01,9.935011100000000000e+09
3.500000000000000000e+01,4.600000000000000000e+01,1.520000000000000000e+02,1.510000000000000000e+02,3.100000000000000000e+01,4.600000000000000000e+01,3.200000000000000000e+01,3.400000000000000000e+01,6.300000000000000044e-01,9.956704400000000000e+09
3.600000000000000000e+01,5.500000000000000000e+01,1.540000000000000000e+02,1.500000000000000000e+02,3.000000000000000000e+01,4.300000000000000000e+01,3.100000000000000000e+01,3.400000000000000000e+01,6.400000000000000133e-01,9.976360300000000000e+09
3.900000000000000000e+01,5.500000000000000000e+01,1.770000000000000000e+02,1.640000000000000000e+02,3.000000000000000000e+01,4.800000000000000000e+01,3.500000000000000000e+01,3.300000000000000000e+01,6.300000000000000044e-01,9.997509300000000000e+09
4.300000000000000000e+01,5.400000000000000000e+01,1.770000000000000000e+02,1.700000000000000000e+02,3.200000000000000000e+01,4.700000000000000000e+01,3.600000000000000000e+01,3.300000000000000000e+01,6.300000000000000044e-01,1.001695520000000000e+10
4.300000000000000000e+01,5.500000000000000000e+01,1.860000000000000000e+02,1.470000000000000000e+02,3.200000000000000000e+01,4.600000000000000000e+01,3.600000000000000000e+01,3.400000000000000000e+01,6.300000000000000044e-01,1.003639150000000000e+10
4.300000000000000000e+01,5.600000000000000000e+01,1.950000000000000000e+02,1.500000000000000000e+02,3.200000000000000000e+01,4.600000000000000000e+01,3.500000000000000000e+01,3.300000000000000000e+01,6.300000000000000044e-01,1.005740430000000000e+10
4.400000000000000000e+01,5.200000000000000000e+01,2.020000000000000000e+02,1.610000000000000000e+02,3.200000000000000000e+01,4.600000000000000000e+01,3.800000000000000000e+01,3.500000000000000000e+01,6.300000000000000044e-01,1.007683690000000000e+10
4.200000000000000000e+01,5.300000000000000000e+01,1.930000000000000000e+02,1.560000000000000000e+02,3.200000000000000000e+01,4.300000000000000000e+01,3.600000000000000000e+01,3.500000000000000000e+01,6.300000000000000044e-01,1.009515860000000000e+10
3.900000000000000000e+01,5.300000000000000000e+01,1.810000000000000000e+02,1.390000000000000000e+02,2.800000000000000000e+01,3.900000000000000000e+01,3.800000000000000000e+01,3.500000000000000000e+01,6.300000000000000044e-01,1.011589220000000000e+10
3.800000000000000000e+01,5.100000000000000000e+01,1.790000000000000000e+02,1.460000000000000000e+02,2.800000000000000000e+01,4.500000000000000000e+01,3.800000000000000000e+01,3.300000000000000000e+01,6.400000000000000133e-01,1.013815330000000000e+10
3.500000000000000000e+01,4.800000000000000000e+01,1.590000000000000000e+02,1.360000000000000000e+02,2.800000000000000000e+01,4.900000000000000000e+01,3.700000000000000000e+01,3.200000000000000000e+01,6.400000000000000133e-01,1.015747230000000000e+10
3.900000000000000000e+01,5.100000000000000000e+01,1.730000000000000000e+02,1.470000000000000000e+02,2.700000000000000000e+01,5.000000000000000000e+01,3.300000000000000000e+01,3.200000000000000000e+01,6.400000000000000133e-01,1.017583840000000000e+10
4.300000000000000000e+01,4.900000000000000000e+01,1.800000000000000000e+02,1.510000000000000000e+02,2.900000000000000000e+01,4.700000000000000000e+01,3.400000000000000000e+01,3.200000000000000000e+01,6.400000000000000133e-01,1.019387320000000000e+10
3.900000000000000000e+01,4.700000000000000000e+01,1.700000000000000000e+02,1.520000000000000000e+02,3.000000000000000000e+01,4.900000000000000000e+01,3.000000000000000000e+01,3.100000000000000000e+01,6.400000000000000133e-01,1.021581810000000000e+10
4.100000000000000000e+01,4.700000000000000000e+01,1.690000000000000000e+02,1.370000000000000000e+02,2.800000000000000000e+01,4.300000000000000000e+01,3.200000000000000000e+01,3.000000000000000000e+01,6.400000000000000133e-01,1.023824030000000000e+10
4.200000000000000000e+01,4.800000000000000000e+01,1.790000000000000000e+02,1.460000000000000000e+02,2.900000000000000000e+01,4.000000000000000000e+01,3.300000000000000000e+01,3.300000000000000000e+01,6.400000000000000133e-01,1.025753780000000000e+10
4.000000000000000000e+01,4.000000000000000000e+01,1.630000000000000000e+02,1.250000000000000000e+02,3.000000000000000000e+01,4.200000000000000000e+01,3.600000000000000000e+01,3.200000000000000000e+01,6.300000000000000044e-01,1.027632730000000000e+10
4.300000000000000000e+01,3.900000000000000000e+01,1.370000000000000000e+02,1.100000000000000000e+02,2.900000000000000000e+01,4.300000000000000000e+01,3.400000000000000000e+01,2.900000000000000000e+01,6.300000000000000044e-01,1.029502990000000000e+10
4.300000000000000000e+01,4.100000000000000000e+01,1.430000000000000000e+02,1.200000000000000000e+02,2.800000000000000000e+01,4.200000000000000000e+01,3.600000000000000000e+01,2.800000000000000000e+01,6.300000000000000044e-01,1.031586230000000000e+10
4.300000000000000000e+01,4.200000000000000000e+01,1.430000000000000000e+02,1.250000000000000000e+02,3.100000000000000000e+01,4.200000000000000000e+01,3.700000000000000000e+01,2.800000000000000000e+01,6.300000000000000044e-01,1.033804270000000000e+10
4.300000000000000000e+01,4.500000000000000000e+01,1.380000000000000000e+02,1.240000000000000000e+02,3.100000000000000000e+01,4.100000000000000000e+01,3.900000000000000000e+01,2.500000000000000000e+01,6.300000000000000044e-01,1.035754440000000000e+10
4.500000000000000000e+01,4.500000000000000000e+01,1.400000000000000000e+02,1.330000000000000000e+02,3.400000000000000000e+01,4.000000000000000000e+01,3.800000000000000000e+01,2.700000000000000000e+01,6.300000000000000044e-01,1.037644570000000000e+10
3.900000000000000000e+01,5.000000000000000000e+01,1.540000000000000000e+02,1.360000000000000000e+02,3.200000000000000000e+01,4.000000000000000000e+01,4.300000000000000000e+01,2.700000000000000000e+01,6.300000000000000044e-01,1.039500890000000000e+10
4.100000000000000000e+01,5.100000000000000000e+01,1.540000000000000000e+02,1.350000000000000000e+02,3.200000000000000000e+01,4.300000000000000000e+01,4.500000000000000000e+01,3.100000000000000000e+01,6.199999999999999956e-01,1.041650540000000000e+10
4.400000000000000000e+01,5.300000000000000000e+01,1.650000000000000000e+02,1.390000000000000000e+02,3.200000000000000000e+01,4.600000000000000000e+01,4.200000000000000000e+01,3.200000000000000000e+01,6.199999999999999956e-01,1.043688900000000000e+10
4.500000000000000000e+01,5.100000000000000000e+01,1.650000000000000000e+02,1.390000000000000000e+02,3.000000000000000000e+01,4.900000000000000000e+01,4.400000000000000000e+01,3.200000000000000000e+01,6.199999999999999956e-01,1.045709020000000000e+10
