6.500000000000000000e+01,7.000000000000000000e+01,2.020000000000000000e+02,9.000000000000000000e+01,3.700000000000000000e+01,2.600000000000000000e+01,3.200000000000000000e+01,4.900000000000000000e+01,5.600000000000000533e-01,4.762059000000000000e+08
6.400000000000000000e+01,6.800000000000000000e+01,2.010000000000000000e+02,9.100000000000000000e+01,3.300000000000000000e+01,2.700000000000000000e+01,3.100000000000000000e+01,4.900000000000000000e+01,5.600000000000000533e-01,5.039874000000000000e+08
6.200000000000000000e+01,6.400000000000000000e+01,1.940000000000000000e+02,9.200000000000000000e+01,3.200000000000000000e+01,3.000000000000000000e+01,3.100000000000000000e+01,5.200000000000000000e+01,5.600000000000000533e-01,1.260103700000000000e+09
6.200000000000000000e+01,7.200000000000000000e+01,2.590000000000000000e+02,1.060000000000000000e+02,3.700000000000000000e+01,3.100000000000000000e+01,3.100000000000000000e+01,5.400000000000000000e+01,5.600000000000000533e-01,1.279280100000000000e+09
4.600000000000000000e+01,7.200000000000000000e+01,2.700000000000000000e+02,1.070000000000000000e+02,3.700000000000000000e+01,3.100000000000000000e+01,2.900000000000000000e+01,4.600000000000000000e+01,5.600000000000000533e-01,1.297315700000000000e+09
5.900000000000000000e+01,7.600000000000000000e+01,2.590000000000000000e+02,9.900000000000000000e+01,3.400000000000000000e+01,3.100000000000000000e+01,2.900000000000000000e+01,4.700000000000000000e+01,5.699999999999999512e-01,1.315738600000000000e+09
5.800000000000000000e+01,7.200000000000000000e+01,2.520000000000000000e+02,8.800000000000000000e+01,3.300000000000000000e+01,3.300000000000000000e+01,3.100000000000000000e+01,5.000000000000000000e+01,5.699999999999999512e-01,1.333986900000000000e+09
5.600000000000000000e+01,7.300000000000000000e+01,2.790000000000000000e+02,9.100000000000000000e+01,3.400000000000000000e+01,3.300000000000000000e+01,3.200000000000000000e+01,4.900000000000000000e+01,5.699999999999999512e-01,1.352483100000000000e+09
5.600000000000000000e+01,6.900000000000000000e+01,2.540000000000000000e+02,8.600000000000000000e+01,3.200000000000000000e+01,3.300000000000000000e+01,3.000000000000000000e+01,4.500000000000000000e+01,5.699999999999999512e-01,1.370480100000000000e+09
5.500000000000000000e+01,6.600000000000000000e+01,2.470000000000000000e+02,8.300000000000000000e+01,3.100000000000000000e+01,3.200000000000000000e+01,2.900000000000000000e+01,4.400000000000000000e+01,5.600000000000000533e-01,1.388614200000000000e+09
3.700000000000000000e+01,6.000000000000000000e+01,2.500000000000000000e+02,8.800000000000000000e+01,3.300000000000000000e+01,3.200000000000000000e+01,2.800000000000000000e+01,3.900000000000000000e+01,5.600000000000000533e-01,1.407249000000000000e+09
3.400000000000000000e+01,5.800000000000000000e+01,2.480000000000000000e+02,8.900000000000000000e+01,3.200000000000000000e+01,3.000000000000000000e+01,2.600000000000000000e+01,3.300000000000000000e+01,5.699999999999999512e-01,1.426716600000000000e+09
4.000000000000000000e+01,6.600000000000000000e+01,2.420000000000000000e+02,9.800000000000000000e+01,3.900000000000000000e+01,3.600000000000000000e+01,2.900000000000000000e+01,3.800000000000000000e+01,5.699999999999999512e-01,1.446234900000000000e+09
6.700000000000000000e+01,1.010000000000000000e+02,3.250000000000000000e+02,1.480000000000000000e+02,4.900000000000000000e+01,3.700000000000000000e+01,3.500000000000000000e+01,5.200000000000000000e+01,5.699999999999999512e-01,1.464153900000000000e+09
6.900000000000000000e+01,1.000000000000000000e+02,3.220000000000000000e+02,1.480000000000000000e+02,4.700000000000000000e+01,3.800000000000000000e+01,3.300000000000000000e+01,5.300000000000000000e+01,5.699999999999999512e-01,1.482862700000000000e+09
7.000000000000000000e+01,1.050000000000000000e+02,3.330000000000000000e+02,1.520000000000000000e+02,4.700000000000000000e+01,4.000000000000000000e+01,3.500000000000000000e+01,5.300000000000000000e+01,5.699999999999999512e-01,1.500867000000000000e+09
7.100000000000000000e+01,1.050000000000000000e+02,3.350000000000000000e+02,1.520000000000000000e+02,4.900000000000000000e+01,4.000000000000000000e+01,3.500000000000000000e+01,5.400000000000000000e+01,5.799999999999999600e-01,1.518315000000000000e+09
6.900000000000000000e+01,1.050000000000000000e+02,3.200000000000000000e+02,1.500000000000000000e+02,4.400000000000000000e+01,3.200000000000000000e+01,3.500000000000000000e+01,5.000000000000000000e+01,5.799999999999999600e-01,1.536264200000000000e+09
4.100000000000000000e+01,6.900000000000000000e+01,2.020000000000000000e+02,9.200000000000000000e+01,3.200000000000000000e+01,2.900000000000000000e+01,2.900000000000000000e+01,3.700000000000000000e+01,5.799999999999999600e-01,1.580940700000000000e+09
4.200000000000000000e+01,7.500000000000000000e+01,2.160000000000000000e+02,1.000000000000000000e+02,3.600000000000000000e+01,2.700000000000000000e+01,3.200000000000000000e+01,3.700000000000000000e+01,5.799999999999999600e-01,1.599602800000000000e+09
5.500000000000000000e+01,8.000000000000000000e+01,2.270000000000000000e+02,1.030000000000000000e+02,4.100000000000000000e+01,3.100000000000000000e+01,3.400000000000000000e+01,4.200000000000000000e+01,5.799999999999999600e-01,1.618163900000000000e+09
5.900000000000000000e+01,8.100000000000000000e+01,2.280000000000000000e+02,1.050000000000000000e+02,3.900000000000000000e+01,3.000000000000000000e+01,3.300000000000000000e+01,4.300000000000000000e+01,5.799999999999999600e-01,1.636122400000000000e+09
5.700000000000000000e+01,6.900000000000000000e+01,2.200000000000000000e+02,9.400000000000000000e+01,3.700000000000000000e+01,3.300000000000000000e+01,3.200000000000000000e+01,4.300000000000000000e+01,5.899999999999999689e-01,1.654050700000000000e+09
5.800000000000000000e+01,7.400000000000000000e+01,2.370000000000000000e+02,1.000000000000000000e+02,3.600000000000000000e+01,3.100000000000000000e+01,3.100000000000000000e+01,4.400000000000000000e+01,5.899999999999999689e-01,1.672462500000000000e+09
5.700000000000000000e+01,7.000000000000000000e+01,2.480000000000000000e+02,1.040000000000000000e+02,3.900000000000000000e+01,3.200000000000000000e+01,3.100000000000000000e+01,4.400000000000000000e+01,5.899999999999999689e-01,1.691254700000000000e+09
4.200000000000000000e+01,6.300000000000000000e+01,2.360000000000000000e+02,1.000000000000000000e+02,3.600000000000000000e+01,3.000000000000000000e+01,2.700000000000000000e+01,3.700000000000000000e+01,5.899999999999999689e-01,1.709895000000000000e+09
3.700000000000000000e+01,6.300000000000000000e+01,2.300000000000000000e+02,9.900000000000000000e+01,3.700000000000000000e+01,3.200000000000000000e+01,3.000000000000000000e+01,3.400000000000000000e+01,5.799999999999999600e-01,1.728411200000000000e+09
5.400000000000000000e+01,7.000000000000000000e+01,2.590000000000000000e+02,1.140000000000000000e+02,4.000000000000000000e+01,3.000000000000000000e+01,2.900000000000000000e+01,3.900000000000000000e+01,5.799999999999999600e-01,1.747100000000000000e+09
5.300000000000000000e+01,7.000000000000000000e+01,2.840000000000000000e+02,1.220000000000000000e+02,4.400000000000000000e+01,3.300000000000000000e+01,3.100000000000000000e+01,3.800000000000000000e+01,5.799999999999999600e-01,1.766306600000000000e+09
5.500000000000000000e+01,7.700000000000000000e+01,2.940000000000000000e+02,1.320000000000000000e+02,4.400000000000000000e+01,3.700000000000000000e+01,3.300000000000000000e+01,3.800000000000000000e+01,5.799999999999999600e-01,1.785393600000000000e+09
5.600000000000000000e+01,7.100000000000000000e+01,2.850000000000000000e+02,1.290000000000000000e+02,4.200000000000000000e+01,3.600000000000000000e+01,3.500000000000000000e+01,4.100000000000000000e+01,5.799999999999999600e-01,1.803560000000000000e+09
5.400000000000000000e+01,7.300000000000000000e+01,3.080000000000000000e+02,1.360000000000000000e+02,4.200000000000000000e+01,3.800000000000000000e+01,3.500000000000000000e+01,4.100000000000000000e+01,5.799999999999999600e-01,1.821630000000000000e+09
4.300000000000000000e+01,7.300000000000000000e+01,3.100000000000000000e+02,1.370000000000000000e+02,4.100000000000000000e+01,4.000000000000000000e+01,3.700000000000000000e+01,3.600000000000000000e+01,5.899999999999999689e-01,1.840197800000000000e+09
4.400000000000000000e+01,6.800000000000000000e+01,2.880000000000000000e+02,1.270000000000000000e+02,3.700000000000000000e+01,4.000000000000000000e+01,3.500000000000000000e+01,3.400000000000000000e+01,5.899999999999999689e-01,1.860015100000000000e+09
3.800000000000000000e+01,5.600000000000000000e+01,2.480000000000000000e+02,1.040000000000000000e+02,3.000000000000000000e+01,3.700000000000000000e+01,3.000000000000000000e+01,2.900000000000000000e+01,5.899999999999999689e-01,1.880748100000000000e+09
4.700000000000000000e+01,6.300000000000000000e+01,2.380000000000000000e+02,1.090000000000000000e+02,3.300000000000000000e+01,3.700000000000000000e+01,3.000000000000000000e+01,3.700000000000000000e+01,5.899999999999999689e-01,1.900923700000000000e+09
5.400000000000000000e+01,6.200000000000000000e+01,2.180000000000000000e+02,1.010000000000000000e+02,3.300000000000000000e+01,3.300000000000000000e+01,3.100000000000000000e+01,4.200000000000000000e+01,5.899999999999999689e-01,1.921649000000000000e+09
4.900000000000000000e+01,5.300000000000000000e+01,1.980000000000000000e+02,8.200000000000000000e+01,3.000000000000000000e+01,3.000000000000000000e+01,3.200000000000000000e+01,4.100000000000000000e+01,5.899999999999999689e-01,1.940757200000000000e+09
5.200000000000000000e+01,6.400000000000000000e+01,2.180000000000000000e+02,9.000000000000000000e+01,3.200000000000000000e+01,3.000000000000000000e+01,3.100000000000000000e+01,4.200000000000000000e+01,5.899999999999999689e-01,1.959248000000000000e+09
5.300000000000000000e+01,6.700000000000000000e+01,2.400000000000000000e+02,9.200000000000000000e+01,3.400000000000000000e+01,3.000000000000000000e+01,3.000000000000000000e+01,4.300000000000000000e+01,5.899999999999999689e-01,1.978821600000000000e+09
4.500000000000000000e+01,6.800000000000000000e+01,2.680000000000000000e+02,9.600000000000000000e+01,3.500000000000000000e+01,3.100000000000000000e+01,3.500000000000000000e+01,3.900000000000000000e+01,5.899999999999999689e-01,1.997816400000000000e+09
5.400000000000000000e+01,7.000000000000000000e+01,2.570000000000000000e+02,9.600000000000000000e+01,3.300000000000000000e+01,3.200000000000000000e+01,3.200000000000000000e+01,4.100000000000000000e+01,5.899999999999999689e-01,2.018410000000000000e+09
5.400000000000000000e+01,7.200000000000000000e+01,2.430000000000000000e+02,9.600000000000000000e+01,3.400000000000000000e+01,3.300000000000000000e+01,3.200000000000000000e+01,4.200000000000000000e+01,5.799999999999999600e-01,2.040207300000000000e+09
5.200000000000000000e+01,6.900000000000000000e+01,2.280000000000000000e+02,9.800000000000000000e+01,3.600000000000000000e+01,3.400000000000000000e+01,3.500000000000000000e+01,4.400000000000000000e+01,5.799999999999999600e-01,2.058513800000000000e+09
5.100000000000000000e+01,6.300000000000000000e+01,1.970000000000000000e+02,9.500000000000000000e+01,3.600000000000000000e+01,3.800000000000000000e+01,3.700000000000000000e+01,4.500000000000000000e+01,5.799999999999999600e-01,2.076569000000000000e+09
5.900000000000000000e+01,6.300000000000000000e+01,1.940000000000000000e+02,1.000000000000000000e+02,4.300000000000000000e+01,4.500000000000000000e+01,4.800000000000000000e+01,4.800000000000000000e+01,5.799999999999999600e-01,2.094760600000000000e+09
6.000000000000000000e+01,7.500000000000000000e+01,2.280000000000000000e+02,1.090000000000000000e+02,4.900000000000000000e+01,5.000000000000000000e+01,5.700000000000000000e+01,5.600000000000000000e+01,5.799999999999999600e-01,2.112889600000000000e+09
6.400000000000000000e+01,8.600000000000000000e+01,2.780000000000000000e+02,1.300000000000000000e+02,5.500000000000000000e+01,5.400000000000000000e+01,5.800000000000000000e+01,5.700000000000000000e+01,5.699999999999999512e-01,2.131372000000000000e+09
6.700000000000000000e+01,8.000000000000000000e+01,2.620000000000000000e+02,1.200000000000000000e+02,5.200000000000000000e+01,5.300000000000000000e+01,5.600000000000000000e+01,5.600000000000000000e+01,5.699999999999999512e-01,2.149200500000000000e+09
6.700000000000000000e+01,8.500000000000000000e+01,2.680000000000000000e+02,1.220000000000000000e+02,5.300000000000000000e+01,5.000000000000000000e+01,5.700000000000000000e+01,5.600000000000000000e+01,5.799999999999999600e-01,2.167656700000000000e+09
6.700000000000000000e+01,8.500000000000000000e+01,2.540000000000000000e+02,1.120000000000000000e+02,4.600000000000000000e+01,4.300000000000000000e+01,4.400000000000000000e+01,5.600000000000000000e+01,5.799999999999999600e-01,2.187172300000000000e+09
5.600000000000000000e+01,7.500000000000000000e+01,2.430000000000000000e+02,1.070000000000000000e+02,4.100000000000000000e+01,3.800000000000000000e+01,3.400000000000000000e+01,4.400000000000000000e+01,5.799999999999999600e-01,2.206144900000000000e+09
5.400000000000000000e+01,6.300000000000000000e+01,1.950000000000000000e+02,8.300000000000000000e+01,3.500000000000000000e+01,3.100000000000000000e+01,3.100000000000000000e+01,4.300000000000000000e+01,5.699999999999999512e-01,2.224863700000000000e+09
6.400000000000000000e+01,6.800000000000000000e+01,1.970000000000000000e+02,8.700000000000000000e+01,3.600000000000000000e+01,3.500000000000000000e+01,3.100000000000000000e+01,5.200000000000000000e+01,5.699999999999999512e-01,2.242718400000000000e+09
6.400000000000000000e+01,6.700000000000000000e+01,2.200000000000000000e+02,8.900000000000000000e+01,3.700000000000000000e+01,3.500000000000000000e+01,2.800000000000000000e+01,5.300000000000000000e+01,5.699999999999999512e-01,2.261466700000000000e+09
5.900000000000000000e+01,6.300000000000000000e+01,2.260000000000000000e+02,8.800000000000000000e+01,3.700000000000000000e+01,3.500000000000000000e+01,2.800000000000000000e+01,4.800000000000000000e+01,5.699999999999999512e-01,2.279960800000000000e+09
5.700000000000000000e+01,5.900000000000000000e+01,2.110000000000000000e+02,8.300000000000000000e+01,3.400000000000000000e+01,3.500000000000000000e+01,2.900000000000000000e+01,4.800000000000000000e+01,5.699999999999999512e-01,2.299009300000000000e+09
6.200000000000000000e+01,6.300000000000000000e+01,2.210000000000000000e+02,9.200000000000000000e+01,3.200000000000000000e+01,3.600000000000000000e+01,3.000000000000000000e+01,5.200000000000000000e+01,5.699999999999999512e-01,2.317049500000000000e+09
5.000000000000000000e+01,5.700000000000000000e+01,2.150000000000000000e+02,8.500000000000000000e+01,3.100000000000000000e+01,3.200000000000000000e+01,2.800000000000000000e+01,4.200000000000000000e+01,5.699999999999999512e-01,2.335440000000000000e+09
4.800000000000000000e+01,5.400000000000000000e+01,1.940000000000000000e+02,8.300000000000000000e+01,3.000000000000000000e+01,3.500000000000000000e+01,2.800000000000000000e+01,3.900000000000000000e+01,5.699999999999999512e-01,2.354328600000000000e+09
5.500000000000000000e+01,7.100000000000000000e+01,2.120000000000000000e+02,1.070000000000000000e+02,3.700000000000000000e+01,3.700000000000000000e+01,3.300000000000000000e+01,4.600000000000000000e+01,5.699999999999999512e-01,2.372354500000000000e+09
5.400000000000000000e+01,7.400000000000000000e+01,2.400000000000000000e+02,1.130000000000000000e+02,4.200000000000000000e+01,3.800000000000000000e+01,3.800000000000000000e+01,4.700000000000000000e+01,5.699999999999999512e-01,2.391011100000000000e+09
4.800000000000000000e+01,7.300000000000000000e+01,2.520000000000000000e+02,1.080000000000000000e+02,4.800000000000000000e+01,4.500000000000000000e+01,4.800000000000000000e+01,4.400000000000000000e+01,5.699999999999999512e-01,2.409377300000000000e+09
5.000000000000000000e+01,7.800000000000000000e+01,2.690000000000000000e+02,1.180000000000000000e+02,5.900000000000000000e+01,5.200000000000000000e+01,5.700000000000000000e+01,4.900000000000000000e+01,5.699999999999999512e-01,2.428014700000000000e+09
5.000000000000000000e+01,7.900000000000000000e+01,2.760000000000000000e+02,1.150000000000000000e+02,5.900000000000000000e+01,5.200000000000000000e+01,5.800000000000000000e+01,5.100000000000000000e+01,5.699999999999999512e-01,2.447406000000000000e+09
6.800000000000000000e+01,6.200000000000000000e+01,2.600000000000000000e+02,9.300000000000000000e+01,5.600000000000000000e+01,5.300000000000000000e+01,5.700000000000000000e+01,5.700000000000000000e+01,5.600000000000000533e-01,2.465478100000000000e+09
7.000000000000000000e+01,6.000000000000000000e+01,2.450000000000000000e+02,9.300000000000000000e+01,6.000000000000000000e+01,5.200000000000000000e+01,5.400000000000000000e+01,5.500000000000000000e+01,5.600000000000000533e-01,2.485339000000000000e+09
7.000000000000000000e+01,6.100000000000000000e+01,2.380000000000000000e+02,1.130000000000000000e+02,7.400000000000000000e+01,5.000000000000000000e+01,5.000000000000000000e+01,5.500000000000000000e+01,5.600000000000000533e-01,2.503965900000000000e+09
7.000000000000000000e+01,6.100000000000000000e+01,2.420000000000000000e+02,1.110000000000000000e+02,6.600000000000000000e+01,4.200000000000000000e+01,4.300000000000000000e+01,5.100000000000000000e+01,5.600000000000000533e-01,2.523170400000000000e+09
7.200000000000000000e+01,6.300000000000000000e+01,2.240000000000000000e+02,1.090000000000000000e+02,6.600000000000000000e+01,4.000000000000000000e+01,4.200000000000000000e+01,5.100000000000000000e+01,5.600000000000000533e-01,2.541209500000000000e+09
6.300000000000000000e+01,7.000000000000000000e+01,2.170000000000000000e+02,1.150000000000000000e+02,6.500000000000000000e+01,3.700000000000000000e+01,4.000000000000000000e+01,5.000000000000000000e+01,5.600000000000000533e-01,2.559500400000000000e+09
6.800000000000000000e+01,7.500000000000000000e+01,2.180000000000000000e+02,1.240000000000000000e+02,6.300000000000000000e+01,3.600000000000000000e+01,4.000000000000000000e+01,5.200000000000000000e+01,5.600000000000000533e-01,2.577444600000000000e+09
6.600000000000000000e+01,7.600000000000000000e+01,2.300000000000000000e+02,1.140000000000000000e+02,4.200000000000000000e+01,3.200000000000000000e+01,3.300000000000000000e+01,4.900000000000000000e+01,5.600000000000000533e-01,2.595437200000000000e+09
6.500000000000000000e+01,7.600000000000000000e+01,2.330000000000000000e+02,1.220000000000000000e+02,4.300000000000000000e+01,3.700000000000000000e+01,3.100000000000000000e+01,5.100000000000000000e+01,5.600000000000000533e-01,2.614775600000000000e+09
6.600000000000000000e+01,7.800000000000000000e+01,2.500000000000000000e+02,1.270000000000000000e+02,4.300000000000000000e+01,3.800000000000000000e+01,3.100000000000000000e+01,4.800000000000000000e+01,5.600000000000000533e-01,2.632415000000000000e+09
4.900000000000000000e+01,7.500000000000000000e+01,2.450000000000000000e+02,1.200000000000000000e+02,3.900000000000000000e+01,3.700000000000000000e+01,2.900000000000000000e+01,3.600000000000000000e+01,5.600000000000000533e-01,2.651068900000000000e+09
5.400000000000000000e+01,7.200000000000000000e+01,2.420000000000000000e+02,1.100000000000000000e+02,3.600000000000000000e+01,3.700000000000000000e+01,2.700000000000000000e+01,4.100000000000000000e+01,5.600000000000000533e-01,2.669975000000000000e+09
5.500000000000000000e+01,7.000000000000000000e+01,2.250000000000000000e+02,9.700000000000000000e+01,3.300000000000000000e+01,3.500000000000000000e+01,3.000000000000000000e+01,4.300000000000000000e+01,5.699999999999999512e-01,2.688927900000000000e+09
5.400000000000000000e+01,6.400000000000000000e+01,2.110000000000000000e+02,9.500000000000000000e+01,3.000000000000000000e+01,3.000000000000000000e+01,3.000000000000000000e+01,4.100000000000000000e+01,5.699999999999999512e-01,2.707145400000000000e+09
5.000000000000000000e+01,5.500000000000000000e+01,1.990000000000000000e+02,8.900000000000000000e+01,3.000000000000000000e+01,2.900000000000000000e+01,3.000000000000000000e+01,4.000000000000000000e+01,5.699999999999999512e-01,2.725555800000000000e+09
5.600000000000000000e+01,6.700000000000000000e+01,2.500000000000000000e+02,1.120000000000000000e+02,4.300000000000000000e+01,3.600000000000000000e+01,4.100000000000000000e+01,4.400000000000000000e+01,5.699999999999999512e-01,2.743736300000000000e+09
5.600000000000000000e+01,6.800000000000000000e+01,2.560000000000000000e+02,1.160000000000000000e+02,4.600000000000000000e+01,4.400000000000000000e+01,4.900000000000000000e+01,4.900000000000000000e+01,5.699999999999999512e-01,2.763408400000000000e+09
6.000000000000000000e+01,7.200000000000000000e+01,2.530000000000000000e+02,1.260000000000000000e+02,5.100000000000000000e+01,4.900000000000000000e+01,4.900000000000000000e+01,5.200000000000000000e+01,5.699999999999999512e-01,2.781967500000000000e+09
6.200000000000000000e+01,8.600000000000000000e+01,2.890000000000000000e+02,1.250000000000000000e+02,5.300000000000000000e+01,5.200000000000000000e+01,5.000000000000000000e+01,5.400000000000000000e+01,5.799999999999999600e-01,2.801311300000000000e+09
6.500000000000000000e+01,9.200000000000000000e+01,3.240000000000000000e+02,1.420000000000000000e+02,5.900000000000000000e+01,6.200000000000000000e+01,6.700000000000000000e+01,6.400000000000000000e+01,5.799999999999999600e-01,2.818784500000000000e+09
6.700000000000000000e+01,8.400000000000000000e+01,2.930000000000000000e+02,1.310000000000000000e+02,5.400000000000000000e+01,6.200000000000000000e+01,6.600000000000000000e+01,6.600000000000000000e+01,5.799999999999999600e-01,2.836454800000000000e+09
6.100000000000000000e+01,8.100000000000000000e+01,2.910000000000000000e+02,1.280000000000000000e+02,5.000000000000000000e+01,5.700000000000000000e+01,6.100000000000000000e+01,5.800000000000000000e+01,5.799999999999999600e-01,2.853448400000000000e+09
5.900000000000000000e+01,8.100000000000000000e+01,2.950000000000000000e+02,1.210000000000000000e+02,4.700000000000000000e+01,5.500000000000000000e+01,5.900000000000000000e+01,5.600000000000000000e+01,5.699999999999999512e-01,2.870356500000000000e+09
5.700000000000000000e+01,7.000000000000000000e+01,2.670000000000000000e+02,1.140000000000000000e+02,4.600000000000000000e+01,5.300000000000000000e+01,6.100000000000000000e+01,6.000000000000000000e+01,5.699999999999999512e-01,2.888467800000000000e+09
5.500000000000000000e+01,6.600000000000000000e+01,2.750000000000000000e+02,1.070000000000000000e+02,3.800000000000000000e+01,4.100000000000000000e+01,4.200000000000000000e+01,5.000000000000000000e+01,5.699999999999999512e-01,2.906278300000000000e+09
5.100000000000000000e+01,7.800000000000000000e+01,2.830000000000000000e+02,1.120000000000000000e+02,3.300000000000000000e+01,3.500000000000000000e+01,3.200000000000000000e+01,4.700000000000000000e+01,5.799999999999999600e-01,2.925560300000000000e+09
5.900000000000000000e+01,8.800000000000000000e+01,2.850000000000000000e+02,1.260000000000000000e+02,4.100000000000000000e+01,3.500000000000000000e+01,3.400000000000000000e+01,5.200000000000000000e+01,5.799999999999999600e-01,2.943628600000000000e+09
5.800000000000000000e+01,9.000000000000000000e+01,2.790000000000000000e+02,1.470000000000000000e+02,4.500000000000000000e+01,1.260000000000000000e+02,3.300000000000000000e+01,5.200000000000000000e+01,5.799999999999999600e-01,2.961167000000000000e+09
5.700000000000000000e+01,9.300000000000000000e+01,2.680000000000000000e+02,1.480000000000000000e+02,4.600000000000000000e+01,1.520000000000000000e+02,3.000000000000000000e+01,4.600000000000000000e+01,5.799999999999999600e-01,2.978409400000000000e+09
5.700000000000000000e+01,9.600000000000000000e+01,2.350000000000000000e+02,1.530000000000000000e+02,4.800000000000000000e+01,1.600000000000000000e+02,3.000000000000000000e+01,4.600000000000000000e+01,5.899999999999999689e-01,2.995413900000000000e+09
5.600000000000000000e+01,8.700000000000000000e+01,2.350000000000000000e+02,1.570000000000000000e+02,5.000000000000000000e+01,1.600000000000000000e+02,3.500000000000000000e+01,4.700000000000000000e+01,5.899999999999999689e-01,3.012007700000000000e+09
5.800000000000000000e+01,7.900000000000000000e+01,2.270000000000000000e+02,1.510000000000000000e+02,4.700000000000000000e+01,1.610000000000000000e+02,3.400000000000000000e+01,4.500000000000000000e+01,5.899999999999999689e-01,3.030744400000000000e+09
5.900000000000000000e+01,7.300000000000000000e+01,2.110000000000000000e+02,1.280000000000000000e+02,4.300000000000000000e+01,1.040000000000000000e+02,3.400000000000000000e+01,4.700000000000000000e+01,5.899999999999999689e-01,3.047416000000000000e+09
5.900000000000000000e+01,7.200000000000000000e+01,2.240000000000000000e+02,1.310000000000000000e+02,4.500000000000000000e+01,6.500000000000000000e+01,3.400000000000000000e+01,4.600000000000000000e+01,5.999999999999999778e-01,3.064437300000000000e+09
5.800000000000000000e+01,6.600000000000000000e+01,1.960000000000000000e+02,1.100000000000000000e+02,4.200000000000000000e+01,4.400000000000000000e+01,3.600000000000000000e+01,4.600000000000000000e+01,5.999999999999999778e-01,3.082511200000000000e+09
5.500000000000000000e+01,6.100000000000000000e+01,1.760000000000000000e+02,8.800000000000000000e+01,3.700000000000000000e+01,4.600000000000000000e+01,3.400000000000000000e+01,4.500000000000000000e+01,5.999999999999999778e-01,3.100925600000000000e+09
5.100000000000000000e+01,7.000000000000000000e+01,1.920000000000000000e+02,9.300000000000000000e+01,4.200000000000000000e+01,4.600000000000000000e+01,3.600000000000000000e+01,4.400000000000000000e+01,5.999999999999999778e-01,3.118606600000000000e+09
5.600000000000000000e+01,9.000000000000000000e+01,2.350000000000000000e+02,1.110000000000000000e+02,4.700000000000000000e+01,5.100000000000000000e+01,4.200000000000000000e+01,4.500000000000000000e+01,5.999999999999999778e-01,3.135243700000000000e+09
5.600000000000000000e+01,9.300000000000000000e+01,2.350000000000000000e+02,1.100000000000000000e+02,4.800000000000000000e+01,4.800000000000000000e+01,4.300000000000000000e+01,4.600000000000000000e+01,5.999999999999999778e-01,3.152054600000000000e+09
6.000000000000000000e+01,9.600000000000000000e+01,2.580000000000000000e+02,1.180000000000000000e+02,5.400000000000000000e+01,5.200000000000000000e+01,4.800000000000000000e+01,4.800000000000000000e+01,5.999999999999999778e-01,3.168780000000000000e+09
6.500000000000000000e+01,9.700000000000000000e+01,2.600000000000000000e+02,1.200000000000000000e+02,5.500000000000000000e+01,4.900000000000000000e+01,4.600000000000000000e+01,4.900000000000000000e+01,5.999999999999999778e-01,3.185417900000000000e+09
5.700000000000000000e+01,8.900000000000000000e+01,2.470000000000000000e+02,1.130000000000000000e+02,5.200000000000000000e+01,4.800000000000000000e+01,4.500000000000000000e+01,4.400000000000000000e+01,5.899999999999999689e-01,3.201736700000000000e+09
5.100000000000000000e+01,6.800000000000000000e+01,2.130000000000000000e+02,1.030000000000000000e+02,4.700000000000000000e+01,4.100000000000000000e+01,4.100000000000000000e+01,4.500000000000000000e+01,5.899999999999999689e-01,3.218901500000000000e+09
5.200000000000000000e+01,5.800000000000000000e+01,2.060000000000000000e+02,1.020000000000000000e+02,4.300000000000000000e+01,3.800000000000000000e+01,3.800000000000000000e+01,4.700000000000000000e+01,5.899999999999999689e-01,3.235355200000000000e+09
4.900000000000000000e+01,5.800000000000000000e+01,1.830000000000000000e+02,9.800000000000000000e+01,3.600000000000000000e+01,3.100000000000000000e+01,3.200000000000000000e+01,4.300000000000000000e+01,5.799999999999999600e-01,3.253545800000000000e+09
4.500000000000000000e+01,6.300000000000000000e+01,1.910000000000000000e+02,1.090000000000000000e+02,3.500000000000000000e+01,3.000000000000000000e+01,3.500000000000000000e+01,4.100000000000000000e+01,5.799999999999999600e-01,3.272288100000000000e+09
5.800000000000000000e+01,7.000000000000000000e+01,1.930000000000000000e+02,1.160000000000000000e+02,3.500000000000000000e+01,3.300000000000000000e+01,3.700000000000000000e+01,4.700000000000000000e+01,5.799999999999999600e-01,3.290341200000000000e+09
6.500000000000000000e+01,7.500000000000000000e+01,1.990000000000000000e+02,1.100000000000000000e+02,3.700000000000000000e+01,3.900000000000000000e+01,3.700000000000000000e+01,5.100000000000000000e+01,5.799999999999999600e-01,3.307356800000000000e+09
6.300000000000000000e+01,7.900000000000000000e+01,2.480000000000000000e+02,1.420000000000000000e+02,3.900000000000000000e+01,1.010000000000000000e+02,3.900000000000000000e+01,4.800000000000000000e+01,5.799999999999999600e-01,3.323900900000000000e+09
6.500000000000000000e+01,7.900000000000000000e+01,2.750000000000000000e+02,1.550000000000000000e+02,4.100000000000000000e+01,1.150000000000000000e+02,4.000000000000000000e+01,5.000000000000000000e+01,5.899999999999999689e-01,3.340472500000000000e+09
6.300000000000000000e+01,7.600000000000000000e+01,2.730000000000000000e+02,1.460000000000000000e+02,4.000000000000000000e+01,1.190000000000000000e+02,3.800000000000000000e+01,5.300000000000000000e+01,5.899999999999999689e-01,3.357132900000000000e+09
6.300000000000000000e+01,7.000000000000000000e+01,2.670000000000000000e+02,1.400000000000000000e+02,3.900000000000000000e+01,1.190000000000000000e+02,3.500000000000000000e+01,5.000000000000000000e+01,5.899999999999999689e-01,3.377828800000000000e+09
5.400000000000000000e+01,6.500000000000000000e+01,2.660000000000000000e+02,1.410000000000000000e+02,3.600000000000000000e+01,1.170000000000000000e+02,3.100000000000000000e+01,4.300000000000000000e+01,5.899999999999999689e-01,3.402182900000000000e+09
5.400000000000000000e+01,6.200000000000000000e+01,2.100000000000000000e+02,1.120000000000000000e+02,3.600000000000000000e+01,7.800000000000000000e+01,3.500000000000000000e+01,4.700000000000000000e+01,5.899999999999999689e-01,3.421822900000000000e+09
5.400000000000000000e+01,5.900000000000000000e+01,1.770000000000000000e+02,9.200000000000000000e+01,3.600000000000000000e+01,5.600000000000000000e+01,3.900000000000000000e+01,5.000000000000000000e+01,5.899999999999999689e-01,3.439698000000000000e+09
5.600000000000000000e+01,6.200000000000000000e+01,1.810000000000000000e+02,1.020000000000000000e+02,3.600000000000000000e+01,4.700000000000000000e+01,3.900000000000000000e+01,4.400000000000000000e+01,5.899999999999999689e-01,3.463355900000000000e+09
5.000000000000000000e+01,6.100000000000000000e+01,1.730000000000000000e+02,9.400000000000000000e+01,3.500000000000000000e+01,4.800000000000000000e+01,3.900000000000000000e+01,4.200000000000000000e+01,5.899999999999999689e-01,3.480399000000000000e+09
4.900000000000000000e+01,6.100000000000000000e+01,1.790000000000000000e+02,9.100000000000000000e+01,3.400000000000000000e+01,4.700000000000000000e+01,4.000000000000000000e+01,4.000000000000000000e+01,5.899999999999999689e-01,3.497632700000000000e+09
4.900000000000000000e+01,6.000000000000000000e+01,1.830000000000000000e+02,8.500000000000000000e+01,3.400000000000000000e+01,3.200000000000000000e+01,3.400000000000000000e+01,3.600000000000000000e+01,5.899999999999999689e-01,3.514087700000000000e+09
4.900000000000000000e+01,6.100000000000000000e+01,1.980000000000000000e+02,9.400000000000000000e+01,3.400000000000000000e+01,3.000000000000000000e+01,3.100000000000000000e+01,3.300000000000000000e+01,5.899999999999999689e-01,3.532580000000000000e+09
4.400000000000000000e+01,5.500000000000000000e+01,1.820000000000000000e+02,8.000000000000000000e+01,3.200000000000000000e+01,3.100000000000000000e+01,2.900000000000000000e+01,3.300000000000000000e+01,5.899999999999999689e-01,3.550092000000000000e+09
4.100000000000000000e+01,6.200000000000000000e+01,2.000000000000000000e+02,9.300000000000000000e+01,3.400000000000000000e+01,2.800000000000000000e+01,2.800000000000000000e+01,3.400000000000000000e+01,5.899999999999999689e-01,3.567854200000000000e+09
4.300000000000000000e+01,6.200000000000000000e+01,1.970000000000000000e+02,9.500000000000000000e+01,3.400000000000000000e+01,3.100000000000000000e+01,2.700000000000000000e+01,3.600000000000000000e+01,5.799999999999999600e-01,3.587526500000000000e+09
4.600000000000000000e+01,6.600000000000000000e+01,2.380000000000000000e+02,1.180000000000000000e+02,3.500000000000000000e+01,3.100000000000000000e+01,2.700000000000000000e+01,3.800000000000000000e+01,5.799999999999999600e-01,3.605468100000000000e+09
4.400000000000000000e+01,6.600000000000000000e+01,2.200000000000000000e+02,1.150000000000000000e+02,3.300000000000000000e+01,3.100000000000000000e+01,2.800000000000000000e+01,4.100000000000000000e+01,5.799999999999999600e-01,3.623741000000000000e+09
4.900000000000000000e+01,6.800000000000000000e+01,2.180000000000000000e+02,1.190000000000000000e+02,3.600000000000000000e+01,3.000000000000000000e+01,2.900000000000000000e+01,4.200000000000000000e+01,5.799999999999999600e-01,3.640410700000000000e+09
5.100000000000000000e+01,7.300000000000000000e+01,2.550000000000000000e+02,1.370000000000000000e+02,4.000000000000000000e+01,3.100000000000000000e+01,3.100000000000000000e+01,4.300000000000000000e+01,5.799999999999999600e-01,3.658352300000000000e+09
5.400000000000000000e+01,7.800000000000000000e+01,2.650000000000000000e+02,1.470000000000000000e+02,4.500000000000000000e+01,3.500000000000000000e+01,3.900000000000000000e+01,4.800000000000000000e+01,5.799999999999999600e-01,3.676862100000000000e+09
5.200000000000000000e+01,7.200000000000000000e+01,2.260000000000000000e+02,1.260000000000000000e+02,4.300000000000000000e+01,3.600000000000000000e+01,3.900000000000000000e+01,4.600000000000000000e+01,5.799999999999999600e-01,3.695505700000000000e+09
5.300000000000000000e+01,7.200000000000000000e+01,2.300000000000000000e+02,1.240000000000000000e+02,4.400000000000000000e+01,3.700000000000000000e+01,4.000000000000000000e+01,5.200000000000000000e+01,5.799999999999999600e-01,3.714834900000000000e+09
5.400000000000000000e+01,7.900000000000000000e+01,2.760000000000000000e+02,1.310000000000000000e+02,4.700000000000000000e+01,4.000000000000000000e+01,4.100000000000000000e+01,5.500000000000000000e+01,5.899999999999999689e-01,3.732476200000000000e+09
5.500000000000000000e+01,6.700000000000000000e+01,2.350000000000000000e+02,1.120000000000000000e+02,4.100000000000000000e+01,4.000000000000000000e+01,4.200000000000000000e+01,5.600000000000000000e+01,5.899999999999999689e-01,3.749634000000000000e+09
5.400000000000000000e+01,5.900000000000000000e+01,2.180000000000000000e+02,9.500000000000000000e+01,3.700000000000000000e+01,3.500000000000000000e+01,3.600000000000000000e+01,5.100000000000000000e+01,5.899999999999999689e-01,3.766434400000000000e+09
5.500000000000000000e+01,6.000000000000000000e+01,2.460000000000000000e+02,1.050000000000000000e+02,3.600000000000000000e+01,3.400000000000000000e+01,3.500000000000000000e+01,5.400000000000000000e+01,5.899999999999999689e-01,3.782779200000000000e+09
5.300000000000000000e+01,6.500000000000000000e+01,2.580000000000000000e+02,1.240000000000000000e+02,3.900000000000000000e+01,3.200000000000000000e+01,3.100000000000000000e+01,4.500000000000000000e+01,5.899999999999999689e-01,3.801158200000000000e+09
5.300000000000000000e+01,6.100000000000000000e+01,2.190000000000000000e+02,1.190000000000000000e+02,3.500000000000000000e+01,2.900000000000000000e+01,3.000000000000000000e+01,4.200000000000000000e+01,5.899999999999999689e-01,3.819683800000000000e+09
5.200000000000000000e+01,6.500000000000000000e+01,2.370000000000000000e+02,1.240000000000000000e+02,3.800000000000000000e+01,2.600000000000000000e+01,2.700000000000000000e+01,3.900000000000000000e+01,5.899999999999999689e-01,3.837628400000000000e+09
5.400000000000000000e+01,7.100000000000000000e+01,2.640000000000000000e+02,1.360000000000000000e+02,3.900000000000000000e+01,3.000000000000000000e+01,3.000000000000000000e+01,4.700000000000000000e+01,5.899999999999999689e-01,3.854601400000000000e+09
5.400000000000000000e+01,7.200000000000000000e+01,2.460000000000000000e+02,1.360000000000000000e+02,3.900000000000000000e+01,3.000000000000000000e+01,3.000000000000000000e+01,4.200000000000000000e+01,5.899999999999999689e-01,3.871548400000000000e+09
5.700000000000000000e+01,7.000000000000000000e+01,2.280000000000000000e+02,1.200000000000000000e+02,3.600000000000000000e+01,2.900000000000000000e+01,3.300000000000000000e+01,4.500000000000000000e+01,5.899999999999999689e-01,3.888082900000000000e+09
6.700000000000000000e+01,6.400000000000000000e+01,2.260000000000000000e+02,1.130000000000000000e+02,3.600000000000000000e+01,2.900000000000000000e+01,3.300000000000000000e+01,5.100000000000000000e+01,5.899999999999999689e-01,3.906034000000000000e+09
6.100000000000000000e+01,6.500000000000000000e+01,2.140000000000000000e+02,1.040000000000000000e+02,3.300000000000000000e+01,2.900000000000000000e+01,3.400000000000000000e+01,5.000000000000000000e+01,5.899999999999999689e-01,3.923659000000000000e+09
5.900000000000000000e+01,7.400000000000000000e+01,2.490000000000000000e+02,1.200000000000000000e+02,3.700000000000000000e+01,2.600000000000000000e+01,3.100000000000000000e+01,4.500000000000000000e+01,5.899999999999999689e-01,3.940641800000000000e+09
6.200000000000000000e+01,7.600000000000000000e+01,2.840000000000000000e+02,1.240000000000000000e+02,3.800000000000000000e+01,2.600000000000000000e+01,3.000000000000000000e+01,4.800000000000000000e+01,5.899999999999999689e-01,3.957200500000000000e+09
5.900000000000000000e+01,7.100000000000000000e+01,2.830000000000000000e+02,1.180000000000000000e+02,3.400000000000000000e+01,2.500000000000000000e+01,2.600000000000000000e+01,4.500000000000000000e+01,5.899999999999999689e-01,3.973732500000000000e+09
5.500000000000000000e+01,7.700000000000000000e+01,3.070000000000000000e+02,1.430000000000000000e+02,3.700000000000000000e+01,2.700000000000000000e+01,2.600000000000000000e+01,3.900000000000000000e+01,5.999999999999999778e-01,3.991057500000000000e+09
5.500000000000000000e+01,7.800000000000000000e+01,3.200000000000000000e+02,1.440000000000000000e+02,3.700000000000000000e+01,2.700000000000000000e+01,2.500000000000000000e+01,3.800000000000000000e+01,5.999999999999999778e-01,4.008531100000000000e+09
5.600000000000000000e+01,6.900000000000000000e+01,2.840000000000000000e+02,1.250000000000000000e+02,3.500000000000000000e+01,3.200000000000000000e+01,2.800000000000000000e+01,3.700000000000000000e+01,5.999999999999999778e-01,4.025554100000000000e+09
5.300000000000000000e+01,6.600000000000000000e+01,2.560000000000000000e+02,1.270000000000000000e+02,3.500000000000000000e+01,3.300000000000000000e+01,3.000000000000000000e+01,3.500000000000000000e+01,5.999999999999999778e-01,4.042972100000000000e+09
5.900000000000000000e+01,6.800000000000000000e+01,2.550000000000000000e+02,1.290000000000000000e+02,3.600000000000000000e+01,3.300000000000000000e+01,3.200000000000000000e+01,3.500000000000000000e+01,5.999999999999999778e-01,4.060347400000000000e+09
5.400000000000000000e+01,6.300000000000000000e+01,2.350000000000000000e+02,1.040000000000000000e+02,3.400000000000000000e+01,3.100000000000000000e+01,3.000000000000000000e+01,3.600000000000000000e+01,5.999999999999999778e-01,4.077558100000000000e+09
5.700000000000000000e+01,5.900000000000000000e+01,2.160000000000000000e+02,1.010000000000000000e+02,3.500000000000000000e+01,3.500000000000000000e+01,3.300000000000000000e+01,4.200000000000000000e+01,5.999999999999999778e-01,4.094491100000000000e+09
6.700000000000000000e+01,6.000000000000000000e+01,2.210000000000000000e+02,1.090000000000000000e+02,3.300000000000000000e+01,3.100000000000000000e+01,3.200000000000000000e+01,4.600000000000000000e+01,5.999999999999999778e-01,4.111361500000000000e+09
6.800000000000000000e+01,6.200000000000000000e+01,2.110000000000000000e+02,1.070000000000000000e+02,3.300000000000000000e+01,3.100000000000000000e+01,3.200000000000000000e+01,4.700000000000000000e+01,5.999999999999999778e-01,4.128759100000000000e+09
6.800000000000000000e+01,6.300000000000000000e+01,2.310000000000000000e+02,1.050000000000000000e+02,3.200000000000000000e+01,3.300000000000000000e+01,3.400000000000000000e+01,5.800000000000000000e+01,5.999999999999999778e-01,4.146231800000000000e+09
6.800000000000000000e+01,6.500000000000000000e+01,2.150000000000000000e+02,1.080000000000000000e+02,3.300000000000000000e+01,4.600000000000000000e+01,3.500000000000000000e+01,5.700000000000000000e+01,5.999999999999999778e-01,4.163288900000000000e+09
7.000000000000000000e+01,6.600000000000000000e+01,2.220000000000000000e+02,1.200000000000000000e+02,3.600000000000000000e+01,6.500000000000000000e+01,4.100000000000000000e+01,5.900000000000000000e+01,5.999999999999999778e-01,4.180796000000000000e+09
5.900000000000000000e+01,6.300000000000000000e+01,2.140000000000000000e+02,1.120000000000000000e+02,3.500000000000000000e+01,7.000000000000000000e+01,4.000000000000000000e+01,5.600000000000000000e+01,5.899999999999999689e-01,4.198013200000000000e+09
5.700000000000000000e+01,6.000000000000000000e+01,2.160000000000000000e+02,1.010000000000000000e+02,3.700000000000000000e+01,7.300000000000000000e+01,3.800000000000000000e+01,5.400000000000000000e+01,5.899999999999999689e-01,4.214857800000000000e+09
6.000000000000000000e+01,6.100000000000000000e+01,2.200000000000000000e+02,1.140000000000000000e+02,3.900000000000000000e+01,7.400000000000000000e+01,3.900000000000000000e+01,5.100000000000000000e+01,5.899999999999999689e-01,4.232884600000000000e+09
5.800000000000000000e+01,5.600000000000000000e+01,2.390000000000000000e+02,1.090000000000000000e+02,3.600000000000000000e+01,6.700000000000000000e+01,3.900000000000000000e+01,5.300000000000000000e+01,5.899999999999999689e-01,4.250430600000000000e+09
5.400000000000000000e+01,5.900000000000000000e+01,2.410000000000000000e+02,1.030000000000000000e+02,3.600000000000000000e+01,4.900000000000000000e+01,3.000000000000000000e+01,5.000000000000000000e+01,5.899999999999999689e-01,4.268597100000000000e+09
6.900000000000000000e+01,6.000000000000000000e+01,2.290000000000000000e+02,9.800000000000000000e+01,3.800000000000000000e+01,4.400000000000000000e+01,3.200000000000000000e+01,6.600000000000000000e+01,5.899999999999999689e-01,4.285972700000000000e+09
7.200000000000000000e+01,5.900000000000000000e+01,2.220000000000000000e+02,9.500000000000000000e+01,3.400000000000000000e+01,3.700000000000000000e+01,3.700000000000000000e+01,7.200000000000000000e+01,5.799999999999999600e-01,4.303388800000000000e+09
7.000000000000000000e+01,5.800000000000000000e+01,2.200000000000000000e+02,8.600000000000000000e+01,3.300000000000000000e+01,3.600000000000000000e+01,4.000000000000000000e+01,7.000000000000000000e+01,5.799999999999999600e-01,4.320742700000000000e+09
6.800000000000000000e+01,6.100000000000000000e+01,1.920000000000000000e+02,8.700000000000000000e+01,3.600000000000000000e+01,3.600000000000000000e+01,4.100000000000000000e+01,6.800000000000000000e+01,5.799999999999999600e-01,4.338211300000000000e+09
7.100000000000000000e+01,5.400000000000000000e+01,1.770000000000000000e+02,9.100000000000000000e+01,3.200000000000000000e+01,3.100000000000000000e+01,4.000000000000000000e+01,6.900000000000000000e+01,5.799999999999999600e-01,4.355905100000000000e+09
6.000000000000000000e+01,5.800000000000000000e+01,2.350000000000000000e+02,9.500000000000000000e+01,3.100000000000000000e+01,2.700000000000000000e+01,3.800000000000000000e+01,5.800000000000000000e+01,5.799999999999999600e-01,4.373682800000000000e+09
6.700000000000000000e+01,7.000000000000000000e+01,2.340000000000000000e+02,1.010000000000000000e+02,3.700000000000000000e+01,2.800000000000000000e+01,3.700000000000000000e+01,5.400000000000000000e+01,5.699999999999999512e-01,4.392241200000000000e+09
6.000000000000000000e+01,6.500000000000000000e+01,2.160000000000000000e+02,1.030000000000000000e+02,3.500000000000000000e+01,2.400000000000000000e+01,3.000000000000000000e+01,5.100000000000000000e+01,5.699999999999999512e-01,4.410646500000000000e+09
6.900000000000000000e+01,7.000000000000000000e+01,2.420000000000000000e+02,1.070000000000000000e+02,3.400000000000000000e+01,2.500000000000000000e+01,3.000000000000000000e+01,5.700000000000000000e+01,5.699999999999999512e-01,4.428566600000000000e+09
6.600000000000000000e+01,8.600000000000000000e+01,2.810000000000000000e+02,1.120000000000000000e+02,4.200000000000000000e+01,2.700000000000000000e+01,3.300000000000000000e+01,5.600000000000000000e+01,5.699999999999999512e-01,4.446874000000000000e+09
6.600000000000000000e+01,8.400000000000000000e+01,2.420000000000000000e+02,1.090000000000000000e+02,4.000000000000000000e+01,3.100000000000000000e+01,3.400000000000000000e+01,5.700000000000000000e+01,5.699999999999999512e-01,4.465330500000000000e+09
6.900000000000000000e+01,7.800000000000000000e+01,2.430000000000000000e+02,1.110000000000000000e+02,3.700000000000000000e+01,4.700000000000000000e+01,3.400000000000000000e+01,5.700000000000000000e+01,5.699999999999999512e-01,4.484525300000000000e+09
7.300000000000000000e+01,8.400000000000000000e+01,2.550000000000000000e+02,1.100000000000000000e+02,3.900000000000000000e+01,8.200000000000000000e+01,3.600000000000000000e+01,6.400000000000000000e+01,5.699999999999999512e-01,4.502945000000000000e+09
6.800000000000000000e+01,8.300000000000000000e+01,2.440000000000000000e+02,1.040000000000000000e+02,3.800000000000000000e+01,9.100000000000000000e+01,3.600000000000000000e+01,6.200000000000000000e+01,5.699999999999999512e-01,4.521510100000000000e+09
6.600000000000000000e+01,7.300000000000000000e+01,2.240000000000000000e+02,8.700000000000000000e+01,3.100000000000000000e+01,9.300000000000000000e+01,3.300000000000000000e+01,5.900000000000000000e+01,5.699999999999999512e-01,4.540799600000000000e+09
7.800000000000000000e+01,7.200000000000000000e+01,2.240000000000000000e+02,8.800000000000000000e+01,3.400000000000000000e+01,9.500000000000000000e+01,3.300000000000000000e+01,6.000000000000000000e+01,5.699999999999999512e-01,4.559506500000000000e+09
6.600000000000000000e+01,7.000000000000000000e+01,2.270000000000000000e+02,8.100000000000000000e+01,3.200000000000000000e+01,8.800000000000000000e+01,3.000000000000000000e+01,5.500000000000000000e+01,5.699999999999999512e-01,4.577033600000000000e+09
6.500000000000000000e+01,6.600000000000000000e+01,2.320000000000000000e+02,7.700000000000000000e+01,3.000000000000000000e+01,5.800000000000000000e+01,3.000000000000000000e+01,4.700000000000000000e+01,5.699999999999999512e-01,4.594603500000000000e+09
6.700000000000000000e+01,5.800000000000000000e+01,2.290000000000000000e+02,8.500000000000000000e+01,3.100000000000000000e+01,4.200000000000000000e+01,2.800000000000000000e+01,4.200000000000000000e+01,5.699999999999999512e-01,4.613132500000000000e+09
7.100000000000000000e+01,5.700000000000000000e+01,1.900000000000000000e+02,8.700000000000000000e+01,3.200000000000000000e+01,3.400000000000000000e+01,2.800000000000000000e+01,4.600000000000000000e+01,5.699999999999999512e-01,4.632802300000000000e+09
5.800000000000000000e+01,5.600000000000000000e+01,1.750000000000000000e+02,7.700000000000000000e+01,3.000000000000000000e+01,2.500000000000000000e+01,2.800000000000000000e+01,4.700000000000000000e+01,5.699999999999999512e-01,4.650650300000000000e+09
7.100000000000000000e+01,5.800000000000000000e+01,1.990000000000000000e+02,8.100000000000000000e+01,2.900000000000000000e+01,2.400000000000000000e+01,3.000000000000000000e+01,5.700000000000000000e+01,5.699999999999999512e-01,4.672668200000000000e+09
6.800000000000000000e+01,6.100000000000000000e+01,1.990000000000000000e+02,8.800000000000000000e+01,3.000000000000000000e+01,2.200000000000000000e+01,2.800000000000000000e+01,5.500000000000000000e+01,5.699999999999999512e-01,4.694771000000000000e+09
6.200000000000000000e+01,6.300000000000000000e+01,1.880000000000000000e+02,7.700000000000000000e+01,3.000000000000000000e+01,2.300000000000000000e+01,2.800000000000000000e+01,5.300000000000000000e+01,5.699999999999999512e-01,4.713179000000000000e+09
6.000000000000000000e+01,5.700000000000000000e+01,2.110000000000000000e+02,7.300000000000000000e+01,2.600000000000000000e+01,2.500000000000000000e+01,2.800000000000000000e+01,5.100000000000000000e+01,5.600000000000000533e-01,4.731852400000000000e+09
6.800000000000000000e+01,6.000000000000000000e+01,2.310000000000000000e+02,8.400000000000000000e+01,2.700000000000000000e+01,2.700000000000000000e+01,2.700000000000000000e+01,5.600000000000000000e+01,5.600000000000000533e-01,4.751614000000000000e+09
5.500000000000000000e+01,5.500000000000000000e+01,2.070000000000000000e+02,8.400000000000000000e+01,2.700000000000000000e+01,2.600000000000000000e+01,2.700000000000000000e+01,4.900000000000000000e+01,5.600000000000000533e-01,4.772415600000000000e+09
5.700000000000000000e+01,5.300000000000000000e+01,1.960000000000000000e+02,7.700000000000000000e+01,2.800000000000000000e+01,2.800000000000000000e+01,2.700000000000000000e+01,5.000000000000000000e+01,5.600000000000000533e-01,4.794905500000000000e+09
5.800000000000000000e+01,6.000000000000000000e+01,2.200000000000000000e+02,8.400000000000000000e+01,3.100000000000000000e+01,2.800000000000000000e+01,2.900000000000000000e+01,5.100000000000000000e+01,5.600000000000000533e-01,4.814216400000000000e+09
6.900000000000000000e+01,6.300000000000000000e+01,2.220000000000000000e+02,9.400000000000000000e+01,3.300000000000000000e+01,2.500000000000000000e+01,3.000000000000000000e+01,5.800000000000000000e+01,5.600000000000000533e-01,4.834518800000000000e+09
5.800000000000000000e+01,6.100000000000000000e+01,2.050000000000000000e+02,9.100000000000000000e+01,3.300000000000000000e+01,2.500000000000000000e+01,2.800000000000000000e+01,4.800000000000000000e+01,5.600000000000000533e-01,4.853842400000000000e+09
6.700000000000000000e+01,7.200000000000000000e+01,2.540000000000000000e+02,1.060000000000000000e+02,3.600000000000000000e+01,2.700000000000000000e+01,2.800000000000000000e+01,5.300000000000000000e+01,5.600000000000000533e-01,4.872761000000000000e+09
6.600000000000000000e+01,6.800000000000000000e+01,2.560000000000000000e+02,1.130000000000000000e+02,3.600000000000000000e+01,2.500000000000000000e+01,3.000000000000000000e+01,5.100000000000000000e+01,5.600000000000000533e-01,4.894751900000000000e+09
7.900000000000000000e+01,6.800000000000000000e+01,2.550000000000000000e+02,1.220000000000000000e+02,3.700000000000000000e+01,2.500000000000000000e+01,3.000000000000000000e+01,5.900000000000000000e+01,5.600000000000000533e-01,4.913404400000000000e+09
6.800000000000000000e+01,6.600000000000000000e+01,2.440000000000000000e+02,1.180000000000000000e+02,3.600000000000000000e+01,2.600000000000000000e+01,3.100000000000000000e+01,5.400000000000000000e+01,5.600000000000000533e-01,4.932459700000000000e+09
6.900000000000000000e+01,6.900000000000000000e+01,2.570000000000000000e+02,1.360000000000000000e+02,4.000000000000000000e+01,2.600000000000000000e+01,3.200000000000000000e+01,5.400000000000000000e+01,5.600000000000000533e-01,4.950716900000000000e+09
6.300000000000000000e+01,6.500000000000000000e+01,2.220000000000000000e+02,1.240000000000000000e+02,4.000000000000000000e+01,2.700000000000000000e+01,3.100000000000000000e+01,5.100000000000000000e+01,5.699999999999999512e-01,4.972274600000000000e+09
6.700000000000000000e+01,6.400000000000000000e+01,1.990000000000000000e+02,1.130000000000000000e+02,3.900000000000000000e+01,2.800000000000000000e+01,2.900000000000000000e+01,5.400000000000000000e+01,5.699999999999999512e-01,4.994706700000000000e+09
5.300000000000000000e+01,6.200000000000000000e+01,1.860000000000000000e+02,1.090000000000000000e+02,4.000000000000000000e+01,3.000000000000000000e+01,2.800000000000000000e+01,4.800000000000000000e+01,5.699999999999999512e-01,5.012875800000000000e+09
5.800000000000000000e+01,8.600000000000000000e+01,2.770000000000000000e+02,1.440000000000000000e+02,4.700000000000000000e+01,3.400000000000000000e+01,3.200000000000000000e+01,5.100000000000000000e+01,5.699999999999999512e-01,5.034500400000000000e+09
5.800000000000000000e+01,8.900000000000000000e+01,2.800000000000000000e+02,1.280000000000000000e+02,4.500000000000000000e+01,3.300000000000000000e+01,3.100000000000000000e+01,5.100000000000000000e+01,5.799999999999999600e-01,5.052509400000000000e+09
5.400000000000000000e+01,8.800000000000000000e+01,3.020000000000000000e+02,1.290000000000000000e+02,4.300000000000000000e+01,3.200000000000000000e+01,3.200000000000000000e+01,5.000000000000000000e+01,5.799999999999999600e-01,5.072472900000000000e+09
5.700000000000000000e+01,8.800000000000000000e+01,3.090000000000000000e+02,1.320000000000000000e+02,4.400000000000000000e+01,3.100000000000000000e+01,3.200000000000000000e+01,4.900000000000000000e+01,5.799999999999999600e-01,5.094594600000000000e+09
5.300000000000000000e+01,8.600000000000000000e+01,3.000000000000000000e+02,1.260000000000000000e+02,4.100000000000000000e+01,2.900000000000000000e+01,3.400000000000000000e+01,4.800000000000000000e+01,5.799999999999999600e-01,5.113999400000000000e+09
4.400000000000000000e+01,6.300000000000000000e+01,2.210000000000000000e+02,8.800000000000000000e+01,3.400000000000000000e+01,2.600000000000000000e+01,2.900000000000000000e+01,4.300000000000000000e+01,5.799999999999999600e-01,5.131979300000000000e+09
4.300000000000000000e+01,5.600000000000000000e+01,2.370000000000000000e+02,8.300000000000000000e+01,3.000000000000000000e+01,2.600000000000000000e+01,2.900000000000000000e+01,4.100000000000000000e+01,5.799999999999999600e-01,5.150924900000000000e+09
4.700000000000000000e+01,6.300000000000000000e+01,2.160000000000000000e+02,8.900000000000000000e+01,3.000000000000000000e+01,2.900000000000000000e+01,2.800000000000000000e+01,4.000000000000000000e+01,5.799999999999999600e-01,5.172506400000000000e+09
4.900000000000000000e+01,6.500000000000000000e+01,2.210000000000000000e+02,8.800000000000000000e+01,3.100000000000000000e+01,3.100000000000000000e+01,3.100000000000000000e+01,4.500000000000000000e+01,5.799999999999999600e-01,5.194573600000000000e+09
5.100000000000000000e+01,7.000000000000000000e+01,2.580000000000000000e+02,9.200000000000000000e+01,3.000000000000000000e+01,3.000000000000000000e+01,3.000000000000000000e+01,4.900000000000000000e+01,5.799999999999999600e-01,5.214135500000000000e+09
5.700000000000000000e+01,7.900000000000000000e+01,2.760000000000000000e+02,1.060000000000000000e+02,3.400000000000000000e+01,3.000000000000000000e+01,3.200000000000000000e+01,5.000000000000000000e+01,5.799999999999999600e-01,5.232423500000000000e+09
5.700000000000000000e+01,8.200000000000000000e+01,2.510000000000000000e+02,1.120000000000000000e+02,3.600000000000000000e+01,3.000000000000000000e+01,3.100000000000000000e+01,4.900000000000000000e+01,5.799999999999999600e-01,5.250076700000000000e+09
5.400000000000000000e+01,7.500000000000000000e+01,2.490000000000000000e+02,1.100000000000000000e+02,3.700000000000000000e+01,2.600000000000000000e+01,3.100000000000000000e+01,4.900000000000000000e+01,5.799999999999999600e-01,5.272318200000000000e+09
5.200000000000000000e+01,7.700000000000000000e+01,2.580000000000000000e+02,1.190000000000000000e+02,3.600000000000000000e+01,2.400000000000000000e+01,3.100000000000000000e+01,4.400000000000000000e+01,5.799999999999999600e-01,5.294675100000000000e+09
5.200000000000000000e+01,7.500000000000000000e+01,2.380000000000000000e+02,1.230000000000000000e+02,3.600000000000000000e+01,2.500000000000000000e+01,3.100000000000000000e+01,4.100000000000000000e+01,5.799999999999999600e-01,5.314322800000000000e+09
4.700000000000000000e+01,6.600000000000000000e+01,2.440000000000000000e+02,1.100000000000000000e+02,3.100000000000000000e+01,2.600000000000000000e+01,3.100000000000000000e+01,3.600000000000000000e+01,5.799999999999999600e-01,5.332888800000000000e+09
4.700000000000000000e+01,5.700000000000000000e+01,2.380000000000000000e+02,1.000000000000000000e+02,2.800000000000000000e+01,2.600000000000000000e+01,3.100000000000000000e+01,3.600000000000000000e+01,5.799999999999999600e-01,5.350654600000000000e+09
4.800000000000000000e+01,6.100000000000000000e+01,2.490000000000000000e+02,1.140000000000000000e+02,3.200000000000000000e+01,3.000000000000000000e+01,3.000000000000000000e+01,3.700000000000000000e+01,5.799999999999999600e-01,5.372572500000000000e+09
6.000000000000000000e+01,7.200000000000000000e+01,2.920000000000000000e+02,1.150000000000000000e+02,3.600000000000000000e+01,3.100000000000000000e+01,3.000000000000000000e+01,4.100000000000000000e+01,5.799999999999999600e-01,5.395335000000000000e+09
5.800000000000000000e+01,7.600000000000000000e+01,2.960000000000000000e+02,1.100000000000000000e+02,3.800000000000000000e+01,3.100000000000000000e+01,2.900000000000000000e+01,3.900000000000000000e+01,5.799999999999999600e-01,5.413521300000000000e+09
5.800000000000000000e+01,7.500000000000000000e+01,2.850000000000000000e+02,1.140000000000000000e+02,3.600000000000000000e+01,3.000000000000000000e+01,2.700000000000000000e+01,3.900000000000000000e+01,5.799999999999999600e-01,5.431798900000000000e+09
5.900000000000000000e+01,8.100000000000000000e+01,2.990000000000000000e+02,1.180000000000000000e+02,3.800000000000000000e+01,3.300000000000000000e+01,3.100000000000000000e+01,4.800000000000000000e+01,5.799999999999999600e-01,5.451876000000000000e+09
5.800000000000000000e+01,7.500000000000000000e+01,2.790000000000000000e+02,9.900000000000000000e+01,3.300000000000000000e+01,3.000000000000000000e+01,3.100000000000000000e+01,4.800000000000000000e+01,5.799999999999999600e-01,5.473876500000000000e+09
5.800000000000000000e+01,7.000000000000000000e+01,2.410000000000000000e+02,1.120000000000000000e+02,3.100000000000000000e+01,3.000000000000000000e+01,3.200000000000000000e+01,5.100000000000000000e+01,5.799999999999999600e-01,5.496147400000000000e+09
5.800000000000000000e+01,6.900000000000000000e+01,2.480000000000000000e+02,1.130000000000000000e+02,3.200000000000000000e+01,3.000000000000000000e+01,3.300000000000000000e+01,5.200000000000000000e+01,5.899999999999999689e-01,5.515386900000000000e+09
6.200000000000000000e+01,6.900000000000000000e+01,2.420000000000000000e+02,1.040000000000000000e+02,3.400000000000000000e+01,2.900000000000000000e+01,3.100000000000000000e+01,5.300000000000000000e+01,5.799999999999999600e-01,5.533532700000000000e+09
6.100000000000000000e+01,6.900000000000000000e+01,2.190000000000000000e+02,1.000000000000000000e+02,3.300000000000000000e+01,2.700000000000000000e+01,2.900000000000000000e+01,4.700000000000000000e+01,5.799999999999999600e-01,5.551850000000000000e+09
6.200000000000000000e+01,8.100000000000000000e+01,2.700000000000000000e+02,1.140000000000000000e+02,3.600000000000000000e+01,2.800000000000000000e+01,3.100000000000000000e+01,4.900000000000000000e+01,5.799999999999999600e-01,5.573923700000000000e+09
4.300000000000000000e+01,7.500000000000000000e+01,2.590000000000000000e+02,8.600000000000000000e+01,3.300000000000000000e+01,2.800000000000000000e+01,2.800000000000000000e+01,4.000000000000000000e+01,5.799999999999999600e-01,5.596135600000000000e+09
5.500000000000000000e+01,7.600000000000000000e+01,2.570000000000000000e+02,1.070000000000000000e+02,3.700000000000000000e+01,2.900000000000000000e+01,3.000000000000000000e+01,4.600000000000000000e+01,5.799999999999999600e-01,5.616311100000000000e+09
5.300000000000000000e+01,7.300000000000000000e+01,2.500000000000000000e+02,1.090000000000000000e+02,3.600000000000000000e+01,3.000000000000000000e+01,3.100000000000000000e+01,4.600000000000000000e+01,5.799999999999999600e-01,5.638175800000000000e+09
5.600000000000000000e+01,7.000000000000000000e+01,2.580000000000000000e+02,1.130000000000000000e+02,3.600000000000000000e+01,2.800000000000000000e+01,3.300000000000000000e+01,5.000000000000000000e+01,5.799999999999999600e-01,5.656286400000000000e+09
5.600000000000000000e+01,5.800000000000000000e+01,1.980000000000000000e+02,1.030000000000000000e+02,3.700000000000000000e+01,2.700000000000000000e+01,3.100000000000000000e+01,4.700000000000000000e+01,5.799999999999999600e-01,5.675400900000000000e+09
5.700000000000000000e+01,6.900000000000000000e+01,2.620000000000000000e+02,1.330000000000000000e+02,4.400000000000000000e+01,3.000000000000000000e+01,3.500000000000000000e+01,4.500000000000000000e+01,5.799999999999999600e-01,5.694432400000000000e+09
5.500000000000000000e+01,6.500000000000000000e+01,2.470000000000000000e+02,1.120000000000000000e+02,3.800000000000000000e+01,2.700000000000000000e+01,3.300000000000000000e+01,4.000000000000000000e+01,5.799999999999999600e-01,5.716538200000000000e+09
5.500000000000000000e+01,6.800000000000000000e+01,2.490000000000000000e+02,1.150000000000000000e+02,3.800000000000000000e+01,2.700000000000000000e+01,3.400000000000000000e+01,4.200000000000000000e+01,5.799999999999999600e-01,5.735676600000000000e+09
5.900000000000000000e+01,7.200000000000000000e+01,2.440000000000000000e+02,1.140000000000000000e+02,4.000000000000000000e+01,3.100000000000000000e+01,3.600000000000000000e+01,4.300000000000000000e+01,5.799999999999999600e-01,5.753922800000000000e+09
5.800000000000000000e+01,7.200000000000000000e+01,2.540000000000000000e+02,1.180000000000000000e+02,3.800000000000000000e+01,3.200000000000000000e+01,3.600000000000000000e+01,4.300000000000000000e+01,5.799999999999999600e-01,5.772729000000000000e+09
5.600000000000000000e+01,6.200000000000000000e+01,1.820000000000000000e+02,8.700000000000000000e+01,3.300000000000000000e+01,2.900000000000000000e+01,3.300000000000000000e+01,4.500000000000000000e+01,5.799999999999999600e-01,5.794260400000000000e+09
5.800000000000000000e+01,6.300000000000000000e+01,1.870000000000000000e+02,8.800000000000000000e+01,3.300000000000000000e+01,2.900000000000000000e+01,3.600000000000000000e+01,4.900000000000000000e+01,5.799999999999999600e-01,5.813157700000000000e+09
5.700000000000000000e+01,6.300000000000000000e+01,1.920000000000000000e+02,9.000000000000000000e+01,3.700000000000000000e+01,3.200000000000000000e+01,3.600000000000000000e+01,4.800000000000000000e+01,5.799999999999999600e-01,5.832308700000000000e+09
5.100000000000000000e+01,5.800000000000000000e+01,2.020000000000000000e+02,8.500000000000000000e+01,3.400000000000000000e+01,3.100000000000000000e+01,3.100000000000000000e+01,4.500000000000000000e+01,5.799999999999999600e-01,5.851302600000000000e+09
5.100000000000000000e+01,5.800000000000000000e+01,2.080000000000000000e+02,8.500000000000000000e+01,3.500000000000000000e+01,3.000000000000000000e+01,3.000000000000000000e+01,4.500000000000000000e+01,5.799999999999999600e-01,5.872151800000000000e+09
5.500000000000000000e+01,7.400000000000000000e+01,2.500000000000000000e+02,1.140000000000000000e+02,3.900000000000000000e+01,3.100000000000000000e+01,3.100000000000000000e+01,4.600000000000000000e+01,5.799999999999999600e-01,5.894196700000000000e+09
5.300000000000000000e+01,7.300000000000000000e+01,2.410000000000000000e+02,1.160000000000000000e+02,4.000000000000000000e+01,3.300000000000000000e+01,2.800000000000000000e+01,4.400000000000000000e+01,5.799999999999999600e-01,5.916550300000000000e+09
5.900000000000000000e+01,7.100000000000000000e+01,2.540000000000000000e+02,1.110000000000000000e+02,3.600000000000000000e+01,2.800000000000000000e+01,2.800000000000000000e+01,4.300000000000000000e+01,5.799999999999999600e-01,5.935850100000000000e+09
5.700000000000000000e+01,7.000000000000000000e+01,2.590000000000000000e+02,1.150000000000000000e+02,4.000000000000000000e+01,2.500000000000000000e+01,2.900000000000000000e+01,4.100000000000000000e+01,5.799999999999999600e-01,5.954949900000000000e+09
5.700000000000000000e+01,7.100000000000000000e+01,2.670000000000000000e+02,1.240000000000000000e+02,4.100000000000000000e+01,2.700000000000000000e+01,3.100000000000000000e+01,4.200000000000000000e+01,5.799999999999999600e-01,5.972987000000000000e+09
5.600000000000000000e+01,6.600000000000000000e+01,2.550000000000000000e+02,1.210000000000000000e+02,4.000000000000000000e+01,2.800000000000000000e+01,3.200000000000000000e+01,4.200000000000000000e+01,5.799999999999999600e-01,5.994260500000000000e+09
4.500000000000000000e+01,6.900000000000000000e+01,2.740000000000000000e+02,1.180000000000000000e+02,4.000000000000000000e+01,2.600000000000000000e+01,2.900000000000000000e+01,3.800000000000000000e+01,5.799999999999999600e-01,6.016429200000000000e+09
5.100000000000000000e+01,7.900000000000000000e+01,3.060000000000000000e+02,1.380000000000000000e+02,4.200000000000000000e+01,2.900000000000000000e+01,3.100000000000000000e+01,4.100000000000000000e+01,5.799999999999999600e-01,6.034916700000000000e+09
5.100000000000000000e+01,7.900000000000000000e+01,3.140000000000000000e+02,1.400000000000000000e+02,4.000000000000000000e+01,2.800000000000000000e+01,3.000000000000000000e+01,3.900000000000000000e+01,5.799999999999999600e-01,6.052971300000000000e+09
5.300000000000000000e+01,8.100000000000000000e+01,3.370000000000000000e+02,1.330000000000000000e+02,4.000000000000000000e+01,3.400000000000000000e+01,3.200000000000000000e+01,4.500000000000000000e+01,5.799999999999999600e-01,6.073388700000000000e+09
4.900000000000000000e+01,7.000000000000000000e+01,3.210000000000000000e+02,1.100000000000000000e+02,3.500000000000000000e+01,3.200000000000000000e+01,3.100000000000000000e+01,4.300000000000000000e+01,5.899999999999999689e-01,6.095968800000000000e+09
5.400000000000000000e+01,7.100000000000000000e+01,3.120000000000000000e+02,1.140000000000000000e+02,3.500000000000000000e+01,3.200000000000000000e+01,3.300000000000000000e+01,4.600000000000000000e+01,5.899999999999999689e-01,6.113796100000000000e+09
5.300000000000000000e+01,6.200000000000000000e+01,2.730000000000000000e+02,9.800000000000000000e+01,3.200000000000000000e+01,3.100000000000000000e+01,3.100000000000000000e+01,4.600000000000000000e+01,5.899999999999999689e-01,6.131427400000000000e+09
5.500000000000000000e+01,7.400000000000000000e+01,2.950000000000000000e+02,1.150000000000000000e+02,3.500000000000000000e+01,3.400000000000000000e+01,3.400000000000000000e+01,4.800000000000000000e+01,5.899999999999999689e-01,6.151707900000000000e+09
5.400000000000000000e+01,7.300000000000000000e+01,2.580000000000000000e+02,1.130000000000000000e+02,3.100000000000000000e+01,2.800000000000000000e+01,3.000000000000000000e+01,4.300000000000000000e+01,5.899999999999999689e-01,6.173755100000000000e+09
5.900000000000000000e+01,7.300000000000000000e+01,2.460000000000000000e+02,1.140000000000000000e+02,3.100000000000000000e+01,3.000000000000000000e+01,3.000000000000000000e+01,4.500000000000000000e+01,5.899999999999999689e-01,6.196060600000000000e+09
5.500000000000000000e+01,6.800000000000000000e+01,2.490000000000000000e+02,1.130000000000000000e+02,3.200000000000000000e+01,3.000000000000000000e+01,2.800000000000000000e+01,4.100000000000000000e+01,5.899999999999999689e-01,6.214345400000000000e+09
5.200000000000000000e+01,6.500000000000000000e+01,2.320000000000000000e+02,1.070000000000000000e+02,3.100000000000000000e+01,3.000000000000000000e+01,2.800000000000000000e+01,3.900000000000000000e+01,5.899999999999999689e-01,6.232547200000000000e+09
5.100000000000000000e+01,5.400000000000000000e+01,2.040000000000000000e+02,9.300000000000000000e+01,2.800000000000000000e+01,2.900000000000000000e+01,2.300000000000000000e+01,4.200000000000000000e+01,5.899999999999999689e-01,6.251578800000000000e+09
4.900000000000000000e+01,4.900000000000000000e+01,2.300000000000000000e+02,8.800000000000000000e+01,2.700000000000000000e+01,2.600000000000000000e+01,2.600000000000000000e+01,4.100000000000000000e+01,5.899999999999999689e-01,6.273861200000000000e+09
4.500000000000000000e+01,5.700000000000000000e+01,2.620000000000000000e+02,1.050000000000000000e+02,3.000000000000000000e+01,2.700000000000000000e+01,2.900000000000000000e+01,4.000000000000000000e+01,5.899999999999999689e-01,6.295921200000000000e+09
4.500000000000000000e+01,6.200000000000000000e+01,2.660000000000000000e+02,1.140000000000000000e+02,2.900000000000000000e+01,2.700000000000000000e+01,3.200000000000000000e+01,4.200000000000000000e+01,5.899999999999999689e-01,6.314543500000000000e+09
3.500000000000000000e+01,7.100000000000000000e+01,2.850000000000000000e+02,1.190000000000000000e+02,3.200000000000000000e+01,2.800000000000000000e+01,2.900000000000000000e+01,3.900000000000000000e+01,5.899999999999999689e-01,6.333117200000000000e+09
5.700000000000000000e+01,7.100000000000000000e+01,2.740000000000000000e+02,1.110000000000000000e+02,3.300000000000000000e+01,2.700000000000000000e+01,3.300000000000000000e+01,4.400000000000000000e+01,5.899999999999999689e-01,6.352565300000000000e+09
5.700000000000000000e+01,7.200000000000000000e+01,2.510000000000000000e+02,1.110000000000000000e+02,3.300000000000000000e+01,3.000000000000000000e+01,3.400000000000000000e+01,4.400000000000000000e+01,5.899999999999999689e-01,6.374954300000000000e+09
6.100000000000000000e+01,7.300000000000000000e+01,2.460000000000000000e+02,1.030000000000000000e+02,3.300000000000000000e+01,2.800000000000000000e+01,3.500000000000000000e+01,4.600000000000000000e+01,5.899999999999999689e-01,6.392604700000000000e+09
6.000000000000000000e+01,6.700000000000000000e+01,2.310000000000000000e+02,8.600000000000000000e+01,3.200000000000000000e+01,2.700000000000000000e+01,3.400000000000000000e+01,4.400000000000000000e+01,5.799999999999999600e-01,6.411240700000000000e+09
6.000000000000000000e+01,6.100000000000000000e+01,2.410000000000000000e+02,8.800000000000000000e+01,3.400000000000000000e+01,2.800000000000000000e+01,3.500000000000000000e+01,4.500000000000000000e+01,5.799999999999999600e-01,6.431107900000000000e+09
4.100000000000000000e+01,6.800000000000000000e+01,3.030000000000000000e+02,1.210000000000000000e+02,3.500000000000000000e+01,2.700000000000000000e+01,3.100000000000000000e+01,3.500000000000000000e+01,5.799999999999999600e-01,6.453676000000000000e+09
5.100000000000000000e+01,7.000000000000000000e+01,3.040000000000000000e+02,1.240000000000000000e+02,3.500000000000000000e+01,2.700000000000000000e+01,3.000000000000000000e+01,4.000000000000000000e+01,5.799999999999999600e-01,6.475961600000000000e+09
4.800000000000000000e+01,7.100000000000000000e+01,3.260000000000000000e+02,1.340000000000000000e+02,3.500000000000000000e+01,2.700000000000000000e+01,2.600000000000000000e+01,3.800000000000000000e+01,5.899999999999999689e-01,6.494998600000000000e+09
5.100000000000000000e+01,9.000000000000000000e+01,3.780000000000000000e+02,1.650000000000000000e+02,4.800000000000000000e+01,3.300000000000000000e+01,3.000000000000000000e+01,4.200000000000000000e+01,5.899999999999999689e-01,6.514689700000000000e+09
5.300000000000000000e+01,9.000000000000000000e+01,3.630000000000000000e+02,1.670000000000000000e+02,4.900000000000000000e+01,3.500000000000000000e+01,3.200000000000000000e+01,4.100000000000000000e+01,5.899999999999999689e-01,6.533483900000000000e+09
5.200000000000000000e+01,8.500000000000000000e+01,3.080000000000000000e+02,1.470000000000000000e+02,4.700000000000000000e+01,3.600000000000000000e+01,3.200000000000000000e+01,4.000000000000000000e+01,5.899999999999999689e-01,6.552776500000000000e+09
5.800000000000000000e+01,8.800000000000000000e+01,3.160000000000000000e+02,1.530000000000000000e+02,5.000000000000000000e+01,3.500000000000000000e+01,3.100000000000000000e+01,3.600000000000000000e+01,5.999999999999999778e-01,6.575154000000000000e+09
5.700000000000000000e+01,8.300000000000000000e+01,2.660000000000000000e+02,1.360000000000000000e+02,4.800000000000000000e+01,3.500000000000000000e+01,3.200000000000000000e+01,3.400000000000000000e+01,5.999999999999999778e-01,6.595393200000000000e+09
5.400000000000000000e+01,6.200000000000000000e+01,1.820000000000000000e+02,9.500000000000000000e+01,3.800000000000000000e+01,3.100000000000000000e+01,2.700000000000000000e+01,3.000000000000000000e+01,5.999999999999999778e-01,6.613569500000000000e+09
5.300000000000000000e+01,6.400000000000000000e+01,2.130000000000000000e+02,9.400000000000000000e+01,3.500000000000000000e+01,2.800000000000000000e+01,2.900000000000000000e+01,3.300000000000000000e+01,5.999999999999999778e-01,6.632054700000000000e+09
5.500000000000000000e+01,6.800000000000000000e+01,2.400000000000000000e+02,1.050000000000000000e+02,3.700000000000000000e+01,2.900000000000000000e+01,3.100000000000000000e+01,3.400000000000000000e+01,5.999999999999999778e-01,6.650703400000000000e+09
3.900000000000000000e+01,6.500000000000000000e+01,2.200000000000000000e+02,9.300000000000000000e+01,3.500000000000000000e+01,2.900000000000000000e+01,3.100000000000000000e+01,3.200000000000000000e+01,5.999999999999999778e-01,6.679983900000000000e+09
5.100000000000000000e+01,7.700000000000000000e+01,2.630000000000000000e+02,1.040000000000000000e+02,3.800000000000000000e+01,3.200000000000000000e+01,3.200000000000000000e+01,3.800000000000000000e+01,5.999999999999999778e-01,6.700435800000000000e+09
5.000000000000000000e+01,7.700000000000000000e+01,2.670000000000000000e+02,1.100000000000000000e+02,3.600000000000000000e+01,3.000000000000000000e+01,3.200000000000000000e+01,3.600000000000000000e+01,5.999999999999999778e-01,6.719801600000000000e+09
5.300000000000000000e+01,7.900000000000000000e+01,2.550000000000000000e+02,1.030000000000000000e+02,4.000000000000000000e+01,3.000000000000000000e+01,3.000000000000000000e+01,3.800000000000000000e+01,5.999999999999999778e-01,6.738379800000000000e+09
5.000000000000000000e+01,7.300000000000000000e+01,2.250000000000000000e+02,8.400000000000000000e+01,3.700000000000000000e+01,2.900000000000000000e+01,3.100000000000000000e+01,3.700000000000000000e+01,5.899999999999999689e-01,6.757081400000000000e+09
5.000000000000000000e+01,7.300000000000000000e+01,2.310000000000000000e+02,8.400000000000000000e+01,3.600000000000000000e+01,2.800000000000000000e+01,3.000000000000000000e+01,3.700000000000000000e+01,5.899999999999999689e-01,6.775965900000000000e+09
4.400000000000000000e+01,6.800000000000000000e+01,2.010000000000000000e+02,8.600000000000000000e+01,3.900000000000000000e+01,3.000000000000000000e+01,3.400000000000000000e+01,4.300000000000000000e+01,5.899999999999999689e-01,6.795007400000000000e+09
4.600000000000000000e+01,7.000000000000000000e+01,2.080000000000000000e+02,8.700000000000000000e+01,3.900000000000000000e+01,3.100000000000000000e+01,3.400000000000000000e+01,4.400000000000000000e+01,5.799999999999999600e-01,6.816182500000000000e+09
5.300000000000000000e+01,6.600000000000000000e+01,1.990000000000000000e+02,8.600000000000000000e+01,3.500000000000000000e+01,3.100000000000000000e+01,3.200000000000000000e+01,4.800000000000000000e+01,5.799999999999999600e-01,6.834482300000000000e+09
6.100000000000000000e+01,9.200000000000000000e+01,2.540000000000000000e+02,1.400000000000000000e+02,4.800000000000000000e+01,3.600000000000000000e+01,3.300000000000000000e+01,5.600000000000000000e+01,5.799999999999999600e-01,6.853040000000000000e+09
6.100000000000000000e+01,9.900000000000000000e+01,2.850000000000000000e+02,1.510000000000000000e+02,4.900000000000000000e+01,3.700000000000000000e+01,3.400000000000000000e+01,5.600000000000000000e+01,5.799999999999999600e-01,6.871674600000000000e+09
6.200000000000000000e+01,9.800000000000000000e+01,2.900000000000000000e+02,1.470000000000000000e+02,4.800000000000000000e+01,3.300000000000000000e+01,2.900000000000000000e+01,5.600000000000000000e+01,5.799999999999999600e-01,6.893907600000000000e+09
6.100000000000000000e+01,9.800000000000000000e+01,2.860000000000000000e+02,1.460000000000000000e+02,5.000000000000000000e+01,3.500000000000000000e+01,3.100000000000000000e+01,5.500000000000000000e+01,5.799999999999999600e-01,6.916088200000000000e+09
6.300000000000000000e+01,1.000000000000000000e+02,2.880000000000000000e+02,1.540000000000000000e+02,5.100000000000000000e+01,3.500000000000000000e+01,3.300000000000000000e+01,5.200000000000000000e+01,5.799999999999999600e-01,6.934209700000000000e+09
5.600000000000000000e+01,7.700000000000000000e+01,2.510000000000000000e+02,1.130000000000000000e+02,4.200000000000000000e+01,2.900000000000000000e+01,3.000000000000000000e+01,4.400000000000000000e+01,5.799999999999999600e-01,6.952824100000000000e+09
5.800000000000000000e+01,7.200000000000000000e+01,2.350000000000000000e+02,1.060000000000000000e+02,4.300000000000000000e+01,3.300000000000000000e+01,3.000000000000000000e+01,4.600000000000000000e+01,5.799999999999999600e-01,6.971492900000000000e+09
5.400000000000000000e+01,7.200000000000000000e+01,2.510000000000000000e+02,1.280000000000000000e+02,4.300000000000000000e+01,3.400000000000000000e+01,3.200000000000000000e+01,4.100000000000000000e+01,5.799999999999999600e-01,6.993839600000000000e+09
5.400000000000000000e+01,7.100000000000000000e+01,2.570000000000000000e+02,1.260000000000000000e+02,4.000000000000000000e+01,3.200000000000000000e+01,3.200000000000000000e+01,4.100000000000000000e+01,5.799999999999999600e-01,7.015957100000000000e+09
5.100000000000000000e+01,6.400000000000000000e+01,2.520000000000000000e+02,1.160000000000000000e+02,3.600000000000000000e+01,3.000000000000000000e+01,3.100000000000000000e+01,4.200000000000000000e+01,5.899999999999999689e-01,7.034205400000000000e+09
5.200000000000000000e+01,6.500000000000000000e+01,2.590000000000000000e+02,1.200000000000000000e+02,3.700000000000000000e+01,3.300000000000000000e+01,3.400000000000000000e+01,4.500000000000000000e+01,5.899999999999999689e-01,7.052067800000000000e+09
5.200000000000000000e+01,6.000000000000000000e+01,2.400000000000000000e+02,1.200000000000000000e+02,3.500000000000000000e+01,3.000000000000000000e+01,3.600000000000000000e+01,4.500000000000000000e+01,5.899999999999999689e-01,7.071575600000000000e+09
4.800000000000000000e+01,5.200000000000000000e+01,2.190000000000000000e+02,9.400000000000000000e+01,3.300000000000000000e+01,2.800000000000000000e+01,3.200000000000000000e+01,3.900000000000000000e+01,5.899999999999999689e-01,7.093947000000000000e+09
5.200000000000000000e+01,6.400000000000000000e+01,2.630000000000000000e+02,1.120000000000000000e+02,3.900000000000000000e+01,3.000000000000000000e+01,3.300000000000000000e+01,4.100000000000000000e+01,5.899999999999999689e-01,7.116037000000000000e+09
3.700000000000000000e+01,6.200000000000000000e+01,2.560000000000000000e+02,1.120000000000000000e+02,3.800000000000000000e+01,3.000000000000000000e+01,3.200000000000000000e+01,3.600000000000000000e+01,5.899999999999999689e-01,7.134425200000000000e+09
5.700000000000000000e+01,6.600000000000000000e+01,2.450000000000000000e+02,1.090000000000000000e+02,3.800000000000000000e+01,2.700000000000000000e+01,3.100000000000000000e+01,4.100000000000000000e+01,5.899999999999999689e-01,7.153579000000000000e+09
5.700000000000000000e+01,6.700000000000000000e+01,2.560000000000000000e+02,9.900000000000000000e+01,3.900000000000000000e+01,2.800000000000000000e+01,3.400000000000000000e+01,4.300000000000000000e+01,5.899999999999999689e-01,7.171749200000000000e+09
6.200000000000000000e+01,7.600000000000000000e+01,2.460000000000000000e+02,9.600000000000000000e+01,3.700000000000000000e+01,3.000000000000000000e+01,3.600000000000000000e+01,4.600000000000000000e+01,5.899999999999999689e-01,7.194622800000000000e+09
6.200000000000000000e+01,7.500000000000000000e+01,2.410000000000000000e+02,1.120000000000000000e+02,3.500000000000000000e+01,3.300000000000000000e+01,3.500000000000000000e+01,4.700000000000000000e+01,5.899999999999999689e-01,7.213414400000000000e+09
6.300000000000000000e+01,7.600000000000000000e+01,2.440000000000000000e+02,1.110000000000000000e+02,3.700000000000000000e+01,3.400000000000000000e+01,3.400000000000000000e+01,4.600000000000000000e+01,5.899999999999999689e-01,7.231197100000000000e+09
4.600000000000000000e+01,7.300000000000000000e+01,2.410000000000000000e+02,1.060000000000000000e+02,3.300000000000000000e+01,3.300000000000000000e+01,3.500000000000000000e+01,4.300000000000000000e+01,5.899999999999999689e-01,7.251513000000000000e+09
6.200000000000000000e+01,7.400000000000000000e+01,2.260000000000000000e+02,1.090000000000000000e+02,3.200000000000000000e+01,3.100000000000000000e+01,3.100000000000000000e+01,4.500000000000000000e+01,5.899999999999999689e-01,7.274354600000000000e+09
6.000000000000000000e+01,7.900000000000000000e+01,2.720000000000000000e+02,1.280000000000000000e+02,3.500000000000000000e+01,3.100000000000000000e+01,3.200000000000000000e+01,4.600000000000000000e+01,5.899999999999999689e-01,7.296546400000000000e+09
6.100000000000000000e+01,7.500000000000000000e+01,2.510000000000000000e+02,9.800000000000000000e+01,3.000000000000000000e+01,2.800000000000000000e+01,3.100000000000000000e+01,4.600000000000000000e+01,5.799999999999999600e-01,7.315032300000000000e+09
6.000000000000000000e+01,7.500000000000000000e+01,2.520000000000000000e+02,9.800000000000000000e+01,3.000000000000000000e+01,2.800000000000000000e+01,3.000000000000000000e+01,4.500000000000000000e+01,5.799999999999999600e-01,7.334362600000000000e+09
5.900000000000000000e+01,7.300000000000000000e+01,2.600000000000000000e+02,1.050000000000000000e+02,3.300000000000000000e+01,3.100000000000000000e+01,2.900000000000000000e+01,4.200000000000000000e+01,5.799999999999999600e-01,7.353454700000000000e+09
5.700000000000000000e+01,7.100000000000000000e+01,2.610000000000000000e+02,1.080000000000000000e+02,3.400000000000000000e+01,3.200000000000000000e+01,3.100000000000000000e+01,4.500000000000000000e+01,5.799999999999999600e-01,7.374486000000000000e+09
5.600000000000000000e+01,7.100000000000000000e+01,2.660000000000000000e+02,1.050000000000000000e+02,3.500000000000000000e+01,3.100000000000000000e+01,2.800000000000000000e+01,4.300000000000000000e+01,5.799999999999999600e-01,7.396779600000000000e+09
5.400000000000000000e+01,6.600000000000000000e+01,2.470000000000000000e+02,1.030000000000000000e+02,3.800000000000000000e+01,3.200000000000000000e+01,3.000000000000000000e+01,4.200000000000000000e+01,5.799999999999999600e-01,7.415153500000000000e+09
5.500000000000000000e+01,6.700000000000000000e+01,2.430000000000000000e+02,1.080000000000000000e+02,3.900000000000000000e+01,3.200000000000000000e+01,2.800000000000000000e+01,4.700000000000000000e+01,5.799999999999999600e-01,7.435667400000000000e+09
6.100000000000000000e+01,6.900000000000000000e+01,2.480000000000000000e+02,1.060000000000000000e+02,3.700000000000000000e+01,2.900000000000000000e+01,2.900000000000000000e+01,4.500000000000000000e+01,5.799999999999999600e-01,7.453874300000000000e+09
5.400000000000000000e+01,6.600000000000000000e+01,2.550000000000000000e+02,1.010000000000000000e+02,3.800000000000000000e+01,3.000000000000000000e+01,2.900000000000000000e+01,3.800000000000000000e+01,5.799999999999999600e-01,7.473718200000000000e+09
5.300000000000000000e+01,4.700000000000000000e+01,1.870000000000000000e+02,8.200000000000000000e+01,3.300000000000000000e+01,2.800000000000000000e+01,3.000000000000000000e+01,4.200000000000000000e+01,5.799999999999999600e-01,7.495917700000000000e+09
5.400000000000000000e+01,6.100000000000000000e+01,2.200000000000000000e+02,9.600000000000000000e+01,3.300000000000000000e+01,3.100000000000000000e+01,3.400000000000000000e+01,4.400000000000000000e+01,5.799999999999999600e-01,7.514339200000000000e+09
5.300000000000000000e+01,6.600000000000000000e+01,2.420000000000000000e+02,1.000000000000000000e+02,3.600000000000000000e+01,3.200000000000000000e+01,3.500000000000000000e+01,3.900000000000000000e+01,5.799999999999999600e-01,7.532601300000000000e+09
5.800000000000000000e+01,6.700000000000000000e+01,2.400000000000000000e+02,9.600000000000000000e+01,3.700000000000000000e+01,3.200000000000000000e+01,3.700000000000000000e+01,4.300000000000000000e+01,5.799999999999999600e-01,7.551534100000000000e+09
5.200000000000000000e+01,7.200000000000000000e+01,2.460000000000000000e+02,1.010000000000000000e+02,3.700000000000000000e+01,3.100000000000000000e+01,3.800000000000000000e+01,4.100000000000000000e+01,5.799999999999999600e-01,7.573666000000000000e+09
5.100000000000000000e+01,7.300000000000000000e+01,2.630000000000000000e+02,1.010000000000000000e+02,3.700000000000000000e+01,3.200000000000000000e+01,3.800000000000000000e+01,3.700000000000000000e+01,5.799999999999999600e-01,7.595979300000000000e+09
5.000000000000000000e+01,6.400000000000000000e+01,2.360000000000000000e+02,8.900000000000000000e+01,3.900000000000000000e+01,3.000000000000000000e+01,3.700000000000000000e+01,3.700000000000000000e+01,5.799999999999999600e-01,7.614245700000000000e+09
5.100000000000000000e+01,6.100000000000000000e+01,2.090000000000000000e+02,8.100000000000000000e+01,3.600000000000000000e+01,3.200000000000000000e+01,3.800000000000000000e+01,4.000000000000000000e+01,5.699999999999999512e-01,7.632731700000000000e+09
3.800000000000000000e+01,6.200000000000000000e+01,1.970000000000000000e+02,8.600000000000000000e+01,3.500000000000000000e+01,3.100000000000000000e+01,3.500000000000000000e+01,3.600000000000000000e+01,5.699999999999999512e-01,7.652205600000000000e+09
4.900000000000000000e+01,6.000000000000000000e+01,2.000000000000000000e+02,9.700000000000000000e+01,3.400000000000000000e+01,3.300000000000000000e+01,3.200000000000000000e+01,3.900000000000000000e+01,5.699999999999999512e-01,7.678025900000000000e+09
4.900000000000000000e+01,6.300000000000000000e+01,2.030000000000000000e+02,1.050000000000000000e+02,3.600000000000000000e+01,3.200000000000000000e+01,3.300000000000000000e+01,4.200000000000000000e+01,5.699999999999999512e-01,7.698121700000000000e+09
4.900000000000000000e+01,6.300000000000000000e+01,2.140000000000000000e+02,1.170000000000000000e+02,3.300000000000000000e+01,3.400000000000000000e+01,3.200000000000000000e+01,4.000000000000000000e+01,5.699999999999999512e-01,7.715349100000000000e+09
5.000000000000000000e+01,6.300000000000000000e+01,2.330000000000000000e+02,1.230000000000000000e+02,3.500000000000000000e+01,3.100000000000000000e+01,3.000000000000000000e+01,3.900000000000000000e+01,5.699999999999999512e-01,7.734941200000000000e+09
4.900000000000000000e+01,6.200000000000000000e+01,2.420000000000000000e+02,1.200000000000000000e+02,3.600000000000000000e+01,3.200000000000000000e+01,3.100000000000000000e+01,3.900000000000000000e+01,5.799999999999999600e-01,7.752959300000000000e+09
3.500000000000000000e+01,6.000000000000000000e+01,2.290000000000000000e+02,1.030000000000000000e+02,3.300000000000000000e+01,3.000000000000000000e+01,3.200000000000000000e+01,3.500000000000000000e+01,5.799999999999999600e-01,7.774172600000000000e+09
4.000000000000000000e+01,6.300000000000000000e+01,2.240000000000000000e+02,1.070000000000000000e+02,3.700000000000000000e+01,3.200000000000000000e+01,3.700000000000000000e+01,4.100000000000000000e+01,5.799999999999999600e-01,7.795622500000000000e+09
4.700000000000000000e+01,6.000000000000000000e+01,2.220000000000000000e+02,9.800000000000000000e+01,3.500000000000000000e+01,2.800000000000000000e+01,3.500000000000000000e+01,4.200000000000000000e+01,5.799999999999999600e-01,7.816220500000000000e+09
4.600000000000000000e+01,6.100000000000000000e+01,2.090000000000000000e+02,1.020000000000000000e+02,3.500000000000000000e+01,3.100000000000000000e+01,3.600000000000000000e+01,4.600000000000000000e+01,5.699999999999999512e-01,7.835708200000000000e+09
4.900000000000000000e+01,5.800000000000000000e+01,1.930000000000000000e+02,1.110000000000000000e+02,3.500000000000000000e+01,3.300000000000000000e+01,3.500000000000000000e+01,4.800000000000000000e+01,5.799999999999999600e-01,7.854797400000000000e+09
4.900000000000000000e+01,5.600000000000000000e+01,1.790000000000000000e+02,1.110000000000000000e+02,3.500000000000000000e+01,3.300000000000000000e+01,3.700000000000000000e+01,4.800000000000000000e+01,5.799999999999999600e-01,7.873657000000000000e+09
4.800000000000000000e+01,5.200000000000000000e+01,1.650000000000000000e+02,9.800000000000000000e+01,3.200000000000000000e+01,3.000000000000000000e+01,3.500000000000000000e+01,4.800000000000000000e+01,5.799999999999999600e-01,7.893349500000000000e+09
4.100000000000000000e+01,5.700000000000000000e+01,1.530000000000000000e+02,1.030000000000000000e+02,3.600000000000000000e+01,3.000000000000000000e+01,3.500000000000000000e+01,4.700000000000000000e+01,5.799999999999999600e-01,7.915650500000000000e+09
3.800000000000000000e+01,5.300000000000000000e+01,1.330000000000000000e+02,8.600000000000000000e+01,3.200000000000000000e+01,2.700000000000000000e+01,3.400000000000000000e+01,4.200000000000000000e+01,5.799999999999999600e-01,7.933751900000000000e+09
4.400000000000000000e+01,6.800000000000000000e+01,1.990000000000000000e+02,9.200000000000000000e+01,3.600000000000000000e+01,2.400000000000000000e+01,3.500000000000000000e+01,4.300000000000000000e+01,5.799999999999999600e-01,7.952388500000000000e+09
4.700000000000000000e+01,6.900000000000000000e+01,2.400000000000000000e+02,1.030000000000000000e+02,3.500000000000000000e+01,2.600000000000000000e+01,3.200000000000000000e+01,4.300000000000000000e+01,5.699999999999999512e-01,7.971156700000000000e+09
4.800000000000000000e+01,7.200000000000000000e+01,2.400000000000000000e+02,1.080000000000000000e+02,3.500000000000000000e+01,2.500000000000000000e+01,3.200000000000000000e+01,3.900000000000000000e+01,5.699999999999999512e-01,7.993341400000000000e+09
4.700000000000000000e+01,6.900000000000000000e+01,2.290000000000000000e+02,9.500000000000000000e+01,3.000000000000000000e+01,2.500000000000000000e+01,3.100000000000000000e+01,3.700000000000000000e+01,5.699999999999999512e-01,8.015661000000000000e+09
4.900000000000000000e+01,7.300000000000000000e+01,2.500000000000000000e+02,1.010000000000000000e+02,3.200000000000000000e+01,2.400000000000000000e+01,3.300000000000000000e+01,4.100000000000000000e+01,5.699999999999999512e-01,8.034519500000000000e+09
4.000000000000000000e+01,5.900000000000000000e+01,2.130000000000000000e+02,8.300000000000000000e+01,3.000000000000000000e+01,3.200000000000000000e+01,3.200000000000000000e+01,3.700000000000000000e+01,5.699999999999999512e-01,8.054167400000000000e+09
3.500000000000000000e+01,5.800000000000000000e+01,1.730000000000000000e+02,7.500000000000000000e+01,3.400000000000000000e+01,3.100000000000000000e+01,3.200000000000000000e+01,3.600000000000000000e+01,5.699999999999999512e-01,8.073155500000000000e+09
2.900000000000000000e+01,5.400000000000000000e+01,2.030000000000000000e+02,6.900000000000000000e+01,3.300000000000000000e+01,3.000000000000000000e+01,2.800000000000000000e+01,3.000000000000000000e+01,5.699999999999999512e-01,8.093333500000000000e+09
4.400000000000000000e+01,5.800000000000000000e+01,2.170000000000000000e+02,7.500000000000000000e+01,3.800000000000000000e+01,3.300000000000000000e+01,3.000000000000000000e+01,3.700000000000000000e+01,5.699999999999999512e-01,8.115572500000000000e+09
4.500000000000000000e+01,5.300000000000000000e+01,2.160000000000000000e+02,8.700000000000000000e+01,3.800000000000000000e+01,3.300000000000000000e+01,2.700000000000000000e+01,3.500000000000000000e+01,5.699999999999999512e-01,8.134047500000000000e+09
4.500000000000000000e+01,5.300000000000000000e+01,2.130000000000000000e+02,9.600000000000000000e+01,3.600000000000000000e+01,2.700000000000000000e+01,2.700000000000000000e+01,3.500000000000000000e+01,5.699999999999999512e-01,8.153196800000000000e+09
4.500000000000000000e+01,5.300000000000000000e+01,2.200000000000000000e+02,9.400000000000000000e+01,3.600000000000000000e+01,2.800000000000000000e+01,2.500000000000000000e+01,3.300000000000000000e+01,5.699999999999999512e-01,8.171457400000000000e+09
4.600000000000000000e+01,5.100000000000000000e+01,1.940000000000000000e+02,9.400000000000000000e+01,3.500000000000000000e+01,2.800000000000000000e+01,2.300000000000000000e+01,3.300000000000000000e+01,5.699999999999999512e-01,8.193386500000000000e+09
3.300000000000000000e+01,4.900000000000000000e+01,2.300000000000000000e+02,1.070000000000000000e+02,3.500000000000000000e+01,2.800000000000000000e+01,2.300000000000000000e+01,3.000000000000000000e+01,5.699999999999999512e-01,8.216049600000000000e+09
3.200000000000000000e+01,5.500000000000000000e+01,2.620000000000000000e+02,1.160000000000000000e+02,4.300000000000000000e+01,3.100000000000000000e+01,2.500000000000000000e+01,3.200000000000000000e+01,5.600000000000000533e-01,8.235099200000000000e+09
3.500000000000000000e+01,5.300000000000000000e+01,2.620000000000000000e+02,1.120000000000000000e+02,4.200000000000000000e+01,3.300000000000000000e+01,2.400000000000000000e+01,3.100000000000000000e+01,5.600000000000000533e-01,8.254126100000000000e+09
5.400000000000000000e+01,5.500000000000000000e+01,2.580000000000000000e+02,1.120000000000000000e+02,4.300000000000000000e+01,3.300000000000000000e+01,2.900000000000000000e+01,3.700000000000000000e+01,5.600000000000000533e-01,8.272785500000000000e+09
5.700000000000000000e+01,6.500000000000000000e+01,2.790000000000000000e+02,1.160000000000000000e+02,4.500000000000000000e+01,3.500000000000000000e+01,3.100000000000000000e+01,4.100000000000000000e+01,5.699999999999999512e-01,8.295416800000000000e+09
5.700000000000000000e+01,6.900000000000000000e+01,2.590000000000000000e+02,1.180000000000000000e+02,4.300000000000000000e+01,3.300000000000000000e+01,3.200000000000000000e+01,4.100000000000000000e+01,5.699999999999999512e-01,8.313861200000000000e+09
5.700000000000000000e+01,6.900000000000000000e+01,2.230000000000000000e+02,1.070000000000000000e+02,3.700000000000000000e+01,3.200000000000000000e+01,3.100000000000000000e+01,4.000000000000000000e+01,5.699999999999999512e-01,8.332713500000000000e+09
5.600000000000000000e+01,7.000000000000000000e+01,2.170000000000000000e+02,1.090000000000000000e+02,4.100000000000000000e+01,3.000000000000000000e+01,3.400000000000000000e+01,4.100000000000000000e+01,5.699999999999999512e-01,8.351670000000000000e+09
3.900000000000000000e+01,7.100000000000000000e+01,2.270000000000000000e+02,1.110000000000000000e+02,4.000000000000000000e+01,2.900000000000000000e+01,3.000000000000000000e+01,3.700000000000000000e+01,5.699999999999999512e-01,8.373585300000000000e+09
3.500000000000000000e+01,6.800000000000000000e+01,2.080000000000000000e+02,1.130000000000000000e+02,3.900000000000000000e+01,2.700000000000000000e+01,2.900000000000000000e+01,3.500000000000000000e+01,5.699999999999999512e-01,8.395623800000000000e+09
6.000000000000000000e+01,6.400000000000000000e+01,2.110000000000000000e+02,1.030000000000000000e+02,3.700000000000000000e+01,2.800000000000000000e+01,2.900000000000000000e+01,4.100000000000000000e+01,5.699999999999999512e-01,8.413897400000000000e+09
6.000000000000000000e+01,6.100000000000000000e+01,2.140000000000000000e+02,9.900000000000000000e+01,3.600000000000000000e+01,2.700000000000000000e+01,2.700000000000000000e+01,4.000000000000000000e+01,5.799999999999999600e-01,8.433193400000000000e+09
6.100000000000000000e+01,6.200000000000000000e+01,2.160000000000000000e+02,9.600000000000000000e+01,3.100000000000000000e+01,2.900000000000000000e+01,2.600000000000000000e+01,4.000000000000000000e+01,5.799999999999999600e-01,8.451447000000000000e+09
6.300000000000000000e+01,6.100000000000000000e+01,1.980000000000000000e+02,9.500000000000000000e+01,2.900000000000000000e+01,2.900000000000000000e+01,2.500000000000000000e+01,4.300000000000000000e+01,5.799999999999999600e-01,8.473660400000000000e+09
6.600000000000000000e+01,6.100000000000000000e+01,2.080000000000000000e+02,1.010000000000000000e+02,3.000000000000000000e+01,3.000000000000000000e+01,2.900000000000000000e+01,4.200000000000000000e+01,5.799999999999999600e-01,8.495797800000000000e+09
4.600000000000000000e+01,5.700000000000000000e+01,1.930000000000000000e+02,9.300000000000000000e+01,3.000000000000000000e+01,2.900000000000000000e+01,2.600000000000000000e+01,3.500000000000000000e+01,5.799999999999999600e-01,8.514486200000000000e+09
4.500000000000000000e+01,5.900000000000000000e+01,1.730000000000000000e+02,8.900000000000000000e+01,3.200000000000000000e+01,3.000000000000000000e+01,2.900000000000000000e+01,3.400000000000000000e+01,5.799999999999999600e-01,8.534126800000000000e+09
4.400000000000000000e+01,6.400000000000000000e+01,1.940000000000000000e+02,9.800000000000000000e+01,3.200000000000000000e+01,2.800000000000000000e+01,2.700000000000000000e+01,3.300000000000000000e+01,5.699999999999999512e-01,8.551699600000000000e+09
5.000000000000000000e+01,6.400000000000000000e+01,2.310000000000000000e+02,1.010000000000000000e+02,3.200000000000000000e+01,2.900000000000000000e+01,2.900000000000000000e+01,3.400000000000000000e+01,5.699999999999999512e-01,8.573407100000000000e+09
4.700000000000000000e+01,6.100000000000000000e+01,2.230000000000000000e+02,9.100000000000000000e+01,3.100000000000000000e+01,2.800000000000000000e+01,2.700000000000000000e+01,3.400000000000000000e+01,5.699999999999999512e-01,8.595522200000000000e+09
4.800000000000000000e+01,6.300000000000000000e+01,2.090000000000000000e+02,9.500000000000000000e+01,3.200000000000000000e+01,2.900000000000000000e+01,3.000000000000000000e+01,3.300000000000000000e+01,5.699999999999999512e-01,8.613155600000000000e+09
4.700000000000000000e+01,6.300000000000000000e+01,2.380000000000000000e+02,1.060000000000000000e+02,3.300000000000000000e+01,2.800000000000000000e+01,2.700000000000000000e+01,3.200000000000000000e+01,5.699999999999999512e-01,8.632390800000000000e+09
4.600000000000000000e+01,5.900000000000000000e+01,2.280000000000000000e+02,1.020000000000000000e+02,3.200000000000000000e+01,2.700000000000000000e+01,2.700000000000000000e+01,3.400000000000000000e+01,5.699999999999999512e-01,8.651511600000000000e+09
3.800000000000000000e+01,5.900000000000000000e+01,2.170000000000000000e+02,9.800000000000000000e+01,3.300000000000000000e+01,3.100000000000000000e+01,2.700000000000000000e+01,3.100000000000000000e+01,5.699999999999999512e-01,8.673428600000000000e+09
3.800000000000000000e+01,5.800000000000000000e+01,2.080000000000000000e+02,9.300000000000000000e+01,3.400000000000000000e+01,3.300000000000000000e+01,2.600000000000000000e+01,3.000000000000000000e+01,5.699999999999999512e-01,8.695601200000000000e+09
5.200000000000000000e+01,6.500000000000000000e+01,2.500000000000000000e+02,1.100000000000000000e+02,4.000000000000000000e+01,3.300000000000000000e+01,2.700000000000000000e+01,3.600000000000000000e+01,5.699999999999999512e-01,8.714019600000000000e+09
5.200000000000000000e+01,6.200000000000000000e+01,2.290000000000000000e+02,9.800000000000000000e+01,3.900000000000000000e+01,3.100000000000000000e+01,3.000000000000000000e+01,3.600000000000000000e+01,5.699999999999999512e-01,8.734810300000000000e+09
5.400000000000000000e+01,6.100000000000000000e+01,2.170000000000000000e+02,9.000000000000000000e+01,3.800000000000000000e+01,3.300000000000000000e+01,2.900000000000000000e+01,3.500000000000000000e+01,5.699999999999999512e-01,8.753069200000000000e+09
5.300000000000000000e+01,5.800000000000000000e+01,1.970000000000000000e+02,9.100000000000000000e+01,3.800000000000000000e+01,2.900000000000000000e+01,2.900000000000000000e+01,3.600000000000000000e+01,5.699999999999999512e-01,8.772912800000000000e+09
5.500000000000000000e+01,6.100000000000000000e+01,2.100000000000000000e+02,9.300000000000000000e+01,3.500000000000000000e+01,2.600000000000000000e+01,3.000000000000000000e+01,3.700000000000000000e+01,5.699999999999999512e-01,8.795178400000000000e+09
3.900000000000000000e+01,5.300000000000000000e+01,1.650000000000000000e+02,7.100000000000000000e+01,3.200000000000000000e+01,2.900000000000000000e+01,2.600000000000000000e+01,3.300000000000000000e+01,5.699999999999999512e-01,8.812991500000000000e+09
3.600000000000000000e+01,5.200000000000000000e+01,1.560000000000000000e+02,6.800000000000000000e+01,2.800000000000000000e+01,3.200000000000000000e+01,2.200000000000000000e+01,3.500000000000000000e+01,5.699999999999999512e-01,8.832002200000000000e+09
5.300000000000000000e+01,6.100000000000000000e+01,1.860000000000000000e+02,1.000000000000000000e+02,3.500000000000000000e+01,3.200000000000000000e+01,2.500000000000000000e+01,4.100000000000000000e+01,5.699999999999999512e-01,8.851360600000000000e+09
5.100000000000000000e+01,6.300000000000000000e+01,1.890000000000000000e+02,1.050000000000000000e+02,3.300000000000000000e+01,3.200000000000000000e+01,2.700000000000000000e+01,4.000000000000000000e+01,5.699999999999999512e-01,8.872799400000000000e+09
5.000000000000000000e+01,6.200000000000000000e+01,1.730000000000000000e+02,1.070000000000000000e+02,3.500000000000000000e+01,3.400000000000000000e+01,2.800000000000000000e+01,3.900000000000000000e+01,5.699999999999999512e-01,8.894917700000000000e+09
5.000000000000000000e+01,6.000000000000000000e+01,1.650000000000000000e+02,1.040000000000000000e+02,3.000000000000000000e+01,3.400000000000000000e+01,3.000000000000000000e+01,3.900000000000000000e+01,5.699999999999999512e-01,8.913176900000000000e+09
5.000000000000000000e+01,6.200000000000000000e+01,1.790000000000000000e+02,1.090000000000000000e+02,3.300000000000000000e+01,3.200000000000000000e+01,3.200000000000000000e+01,3.800000000000000000e+01,5.699999999999999512e-01,8.932709500000000000e+09
3.100000000000000000e+01,5.400000000000000000e+01,1.840000000000000000e+02,8.500000000000000000e+01,2.700000000000000000e+01,3.000000000000000000e+01,3.000000000000000000e+01,3.200000000000000000e+01,5.699999999999999512e-01,8.950774400000000000e+09
3.600000000000000000e+01,5.200000000000000000e+01,1.950000000000000000e+02,8.400000000000000000e+01,2.800000000000000000e+01,3.200000000000000000e+01,3.100000000000000000e+01,3.500000000000000000e+01,5.699999999999999512e-01,8.972942500000000000e+09
3.500000000000000000e+01,5.000000000000000000e+01,2.050000000000000000e+02,9.200000000000000000e+01,3.000000000000000000e+01,3.100000000000000000e+01,3.100000000000000000e+01,3.400000000000000000e+01,5.699999999999999512e-01,8.994982600000000000e+09
5.000000000000000000e+01,5.000000000000000000e+01,2.120000000000000000e+02,9.100000000000000000e+01,3.100000000000000000e+01,2.700000000000000000e+01,2.800000000000000000e+01,3.800000000000000000e+01,5.699999999999999512e-01,9.013042600000000000e+09
5.200000000000000000e+01,4.600000000000000000e+01,1.990000000000000000e+02,8.800000000000000000e+01,3.000000000000000000e+01,2.800000000000000000e+01,2.800000000000000000e+01,3.800000000000000000e+01,5.600000000000000533e-01,9.032566000000000000e+09
5.300000000000000000e+01,4.400000000000000000e+01,1.670000000000000000e+02,8.700000000000000000e+01,3.100000000000000000e+01,2.800000000000000000e+01,2.900000000000000000e+01,3.900000000000000000e+01,5.699999999999999512e-01,9.052384600000000000e+09
4.900000000000000000e+01,4.400000000000000000e+01,1.610000000000000000e+02,8.200000000000000000e+01,3.300000000000000000e+01,2.500000000000000000e+01,2.700000000000000000e+01,3.800000000000000000e+01,5.699999999999999512e-01,9.072792300000000000e+09
4.800000000000000000e+01,4.000000000000000000e+01,1.440000000000000000e+02,6.500000000000000000e+01,3.000000000000000000e+01,2.600000000000000000e+01,2.600000000000000000e+01,3.700000000000000000e+01,5.600000000000000533e-01,9.095397900000000000e+09
3.600000000000000000e+01,5.600000000000000000e+01,1.870000000000000000e+02,1.190000000000000000e+02,4.100000000000000000e+01,3.200000000000000000e+01,2.800000000000000000e+01,3.100000000000000000e+01,5.699999999999999512e-01,9.113666300000000000e+09
4.900000000000000000e+01,6.000000000000000000e+01,1.990000000000000000e+02,1.210000000000000000e+02,4.100000000000000000e+01,3.300000000000000000e+01,2.700000000000000000e+01,4.000000000000000000e+01,5.699999999999999512e-01,9.133150200000000000e+09
5.100000000000000000e+01,6.500000000000000000e+01,2.140000000000000000e+02,1.280000000000000000e+02,4.300000000000000000e+01,3.300000000000000000e+01,2.700000000000000000e+01,3.900000000000000000e+01,5.699999999999999512e-01,9.151337000000000000e+09
5.200000000000000000e+01,6.700000000000000000e+01,2.190000000000000000e+02,1.360000000000000000e+02,4.400000000000000000e+01,3.500000000000000000e+01,2.600000000000000000e+01,3.800000000000000000e+01,5.699999999999999512e-01,9.173671300000000000e+09
5.500000000000000000e+01,6.800000000000000000e+01,2.290000000000000000e+02,1.380000000000000000e+02,4.500000000000000000e+01,3.400000000000000000e+01,2.800000000000000000e+01,4.100000000000000000e+01,5.699999999999999512e-01,9.195783400000000000e+09
5.400000000000000000e+01,5.700000000000000000e+01,1.940000000000000000e+02,1.040000000000000000e+02,4.000000000000000000e+01,3.000000000000000000e+01,2.600000000000000000e+01,3.900000000000000000e+01,5.699999999999999512e-01,9.213908100000000000e+09
4.100000000000000000e+01,6.600000000000000000e+01,2.340000000000000000e+02,1.180000000000000000e+02,4.300000000000000000e+01,3.100000000000000000e+01,3.000000000000000000e+01,3.300000000000000000e+01,5.699999999999999512e-01,9.231880400000000000e+09
3.500000000000000000e+01,6.400000000000000000e+01,2.230000000000000000e+02,1.120000000000000000e+02,4.000000000000000000e+01,2.900000000000000000e+01,2.900000000000000000e+01,3.300000000000000000e+01,5.699999999999999512e-01,9.251365700000000000e+09
3.600000000000000000e+01,6.200000000000000000e+01,2.060000000000000000e+02,1.040000000000000000e+02,3.900000000000000000e+01,2.700000000000000000e+01,2.900000000000000000e+01,3.400000000000000000e+01,5.799999999999999600e-01,9.273454500000000000e+09
3.300000000000000000e+01,6.500000000000000000e+01,2.200000000000000000e+02,1.150000000000000000e+02,3.800000000000000000e+01,2.600000000000000000e+01,2.800000000000000000e+01,3.300000000000000000e+01,5.799999999999999600e-01,9.295846800000000000e+09
3.200000000000000000e+01,6.600000000000000000e+01,2.340000000000000000e+02,1.170000000000000000e+02,3.700000000000000000e+01,2.600000000000000000e+01,2.800000000000000000e+01,3.300000000000000000e+01,5.799999999999999600e-01,9.314256200000000000e+09
3.200000000000000000e+01,5.800000000000000000e+01,1.930000000000000000e+02,9.900000000000000000e+01,3.300000000000000000e+01,2.600000000000000000e+01,2.300000000000000000e+01,2.900000000000000000e+01,5.799999999999999600e-01,9.332238600000000000e+09
3.100000000000000000e+01,5.200000000000000000e+01,1.900000000000000000e+02,9.500000000000000000e+01,3.200000000000000000e+01,2.700000000000000000e+01,2.500000000000000000e+01,3.300000000000000000e+01,5.799999999999999600e-01,9.351616100000000000e+09
4.500000000000000000e+01,6.000000000000000000e+01,2.420000000000000000e+02,1.160000000000000000e+02,3.400000000000000000e+01,3.000000000000000000e+01,2.500000000000000000e+01,3.700000000000000000e+01,5.799999999999999600e-01,9.373951400000000000e+09
4.600000000000000000e+01,5.600000000000000000e+01,2.260000000000000000e+02,1.060000000000000000e+02,3.300000000000000000e+01,3.100000000000000000e+01,2.600000000000000000e+01,3.500000000000000000e+01,5.799999999999999600e-01,9.396006400000000000e+09
4.700000000000000000e+01,5.600000000000000000e+01,2.230000000000000000e+02,1.030000000000000000e+02,3.200000000000000000e+01,3.300000000000000000e+01,2.600000000000000000e+01,3.500000000000000000e+01,5.799999999999999600e-01,9.413851200000000000e+09
4.900000000000000000e+01,6.000000000000000000e+01,2.570000000000000000e+02,1.130000000000000000e+02,3.500000000000000000e+01,3.500000000000000000e+01,2.900000000000000000e+01,3.700000000000000000e+01,5.799999999999999600e-01,9.432137700000000000e+09
5.200000000000000000e+01,6.700000000000000000e+01,2.680000000000000000e+02,1.170000000000000000e+02,3.700000000000000000e+01,3.500000000000000000e+01,3.100000000000000000e+01,3.700000000000000000e+01,5.799999999999999600e-01,9.451630200000000000e+09
4.200000000000000000e+01,7.000000000000000000e+01,2.520000000000000000e+02,1.070000000000000000e+02,3.500000000000000000e+01,3.400000000000000000e+01,3.000000000000000000e+01,3.300000000000000000e+01,5.799999999999999600e-01,9.473827500000000000e+09
4.200000000000000000e+01,8.200000000000000000e+01,2.720000000000000000e+02,1.110000000000000000e+02,3.800000000000000000e+01,3.500000000000000000e+01,3.100000000000000000e+01,3.400000000000000000e+01,5.799999999999999600e-01,9.496190600000000000e+09
4.100000000000000000e+01,8.100000000000000000e+01,2.700000000000000000e+02,1.160000000000000000e+02,3.800000000000000000e+01,3.000000000000000000e+01,3.200000000000000000e+01,3.500000000000000000e+01,5.799999999999999600e-01,9.514187900000000000e+09
3.800000000000000000e+01,7.500000000000000000e+01,2.330000000000000000e+02,1.050000000000000000e+02,3.500000000000000000e+01,3.100000000000000000e+01,3.100000000000000000e+01,3.300000000000000000e+01,5.799999999999999600e-01,9.533072300000000000e+09
3.600000000000000000e+01,7.600000000000000000e+01,2.520000000000000000e+02,1.080000000000000000e+02,3.500000000000000000e+01,3.100000000000000000e+01,2.800000000000000000e+01,3.000000000000000000e+01,5.799999999999999600e-01,9.551674700000000000e+09
3.800000000000000000e+01,7.500000000000000000e+01,2.470000000000000000e+02,1.090000000000000000e+02,3.700000000000000000e+01,3.000000000000000000e+01,3.400000000000000000e+01,3.600000000000000000e+01,5.799999999999999600e-01,9.573905300000000000e+09
3.500000000000000000e+01,6.300000000000000000e+01,2.200000000000000000e+02,1.030000000000000000e+02,3.500000000000000000e+01,2.900000000000000000e+01,3.400000000000000000e+01,3.500000000000000000e+01,5.799999999999999600e-01,9.596181800000000000e+09
5.000000000000000000e+01,6.700000000000000000e+01,2.410000000000000000e+02,1.010000000000000000e+02,3.400000000000000000e+01,3.000000000000000000e+01,3.300000000000000000e+01,4.100000000000000000e+01,5.799999999999999600e-01,9.615157300000000000e+09
5.000000000000000000e+01,6.600000000000000000e+01,2.470000000000000000e+02,1.050000000000000000e+02,3.200000000000000000e+01,2.500000000000000000e+01,3.200000000000000000e+01,3.900000000000000000e+01,5.799999999999999600e-01,9.634723500000000000e+09
5.000000000000000000e+01,6.600000000000000000e+01,2.340000000000000000e+02,1.020000000000000000e+02,3.100000000000000000e+01,2.600000000000000000e+01,3.100000000000000000e+01,4.000000000000000000e+01,5.799999999999999600e-01,9.654081300000000000e+09
5.000000000000000000e+01,6.200000000000000000e+01,2.320000000000000000e+02,8.900000000000000000e+01,2.900000000000000000e+01,2.200000000000000000e+01,2.500000000000000000e+01,3.600000000000000000e+01,5.799999999999999600e-01,9.674879000000000000e+09
5.300000000000000000e+01,6.500000000000000000e+01,2.470000000000000000e+02,8.900000000000000000e+01,3.000000000000000000e+01,2.100000000000000000e+01,2.600000000000000000e+01,3.800000000000000000e+01,5.799999999999999600e-01,9.694910200000000000e+09
3.800000000000000000e+01,6.100000000000000000e+01,2.230000000000000000e+02,8.000000000000000000e+01,3.000000000000000000e+01,2.100000000000000000e+01,2.600000000000000000e+01,3.100000000000000000e+01,5.799999999999999600e-01,9.714077100000000000e+09
3.900000000000000000e+01,6.300000000000000000e+01,2.450000000000000000e+02,8.200000000000000000e+01,3.100000000000000000e+01,2.200000000000000000e+01,2.800000000000000000e+01,3.300000000000000000e+01,5.799999999999999600e-01,9.733607200000000000e+09
5.500000000000000000e+01,6.200000000000000000e+01,2.350000000000000000e+02,8.300000000000000000e+01,3.400000000000000000e+01,2.200000000000000000e+01,3.000000000000000000e+01,3.900000000000000000e+01,5.799999999999999600e-01,9.752439100000000000e+09
6.500000000000000000e+01,6.100000000000000000e+01,2.160000000000000000e+02,8.700000000000000000e+01,3.500000000000000000e+01,2.700000000000000000e+01,3.400000000000000000e+01,4.900000000000000000e+01,5.799999999999999600e-01,9.771435900000000000e+09
6.400000000000000000e+01,6.400000000000000000e+01,2.410000000000000000e+02,9.500000000000000000e+01,3.600000000000000000e+01,2.800000000000000000e+01,3.300000000000000000e+01,5.200000000000000000e+01,5.799999999999999600e-01,9.793611700000000000e+09
6.500000000000000000e+01,6.700000000000000000e+01,2.490000000000000000e+02,1.010000000000000000e+02,3.600000000000000000e+01,2.900000000000000000e+01,3.200000000000000000e+01,5.400000000000000000e+01,5.699999999999999512e-01,9.815920800000000000e+09
6.500000000000000000e+01,7.300000000000000000e+01,2.470000000000000000e+02,1.010000000000000000e+02,3.600000000000000000e+01,2.900000000000000000e+01,3.200000000000000000e+01,5.400000000000000000e+01,5.699999999999999512e-01,9.833821100000000000e+09
5.300000000000000000e+01,7.000000000000000000e+01,2.490000000000000000e+02,1.040000000000000000e+02,3.700000000000000000e+01,3.000000000000000000e+01,3.300000000000000000e+01,5.000000000000000000e+01,5.699999999999999512e-01,9.851974200000000000e+09
4.000000000000000000e+01,6.700000000000000000e+01,2.610000000000000000e+02,1.150000000000000000e+02,3.500000000000000000e+01,2.500000000000000000e+01,3.000000000000000000e+01,4.000000000000000000e+01,5.699999999999999512e-01,9.871464700000000000e+09
3.900000000000000000e+01,6.500000000000000000e+01,2.340000000000000000e+02,1.100000000000000000e+02,3.400000000000000000e+01,2.600000000000000000e+01,2.900000000000000000e+01,3.600000000000000000e+01,5.699999999999999512e-01,9.893547900000000000e+09
4.100000000000000000e+01,7.000000000000000000e+01,2.530000000000000000e+02,1.130000000000000000e+02,3.500000000000000000e+01,2.500000000000000000e+01,3.000000000000000000e+01,3.300000000000000000e+01,5.699999999999999512e-01,9.915774300000000000e+09
3.900000000000000000e+01,6.100000000000000000e+01,2.310000000000000000e+02,1.130000000000000000e+02,3.400000000000000000e+01,2.500000000000000000e+01,2.800000000000000000e+01,3.200000000000000000e+01,5.699999999999999512e-01,9.934745600000000000e+09
3.800000000000000000e+01,5.900000000000000000e+01,2.230000000000000000e+02,1.120000000000000000e+02,3.300000000000000000e+01,2.500000000000000000e+01,2.600000000000000000e+01,3.000000000000000000e+01,5.699999999999999512e-01,9.953290400000000000e+09
5.100000000000000000e+01,6.500000000000000000e+01,2.360000000000000000e+02,1.070000000000000000e+02,3.500000000000000000e+01,2.800000000000000000e+01,2.700000000000000000e+01,3.400000000000000000e+01,5.699999999999999512e-01,9.973185700000000000e+09
4.900000000000000000e+01,6.600000000000000000e+01,2.290000000000000000e+02,1.100000000000000000e+02,3.400000000000000000e+01,2.700000000000000000e+01,2.800000000000000000e+01,3.600000000000000000e+01,5.799999999999999600e-01,9.993862100000000000e+09
5.200000000000000000e+01,6.200000000000000000e+01,1.980000000000000000e+02,1.060000000000000000e+02,3.400000000000000000e+01,2.800000000000000000e+01,3.000000000000000000e+01,3.600000000000000000e+01,5.799999999999999600e-01,1.001589630000000000e+10
5.400000000000000000e+01,7.800000000000000000e+01,2.870000000000000000e+02,1.320000000000000000e+02,3.600000000000000000e+01,2.800000000000000000e+01,3.200000000000000000e+01,3.800000000000000000e+01,5.799999999999999600e-01,1.003580630000000000e+10
5.300000000000000000e+01,8.000000000000000000e+01,3.070000000000000000e+02,1.320000000000000000e+02,3.500000000000000000e+01,2.700000000000000000e+01,3.300000000000000000e+01,3.800000000000000000e+01,5.799999999999999600e-01,1.005838830000000000e+10
3.800000000000000000e+01,7.600000000000000000e+01,2.910000000000000000e+02,1.270000000000000000e+02,3.500000000000000000e+01,2.700000000000000000e+01,3.200000000000000000e+01,3.100000000000000000e+01,5.799999999999999600e-01,1.007781700000000000e+10
4.100000000000000000e+01,7.600000000000000000e+01,2.950000000000000000e+02,1.260000000000000000e+02,3.600000000000000000e+01,2.700000000000000000e+01,3.100000000000000000e+01,3.200000000000000000e+01,5.899999999999999689e-01,1.009541310000000000e+10
3.800000000000000000e+01,7.500000000000000000e+01,2.960000000000000000e+02,1.230000000000000000e+02,3.700000000000000000e+01,2.900000000000000000e+01,3.400000000000000000e+01,3.700000000000000000e+01,5.899999999999999689e-01,1.011479670000000000e+10
3.800000000000000000e+01,6.300000000000000000e+01,2.130000000000000000e+02,8.800000000000000000e+01,3.500000000000000000e+01,2.900000000000000000e+01,3.200000000000000000e+01,3.500000000000000000e+01,5.899999999999999689e-01,1.013349480000000000e+10
3.900000000000000000e+01,6.000000000000000000e+01,1.920000000000000000e+02,1.040000000000000000e+02,3.600000000000000000e+01,3.100000000000000000e+01,3.100000000000000000e+01,3.400000000000000000e+01,5.899999999999999689e-01,1.015282210000000000e+10
5.100000000000000000e+01,6.100000000000000000e+01,1.970000000000000000e+02,1.070000000000000000e+02,3.600000000000000000e+01,3.000000000000000000e+01,3.000000000000000000e+01,3.900000000000000000e+01,5.899999999999999689e-01,1.017243860000000000e+10
5.000000000000000000e+01,7.100000000000000000e+01,2.130000000000000000e+02,1.150000000000000000e+02,3.900000000000000000e+01,3.300000000000000000e+01,3.000000000000000000e+01,3.800000000000000000e+01,5.899999999999999689e-01,1.019238610000000000e+10
5.000000000000000000e+01,6.900000000000000000e+01,2.290000000000000000e+02,1.260000000000000000e+02,3.800000000000000000e+01,3.200000000000000000e+01,2.800000000000000000e+01,3.600000000000000000e+01,5.899999999999999689e-01,1.021455380000000000e+10
5.100000000000000000e+01,6.900000000000000000e+01,2.420000000000000000e+02,1.280000000000000000e+02,4.000000000000000000e+01,3.200000000000000000e+01,2.800000000000000000e+01,3.900000000000000000e+01,5.899999999999999689e-01,1.023454730000000000e+10
5.400000000000000000e+01,8.100000000000000000e+01,2.620000000000000000e+02,1.190000000000000000e+02,4.000000000000000000e+01,3.100000000000000000e+01,2.800000000000000000e+01,4.100000000000000000e+01,5.899999999999999689e-01,1.025451650000000000e+10
4.500000000000000000e+01,8.100000000000000000e+01,2.540000000000000000e+02,1.150000000000000000e+02,3.900000000000000000e+01,3.200000000000000000e+01,3.200000000000000000e+01,3.700000000000000000e+01,5.899999999999999689e-01,1.027491760000000000e+10
4.400000000000000000e+01,7.500000000000000000e+01,2.510000000000000000e+02,1.130000000000000000e+02,3.600000000000000000e+01,2.900000000000000000e+01,3.200000000000000000e+01,3.500000000000000000e+01,5.899999999999999689e-01,1.029517750000000000e+10
4.100000000000000000e+01,7.400000000000000000e+01,2.470000000000000000e+02,1.010000000000000000e+02,3.500000000000000000e+01,2.900000000000000000e+01,2.800000000000000000e+01,3.300000000000000000e+01,5.899999999999999689e-01,1.031464140000000000e+10
3.700000000000000000e+01,7.200000000000000000e+01,2.270000000000000000e+02,1.010000000000000000e+02,3.200000000000000000e+01,2.600000000000000000e+01,2.600000000000000000e+01,3.000000000000000000e+01,5.899999999999999689e-01,1.033386670000000000e+10
4.800000000000000000e+01,5.900000000000000000e+01,2.060000000000000000e+02,1.020000000000000000e+02,3.200000000000000000e+01,2.600000000000000000e+01,2.500000000000000000e+01,3.500000000000000000e+01,5.899999999999999689e-01,1.035813220000000000e+10
4.500000000000000000e+01,6.100000000000000000e+01,2.170000000000000000e+02,1.020000000000000000e+02,3.200000000000000000e+01,2.500000000000000000e+01,2.300000000000000000e+01,3.500000000000000000e+01,5.899999999999999689e-01,1.037661200000000000e+10
4.500000000000000000e+01,5.600000000000000000e+01,2.040000000000000000e+02,9.100000000000000000e+01,3.000000000000000000e+01,2.700000000000000000e+01,2.400000000000000000e+01,3.600000000000000000e+01,5.899999999999999689e-01,1.039537120000000000e+10
4.500000000000000000e+01,5.500000000000000000e+01,1.790000000000000000e+02,8.700000000000000000e+01,3.100000000000000000e+01,2.500000000000000000e+01,2.400000000000000000e+01,3.300000000000000000e+01,5.899999999999999689e-01,1.041535480000000000e+10
4.800000000000000000e+01,6.300000000000000000e+01,2.280000000000000000e+02,1.090000000000000000e+02,3.500000000000000000e+01,2.600000000000000000e+01,2.600000000000000000e+01,3.600000000000000000e+01,5.899999999999999689e-01,1.043435900000000000e+10
3.700000000000000000e+01,6.300000000000000000e+01,2.170000000000000000e+02,1.030000000000000000e+02,3.300000000000000000e+01,2.700000000000000000e+01,2.800000000000000000e+01,3.100000000000000000e+01,5.899999999999999689e-01,1.045323220000000000e+10
