7.900000000000000000e+01,2.070000000000000000e+02,8.800000000000000000e+02,1.990000000000000000e+02,8.000000000000000000e+01,4.800000000000000000e+01,5.200000000000000000e+01,5.200000000000000000e+01,5.100000000000000089e-01,6.955028000000000000e+08
8.400000000000000000e+01,2.520000000000000000e+02,8.990000000000000000e+02,2.010000000000000000e+02,8.800000000000000000e+01,6.700000000000000000e+01,5.400000000000000000e+01,5.800000000000000000e+01,4.899999999999999911e-01,7.271706000000000000e+08
8.600000000000000000e+01,2.620000000000000000e+02,8.830000000000000000e+02,2.330000000000000000e+02,8.800000000000000000e+01,6.600000000000000000e+01,5.200000000000000000e+01,5.600000000000000000e+01,4.799999999999999822e-01,1.447183000000000000e+09
8.900000000000000000e+01,2.670000000000000000e+02,8.340000000000000000e+02,2.380000000000000000e+02,1.080000000000000000e+02,7.400000000000000000e+01,4.900000000000000000e+01,6.200000000000000000e+01,4.699999999999999734e-01,1.465878000000000000e+09
8.200000000000000000e+01,2.620000000000000000e+02,7.900000000000000000e+02,2.380000000000000000e+02,1.110000000000000000e+02,7.400000000000000000e+01,5.000000000000000000e+01,5.900000000000000000e+01,4.600000000000000200e-01,1.484248300000000000e+09
8.400000000000000000e+01,2.430000000000000000e+02,7.860000000000000000e+02,2.340000000000000000e+02,1.120000000000000000e+02,8.100000000000000000e+01,4.900000000000000000e+01,6.100000000000000000e+01,4.500000000000000111e-01,1.503699300000000000e+09
8.300000000000000000e+01,2.030000000000000000e+02,8.240000000000000000e+02,2.320000000000000000e+02,1.050000000000000000e+02,6.700000000000000000e+01,4.300000000000000000e+01,5.500000000000000000e+01,4.400000000000000022e-01,1.524029400000000000e+09
8.100000000000000000e+01,2.330000000000000000e+02,9.040000000000000000e+02,2.120000000000000000e+02,1.030000000000000000e+02,6.600000000000000000e+01,4.500000000000000000e+01,5.500000000000000000e+01,4.400000000000000022e-01,1.542476800000000000e+09
1.020000000000000000e+02,3.340000000000000000e+02,9.330000000000000000e+02,2.580000000000000000e+02,1.020000000000000000e+02,6.500000000000000000e+01,4.800000000000000000e+01,5.700000000000000000e+01,4.199999999999999845e-01,1.560126600000000000e+09
1.110000000000000000e+02,3.370000000000000000e+02,9.280000000000000000e+02,3.010000000000000000e+02,1.170000000000000000e+02,6.100000000000000000e+01,5.200000000000000000e+01,6.400000000000000000e+01,4.099999999999999756e-01,1.578966900000000000e+09
1.100000000000000000e+02,3.420000000000000000e+02,8.920000000000000000e+02,3.120000000000000000e+02,1.160000000000000000e+02,5.700000000000000000e+01,5.300000000000000000e+01,6.100000000000000000e+01,4.000000000000000222e-01,1.598994700000000000e+09
1.140000000000000000e+02,3.520000000000000000e+02,8.990000000000000000e+02,3.340000000000000000e+02,1.260000000000000000e+02,6.000000000000000000e+01,5.700000000000000000e+01,6.100000000000000000e+01,3.800000000000000044e-01,1.618526000000000000e+09
1.180000000000000000e+02,3.570000000000000000e+02,8.350000000000000000e+02,3.310000000000000000e+02,1.290000000000000000e+02,6.200000000000000000e+01,5.500000000000000000e+01,6.100000000000000000e+01,3.699999999999999956e-01,1.636329700000000000e+09
8.900000000000000000e+01,2.610000000000000000e+02,7.580000000000000000e+02,2.910000000000000000e+02,1.080000000000000000e+02,5.800000000000000000e+01,5.100000000000000000e+01,4.600000000000000000e+01,3.699999999999999956e-01,1.654619800000000000e+09
1.070000000000000000e+02,3.320000000000000000e+02,7.750000000000000000e+02,3.000000000000000000e+02,1.160000000000000000e+02,8.500000000000000000e+01,5.800000000000000000e+01,5.600000000000000000e+01,3.599999999999999867e-01,1.672832700000000000e+09
1.110000000000000000e+02,3.360000000000000000e+02,7.610000000000000000e+02,3.030000000000000000e+02,1.190000000000000000e+02,8.500000000000000000e+01,5.800000000000000000e+01,5.700000000000000000e+01,3.499999999999999778e-01,1.690627400000000000e+09
1.040000000000000000e+02,3.260000000000000000e+02,6.920000000000000000e+02,2.730000000000000000e+02,1.200000000000000000e+02,8.800000000000000000e+01,5.800000000000000000e+01,5.500000000000000000e+01,3.400000000000000244e-01,1.709250000000000000e+09
1.020000000000000000e+02,3.020000000000000000e+02,8.240000000000000000e+02,2.910000000000000000e+02,1.230000000000000000e+02,8.900000000000000000e+01,5.900000000000000000e+01,5.500000000000000000e+01,3.300000000000000155e-01,1.727749400000000000e+09
1.040000000000000000e+02,3.160000000000000000e+02,9.440000000000000000e+02,3.000000000000000000e+02,1.310000000000000000e+02,9.000000000000000000e+01,6.000000000000000000e+01,5.700000000000000000e+01,3.200000000000000067e-01,1.771137100000000000e+09
7.600000000000000000e+01,2.370000000000000000e+02,9.940000000000000000e+02,2.560000000000000000e+02,1.180000000000000000e+02,7.500000000000000000e+01,5.300000000000000000e+01,4.100000000000000000e+01,3.099999999999999978e-01,1.790968800000000000e+09
8.000000000000000000e+01,2.380000000000000000e+02,1.094000000000000000e+03,2.380000000000000000e+02,1.230000000000000000e+02,7.300000000000000000e+01,5.300000000000000000e+01,4.000000000000000000e+01,3.099999999999999978e-01,1.808815200000000000e+09
9.000000000000000000e+01,2.800000000000000000e+02,1.114000000000000000e+03,2.480000000000000000e+02,1.150000000000000000e+02,7.100000000000000000e+01,6.000000000000000000e+01,5.300000000000000000e+01,2.999999999999999889e-01,1.826918800000000000e+09
8.900000000000000000e+01,2.810000000000000000e+02,1.103000000000000000e+03,2.260000000000000000e+02,1.140000000000000000e+02,7.300000000000000000e+01,5.800000000000000000e+01,5.400000000000000000e+01,2.999999999999999889e-01,1.843706000000000000e+09
9.900000000000000000e+01,2.720000000000000000e+02,1.049000000000000000e+03,2.050000000000000000e+02,1.080000000000000000e+02,6.800000000000000000e+01,6.000000000000000000e+01,5.400000000000000000e+01,2.999999999999999889e-01,1.860625600000000000e+09
1.000000000000000000e+02,2.760000000000000000e+02,1.068000000000000000e+03,1.940000000000000000e+02,9.500000000000000000e+01,5.800000000000000000e+01,5.900000000000000000e+01,5.500000000000000000e+01,2.999999999999999889e-01,1.877406400000000000e+09
9.500000000000000000e+01,2.640000000000000000e+02,9.850000000000000000e+02,2.060000000000000000e+02,9.000000000000000000e+01,6.300000000000000000e+01,6.100000000000000000e+01,5.500000000000000000e+01,2.999999999999999889e-01,1.894826200000000000e+09
1.020000000000000000e+02,2.760000000000000000e+02,1.045000000000000000e+03,2.000000000000000000e+02,1.020000000000000000e+02,6.600000000000000000e+01,5.500000000000000000e+01,5.000000000000000000e+01,2.999999999999999889e-01,1.914088500000000000e+09
1.060000000000000000e+02,2.830000000000000000e+02,9.450000000000000000e+02,2.700000000000000000e+02,1.100000000000000000e+02,7.200000000000000000e+01,5.700000000000000000e+01,5.200000000000000000e+01,2.999999999999999889e-01,1.932242800000000000e+09
9.700000000000000000e+01,2.770000000000000000e+02,8.800000000000000000e+02,2.800000000000000000e+02,1.040000000000000000e+02,7.700000000000000000e+01,5.300000000000000000e+01,5.400000000000000000e+01,2.999999999999999889e-01,1.950835100000000000e+09
1.020000000000000000e+02,3.100000000000000000e+02,8.770000000000000000e+02,3.300000000000000000e+02,1.200000000000000000e+02,9.900000000000000000e+01,5.900000000000000000e+01,5.600000000000000000e+01,2.899999999999999800e-01,1.968495800000000000e+09
1.040000000000000000e+02,3.120000000000000000e+02,8.370000000000000000e+02,3.360000000000000000e+02,1.160000000000000000e+02,9.700000000000000000e+01,5.500000000000000000e+01,5.600000000000000000e+01,2.899999999999999800e-01,1.986106500000000000e+09
9.100000000000000000e+01,2.930000000000000000e+02,7.810000000000000000e+02,3.410000000000000000e+02,1.040000000000000000e+02,9.200000000000000000e+01,5.800000000000000000e+01,5.200000000000000000e+01,2.999999999999999889e-01,2.002782800000000000e+09
8.300000000000000000e+01,2.790000000000000000e+02,8.190000000000000000e+02,3.000000000000000000e+02,9.600000000000000000e+01,8.700000000000000000e+01,5.700000000000000000e+01,4.900000000000000000e+01,3.099999999999999978e-01,2.021788100000000000e+09
8.500000000000000000e+01,2.700000000000000000e+02,8.690000000000000000e+02,3.060000000000000000e+02,1.140000000000000000e+02,8.400000000000000000e+01,5.800000000000000000e+01,5.200000000000000000e+01,3.099999999999999978e-01,2.038989700000000000e+09
7.700000000000000000e+01,2.200000000000000000e+02,7.760000000000000000e+02,2.620000000000000000e+02,9.900000000000000000e+01,6.100000000000000000e+01,5.000000000000000000e+01,5.200000000000000000e+01,3.200000000000000067e-01,2.056802300000000000e+09
7.000000000000000000e+01,2.190000000000000000e+02,8.090000000000000000e+02,2.400000000000000000e+02,9.900000000000000000e+01,5.900000000000000000e+01,5.400000000000000000e+01,5.100000000000000000e+01,3.200000000000000067e-01,2.074934800000000000e+09
7.300000000000000000e+01,1.840000000000000000e+02,7.970000000000000000e+02,2.330000000000000000e+02,1.030000000000000000e+02,6.100000000000000000e+01,4.700000000000000000e+01,5.100000000000000000e+01,3.300000000000000155e-01,2.093295100000000000e+09
7.300000000000000000e+01,1.890000000000000000e+02,8.260000000000000000e+02,2.310000000000000000e+02,9.700000000000000000e+01,5.700000000000000000e+01,4.800000000000000000e+01,5.100000000000000000e+01,3.300000000000000155e-01,2.110915600000000000e+09
7.500000000000000000e+01,2.060000000000000000e+02,7.660000000000000000e+02,1.950000000000000000e+02,7.700000000000000000e+01,5.700000000000000000e+01,4.800000000000000000e+01,5.000000000000000000e+01,3.400000000000000244e-01,2.127555600000000000e+09
8.500000000000000000e+01,2.230000000000000000e+02,7.830000000000000000e+02,1.720000000000000000e+02,7.600000000000000000e+01,5.600000000000000000e+01,4.700000000000000000e+01,5.200000000000000000e+01,3.400000000000000244e-01,2.144654500000000000e+09
9.100000000000000000e+01,2.530000000000000000e+02,7.800000000000000000e+02,1.860000000000000000e+02,7.600000000000000000e+01,6.200000000000000000e+01,4.500000000000000000e+01,5.500000000000000000e+01,3.499999999999999778e-01,2.161655100000000000e+09
8.400000000000000000e+01,2.480000000000000000e+02,7.490000000000000000e+02,1.760000000000000000e+02,6.800000000000000000e+01,5.800000000000000000e+01,4.600000000000000000e+01,5.500000000000000000e+01,3.599999999999999867e-01,2.179191000000000000e+09
8.400000000000000000e+01,2.490000000000000000e+02,6.860000000000000000e+02,1.970000000000000000e+02,6.900000000000000000e+01,6.300000000000000000e+01,4.700000000000000000e+01,5.400000000000000000e+01,3.699999999999999956e-01,2.197804000000000000e+09
7.700000000000000000e+01,2.470000000000000000e+02,7.450000000000000000e+02,2.000000000000000000e+02,6.400000000000000000e+01,6.400000000000000000e+01,4.500000000000000000e+01,4.600000000000000000e+01,3.800000000000000044e-01,2.215251400000000000e+09
7.300000000000000000e+01,2.870000000000000000e+02,7.790000000000000000e+02,2.130000000000000000e+02,6.600000000000000000e+01,6.600000000000000000e+01,5.500000000000000000e+01,4.400000000000000000e+01,3.800000000000000044e-01,2.232158900000000000e+09
6.700000000000000000e+01,2.670000000000000000e+02,7.800000000000000000e+02,2.010000000000000000e+02,6.100000000000000000e+01,6.200000000000000000e+01,5.100000000000000000e+01,3.800000000000000000e+01,4.000000000000000222e-01,2.249306500000000000e+09
6.700000000000000000e+01,2.670000000000000000e+02,8.020000000000000000e+02,2.190000000000000000e+02,6.500000000000000000e+01,6.300000000000000000e+01,5.500000000000000000e+01,3.900000000000000000e+01,4.000000000000000222e-01,2.266671600000000000e+09
7.400000000000000000e+01,2.590000000000000000e+02,7.740000000000000000e+02,2.160000000000000000e+02,8.600000000000000000e+01,6.800000000000000000e+01,5.700000000000000000e+01,4.400000000000000000e+01,4.000000000000000222e-01,2.283362700000000000e+09
7.100000000000000000e+01,2.320000000000000000e+02,7.450000000000000000e+02,2.130000000000000000e+02,8.800000000000000000e+01,6.600000000000000000e+01,5.500000000000000000e+01,4.700000000000000000e+01,4.099999999999999756e-01,2.300558300000000000e+09
7.000000000000000000e+01,1.930000000000000000e+02,7.600000000000000000e+02,2.080000000000000000e+02,1.010000000000000000e+02,6.800000000000000000e+01,5.000000000000000000e+01,4.900000000000000000e+01,4.099999999999999756e-01,2.318137800000000000e+09
7.200000000000000000e+01,1.960000000000000000e+02,7.120000000000000000e+02,2.130000000000000000e+02,1.070000000000000000e+02,7.100000000000000000e+01,5.300000000000000000e+01,5.100000000000000000e+01,4.099999999999999756e-01,2.337656900000000000e+09
7.200000000000000000e+01,1.860000000000000000e+02,6.390000000000000000e+02,1.960000000000000000e+02,1.070000000000000000e+02,7.100000000000000000e+01,5.300000000000000000e+01,4.900000000000000000e+01,4.099999999999999756e-01,2.354815000000000000e+09
7.200000000000000000e+01,2.400000000000000000e+02,7.290000000000000000e+02,1.720000000000000000e+02,9.300000000000000000e+01,6.200000000000000000e+01,4.800000000000000000e+01,5.000000000000000000e+01,4.199999999999999845e-01,2.371890100000000000e+09
7.500000000000000000e+01,2.460000000000000000e+02,6.910000000000000000e+02,1.780000000000000000e+02,9.100000000000000000e+01,5.800000000000000000e+01,5.100000000000000000e+01,5.000000000000000000e+01,4.199999999999999845e-01,2.388457900000000000e+09
7.000000000000000000e+01,2.640000000000000000e+02,6.780000000000000000e+02,1.870000000000000000e+02,7.800000000000000000e+01,5.300000000000000000e+01,5.600000000000000000e+01,4.900000000000000000e+01,4.099999999999999756e-01,2.405143700000000000e+09
6.700000000000000000e+01,2.590000000000000000e+02,6.590000000000000000e+02,1.840000000000000000e+02,7.200000000000000000e+01,5.000000000000000000e+01,5.600000000000000000e+01,5.000000000000000000e+01,4.199999999999999845e-01,2.421671900000000000e+09
6.700000000000000000e+01,2.650000000000000000e+02,6.700000000000000000e+02,1.730000000000000000e+02,6.500000000000000000e+01,5.000000000000000000e+01,5.400000000000000000e+01,5.100000000000000000e+01,4.199999999999999845e-01,2.437959200000000000e+09
6.200000000000000000e+01,2.260000000000000000e+02,6.790000000000000000e+02,2.020000000000000000e+02,7.800000000000000000e+01,5.500000000000000000e+01,5.400000000000000000e+01,4.800000000000000000e+01,4.199999999999999845e-01,2.455695300000000000e+09
6.500000000000000000e+01,2.450000000000000000e+02,7.630000000000000000e+02,2.170000000000000000e+02,8.800000000000000000e+01,5.700000000000000000e+01,5.300000000000000000e+01,4.700000000000000000e+01,4.099999999999999756e-01,2.473135500000000000e+09
6.400000000000000000e+01,2.260000000000000000e+02,7.690000000000000000e+02,2.160000000000000000e+02,8.400000000000000000e+01,5.300000000000000000e+01,4.700000000000000000e+01,4.000000000000000000e+01,4.199999999999999845e-01,2.489946000000000000e+09
6.500000000000000000e+01,2.270000000000000000e+02,7.970000000000000000e+02,2.190000000000000000e+02,8.000000000000000000e+01,5.500000000000000000e+01,4.500000000000000000e+01,3.500000000000000000e+01,4.199999999999999845e-01,2.506851300000000000e+09
6.700000000000000000e+01,2.240000000000000000e+02,7.870000000000000000e+02,2.310000000000000000e+02,8.100000000000000000e+01,6.100000000000000000e+01,4.600000000000000000e+01,4.000000000000000000e+01,4.199999999999999845e-01,2.524579800000000000e+09
6.200000000000000000e+01,2.080000000000000000e+02,6.880000000000000000e+02,1.980000000000000000e+02,6.000000000000000000e+01,5.300000000000000000e+01,4.700000000000000000e+01,3.800000000000000000e+01,4.299999999999999933e-01,2.544156400000000000e+09
6.100000000000000000e+01,1.820000000000000000e+02,7.260000000000000000e+02,2.020000000000000000e+02,5.100000000000000000e+01,5.500000000000000000e+01,5.800000000000000000e+01,3.600000000000000000e+01,4.400000000000000022e-01,2.561721900000000000e+09
5.900000000000000000e+01,1.480000000000000000e+02,6.380000000000000000e+02,1.850000000000000000e+02,5.200000000000000000e+01,5.400000000000000000e+01,5.400000000000000000e+01,4.100000000000000000e+01,4.500000000000000111e-01,2.578650100000000000e+09
6.100000000000000000e+01,1.410000000000000000e+02,6.500000000000000000e+02,1.820000000000000000e+02,5.500000000000000000e+01,5.300000000000000000e+01,5.700000000000000000e+01,4.200000000000000000e+01,4.600000000000000200e-01,2.596245100000000000e+09
5.600000000000000000e+01,1.280000000000000000e+02,6.560000000000000000e+02,1.750000000000000000e+02,5.300000000000000000e+01,4.500000000000000000e+01,5.500000000000000000e+01,3.500000000000000000e+01,4.600000000000000200e-01,2.613128800000000000e+09
5.700000000000000000e+01,1.290000000000000000e+02,6.560000000000000000e+02,1.650000000000000000e+02,5.400000000000000000e+01,4.500000000000000000e+01,5.100000000000000000e+01,3.600000000000000000e+01,4.699999999999999734e-01,2.630922400000000000e+09
5.100000000000000000e+01,1.210000000000000000e+02,5.120000000000000000e+02,1.350000000000000000e+02,5.000000000000000000e+01,4.300000000000000000e+01,3.700000000000000000e+01,3.500000000000000000e+01,4.799999999999999822e-01,2.648203600000000000e+09
5.200000000000000000e+01,1.170000000000000000e+02,5.510000000000000000e+02,1.490000000000000000e+02,4.700000000000000000e+01,4.200000000000000000e+01,3.900000000000000000e+01,3.200000000000000000e+01,4.899999999999999911e-01,2.666022600000000000e+09
5.200000000000000000e+01,1.070000000000000000e+02,5.100000000000000000e+02,1.540000000000000000e+02,4.700000000000000000e+01,4.100000000000000000e+01,3.600000000000000000e+01,3.000000000000000000e+01,5.000000000000000000e-01,2.682981000000000000e+09
5.500000000000000000e+01,1.050000000000000000e+02,5.320000000000000000e+02,1.460000000000000000e+02,5.000000000000000000e+01,3.900000000000000000e+01,3.600000000000000000e+01,2.900000000000000000e+01,5.200000000000000178e-01,2.700600900000000000e+09
5.400000000000000000e+01,1.030000000000000000e+02,5.260000000000000000e+02,1.540000000000000000e+02,5.000000000000000000e+01,3.800000000000000000e+01,3.600000000000000000e+01,3.100000000000000000e+01,5.300000000000000266e-01,2.718141600000000000e+09
5.600000000000000000e+01,1.050000000000000000e+02,5.180000000000000000e+02,1.500000000000000000e+02,4.800000000000000000e+01,3.900000000000000000e+01,4.200000000000000000e+01,3.100000000000000000e+01,5.500000000000000444e-01,2.735857700000000000e+09
5.200000000000000000e+01,1.080000000000000000e+02,4.950000000000000000e+02,1.320000000000000000e+02,4.500000000000000000e+01,4.000000000000000000e+01,4.000000000000000000e+01,3.200000000000000000e+01,5.500000000000000444e-01,2.753345500000000000e+09
5.200000000000000000e+01,1.240000000000000000e+02,4.950000000000000000e+02,1.290000000000000000e+02,4.900000000000000000e+01,5.000000000000000000e+01,3.900000000000000000e+01,3.500000000000000000e+01,5.600000000000000533e-01,2.770208600000000000e+09
5.000000000000000000e+01,1.360000000000000000e+02,5.650000000000000000e+02,1.410000000000000000e+02,4.700000000000000000e+01,5.200000000000000000e+01,4.200000000000000000e+01,3.600000000000000000e+01,5.699999999999999512e-01,2.787689800000000000e+09
5.800000000000000000e+01,1.490000000000000000e+02,5.590000000000000000e+02,1.390000000000000000e+02,5.200000000000000000e+01,5.400000000000000000e+01,4.300000000000000000e+01,3.700000000000000000e+01,5.799999999999999600e-01,2.804222100000000000e+09
5.600000000000000000e+01,1.570000000000000000e+02,6.000000000000000000e+02,1.410000000000000000e+02,5.300000000000000000e+01,5.200000000000000000e+01,3.600000000000000000e+01,3.800000000000000000e+01,5.799999999999999600e-01,2.820493400000000000e+09
5.700000000000000000e+01,1.600000000000000000e+02,5.960000000000000000e+02,1.330000000000000000e+02,5.600000000000000000e+01,4.900000000000000000e+01,4.100000000000000000e+01,3.600000000000000000e+01,5.899999999999999689e-01,2.836727400000000000e+09
5.300000000000000000e+01,1.420000000000000000e+02,6.060000000000000000e+02,1.170000000000000000e+02,4.900000000000000000e+01,3.700000000000000000e+01,4.000000000000000000e+01,3.500000000000000000e+01,5.899999999999999689e-01,2.853223900000000000e+09
5.400000000000000000e+01,1.430000000000000000e+02,5.250000000000000000e+02,1.140000000000000000e+02,5.500000000000000000e+01,3.700000000000000000e+01,3.700000000000000000e+01,3.500000000000000000e+01,5.999999999999999778e-01,2.871239600000000000e+09
4.500000000000000000e+01,1.340000000000000000e+02,5.300000000000000000e+02,1.080000000000000000e+02,5.100000000000000000e+01,3.500000000000000000e+01,3.700000000000000000e+01,3.100000000000000000e+01,5.999999999999999778e-01,2.889732500000000000e+09
4.300000000000000000e+01,1.300000000000000000e+02,5.570000000000000000e+02,1.200000000000000000e+02,5.500000000000000000e+01,3.400000000000000000e+01,4.100000000000000000e+01,3.100000000000000000e+01,5.999999999999999778e-01,2.906856800000000000e+09
4.100000000000000000e+01,1.210000000000000000e+02,5.790000000000000000e+02,1.380000000000000000e+02,5.400000000000000000e+01,3.800000000000000000e+01,3.700000000000000000e+01,4.700000000000000000e+01,6.099999999999999867e-01,2.923491200000000000e+09
4.200000000000000000e+01,1.230000000000000000e+02,5.430000000000000000e+02,1.440000000000000000e+02,6.100000000000000000e+01,3.700000000000000000e+01,3.300000000000000000e+01,4.800000000000000000e+01,6.099999999999999867e-01,2.940137700000000000e+09
4.400000000000000000e+01,1.180000000000000000e+02,5.430000000000000000e+02,1.350000000000000000e+02,5.600000000000000000e+01,3.400000000000000000e+01,3.200000000000000000e+01,5.100000000000000000e+01,6.099999999999999867e-01,2.956949500000000000e+09
4.400000000000000000e+01,1.250000000000000000e+02,6.100000000000000000e+02,1.530000000000000000e+02,5.600000000000000000e+01,3.400000000000000000e+01,3.600000000000000000e+01,5.100000000000000000e+01,6.099999999999999867e-01,2.973422300000000000e+09
4.500000000000000000e+01,1.260000000000000000e+02,5.420000000000000000e+02,1.400000000000000000e+02,4.900000000000000000e+01,3.500000000000000000e+01,3.700000000000000000e+01,5.100000000000000000e+01,6.099999999999999867e-01,2.992113400000000000e+09
5.000000000000000000e+01,1.440000000000000000e+02,5.780000000000000000e+02,1.300000000000000000e+02,5.300000000000000000e+01,3.100000000000000000e+01,3.900000000000000000e+01,3.800000000000000000e+01,6.099999999999999867e-01,3.011544400000000000e+09
5.200000000000000000e+01,1.580000000000000000e+02,6.120000000000000000e+02,1.820000000000000000e+02,5.400000000000000000e+01,3.400000000000000000e+01,4.200000000000000000e+01,3.500000000000000000e+01,6.099999999999999867e-01,3.030247500000000000e+09
4.700000000000000000e+01,1.540000000000000000e+02,5.980000000000000000e+02,1.870000000000000000e+02,5.400000000000000000e+01,4.000000000000000000e+01,4.700000000000000000e+01,3.200000000000000000e+01,6.099999999999999867e-01,3.048223700000000000e+09
4.900000000000000000e+01,1.580000000000000000e+02,5.780000000000000000e+02,1.790000000000000000e+02,5.800000000000000000e+01,4.100000000000000000e+01,4.600000000000000000e+01,3.300000000000000000e+01,6.099999999999999867e-01,3.065245900000000000e+09
4.700000000000000000e+01,1.490000000000000000e+02,6.010000000000000000e+02,1.840000000000000000e+02,5.800000000000000000e+01,3.900000000000000000e+01,4.300000000000000000e+01,3.400000000000000000e+01,6.099999999999999867e-01,3.081894600000000000e+09
4.000000000000000000e+01,1.380000000000000000e+02,5.170000000000000000e+02,1.800000000000000000e+02,5.500000000000000000e+01,4.100000000000000000e+01,4.000000000000000000e+01,3.600000000000000000e+01,6.099999999999999867e-01,3.098255400000000000e+09
3.600000000000000000e+01,1.250000000000000000e+02,5.210000000000000000e+02,1.270000000000000000e+02,4.800000000000000000e+01,4.300000000000000000e+01,4.400000000000000000e+01,3.900000000000000000e+01,6.199999999999999956e-01,3.115863600000000000e+09
4.600000000000000000e+01,1.500000000000000000e+02,5.430000000000000000e+02,1.280000000000000000e+02,5.200000000000000000e+01,3.700000000000000000e+01,4.300000000000000000e+01,4.300000000000000000e+01,6.199999999999999956e-01,3.133231500000000000e+09
4.700000000000000000e+01,1.420000000000000000e+02,4.910000000000000000e+02,1.190000000000000000e+02,4.500000000000000000e+01,3.900000000000000000e+01,4.200000000000000000e+01,4.200000000000000000e+01,6.199999999999999956e-01,3.150545200000000000e+09
4.700000000000000000e+01,1.580000000000000000e+02,4.510000000000000000e+02,1.070000000000000000e+02,5.100000000000000000e+01,4.100000000000000000e+01,4.000000000000000000e+01,4.100000000000000000e+01,6.199999999999999956e-01,3.168322800000000000e+09
5.100000000000000000e+01,1.620000000000000000e+02,5.300000000000000000e+02,1.120000000000000000e+02,5.000000000000000000e+01,4.200000000000000000e+01,4.300000000000000000e+01,4.100000000000000000e+01,6.199999999999999956e-01,3.186716300000000000e+09
5.000000000000000000e+01,1.720000000000000000e+02,5.230000000000000000e+02,1.150000000000000000e+02,5.000000000000000000e+01,3.900000000000000000e+01,3.700000000000000000e+01,3.800000000000000000e+01,6.199999999999999956e-01,3.203787600000000000e+09
4.500000000000000000e+01,1.680000000000000000e+02,4.910000000000000000e+02,9.900000000000000000e+01,5.600000000000000000e+01,4.200000000000000000e+01,3.600000000000000000e+01,3.600000000000000000e+01,6.199999999999999956e-01,3.220561100000000000e+09
4.300000000000000000e+01,1.650000000000000000e+02,5.310000000000000000e+02,1.120000000000000000e+02,5.700000000000000000e+01,3.900000000000000000e+01,3.400000000000000000e+01,3.700000000000000000e+01,6.199999999999999956e-01,3.238210900000000000e+09
4.900000000000000000e+01,1.800000000000000000e+02,5.940000000000000000e+02,1.330000000000000000e+02,6.000000000000000000e+01,4.000000000000000000e+01,3.700000000000000000e+01,4.000000000000000000e+01,6.199999999999999956e-01,3.255684400000000000e+09
4.800000000000000000e+01,1.720000000000000000e+02,5.170000000000000000e+02,1.230000000000000000e+02,5.700000000000000000e+01,4.000000000000000000e+01,3.700000000000000000e+01,3.600000000000000000e+01,6.199999999999999956e-01,3.272730200000000000e+09
4.800000000000000000e+01,1.680000000000000000e+02,5.320000000000000000e+02,1.200000000000000000e+02,5.600000000000000000e+01,3.900000000000000000e+01,3.600000000000000000e+01,3.500000000000000000e+01,6.199999999999999956e-01,3.289394300000000000e+09
4.900000000000000000e+01,1.490000000000000000e+02,5.530000000000000000e+02,1.210000000000000000e+02,4.900000000000000000e+01,4.000000000000000000e+01,3.300000000000000000e+01,3.600000000000000000e+01,6.199999999999999956e-01,3.306347700000000000e+09
4.800000000000000000e+01,1.480000000000000000e+02,5.090000000000000000e+02,1.080000000000000000e+02,4.700000000000000000e+01,4.300000000000000000e+01,3.800000000000000000e+01,3.500000000000000000e+01,6.199999999999999956e-01,3.323775200000000000e+09
4.400000000000000000e+01,1.160000000000000000e+02,4.750000000000000000e+02,9.300000000000000000e+01,4.000000000000000000e+01,5.000000000000000000e+01,3.700000000000000000e+01,3.000000000000000000e+01,6.199999999999999956e-01,3.340977200000000000e+09
4.600000000000000000e+01,1.120000000000000000e+02,4.910000000000000000e+02,9.500000000000000000e+01,4.400000000000000000e+01,4.800000000000000000e+01,3.500000000000000000e+01,3.500000000000000000e+01,6.199999999999999956e-01,3.357716200000000000e+09
5.000000000000000000e+01,9.600000000000000000e+01,4.450000000000000000e+02,9.200000000000000000e+01,4.600000000000000000e+01,4.800000000000000000e+01,4.400000000000000000e+01,3.800000000000000000e+01,6.199999999999999956e-01,3.374584900000000000e+09
4.900000000000000000e+01,9.900000000000000000e+01,4.100000000000000000e+02,8.500000000000000000e+01,4.000000000000000000e+01,4.600000000000000000e+01,4.600000000000000000e+01,3.500000000000000000e+01,6.199999999999999956e-01,3.391414700000000000e+09
5.200000000000000000e+01,1.120000000000000000e+02,4.750000000000000000e+02,1.040000000000000000e+02,5.000000000000000000e+01,4.400000000000000000e+01,4.500000000000000000e+01,3.900000000000000000e+01,6.099999999999999867e-01,3.408538300000000000e+09
5.000000000000000000e+01,1.120000000000000000e+02,4.440000000000000000e+02,9.600000000000000000e+01,4.900000000000000000e+01,3.500000000000000000e+01,4.500000000000000000e+01,4.300000000000000000e+01,6.099999999999999867e-01,3.425342000000000000e+09
4.700000000000000000e+01,1.140000000000000000e+02,4.150000000000000000e+02,9.200000000000000000e+01,4.500000000000000000e+01,3.800000000000000000e+01,4.900000000000000000e+01,7.600000000000000000e+01,6.099999999999999867e-01,3.442500900000000000e+09
4.700000000000000000e+01,1.210000000000000000e+02,3.970000000000000000e+02,8.500000000000000000e+01,4.400000000000000000e+01,3.800000000000000000e+01,4.500000000000000000e+01,1.010000000000000000e+02,6.099999999999999867e-01,3.459287500000000000e+09
4.700000000000000000e+01,1.220000000000000000e+02,3.850000000000000000e+02,9.100000000000000000e+01,4.500000000000000000e+01,3.600000000000000000e+01,4.400000000000000000e+01,1.060000000000000000e+02,6.099999999999999867e-01,3.476656400000000000e+09
5.300000000000000000e+01,1.090000000000000000e+02,2.880000000000000000e+02,6.800000000000000000e+01,3.200000000000000000e+01,3.600000000000000000e+01,4.100000000000000000e+01,1.070000000000000000e+02,5.999999999999999778e-01,3.493771000000000000e+09
5.600000000000000000e+01,1.100000000000000000e+02,3.000000000000000000e+02,7.500000000000000000e+01,3.600000000000000000e+01,4.200000000000000000e+01,4.200000000000000000e+01,1.070000000000000000e+02,5.999999999999999778e-01,3.510558200000000000e+09
5.400000000000000000e+01,1.170000000000000000e+02,4.350000000000000000e+02,9.000000000000000000e+01,3.900000000000000000e+01,4.000000000000000000e+01,3.500000000000000000e+01,9.100000000000000000e+01,5.999999999999999778e-01,3.527636900000000000e+09
5.100000000000000000e+01,1.120000000000000000e+02,4.720000000000000000e+02,9.300000000000000000e+01,4.100000000000000000e+01,4.200000000000000000e+01,3.500000000000000000e+01,7.000000000000000000e+01,5.999999999999999778e-01,3.544646300000000000e+09
6.000000000000000000e+01,1.290000000000000000e+02,5.470000000000000000e+02,9.800000000000000000e+01,5.700000000000000000e+01,5.000000000000000000e+01,4.000000000000000000e+01,1.160000000000000000e+02,5.899999999999999689e-01,3.561822200000000000e+09
6.300000000000000000e+01,1.560000000000000000e+02,6.270000000000000000e+02,1.300000000000000000e+02,6.200000000000000000e+01,4.900000000000000000e+01,4.200000000000000000e+01,1.170000000000000000e+02,5.899999999999999689e-01,3.581302000000000000e+09
6.100000000000000000e+01,1.540000000000000000e+02,6.530000000000000000e+02,1.280000000000000000e+02,5.800000000000000000e+01,4.400000000000000000e+01,3.900000000000000000e+01,1.170000000000000000e+02,5.799999999999999600e-01,3.598331100000000000e+09
6.400000000000000000e+01,1.450000000000000000e+02,5.810000000000000000e+02,1.180000000000000000e+02,5.700000000000000000e+01,4.400000000000000000e+01,4.300000000000000000e+01,1.160000000000000000e+02,5.799999999999999600e-01,3.616775900000000000e+09
6.400000000000000000e+01,1.440000000000000000e+02,5.890000000000000000e+02,1.160000000000000000e+02,5.400000000000000000e+01,4.200000000000000000e+01,4.800000000000000000e+01,1.100000000000000000e+02,5.799999999999999600e-01,3.635813100000000000e+09
5.600000000000000000e+01,1.390000000000000000e+02,5.810000000000000000e+02,1.200000000000000000e+02,4.500000000000000000e+01,3.900000000000000000e+01,4.500000000000000000e+01,5.700000000000000000e+01,5.799999999999999600e-01,3.653548800000000000e+09
5.900000000000000000e+01,1.760000000000000000e+02,6.510000000000000000e+02,1.030000000000000000e+02,5.100000000000000000e+01,4.600000000000000000e+01,4.800000000000000000e+01,5.400000000000000000e+01,5.699999999999999512e-01,3.671422400000000000e+09
6.200000000000000000e+01,1.870000000000000000e+02,6.400000000000000000e+02,1.050000000000000000e+02,5.300000000000000000e+01,4.600000000000000000e+01,4.900000000000000000e+01,5.000000000000000000e+01,5.699999999999999512e-01,3.691026000000000000e+09
6.200000000000000000e+01,1.880000000000000000e+02,6.340000000000000000e+02,1.040000000000000000e+02,5.200000000000000000e+01,5.200000000000000000e+01,5.100000000000000000e+01,9.600000000000000000e+01,5.699999999999999512e-01,3.709177400000000000e+09
6.200000000000000000e+01,1.860000000000000000e+02,6.210000000000000000e+02,1.030000000000000000e+02,5.200000000000000000e+01,5.100000000000000000e+01,4.800000000000000000e+01,1.010000000000000000e+02,5.699999999999999512e-01,3.726698000000000000e+09
6.000000000000000000e+01,1.720000000000000000e+02,5.610000000000000000e+02,8.500000000000000000e+01,4.800000000000000000e+01,4.600000000000000000e+01,4.700000000000000000e+01,1.000000000000000000e+02,5.699999999999999512e-01,3.744701300000000000e+09
4.800000000000000000e+01,1.090000000000000000e+02,3.990000000000000000e+02,7.400000000000000000e+01,3.700000000000000000e+01,4.100000000000000000e+01,4.400000000000000000e+01,1.010000000000000000e+02,5.699999999999999512e-01,3.762303000000000000e+09
4.600000000000000000e+01,1.130000000000000000e+02,3.480000000000000000e+02,6.300000000000000000e+01,4.200000000000000000e+01,4.400000000000000000e+01,4.200000000000000000e+01,1.030000000000000000e+02,5.699999999999999512e-01,3.779982200000000000e+09
4.600000000000000000e+01,1.290000000000000000e+02,4.480000000000000000e+02,9.700000000000000000e+01,4.500000000000000000e+01,3.600000000000000000e+01,4.200000000000000000e+01,6.200000000000000000e+01,5.699999999999999512e-01,3.798559500000000000e+09
4.500000000000000000e+01,1.310000000000000000e+02,4.250000000000000000e+02,1.010000000000000000e+02,4.500000000000000000e+01,3.900000000000000000e+01,3.600000000000000000e+01,5.200000000000000000e+01,5.699999999999999512e-01,3.816286400000000000e+09
5.500000000000000000e+01,1.350000000000000000e+02,4.240000000000000000e+02,1.040000000000000000e+02,4.100000000000000000e+01,4.200000000000000000e+01,3.900000000000000000e+01,5.700000000000000000e+01,5.699999999999999512e-01,3.834211500000000000e+09
5.400000000000000000e+01,1.280000000000000000e+02,3.970000000000000000e+02,9.600000000000000000e+01,4.000000000000000000e+01,3.800000000000000000e+01,3.900000000000000000e+01,5.500000000000000000e+01,5.699999999999999512e-01,3.852329200000000000e+09
5.200000000000000000e+01,1.070000000000000000e+02,4.030000000000000000e+02,9.400000000000000000e+01,3.200000000000000000e+01,3.600000000000000000e+01,4.300000000000000000e+01,5.200000000000000000e+01,5.699999999999999512e-01,3.870395300000000000e+09
5.000000000000000000e+01,9.100000000000000000e+01,3.890000000000000000e+02,9.600000000000000000e+01,3.600000000000000000e+01,3.800000000000000000e+01,4.000000000000000000e+01,4.700000000000000000e+01,5.799999999999999600e-01,3.889020100000000000e+09
5.100000000000000000e+01,9.500000000000000000e+01,3.820000000000000000e+02,9.100000000000000000e+01,3.500000000000000000e+01,3.700000000000000000e+01,3.900000000000000000e+01,4.700000000000000000e+01,5.799999999999999600e-01,3.906782700000000000e+09
3.700000000000000000e+01,9.100000000000000000e+01,4.040000000000000000e+02,8.800000000000000000e+01,3.300000000000000000e+01,3.800000000000000000e+01,3.900000000000000000e+01,3.800000000000000000e+01,5.799999999999999600e-01,3.924508200000000000e+09
3.700000000000000000e+01,8.400000000000000000e+01,3.970000000000000000e+02,8.800000000000000000e+01,3.500000000000000000e+01,3.800000000000000000e+01,4.200000000000000000e+01,3.300000000000000000e+01,5.799999999999999600e-01,3.943475200000000000e+09
4.900000000000000000e+01,9.000000000000000000e+01,4.110000000000000000e+02,8.800000000000000000e+01,3.700000000000000000e+01,3.700000000000000000e+01,3.900000000000000000e+01,4.300000000000000000e+01,5.899999999999999689e-01,3.961857100000000000e+09
4.900000000000000000e+01,8.900000000000000000e+01,3.600000000000000000e+02,5.700000000000000000e+01,3.100000000000000000e+01,3.500000000000000000e+01,3.500000000000000000e+01,4.500000000000000000e+01,5.899999999999999689e-01,3.982841000000000000e+09
5.000000000000000000e+01,1.100000000000000000e+02,3.990000000000000000e+02,1.180000000000000000e+02,4.000000000000000000e+01,4.400000000000000000e+01,4.300000000000000000e+01,4.500000000000000000e+01,5.899999999999999689e-01,4.000700600000000000e+09
5.300000000000000000e+01,1.140000000000000000e+02,3.800000000000000000e+02,1.290000000000000000e+02,4.300000000000000000e+01,3.900000000000000000e+01,3.900000000000000000e+01,4.500000000000000000e+01,5.899999999999999689e-01,4.021009300000000000e+09
5.400000000000000000e+01,1.250000000000000000e+02,3.770000000000000000e+02,1.310000000000000000e+02,4.400000000000000000e+01,4.100000000000000000e+01,3.500000000000000000e+01,4.400000000000000000e+01,5.999999999999999778e-01,4.039603600000000000e+09
4.600000000000000000e+01,1.180000000000000000e+02,3.410000000000000000e+02,1.320000000000000000e+02,4.200000000000000000e+01,4.100000000000000000e+01,3.900000000000000000e+01,8.600000000000000000e+01,5.999999999999999778e-01,4.060556900000000000e+09
4.500000000000000000e+01,1.260000000000000000e+02,3.040000000000000000e+02,1.280000000000000000e+02,3.900000000000000000e+01,4.300000000000000000e+01,4.000000000000000000e+01,8.900000000000000000e+01,5.999999999999999778e-01,4.082717300000000000e+09
4.800000000000000000e+01,1.200000000000000000e+02,3.430000000000000000e+02,8.600000000000000000e+01,3.200000000000000000e+01,3.600000000000000000e+01,3.500000000000000000e+01,9.200000000000000000e+01,5.999999999999999778e-01,4.101046100000000000e+09
4.600000000000000000e+01,1.230000000000000000e+02,3.340000000000000000e+02,7.200000000000000000e+01,3.100000000000000000e+01,3.900000000000000000e+01,4.000000000000000000e+01,9.300000000000000000e+01,5.899999999999999689e-01,4.118926800000000000e+09
4.600000000000000000e+01,1.370000000000000000e+02,3.600000000000000000e+02,6.600000000000000000e+01,3.000000000000000000e+01,3.600000000000000000e+01,4.100000000000000000e+01,9.600000000000000000e+01,5.899999999999999689e-01,4.138374600000000000e+09
4.100000000000000000e+01,1.390000000000000000e+02,3.690000000000000000e+02,6.300000000000000000e+01,3.200000000000000000e+01,3.800000000000000000e+01,4.000000000000000000e+01,5.800000000000000000e+01,5.899999999999999689e-01,4.160974100000000000e+09
4.200000000000000000e+01,1.270000000000000000e+02,3.860000000000000000e+02,6.500000000000000000e+01,3.500000000000000000e+01,3.800000000000000000e+01,4.100000000000000000e+01,5.100000000000000000e+01,5.899999999999999689e-01,4.182880600000000000e+09
4.200000000000000000e+01,1.240000000000000000e+02,2.960000000000000000e+02,6.500000000000000000e+01,4.300000000000000000e+01,4.200000000000000000e+01,4.400000000000000000e+01,8.600000000000000000e+01,5.799999999999999600e-01,4.200728500000000000e+09
3.900000000000000000e+01,1.230000000000000000e+02,3.100000000000000000e+02,6.300000000000000000e+01,4.400000000000000000e+01,4.300000000000000000e+01,4.100000000000000000e+01,8.900000000000000000e+01,5.799999999999999600e-01,4.218891100000000000e+09
4.000000000000000000e+01,1.000000000000000000e+02,2.960000000000000000e+02,6.500000000000000000e+01,4.700000000000000000e+01,4.400000000000000000e+01,4.200000000000000000e+01,8.900000000000000000e+01,5.699999999999999512e-01,4.238601100000000000e+09
4.000000000000000000e+01,9.700000000000000000e+01,2.810000000000000000e+02,6.800000000000000000e+01,4.800000000000000000e+01,4.200000000000000000e+01,3.900000000000000000e+01,8.700000000000000000e+01,5.600000000000000533e-01,4.260503400000000000e+09
4.100000000000000000e+01,1.010000000000000000e+02,2.560000000000000000e+02,6.900000000000000000e+01,5.100000000000000000e+01,4.500000000000000000e+01,3.800000000000000000e+01,8.800000000000000000e+01,5.500000000000000444e-01,4.282881600000000000e+09
3.700000000000000000e+01,1.100000000000000000e+02,2.710000000000000000e+02,5.700000000000000000e+01,4.400000000000000000e+01,4.000000000000000000e+01,2.800000000000000000e+01,5.400000000000000000e+01,5.500000000000000444e-01,4.300889800000000000e+09
3.700000000000000000e+01,1.060000000000000000e+02,2.430000000000000000e+02,5.300000000000000000e+01,4.200000000000000000e+01,4.200000000000000000e+01,2.900000000000000000e+01,4.700000000000000000e+01,5.400000000000000355e-01,4.319893300000000000e+09
3.300000000000000000e+01,1.030000000000000000e+02,2.890000000000000000e+02,5.700000000000000000e+01,4.000000000000000000e+01,4.400000000000000000e+01,3.400000000000000000e+01,4.300000000000000000e+01,5.300000000000000266e-01,4.338954200000000000e+09
3.700000000000000000e+01,1.200000000000000000e+02,3.220000000000000000e+02,6.000000000000000000e+01,4.000000000000000000e+01,5.100000000000000000e+01,4.100000000000000000e+01,3.900000000000000000e+01,5.300000000000000266e-01,4.360830000000000000e+09
3.100000000000000000e+01,1.170000000000000000e+02,3.170000000000000000e+02,5.700000000000000000e+01,3.800000000000000000e+01,5.000000000000000000e+01,4.200000000000000000e+01,3.700000000000000000e+01,5.300000000000000266e-01,4.383532600000000000e+09
2.900000000000000000e+01,9.300000000000000000e+01,2.990000000000000000e+02,5.400000000000000000e+01,4.000000000000000000e+01,4.900000000000000000e+01,4.400000000000000000e+01,3.300000000000000000e+01,5.200000000000000178e-01,4.401463700000000000e+09
3.200000000000000000e+01,9.100000000000000000e+01,3.300000000000000000e+02,5.700000000000000000e+01,4.000000000000000000e+01,4.500000000000000000e+01,4.100000000000000000e+01,3.100000000000000000e+01,5.200000000000000178e-01,4.424024700000000000e+09
3.300000000000000000e+01,8.900000000000000000e+01,2.670000000000000000e+02,5.700000000000000000e+01,4.100000000000000000e+01,5.300000000000000000e+01,3.700000000000000000e+01,2.900000000000000000e+01,5.200000000000000178e-01,4.442653200000000000e+09
3.500000000000000000e+01,8.100000000000000000e+01,2.640000000000000000e+02,6.600000000000000000e+01,4.100000000000000000e+01,4.800000000000000000e+01,3.000000000000000000e+01,3.600000000000000000e+01,5.200000000000000178e-01,4.461186100000000000e+09
3.600000000000000000e+01,8.000000000000000000e+01,2.490000000000000000e+02,9.500000000000000000e+01,3.900000000000000000e+01,4.300000000000000000e+01,3.200000000000000000e+01,3.900000000000000000e+01,5.200000000000000178e-01,4.483921000000000000e+09
4.200000000000000000e+01,8.400000000000000000e+01,2.630000000000000000e+02,1.060000000000000000e+02,3.800000000000000000e+01,4.400000000000000000e+01,3.400000000000000000e+01,3.800000000000000000e+01,5.200000000000000178e-01,4.503116900000000000e+09
4.100000000000000000e+01,8.600000000000000000e+01,2.360000000000000000e+02,1.050000000000000000e+02,3.700000000000000000e+01,4.500000000000000000e+01,3.500000000000000000e+01,3.600000000000000000e+01,5.300000000000000266e-01,4.521448900000000000e+09
4.000000000000000000e+01,9.000000000000000000e+01,2.410000000000000000e+02,1.050000000000000000e+02,3.400000000000000000e+01,3.600000000000000000e+01,3.800000000000000000e+01,4.000000000000000000e+01,5.300000000000000266e-01,4.540589200000000000e+09
3.900000000000000000e+01,8.900000000000000000e+01,2.960000000000000000e+02,9.900000000000000000e+01,3.100000000000000000e+01,3.800000000000000000e+01,3.800000000000000000e+01,3.300000000000000000e+01,5.300000000000000266e-01,4.561303500000000000e+09
3.900000000000000000e+01,1.080000000000000000e+02,2.930000000000000000e+02,6.800000000000000000e+01,2.800000000000000000e+01,4.000000000000000000e+01,4.100000000000000000e+01,3.000000000000000000e+01,5.300000000000000266e-01,4.580832500000000000e+09
3.300000000000000000e+01,1.160000000000000000e+02,3.320000000000000000e+02,5.400000000000000000e+01,2.600000000000000000e+01,3.900000000000000000e+01,4.400000000000000000e+01,3.000000000000000000e+01,5.300000000000000266e-01,4.599856200000000000e+09
3.500000000000000000e+01,1.130000000000000000e+02,3.250000000000000000e+02,6.100000000000000000e+01,2.700000000000000000e+01,3.600000000000000000e+01,4.400000000000000000e+01,3.100000000000000000e+01,5.400000000000000355e-01,4.619879600000000000e+09
3.600000000000000000e+01,1.110000000000000000e+02,3.690000000000000000e+02,6.000000000000000000e+01,2.700000000000000000e+01,5.000000000000000000e+01,4.300000000000000000e+01,2.700000000000000000e+01,5.400000000000000355e-01,4.639127900000000000e+09
3.700000000000000000e+01,1.090000000000000000e+02,3.050000000000000000e+02,6.000000000000000000e+01,2.900000000000000000e+01,4.700000000000000000e+01,4.900000000000000000e+01,3.100000000000000000e+01,5.400000000000000355e-01,4.661191100000000000e+09
3.700000000000000000e+01,1.020000000000000000e+02,3.210000000000000000e+02,6.000000000000000000e+01,3.100000000000000000e+01,4.600000000000000000e+01,5.300000000000000000e+01,3.600000000000000000e+01,5.400000000000000355e-01,4.683402300000000000e+09
3.600000000000000000e+01,9.000000000000000000e+01,2.770000000000000000e+02,5.900000000000000000e+01,3.100000000000000000e+01,4.700000000000000000e+01,5.100000000000000000e+01,3.500000000000000000e+01,5.400000000000000355e-01,4.701798300000000000e+09
3.500000000000000000e+01,1.140000000000000000e+02,3.350000000000000000e+02,5.900000000000000000e+01,3.800000000000000000e+01,5.300000000000000000e+01,5.300000000000000000e+01,3.600000000000000000e+01,5.400000000000000355e-01,4.719772900000000000e+09
3.700000000000000000e+01,1.160000000000000000e+02,2.830000000000000000e+02,6.800000000000000000e+01,4.100000000000000000e+01,4.200000000000000000e+01,5.000000000000000000e+01,3.700000000000000000e+01,5.400000000000000355e-01,4.740608500000000000e+09
4.100000000000000000e+01,1.100000000000000000e+02,2.830000000000000000e+02,6.300000000000000000e+01,3.800000000000000000e+01,4.400000000000000000e+01,4.700000000000000000e+01,3.400000000000000000e+01,5.400000000000000355e-01,4.763727700000000000e+09
4.100000000000000000e+01,1.050000000000000000e+02,3.030000000000000000e+02,7.200000000000000000e+01,3.900000000000000000e+01,4.400000000000000000e+01,4.700000000000000000e+01,3.200000000000000000e+01,5.300000000000000266e-01,4.785403900000000000e+09
4.300000000000000000e+01,1.020000000000000000e+02,2.930000000000000000e+02,7.300000000000000000e+01,4.000000000000000000e+01,4.500000000000000000e+01,4.600000000000000000e+01,3.000000000000000000e+01,5.300000000000000266e-01,4.804012700000000000e+09
4.700000000000000000e+01,8.100000000000000000e+01,3.590000000000000000e+02,8.100000000000000000e+01,3.400000000000000000e+01,4.100000000000000000e+01,4.800000000000000000e+01,2.800000000000000000e+01,5.300000000000000266e-01,4.821920200000000000e+09
4.500000000000000000e+01,7.600000000000000000e+01,3.820000000000000000e+02,7.600000000000000000e+01,3.000000000000000000e+01,3.800000000000000000e+01,5.200000000000000000e+01,2.600000000000000000e+01,5.400000000000000355e-01,4.840143000000000000e+09
4.600000000000000000e+01,9.500000000000000000e+01,4.170000000000000000e+02,8.000000000000000000e+01,3.100000000000000000e+01,3.700000000000000000e+01,5.000000000000000000e+01,3.500000000000000000e+01,5.400000000000000355e-01,4.861758100000000000e+09
4.500000000000000000e+01,9.000000000000000000e+01,3.880000000000000000e+02,7.300000000000000000e+01,3.100000000000000000e+01,3.600000000000000000e+01,3.900000000000000000e+01,3.200000000000000000e+01,5.400000000000000355e-01,4.880554000000000000e+09
4.400000000000000000e+01,1.090000000000000000e+02,3.930000000000000000e+02,7.300000000000000000e+01,3.100000000000000000e+01,3.500000000000000000e+01,4.800000000000000000e+01,3.300000000000000000e+01,5.400000000000000355e-01,4.899905600000000000e+09
4.600000000000000000e+01,1.170000000000000000e+02,3.040000000000000000e+02,5.500000000000000000e+01,3.200000000000000000e+01,3.200000000000000000e+01,4.300000000000000000e+01,3.800000000000000000e+01,5.400000000000000355e-01,4.918455900000000000e+09
4.600000000000000000e+01,1.220000000000000000e+02,2.980000000000000000e+02,6.200000000000000000e+01,3.400000000000000000e+01,3.700000000000000000e+01,4.000000000000000000e+01,3.800000000000000000e+01,5.400000000000000355e-01,4.939549800000000000e+09
3.900000000000000000e+01,1.240000000000000000e+02,2.610000000000000000e+02,5.900000000000000000e+01,3.700000000000000000e+01,3.500000000000000000e+01,4.000000000000000000e+01,3.500000000000000000e+01,5.400000000000000355e-01,4.961729200000000000e+09
4.100000000000000000e+01,1.290000000000000000e+02,2.870000000000000000e+02,6.200000000000000000e+01,3.800000000000000000e+01,3.400000000000000000e+01,4.700000000000000000e+01,3.400000000000000000e+01,5.400000000000000355e-01,4.980052100000000000e+09
4.000000000000000000e+01,1.220000000000000000e+02,3.330000000000000000e+02,6.500000000000000000e+01,4.000000000000000000e+01,4.100000000000000000e+01,4.000000000000000000e+01,3.400000000000000000e+01,5.500000000000000444e-01,4.999020400000000000e+09
3.300000000000000000e+01,1.110000000000000000e+02,3.110000000000000000e+02,6.300000000000000000e+01,3.800000000000000000e+01,4.600000000000000000e+01,4.000000000000000000e+01,3.400000000000000000e+01,5.500000000000000444e-01,5.019325300000000000e+09
3.700000000000000000e+01,1.280000000000000000e+02,2.980000000000000000e+02,6.800000000000000000e+01,4.200000000000000000e+01,4.100000000000000000e+01,4.200000000000000000e+01,4.000000000000000000e+01,5.500000000000000444e-01,5.039484700000000000e+09
3.800000000000000000e+01,1.190000000000000000e+02,2.820000000000000000e+02,7.300000000000000000e+01,3.800000000000000000e+01,4.200000000000000000e+01,4.200000000000000000e+01,3.600000000000000000e+01,5.400000000000000355e-01,5.061794900000000000e+09
3.700000000000000000e+01,1.190000000000000000e+02,2.780000000000000000e+02,7.400000000000000000e+01,3.800000000000000000e+01,4.100000000000000000e+01,3.900000000000000000e+01,3.600000000000000000e+01,5.400000000000000355e-01,5.081666100000000000e+09
3.400000000000000000e+01,1.090000000000000000e+02,2.310000000000000000e+02,7.300000000000000000e+01,3.500000000000000000e+01,3.700000000000000000e+01,3.500000000000000000e+01,3.500000000000000000e+01,5.400000000000000355e-01,5.100585300000000000e+09
4.000000000000000000e+01,1.230000000000000000e+02,2.870000000000000000e+02,8.600000000000000000e+01,3.600000000000000000e+01,3.400000000000000000e+01,3.500000000000000000e+01,3.300000000000000000e+01,5.400000000000000355e-01,5.118628400000000000e+09
3.800000000000000000e+01,1.020000000000000000e+02,2.750000000000000000e+02,7.400000000000000000e+01,2.900000000000000000e+01,3.400000000000000000e+01,3.300000000000000000e+01,2.700000000000000000e+01,5.400000000000000355e-01,5.139392100000000000e+09
3.900000000000000000e+01,9.400000000000000000e+01,2.850000000000000000e+02,7.100000000000000000e+01,3.200000000000000000e+01,3.400000000000000000e+01,3.300000000000000000e+01,3.200000000000000000e+01,5.400000000000000355e-01,5.161928100000000000e+09
4.400000000000000000e+01,9.800000000000000000e+01,2.810000000000000000e+02,6.600000000000000000e+01,3.200000000000000000e+01,3.600000000000000000e+01,2.800000000000000000e+01,3.600000000000000000e+01,5.400000000000000355e-01,5.184370900000000000e+09
4.600000000000000000e+01,9.700000000000000000e+01,2.860000000000000000e+02,6.700000000000000000e+01,3.300000000000000000e+01,3.400000000000000000e+01,3.800000000000000000e+01,4.100000000000000000e+01,5.300000000000000266e-01,5.202396100000000000e+09
4.100000000000000000e+01,9.600000000000000000e+01,2.850000000000000000e+02,5.200000000000000000e+01,3.100000000000000000e+01,3.200000000000000000e+01,3.700000000000000000e+01,4.400000000000000000e+01,5.300000000000000266e-01,5.221460500000000000e+09
4.200000000000000000e+01,9.900000000000000000e+01,3.170000000000000000e+02,5.300000000000000000e+01,3.600000000000000000e+01,3.400000000000000000e+01,3.700000000000000000e+01,4.700000000000000000e+01,5.300000000000000266e-01,5.239994400000000000e+09
3.900000000000000000e+01,9.700000000000000000e+01,3.000000000000000000e+02,4.900000000000000000e+01,3.400000000000000000e+01,3.300000000000000000e+01,3.700000000000000000e+01,4.400000000000000000e+01,5.300000000000000266e-01,5.261955000000000000e+09
3.300000000000000000e+01,9.300000000000000000e+01,2.890000000000000000e+02,5.700000000000000000e+01,4.000000000000000000e+01,4.200000000000000000e+01,3.800000000000000000e+01,4.100000000000000000e+01,5.300000000000000266e-01,5.280416700000000000e+09
3.200000000000000000e+01,9.200000000000000000e+01,2.810000000000000000e+02,5.300000000000000000e+01,3.800000000000000000e+01,4.000000000000000000e+01,3.300000000000000000e+01,3.700000000000000000e+01,5.300000000000000266e-01,5.298473700000000000e+09
3.200000000000000000e+01,8.500000000000000000e+01,2.310000000000000000e+02,5.500000000000000000e+01,4.000000000000000000e+01,4.000000000000000000e+01,3.400000000000000000e+01,3.200000000000000000e+01,5.200000000000000178e-01,5.317577400000000000e+09
3.400000000000000000e+01,8.000000000000000000e+01,2.190000000000000000e+02,5.600000000000000000e+01,3.800000000000000000e+01,3.900000000000000000e+01,4.100000000000000000e+01,2.900000000000000000e+01,5.200000000000000178e-01,5.339667500000000000e+09
3.700000000000000000e+01,9.200000000000000000e+01,2.920000000000000000e+02,6.000000000000000000e+01,4.200000000000000000e+01,4.200000000000000000e+01,4.200000000000000000e+01,4.000000000000000000e+01,5.200000000000000178e-01,5.362041000000000000e+09
3.700000000000000000e+01,9.500000000000000000e+01,3.090000000000000000e+02,5.300000000000000000e+01,3.400000000000000000e+01,3.500000000000000000e+01,4.000000000000000000e+01,4.100000000000000000e+01,5.200000000000000178e-01,5.379838000000000000e+09
4.000000000000000000e+01,9.500000000000000000e+01,3.170000000000000000e+02,5.400000000000000000e+01,3.500000000000000000e+01,4.700000000000000000e+01,4.100000000000000000e+01,4.200000000000000000e+01,5.100000000000000089e-01,5.400286900000000000e+09
4.200000000000000000e+01,9.400000000000000000e+01,3.480000000000000000e+02,5.000000000000000000e+01,3.200000000000000000e+01,4.600000000000000000e+01,4.000000000000000000e+01,4.100000000000000000e+01,5.100000000000000089e-01,5.418916400000000000e+09
3.700000000000000000e+01,9.900000000000000000e+01,3.380000000000000000e+02,4.600000000000000000e+01,3.500000000000000000e+01,4.600000000000000000e+01,3.400000000000000000e+01,4.000000000000000000e+01,5.100000000000000089e-01,5.439628400000000000e+09
3.400000000000000000e+01,9.300000000000000000e+01,2.890000000000000000e+02,4.700000000000000000e+01,3.300000000000000000e+01,4.300000000000000000e+01,3.300000000000000000e+01,3.200000000000000000e+01,5.100000000000000089e-01,5.462287900000000000e+09
3.500000000000000000e+01,8.100000000000000000e+01,2.660000000000000000e+02,4.500000000000000000e+01,3.200000000000000000e+01,3.800000000000000000e+01,3.300000000000000000e+01,3.600000000000000000e+01,5.100000000000000089e-01,5.481440200000000000e+09
3.300000000000000000e+01,8.200000000000000000e+01,2.430000000000000000e+02,5.000000000000000000e+01,3.300000000000000000e+01,2.700000000000000000e+01,3.000000000000000000e+01,3.500000000000000000e+01,5.100000000000000089e-01,5.500352900000000000e+09
3.300000000000000000e+01,7.700000000000000000e+01,2.280000000000000000e+02,5.500000000000000000e+01,3.600000000000000000e+01,3.100000000000000000e+01,3.300000000000000000e+01,3.400000000000000000e+01,5.100000000000000089e-01,5.518569100000000000e+09
3.600000000000000000e+01,8.200000000000000000e+01,2.310000000000000000e+02,5.900000000000000000e+01,3.100000000000000000e+01,3.300000000000000000e+01,3.400000000000000000e+01,3.400000000000000000e+01,5.100000000000000089e-01,5.540906400000000000e+09
3.700000000000000000e+01,8.400000000000000000e+01,2.240000000000000000e+02,5.700000000000000000e+01,2.700000000000000000e+01,3.600000000000000000e+01,4.200000000000000000e+01,3.200000000000000000e+01,5.100000000000000089e-01,5.562855000000000000e+09
3.700000000000000000e+01,8.100000000000000000e+01,2.420000000000000000e+02,5.700000000000000000e+01,2.700000000000000000e+01,3.700000000000000000e+01,4.200000000000000000e+01,2.700000000000000000e+01,5.100000000000000089e-01,5.580648400000000000e+09
4.000000000000000000e+01,8.200000000000000000e+01,2.730000000000000000e+02,5.500000000000000000e+01,2.700000000000000000e+01,3.800000000000000000e+01,4.700000000000000000e+01,2.700000000000000000e+01,5.100000000000000089e-01,5.600039300000000000e+09
3.700000000000000000e+01,8.100000000000000000e+01,2.530000000000000000e+02,4.700000000000000000e+01,2.500000000000000000e+01,4.100000000000000000e+01,4.600000000000000000e+01,2.700000000000000000e+01,5.100000000000000089e-01,5.619538300000000000e+09
4.300000000000000000e+01,9.500000000000000000e+01,2.810000000000000000e+02,5.900000000000000000e+01,2.600000000000000000e+01,4.200000000000000000e+01,4.500000000000000000e+01,2.800000000000000000e+01,5.100000000000000089e-01,5.640619200000000000e+09
4.500000000000000000e+01,8.700000000000000000e+01,2.870000000000000000e+02,5.700000000000000000e+01,2.600000000000000000e+01,3.900000000000000000e+01,4.100000000000000000e+01,2.700000000000000000e+01,5.100000000000000089e-01,5.662762500000000000e+09
4.500000000000000000e+01,9.000000000000000000e+01,2.780000000000000000e+02,5.900000000000000000e+01,3.000000000000000000e+01,4.200000000000000000e+01,4.600000000000000000e+01,2.700000000000000000e+01,5.100000000000000089e-01,5.680861900000000000e+09
4.200000000000000000e+01,9.200000000000000000e+01,2.570000000000000000e+02,5.800000000000000000e+01,3.200000000000000000e+01,4.300000000000000000e+01,3.900000000000000000e+01,2.800000000000000000e+01,5.200000000000000178e-01,5.700369100000000000e+09
4.300000000000000000e+01,9.100000000000000000e+01,2.520000000000000000e+02,5.900000000000000000e+01,3.100000000000000000e+01,3.700000000000000000e+01,3.900000000000000000e+01,3.000000000000000000e+01,5.200000000000000178e-01,5.718987800000000000e+09
4.200000000000000000e+01,1.080000000000000000e+02,2.470000000000000000e+02,5.000000000000000000e+01,3.300000000000000000e+01,3.500000000000000000e+01,4.100000000000000000e+01,2.900000000000000000e+01,5.200000000000000178e-01,5.740480700000000000e+09
4.000000000000000000e+01,1.130000000000000000e+02,2.820000000000000000e+02,4.800000000000000000e+01,3.200000000000000000e+01,3.800000000000000000e+01,4.100000000000000000e+01,3.200000000000000000e+01,5.200000000000000178e-01,5.762762700000000000e+09
4.100000000000000000e+01,1.130000000000000000e+02,2.850000000000000000e+02,5.000000000000000000e+01,3.000000000000000000e+01,3.600000000000000000e+01,3.700000000000000000e+01,3.100000000000000000e+01,5.200000000000000178e-01,5.782961100000000000e+09
3.900000000000000000e+01,1.130000000000000000e+02,2.820000000000000000e+02,5.100000000000000000e+01,2.800000000000000000e+01,3.300000000000000000e+01,3.800000000000000000e+01,3.000000000000000000e+01,5.200000000000000178e-01,5.801407100000000000e+09
4.000000000000000000e+01,1.120000000000000000e+02,2.850000000000000000e+02,5.000000000000000000e+01,3.500000000000000000e+01,3.600000000000000000e+01,4.900000000000000000e+01,2.900000000000000000e+01,5.200000000000000178e-01,5.820579100000000000e+09
3.200000000000000000e+01,7.300000000000000000e+01,3.450000000000000000e+02,4.700000000000000000e+01,3.600000000000000000e+01,3.700000000000000000e+01,4.400000000000000000e+01,2.700000000000000000e+01,5.200000000000000178e-01,5.842617100000000000e+09
2.800000000000000000e+01,7.000000000000000000e+01,3.180000000000000000e+02,5.000000000000000000e+01,3.500000000000000000e+01,3.800000000000000000e+01,4.200000000000000000e+01,2.800000000000000000e+01,5.200000000000000178e-01,5.862340500000000000e+09
3.700000000000000000e+01,9.800000000000000000e+01,4.490000000000000000e+02,6.300000000000000000e+01,3.900000000000000000e+01,4.300000000000000000e+01,4.200000000000000000e+01,2.700000000000000000e+01,5.200000000000000178e-01,5.898041100000000000e+09
4.300000000000000000e+01,1.130000000000000000e+02,4.790000000000000000e+02,7.300000000000000000e+01,4.100000000000000000e+01,4.600000000000000000e+01,4.100000000000000000e+01,2.700000000000000000e+01,5.200000000000000178e-01,5.917079800000000000e+09
4.300000000000000000e+01,1.190000000000000000e+02,4.780000000000000000e+02,7.600000000000000000e+01,3.500000000000000000e+01,4.700000000000000000e+01,2.800000000000000000e+01,3.000000000000000000e+01,5.200000000000000178e-01,5.934521200000000000e+09
4.700000000000000000e+01,1.170000000000000000e+02,4.260000000000000000e+02,7.700000000000000000e+01,3.700000000000000000e+01,5.400000000000000000e+01,3.000000000000000000e+01,2.900000000000000000e+01,5.300000000000000266e-01,5.952568200000000000e+09
4.900000000000000000e+01,1.230000000000000000e+02,4.480000000000000000e+02,8.000000000000000000e+01,3.800000000000000000e+01,5.100000000000000000e+01,2.900000000000000000e+01,3.500000000000000000e+01,5.300000000000000266e-01,5.969894000000000000e+09
4.000000000000000000e+01,1.030000000000000000e+02,3.520000000000000000e+02,7.000000000000000000e+01,4.500000000000000000e+01,5.000000000000000000e+01,3.400000000000000000e+01,3.400000000000000000e+01,5.300000000000000266e-01,5.988888600000000000e+09
3.600000000000000000e+01,8.100000000000000000e+01,3.300000000000000000e+02,5.900000000000000000e+01,4.300000000000000000e+01,4.700000000000000000e+01,3.600000000000000000e+01,3.400000000000000000e+01,5.300000000000000266e-01,6.006834300000000000e+09
4.000000000000000000e+01,8.700000000000000000e+01,3.460000000000000000e+02,6.000000000000000000e+01,4.500000000000000000e+01,4.600000000000000000e+01,3.500000000000000000e+01,3.700000000000000000e+01,5.300000000000000266e-01,6.024910900000000000e+09
4.400000000000000000e+01,9.700000000000000000e+01,3.430000000000000000e+02,7.000000000000000000e+01,4.200000000000000000e+01,4.400000000000000000e+01,3.600000000000000000e+01,3.800000000000000000e+01,5.300000000000000266e-01,6.042925400000000000e+09
5.200000000000000000e+01,9.400000000000000000e+01,3.090000000000000000e+02,7.400000000000000000e+01,4.300000000000000000e+01,4.400000000000000000e+01,3.800000000000000000e+01,3.100000000000000000e+01,5.400000000000000355e-01,6.060852900000000000e+09
5.300000000000000000e+01,1.000000000000000000e+02,2.870000000000000000e+02,7.800000000000000000e+01,3.400000000000000000e+01,4.300000000000000000e+01,4.400000000000000000e+01,3.500000000000000000e+01,5.400000000000000355e-01,6.082076800000000000e+09
5.000000000000000000e+01,1.010000000000000000e+02,2.580000000000000000e+02,7.900000000000000000e+01,3.500000000000000000e+01,4.200000000000000000e+01,4.600000000000000000e+01,3.400000000000000000e+01,5.400000000000000355e-01,6.100222400000000000e+09
4.700000000000000000e+01,9.000000000000000000e+01,2.310000000000000000e+02,7.700000000000000000e+01,3.400000000000000000e+01,4.200000000000000000e+01,4.700000000000000000e+01,2.800000000000000000e+01,5.500000000000000444e-01,6.118577700000000000e+09
4.300000000000000000e+01,8.600000000000000000e+01,2.280000000000000000e+02,6.400000000000000000e+01,3.400000000000000000e+01,3.800000000000000000e+01,4.600000000000000000e+01,2.900000000000000000e+01,5.500000000000000444e-01,6.137566600000000000e+09
3.200000000000000000e+01,8.300000000000000000e+01,2.400000000000000000e+02,5.900000000000000000e+01,3.000000000000000000e+01,3.900000000000000000e+01,6.300000000000000000e+01,2.700000000000000000e+01,5.400000000000000355e-01,6.159942000000000000e+09
3.100000000000000000e+01,8.700000000000000000e+01,3.300000000000000000e+02,6.800000000000000000e+01,3.500000000000000000e+01,3.900000000000000000e+01,5.700000000000000000e+01,2.600000000000000000e+01,5.400000000000000355e-01,6.182028100000000000e+09
3.300000000000000000e+01,9.700000000000000000e+01,3.470000000000000000e+02,7.400000000000000000e+01,3.700000000000000000e+01,5.000000000000000000e+01,6.100000000000000000e+01,3.100000000000000000e+01,5.400000000000000355e-01,6.200816100000000000e+09
3.500000000000000000e+01,9.700000000000000000e+01,3.540000000000000000e+02,7.400000000000000000e+01,3.700000000000000000e+01,5.000000000000000000e+01,6.200000000000000000e+01,3.300000000000000000e+01,5.400000000000000355e-01,6.221306700000000000e+09
3.100000000000000000e+01,9.000000000000000000e+01,3.830000000000000000e+02,8.100000000000000000e+01,4.000000000000000000e+01,4.900000000000000000e+01,6.200000000000000000e+01,3.200000000000000000e+01,5.400000000000000355e-01,6.240019200000000000e+09
3.400000000000000000e+01,9.900000000000000000e+01,4.140000000000000000e+02,8.100000000000000000e+01,4.600000000000000000e+01,5.600000000000000000e+01,4.200000000000000000e+01,3.200000000000000000e+01,5.500000000000000444e-01,6.259558800000000000e+09
4.400000000000000000e+01,1.150000000000000000e+02,3.900000000000000000e+02,8.100000000000000000e+01,4.300000000000000000e+01,5.500000000000000000e+01,4.400000000000000000e+01,3.800000000000000000e+01,5.500000000000000444e-01,6.281869200000000000e+09
4.500000000000000000e+01,1.080000000000000000e+02,3.770000000000000000e+02,7.400000000000000000e+01,4.100000000000000000e+01,4.800000000000000000e+01,3.800000000000000000e+01,3.400000000000000000e+01,5.600000000000000533e-01,6.299929200000000000e+09
4.400000000000000000e+01,1.060000000000000000e+02,3.690000000000000000e+02,7.600000000000000000e+01,4.100000000000000000e+01,5.000000000000000000e+01,3.800000000000000000e+01,3.400000000000000000e+01,5.600000000000000533e-01,6.318991900000000000e+09
4.500000000000000000e+01,1.150000000000000000e+02,3.720000000000000000e+02,8.100000000000000000e+01,3.800000000000000000e+01,4.900000000000000000e+01,4.500000000000000000e+01,4.000000000000000000e+01,5.600000000000000533e-01,6.338542100000000000e+09
4.200000000000000000e+01,1.130000000000000000e+02,3.620000000000000000e+02,9.000000000000000000e+01,4.000000000000000000e+01,4.100000000000000000e+01,5.000000000000000000e+01,4.700000000000000000e+01,5.600000000000000533e-01,6.359634000000000000e+09
3.600000000000000000e+01,8.200000000000000000e+01,3.160000000000000000e+02,8.600000000000000000e+01,4.000000000000000000e+01,3.900000000000000000e+01,4.800000000000000000e+01,4.000000000000000000e+01,5.699999999999999512e-01,6.381735600000000000e+09
3.600000000000000000e+01,8.200000000000000000e+01,3.230000000000000000e+02,9.000000000000000000e+01,4.000000000000000000e+01,4.100000000000000000e+01,4.600000000000000000e+01,4.200000000000000000e+01,5.699999999999999512e-01,6.400033300000000000e+09
3.800000000000000000e+01,8.200000000000000000e+01,3.450000000000000000e+02,9.500000000000000000e+01,3.700000000000000000e+01,3.900000000000000000e+01,4.600000000000000000e+01,4.300000000000000000e+01,5.699999999999999512e-01,6.418413900000000000e+09
4.100000000000000000e+01,7.200000000000000000e+01,3.130000000000000000e+02,8.400000000000000000e+01,3.800000000000000000e+01,4.100000000000000000e+01,4.000000000000000000e+01,4.000000000000000000e+01,5.699999999999999512e-01,6.437313000000000000e+09
4.100000000000000000e+01,6.900000000000000000e+01,3.140000000000000000e+02,7.500000000000000000e+01,3.300000000000000000e+01,4.400000000000000000e+01,4.200000000000000000e+01,3.000000000000000000e+01,5.799999999999999600e-01,6.459586300000000000e+09
4.300000000000000000e+01,7.300000000000000000e+01,3.170000000000000000e+02,6.700000000000000000e+01,3.300000000000000000e+01,4.300000000000000000e+01,4.000000000000000000e+01,3.200000000000000000e+01,5.699999999999999512e-01,6.481783900000000000e+09
4.200000000000000000e+01,7.300000000000000000e+01,3.190000000000000000e+02,7.000000000000000000e+01,4.500000000000000000e+01,4.100000000000000000e+01,4.400000000000000000e+01,3.100000000000000000e+01,5.699999999999999512e-01,6.500287300000000000e+09
4.000000000000000000e+01,1.000000000000000000e+02,2.970000000000000000e+02,6.600000000000000000e+01,4.600000000000000000e+01,4.100000000000000000e+01,4.500000000000000000e+01,3.200000000000000000e+01,5.699999999999999512e-01,6.519046200000000000e+09
3.500000000000000000e+01,1.160000000000000000e+02,3.440000000000000000e+02,7.500000000000000000e+01,5.100000000000000000e+01,3.900000000000000000e+01,4.900000000000000000e+01,3.300000000000000000e+01,5.699999999999999512e-01,6.538787700000000000e+09
3.800000000000000000e+01,1.100000000000000000e+02,3.060000000000000000e+02,7.200000000000000000e+01,5.100000000000000000e+01,4.700000000000000000e+01,4.200000000000000000e+01,3.500000000000000000e+01,5.600000000000000533e-01,6.561872500000000000e+09
3.400000000000000000e+01,1.250000000000000000e+02,3.340000000000000000e+02,8.800000000000000000e+01,5.600000000000000000e+01,5.000000000000000000e+01,4.100000000000000000e+01,3.400000000000000000e+01,5.600000000000000533e-01,6.579678500000000000e+09
3.400000000000000000e+01,1.240000000000000000e+02,3.300000000000000000e+02,8.200000000000000000e+01,5.000000000000000000e+01,4.700000000000000000e+01,4.200000000000000000e+01,3.300000000000000000e+01,5.600000000000000533e-01,6.597596600000000000e+09
3.500000000000000000e+01,1.190000000000000000e+02,3.370000000000000000e+02,8.100000000000000000e+01,5.500000000000000000e+01,5.500000000000000000e+01,4.400000000000000000e+01,2.900000000000000000e+01,5.600000000000000533e-01,6.618340100000000000e+09
3.800000000000000000e+01,1.020000000000000000e+02,2.690000000000000000e+02,7.400000000000000000e+01,5.100000000000000000e+01,5.800000000000000000e+01,4.500000000000000000e+01,2.700000000000000000e+01,5.600000000000000533e-01,6.640607500000000000e+09
3.800000000000000000e+01,1.150000000000000000e+02,3.260000000000000000e+02,7.400000000000000000e+01,5.200000000000000000e+01,5.300000000000000000e+01,4.700000000000000000e+01,2.600000000000000000e+01,5.600000000000000533e-01,6.662837100000000000e+09
3.700000000000000000e+01,1.000000000000000000e+02,2.930000000000000000e+02,5.500000000000000000e+01,5.000000000000000000e+01,5.400000000000000000e+01,5.000000000000000000e+01,2.900000000000000000e+01,5.500000000000000444e-01,6.680672900000000000e+09
3.600000000000000000e+01,1.080000000000000000e+02,3.080000000000000000e+02,5.300000000000000000e+01,4.800000000000000000e+01,6.700000000000000000e+01,5.900000000000000000e+01,2.900000000000000000e+01,5.500000000000000444e-01,6.699784500000000000e+09
3.500000000000000000e+01,9.400000000000000000e+01,3.160000000000000000e+02,5.900000000000000000e+01,4.300000000000000000e+01,6.000000000000000000e+01,7.000000000000000000e+01,2.800000000000000000e+01,5.500000000000000444e-01,6.718409600000000000e+09
3.200000000000000000e+01,1.000000000000000000e+02,3.340000000000000000e+02,5.900000000000000000e+01,4.100000000000000000e+01,6.000000000000000000e+01,6.700000000000000000e+01,2.800000000000000000e+01,5.500000000000000444e-01,6.740558200000000000e+09
3.000000000000000000e+01,1.010000000000000000e+02,2.980000000000000000e+02,6.000000000000000000e+01,4.000000000000000000e+01,6.000000000000000000e+01,6.700000000000000000e+01,3.000000000000000000e+01,5.500000000000000444e-01,6.762990700000000000e+09
3.100000000000000000e+01,1.060000000000000000e+02,2.970000000000000000e+02,6.700000000000000000e+01,3.400000000000000000e+01,5.900000000000000000e+01,6.500000000000000000e+01,2.800000000000000000e+01,5.400000000000000355e-01,6.782374700000000000e+09
3.200000000000000000e+01,9.900000000000000000e+01,2.830000000000000000e+02,6.900000000000000000e+01,3.700000000000000000e+01,5.100000000000000000e+01,5.400000000000000000e+01,2.900000000000000000e+01,5.400000000000000355e-01,6.801317700000000000e+09
4.000000000000000000e+01,1.070000000000000000e+02,3.080000000000000000e+02,5.800000000000000000e+01,3.800000000000000000e+01,5.400000000000000000e+01,3.700000000000000000e+01,3.100000000000000000e+01,5.400000000000000355e-01,6.819785900000000000e+09
4.700000000000000000e+01,1.010000000000000000e+02,3.390000000000000000e+02,6.300000000000000000e+01,6.500000000000000000e+01,5.900000000000000000e+01,4.400000000000000000e+01,3.000000000000000000e+01,5.300000000000000266e-01,6.839757600000000000e+09
4.800000000000000000e+01,9.800000000000000000e+01,3.490000000000000000e+02,6.600000000000000000e+01,6.600000000000000000e+01,5.800000000000000000e+01,4.300000000000000000e+01,2.900000000000000000e+01,5.300000000000000266e-01,6.860977900000000000e+09
4.900000000000000000e+01,9.100000000000000000e+01,3.340000000000000000e+02,6.300000000000000000e+01,6.500000000000000000e+01,5.700000000000000000e+01,5.000000000000000000e+01,3.600000000000000000e+01,5.300000000000000266e-01,6.883190500000000000e+09
5.000000000000000000e+01,9.100000000000000000e+01,3.530000000000000000e+02,6.100000000000000000e+01,6.700000000000000000e+01,6.100000000000000000e+01,5.600000000000000000e+01,3.600000000000000000e+01,5.200000000000000178e-01,6.903189300000000000e+09
4.400000000000000000e+01,8.000000000000000000e+01,3.260000000000000000e+02,6.600000000000000000e+01,6.800000000000000000e+01,6.400000000000000000e+01,5.500000000000000000e+01,3.700000000000000000e+01,5.200000000000000178e-01,6.921790000000000000e+09
3.900000000000000000e+01,9.600000000000000000e+01,2.940000000000000000e+02,6.100000000000000000e+01,5.000000000000000000e+01,6.300000000000000000e+01,5.000000000000000000e+01,4.200000000000000000e+01,5.200000000000000178e-01,6.943854500000000000e+09
3.700000000000000000e+01,9.300000000000000000e+01,2.650000000000000000e+02,5.400000000000000000e+01,5.200000000000000000e+01,6.600000000000000000e+01,5.400000000000000000e+01,4.200000000000000000e+01,5.100000000000000089e-01,6.984776800000000000e+09
4.000000000000000000e+01,1.000000000000000000e+02,2.900000000000000000e+02,4.500000000000000000e+01,5.100000000000000000e+01,6.900000000000000000e+01,4.800000000000000000e+01,3.700000000000000000e+01,5.100000000000000089e-01,7.004186500000000000e+09
4.000000000000000000e+01,9.900000000000000000e+01,2.650000000000000000e+02,4.700000000000000000e+01,4.500000000000000000e+01,6.000000000000000000e+01,4.200000000000000000e+01,3.900000000000000000e+01,5.100000000000000089e-01,7.021884700000000000e+09
4.500000000000000000e+01,1.020000000000000000e+02,2.800000000000000000e+02,3.800000000000000000e+01,5.000000000000000000e+01,6.600000000000000000e+01,4.500000000000000000e+01,3.900000000000000000e+01,5.100000000000000089e-01,7.038913500000000000e+09
4.400000000000000000e+01,9.200000000000000000e+01,2.730000000000000000e+02,3.600000000000000000e+01,4.100000000000000000e+01,6.500000000000000000e+01,4.400000000000000000e+01,3.300000000000000000e+01,5.100000000000000089e-01,7.057372200000000000e+09
4.500000000000000000e+01,8.500000000000000000e+01,3.160000000000000000e+02,4.400000000000000000e+01,4.000000000000000000e+01,6.300000000000000000e+01,3.800000000000000000e+01,3.900000000000000000e+01,5.000000000000000000e-01,7.075520100000000000e+09
4.100000000000000000e+01,8.900000000000000000e+01,3.090000000000000000e+02,6.500000000000000000e+01,3.900000000000000000e+01,7.100000000000000000e+01,4.200000000000000000e+01,3.700000000000000000e+01,5.000000000000000000e-01,7.093489900000000000e+09
4.300000000000000000e+01,9.200000000000000000e+01,3.430000000000000000e+02,7.400000000000000000e+01,4.300000000000000000e+01,7.200000000000000000e+01,4.000000000000000000e+01,3.400000000000000000e+01,5.100000000000000089e-01,7.111733500000000000e+09
3.800000000000000000e+01,9.400000000000000000e+01,3.580000000000000000e+02,9.600000000000000000e+01,3.800000000000000000e+01,6.800000000000000000e+01,3.700000000000000000e+01,3.000000000000000000e+01,5.100000000000000089e-01,7.130252700000000000e+09
3.900000000000000000e+01,8.600000000000000000e+01,3.600000000000000000e+02,9.400000000000000000e+01,5.900000000000000000e+01,6.600000000000000000e+01,5.300000000000000000e+01,3.800000000000000000e+01,5.100000000000000089e-01,7.148990400000000000e+09
3.700000000000000000e+01,9.200000000000000000e+01,3.380000000000000000e+02,9.500000000000000000e+01,6.700000000000000000e+01,6.600000000000000000e+01,6.000000000000000000e+01,3.300000000000000000e+01,5.200000000000000178e-01,7.168248500000000000e+09
3.600000000000000000e+01,8.700000000000000000e+01,3.250000000000000000e+02,8.500000000000000000e+01,7.100000000000000000e+01,5.000000000000000000e+01,5.800000000000000000e+01,3.500000000000000000e+01,5.200000000000000178e-01,7.188078300000000000e+09
3.400000000000000000e+01,9.200000000000000000e+01,2.960000000000000000e+02,8.000000000000000000e+01,6.900000000000000000e+01,4.900000000000000000e+01,5.900000000000000000e+01,3.600000000000000000e+01,5.200000000000000178e-01,7.206414200000000000e+09
3.300000000000000000e+01,9.600000000000000000e+01,2.890000000000000000e+02,6.400000000000000000e+01,6.700000000000000000e+01,5.300000000000000000e+01,5.800000000000000000e+01,3.700000000000000000e+01,5.200000000000000178e-01,7.224421500000000000e+09
4.000000000000000000e+01,1.240000000000000000e+02,2.890000000000000000e+02,6.600000000000000000e+01,5.800000000000000000e+01,4.900000000000000000e+01,4.500000000000000000e+01,4.200000000000000000e+01,5.200000000000000178e-01,7.243597400000000000e+09
4.000000000000000000e+01,1.260000000000000000e+02,2.700000000000000000e+02,6.800000000000000000e+01,4.800000000000000000e+01,4.900000000000000000e+01,3.900000000000000000e+01,4.600000000000000000e+01,5.200000000000000178e-01,7.262274400000000000e+09
3.800000000000000000e+01,1.250000000000000000e+02,3.050000000000000000e+02,6.800000000000000000e+01,4.200000000000000000e+01,5.000000000000000000e+01,4.000000000000000000e+01,4.400000000000000000e+01,5.200000000000000178e-01,7.281651100000000000e+09
4.500000000000000000e+01,1.470000000000000000e+02,3.350000000000000000e+02,8.000000000000000000e+01,4.700000000000000000e+01,5.300000000000000000e+01,3.900000000000000000e+01,4.600000000000000000e+01,5.200000000000000178e-01,7.309243400000000000e+09
4.700000000000000000e+01,1.480000000000000000e+02,3.160000000000000000e+02,7.200000000000000000e+01,5.000000000000000000e+01,4.200000000000000000e+01,4.000000000000000000e+01,4.500000000000000000e+01,5.300000000000000266e-01,7.327464100000000000e+09
4.100000000000000000e+01,1.400000000000000000e+02,3.520000000000000000e+02,1.020000000000000000e+02,4.100000000000000000e+01,4.300000000000000000e+01,4.200000000000000000e+01,3.600000000000000000e+01,5.300000000000000266e-01,7.346216500000000000e+09
6.200000000000000000e+01,2.060000000000000000e+02,4.930000000000000000e+02,1.320000000000000000e+02,6.600000000000000000e+01,5.200000000000000000e+01,5.500000000000000000e+01,4.200000000000000000e+01,5.300000000000000266e-01,7.365518700000000000e+09
6.600000000000000000e+01,2.200000000000000000e+02,5.090000000000000000e+02,1.450000000000000000e+02,7.100000000000000000e+01,5.200000000000000000e+01,5.400000000000000000e+01,4.400000000000000000e+01,5.300000000000000266e-01,7.383958000000000000e+09
6.000000000000000000e+01,2.040000000000000000e+02,5.050000000000000000e+02,1.410000000000000000e+02,7.100000000000000000e+01,5.000000000000000000e+01,5.800000000000000000e+01,4.200000000000000000e+01,5.300000000000000266e-01,7.403403600000000000e+09
6.000000000000000000e+01,2.040000000000000000e+02,5.020000000000000000e+02,1.430000000000000000e+02,7.200000000000000000e+01,4.900000000000000000e+01,5.900000000000000000e+01,4.900000000000000000e+01,5.300000000000000266e-01,7.421441500000000000e+09
6.100000000000000000e+01,1.970000000000000000e+02,5.180000000000000000e+02,1.260000000000000000e+02,7.200000000000000000e+01,5.100000000000000000e+01,5.800000000000000000e+01,4.900000000000000000e+01,5.300000000000000266e-01,7.441152500000000000e+09
4.600000000000000000e+01,1.260000000000000000e+02,4.070000000000000000e+02,9.300000000000000000e+01,5.100000000000000000e+01,4.300000000000000000e+01,4.400000000000000000e+01,3.900000000000000000e+01,5.400000000000000355e-01,7.459236800000000000e+09
4.400000000000000000e+01,9.600000000000000000e+01,3.720000000000000000e+02,7.500000000000000000e+01,4.900000000000000000e+01,4.700000000000000000e+01,4.300000000000000000e+01,4.100000000000000000e+01,5.500000000000000444e-01,7.481468600000000000e+09
5.100000000000000000e+01,9.500000000000000000e+01,3.830000000000000000e+02,6.800000000000000000e+01,4.500000000000000000e+01,5.100000000000000000e+01,4.200000000000000000e+01,4.200000000000000000e+01,5.500000000000000444e-01,7.503566100000000000e+09
5.000000000000000000e+01,8.600000000000000000e+01,3.740000000000000000e+02,6.300000000000000000e+01,4.500000000000000000e+01,5.300000000000000000e+01,4.300000000000000000e+01,3.500000000000000000e+01,5.500000000000000444e-01,7.521487600000000000e+09
4.800000000000000000e+01,7.800000000000000000e+01,3.140000000000000000e+02,5.500000000000000000e+01,4.900000000000000000e+01,5.200000000000000000e+01,4.000000000000000000e+01,4.300000000000000000e+01,5.500000000000000444e-01,7.540085100000000000e+09
4.700000000000000000e+01,6.000000000000000000e+01,2.810000000000000000e+02,5.200000000000000000e+01,4.800000000000000000e+01,5.500000000000000000e+01,3.900000000000000000e+01,4.500000000000000000e+01,5.500000000000000444e-01,7.559280600000000000e+09
4.500000000000000000e+01,5.800000000000000000e+01,2.600000000000000000e+02,4.800000000000000000e+01,4.500000000000000000e+01,5.100000000000000000e+01,4.700000000000000000e+01,4.600000000000000000e+01,5.400000000000000355e-01,7.581285200000000000e+09
4.200000000000000000e+01,6.000000000000000000e+01,2.030000000000000000e+02,4.400000000000000000e+01,4.200000000000000000e+01,4.600000000000000000e+01,4.100000000000000000e+01,4.900000000000000000e+01,5.400000000000000355e-01,7.603463300000000000e+09
5.300000000000000000e+01,6.700000000000000000e+01,1.950000000000000000e+02,4.900000000000000000e+01,4.500000000000000000e+01,5.300000000000000000e+01,4.400000000000000000e+01,4.800000000000000000e+01,5.300000000000000266e-01,7.621757900000000000e+09
5.300000000000000000e+01,7.000000000000000000e+01,1.690000000000000000e+02,5.100000000000000000e+01,4.200000000000000000e+01,5.300000000000000000e+01,5.700000000000000000e+01,4.300000000000000000e+01,5.300000000000000266e-01,7.640420200000000000e+09
5.400000000000000000e+01,7.100000000000000000e+01,1.990000000000000000e+02,5.300000000000000000e+01,4.600000000000000000e+01,4.800000000000000000e+01,6.600000000000000000e+01,4.500000000000000000e+01,5.300000000000000266e-01,7.659079300000000000e+09
5.800000000000000000e+01,7.400000000000000000e+01,2.140000000000000000e+02,8.200000000000000000e+01,5.500000000000000000e+01,4.700000000000000000e+01,6.000000000000000000e+01,4.100000000000000000e+01,5.300000000000000266e-01,7.681244700000000000e+09
6.100000000000000000e+01,8.700000000000000000e+01,2.220000000000000000e+02,1.240000000000000000e+02,6.600000000000000000e+01,5.300000000000000000e+01,6.100000000000000000e+01,3.800000000000000000e+01,5.300000000000000266e-01,7.703569900000000000e+09
5.400000000000000000e+01,8.800000000000000000e+01,2.270000000000000000e+02,1.320000000000000000e+02,6.300000000000000000e+01,4.600000000000000000e+01,6.300000000000000000e+01,3.700000000000000000e+01,5.300000000000000266e-01,7.721904100000000000e+09
5.600000000000000000e+01,1.030000000000000000e+02,3.060000000000000000e+02,1.340000000000000000e+02,6.600000000000000000e+01,4.500000000000000000e+01,5.300000000000000000e+01,4.100000000000000000e+01,5.300000000000000266e-01,7.739977200000000000e+09
5.200000000000000000e+01,1.150000000000000000e+02,4.830000000000000000e+02,1.450000000000000000e+02,6.700000000000000000e+01,4.500000000000000000e+01,4.700000000000000000e+01,3.700000000000000000e+01,5.300000000000000266e-01,7.759030200000000000e+09
4.900000000000000000e+01,1.240000000000000000e+02,5.110000000000000000e+02,1.310000000000000000e+02,5.700000000000000000e+01,5.000000000000000000e+01,5.000000000000000000e+01,3.500000000000000000e+01,5.300000000000000266e-01,7.781234200000000000e+09
4.000000000000000000e+01,1.130000000000000000e+02,5.040000000000000000e+02,1.020000000000000000e+02,5.000000000000000000e+01,5.100000000000000000e+01,5.400000000000000000e+01,3.300000000000000000e+01,5.400000000000000355e-01,7.803441800000000000e+09
4.000000000000000000e+01,1.090000000000000000e+02,5.560000000000000000e+02,9.500000000000000000e+01,5.400000000000000000e+01,5.500000000000000000e+01,5.100000000000000000e+01,3.800000000000000000e+01,5.400000000000000355e-01,7.821573900000000000e+09
4.000000000000000000e+01,1.060000000000000000e+02,6.020000000000000000e+02,1.000000000000000000e+02,5.300000000000000000e+01,5.600000000000000000e+01,5.700000000000000000e+01,2.900000000000000000e+01,5.500000000000000444e-01,7.839974700000000000e+09
4.200000000000000000e+01,9.800000000000000000e+01,4.800000000000000000e+02,8.700000000000000000e+01,5.500000000000000000e+01,5.900000000000000000e+01,5.600000000000000000e+01,3.000000000000000000e+01,5.500000000000000444e-01,7.860759400000000000e+09
4.000000000000000000e+01,8.800000000000000000e+01,4.480000000000000000e+02,8.600000000000000000e+01,5.900000000000000000e+01,5.400000000000000000e+01,5.300000000000000000e+01,3.300000000000000000e+01,5.600000000000000533e-01,7.883548800000000000e+09
4.700000000000000000e+01,8.900000000000000000e+01,5.170000000000000000e+02,7.900000000000000000e+01,5.600000000000000000e+01,5.100000000000000000e+01,4.800000000000000000e+01,3.700000000000000000e+01,5.600000000000000533e-01,7.903541600000000000e+09
4.600000000000000000e+01,9.700000000000000000e+01,4.690000000000000000e+02,8.500000000000000000e+01,5.000000000000000000e+01,5.000000000000000000e+01,4.900000000000000000e+01,3.600000000000000000e+01,5.699999999999999512e-01,7.924228400000000000e+09
4.100000000000000000e+01,9.200000000000000000e+01,3.680000000000000000e+02,7.500000000000000000e+01,4.600000000000000000e+01,5.300000000000000000e+01,4.300000000000000000e+01,4.100000000000000000e+01,5.699999999999999512e-01,7.943970900000000000e+09
4.900000000000000000e+01,9.700000000000000000e+01,4.050000000000000000e+02,7.800000000000000000e+01,4.300000000000000000e+01,5.500000000000000000e+01,3.700000000000000000e+01,4.100000000000000000e+01,5.699999999999999512e-01,7.962235500000000000e+09
5.200000000000000000e+01,9.500000000000000000e+01,4.020000000000000000e+02,7.600000000000000000e+01,3.700000000000000000e+01,6.200000000000000000e+01,3.700000000000000000e+01,3.900000000000000000e+01,5.799999999999999600e-01,7.983649200000000000e+09
4.800000000000000000e+01,9.400000000000000000e+01,3.230000000000000000e+02,7.500000000000000000e+01,3.900000000000000000e+01,5.900000000000000000e+01,4.100000000000000000e+01,3.700000000000000000e+01,5.799999999999999600e-01,8.002422900000000000e+09
4.800000000000000000e+01,9.100000000000000000e+01,3.370000000000000000e+02,6.500000000000000000e+01,4.100000000000000000e+01,6.300000000000000000e+01,3.900000000000000000e+01,4.100000000000000000e+01,5.699999999999999512e-01,8.023683600000000000e+09
5.000000000000000000e+01,8.600000000000000000e+01,3.530000000000000000e+02,7.200000000000000000e+01,4.000000000000000000e+01,6.400000000000000000e+01,3.800000000000000000e+01,3.800000000000000000e+01,5.699999999999999512e-01,8.042923800000000000e+09
3.800000000000000000e+01,8.100000000000000000e+01,2.850000000000000000e+02,6.700000000000000000e+01,3.800000000000000000e+01,5.900000000000000000e+01,4.100000000000000000e+01,3.800000000000000000e+01,5.699999999999999512e-01,8.064690200000000000e+09
3.900000000000000000e+01,8.100000000000000000e+01,2.940000000000000000e+02,7.300000000000000000e+01,4.000000000000000000e+01,5.700000000000000000e+01,3.900000000000000000e+01,4.300000000000000000e+01,5.699999999999999512e-01,8.083194200000000000e+09
3.800000000000000000e+01,9.000000000000000000e+01,2.870000000000000000e+02,7.300000000000000000e+01,3.900000000000000000e+01,5.900000000000000000e+01,4.000000000000000000e+01,4.200000000000000000e+01,5.600000000000000533e-01,8.102374300000000000e+09
3.900000000000000000e+01,8.500000000000000000e+01,2.680000000000000000e+02,7.200000000000000000e+01,3.700000000000000000e+01,4.900000000000000000e+01,4.300000000000000000e+01,3.700000000000000000e+01,5.600000000000000533e-01,8.121918700000000000e+09
3.800000000000000000e+01,8.900000000000000000e+01,2.340000000000000000e+02,6.800000000000000000e+01,4.000000000000000000e+01,4.500000000000000000e+01,4.200000000000000000e+01,3.700000000000000000e+01,5.600000000000000533e-01,8.140503100000000000e+09
3.800000000000000000e+01,8.200000000000000000e+01,2.390000000000000000e+02,6.500000000000000000e+01,5.100000000000000000e+01,4.200000000000000000e+01,4.100000000000000000e+01,3.800000000000000000e+01,5.500000000000000444e-01,8.159375600000000000e+09
3.700000000000000000e+01,9.000000000000000000e+01,2.340000000000000000e+02,6.200000000000000000e+01,4.800000000000000000e+01,3.600000000000000000e+01,5.200000000000000000e+01,4.100000000000000000e+01,5.500000000000000444e-01,8.181266600000000000e+09
5.000000000000000000e+01,8.400000000000000000e+01,2.370000000000000000e+02,8.400000000000000000e+01,5.000000000000000000e+01,3.700000000000000000e+01,5.000000000000000000e+01,4.200000000000000000e+01,5.500000000000000444e-01,8.203188600000000000e+09
4.900000000000000000e+01,9.200000000000000000e+01,2.700000000000000000e+02,8.600000000000000000e+01,4.900000000000000000e+01,3.800000000000000000e+01,4.700000000000000000e+01,4.400000000000000000e+01,5.400000000000000355e-01,8.221581900000000000e+09
5.000000000000000000e+01,8.500000000000000000e+01,2.650000000000000000e+02,8.400000000000000000e+01,4.600000000000000000e+01,4.000000000000000000e+01,5.100000000000000000e+01,4.500000000000000000e+01,5.400000000000000355e-01,8.239475500000000000e+09
5.100000000000000000e+01,8.900000000000000000e+01,3.490000000000000000e+02,8.300000000000000000e+01,3.300000000000000000e+01,4.700000000000000000e+01,4.900000000000000000e+01,4.400000000000000000e+01,5.400000000000000355e-01,8.258812600000000000e+09
5.000000000000000000e+01,9.200000000000000000e+01,3.490000000000000000e+02,7.800000000000000000e+01,3.600000000000000000e+01,5.400000000000000000e+01,4.500000000000000000e+01,3.800000000000000000e+01,5.400000000000000355e-01,8.281218800000000000e+09
3.600000000000000000e+01,8.700000000000000000e+01,3.510000000000000000e+02,5.000000000000000000e+01,3.500000000000000000e+01,5.100000000000000000e+01,4.700000000000000000e+01,3.700000000000000000e+01,5.400000000000000355e-01,8.303286100000000000e+09
4.200000000000000000e+01,8.600000000000000000e+01,3.230000000000000000e+02,4.800000000000000000e+01,3.900000000000000000e+01,6.200000000000000000e+01,4.300000000000000000e+01,3.400000000000000000e+01,5.400000000000000355e-01,8.321506700000000000e+09
4.200000000000000000e+01,8.600000000000000000e+01,3.370000000000000000e+02,4.800000000000000000e+01,4.000000000000000000e+01,6.100000000000000000e+01,4.000000000000000000e+01,3.500000000000000000e+01,5.400000000000000355e-01,8.341165700000000000e+09
4.000000000000000000e+01,8.600000000000000000e+01,2.650000000000000000e+02,4.800000000000000000e+01,4.300000000000000000e+01,5.700000000000000000e+01,4.100000000000000000e+01,3.800000000000000000e+01,5.400000000000000355e-01,8.360022800000000000e+09
4.300000000000000000e+01,9.900000000000000000e+01,2.900000000000000000e+02,5.000000000000000000e+01,4.300000000000000000e+01,5.300000000000000000e+01,3.900000000000000000e+01,3.800000000000000000e+01,5.400000000000000355e-01,8.380902600000000000e+09
4.000000000000000000e+01,1.030000000000000000e+02,2.940000000000000000e+02,5.200000000000000000e+01,4.100000000000000000e+01,5.400000000000000000e+01,4.500000000000000000e+01,4.100000000000000000e+01,5.400000000000000355e-01,8.403141500000000000e+09
3.400000000000000000e+01,1.020000000000000000e+02,2.890000000000000000e+02,5.000000000000000000e+01,3.900000000000000000e+01,4.400000000000000000e+01,5.100000000000000000e+01,3.900000000000000000e+01,5.400000000000000355e-01,8.422271000000000000e+09
3.400000000000000000e+01,1.030000000000000000e+02,2.700000000000000000e+02,5.000000000000000000e+01,4.200000000000000000e+01,4.300000000000000000e+01,5.000000000000000000e+01,3.600000000000000000e+01,5.400000000000000355e-01,8.440229900000000000e+09
3.600000000000000000e+01,1.060000000000000000e+02,2.680000000000000000e+02,5.300000000000000000e+01,4.700000000000000000e+01,4.400000000000000000e+01,5.200000000000000000e+01,3.200000000000000000e+01,5.300000000000000266e-01,8.458903800000000000e+09
3.300000000000000000e+01,9.400000000000000000e+01,3.350000000000000000e+02,5.500000000000000000e+01,4.800000000000000000e+01,4.300000000000000000e+01,4.800000000000000000e+01,3.300000000000000000e+01,5.300000000000000266e-01,8.481019900000000000e+09
3.900000000000000000e+01,8.700000000000000000e+01,3.710000000000000000e+02,5.300000000000000000e+01,5.200000000000000000e+01,4.200000000000000000e+01,3.800000000000000000e+01,3.200000000000000000e+01,5.300000000000000266e-01,8.503142500000000000e+09
3.900000000000000000e+01,7.800000000000000000e+01,3.820000000000000000e+02,5.300000000000000000e+01,5.800000000000000000e+01,3.800000000000000000e+01,4.800000000000000000e+01,3.100000000000000000e+01,5.200000000000000178e-01,8.521297900000000000e+09
4.000000000000000000e+01,8.000000000000000000e+01,4.000000000000000000e+02,5.100000000000000000e+01,5.700000000000000000e+01,3.700000000000000000e+01,5.100000000000000000e+01,3.300000000000000000e+01,5.200000000000000178e-01,8.540114000000000000e+09
3.800000000000000000e+01,8.100000000000000000e+01,3.960000000000000000e+02,5.100000000000000000e+01,5.300000000000000000e+01,4.000000000000000000e+01,4.800000000000000000e+01,3.300000000000000000e+01,5.200000000000000178e-01,8.558925800000000000e+09
3.500000000000000000e+01,7.200000000000000000e+01,3.130000000000000000e+02,4.800000000000000000e+01,5.300000000000000000e+01,4.600000000000000000e+01,5.700000000000000000e+01,3.700000000000000000e+01,5.200000000000000178e-01,8.581688300000000000e+09
3.300000000000000000e+01,8.100000000000000000e+01,2.980000000000000000e+02,5.000000000000000000e+01,5.100000000000000000e+01,4.600000000000000000e+01,5.600000000000000000e+01,3.300000000000000000e+01,5.200000000000000178e-01,8.599549500000000000e+09
3.200000000000000000e+01,8.400000000000000000e+01,3.180000000000000000e+02,5.400000000000000000e+01,4.700000000000000000e+01,5.000000000000000000e+01,4.800000000000000000e+01,3.700000000000000000e+01,5.200000000000000178e-01,8.618426800000000000e+09
3.300000000000000000e+01,8.700000000000000000e+01,3.310000000000000000e+02,6.200000000000000000e+01,4.900000000000000000e+01,5.100000000000000000e+01,5.300000000000000000e+01,3.700000000000000000e+01,5.200000000000000178e-01,8.639006400000000000e+09
3.700000000000000000e+01,7.800000000000000000e+01,3.280000000000000000e+02,5.900000000000000000e+01,5.200000000000000000e+01,4.600000000000000000e+01,5.700000000000000000e+01,3.800000000000000000e+01,5.200000000000000178e-01,8.660960200000000000e+09
3.900000000000000000e+01,8.700000000000000000e+01,3.690000000000000000e+02,6.300000000000000000e+01,5.300000000000000000e+01,4.400000000000000000e+01,4.900000000000000000e+01,3.800000000000000000e+01,5.100000000000000089e-01,8.683554700000000000e+09
3.700000000000000000e+01,8.100000000000000000e+01,3.580000000000000000e+02,6.200000000000000000e+01,6.400000000000000000e+01,5.300000000000000000e+01,4.800000000000000000e+01,3.800000000000000000e+01,5.100000000000000089e-01,8.702315300000000000e+09
3.700000000000000000e+01,7.800000000000000000e+01,3.270000000000000000e+02,5.800000000000000000e+01,6.400000000000000000e+01,5.400000000000000000e+01,4.500000000000000000e+01,3.500000000000000000e+01,5.100000000000000089e-01,8.721007100000000000e+09
3.400000000000000000e+01,1.000000000000000000e+02,3.620000000000000000e+02,5.500000000000000000e+01,6.300000000000000000e+01,5.200000000000000000e+01,4.100000000000000000e+01,3.200000000000000000e+01,5.100000000000000089e-01,8.741443700000000000e+09
3.500000000000000000e+01,1.080000000000000000e+02,3.700000000000000000e+02,6.000000000000000000e+01,5.800000000000000000e+01,5.400000000000000000e+01,4.700000000000000000e+01,3.800000000000000000e+01,5.100000000000000089e-01,8.760655500000000000e+09
3.500000000000000000e+01,9.800000000000000000e+01,3.390000000000000000e+02,6.100000000000000000e+01,5.700000000000000000e+01,5.000000000000000000e+01,5.600000000000000000e+01,3.400000000000000000e+01,5.100000000000000089e-01,8.782778500000000000e+09
3.400000000000000000e+01,9.800000000000000000e+01,3.140000000000000000e+02,6.000000000000000000e+01,4.200000000000000000e+01,4.000000000000000000e+01,5.600000000000000000e+01,3.400000000000000000e+01,5.100000000000000089e-01,8.801421500000000000e+09
4.300000000000000000e+01,1.050000000000000000e+02,3.640000000000000000e+02,6.300000000000000000e+01,3.900000000000000000e+01,4.200000000000000000e+01,5.500000000000000000e+01,3.500000000000000000e+01,5.100000000000000089e-01,8.821012600000000000e+09
4.200000000000000000e+01,9.200000000000000000e+01,3.290000000000000000e+02,6.200000000000000000e+01,3.900000000000000000e+01,4.300000000000000000e+01,5.500000000000000000e+01,3.500000000000000000e+01,5.100000000000000089e-01,8.839409100000000000e+09
4.100000000000000000e+01,8.100000000000000000e+01,3.560000000000000000e+02,6.000000000000000000e+01,4.000000000000000000e+01,4.200000000000000000e+01,4.500000000000000000e+01,3.200000000000000000e+01,5.100000000000000089e-01,8.860598700000000000e+09
4.100000000000000000e+01,8.800000000000000000e+01,3.490000000000000000e+02,5.400000000000000000e+01,3.800000000000000000e+01,4.400000000000000000e+01,3.600000000000000000e+01,3.100000000000000000e+01,5.100000000000000089e-01,8.882817200000000000e+09
4.300000000000000000e+01,1.030000000000000000e+02,3.520000000000000000e+02,5.500000000000000000e+01,3.600000000000000000e+01,4.500000000000000000e+01,4.300000000000000000e+01,3.000000000000000000e+01,5.100000000000000089e-01,8.902150300000000000e+09
3.800000000000000000e+01,1.010000000000000000e+02,3.110000000000000000e+02,5.200000000000000000e+01,3.500000000000000000e+01,3.900000000000000000e+01,4.500000000000000000e+01,3.300000000000000000e+01,5.100000000000000089e-01,8.921436700000000000e+09
3.800000000000000000e+01,9.100000000000000000e+01,2.790000000000000000e+02,5.000000000000000000e+01,2.800000000000000000e+01,5.200000000000000000e+01,4.100000000000000000e+01,3.300000000000000000e+01,5.100000000000000089e-01,8.940990100000000000e+09
3.900000000000000000e+01,9.700000000000000000e+01,2.320000000000000000e+02,4.700000000000000000e+01,3.200000000000000000e+01,5.300000000000000000e+01,4.200000000000000000e+01,3.000000000000000000e+01,5.100000000000000089e-01,8.960278400000000000e+09
4.000000000000000000e+01,9.300000000000000000e+01,2.270000000000000000e+02,4.600000000000000000e+01,3.400000000000000000e+01,5.200000000000000000e+01,3.900000000000000000e+01,3.100000000000000000e+01,5.100000000000000089e-01,8.982526600000000000e+09
4.000000000000000000e+01,7.400000000000000000e+01,2.340000000000000000e+02,4.300000000000000000e+01,3.600000000000000000e+01,5.200000000000000000e+01,3.800000000000000000e+01,3.300000000000000000e+01,5.100000000000000089e-01,9.000708800000000000e+09
3.900000000000000000e+01,6.900000000000000000e+01,2.180000000000000000e+02,4.300000000000000000e+01,3.700000000000000000e+01,5.600000000000000000e+01,3.300000000000000000e+01,2.700000000000000000e+01,5.100000000000000089e-01,9.019305700000000000e+09
4.000000000000000000e+01,7.000000000000000000e+01,2.100000000000000000e+02,4.000000000000000000e+01,4.200000000000000000e+01,5.100000000000000000e+01,3.500000000000000000e+01,2.600000000000000000e+01,5.100000000000000089e-01,9.037964800000000000e+09
3.700000000000000000e+01,7.200000000000000000e+01,2.380000000000000000e+02,4.600000000000000000e+01,3.900000000000000000e+01,4.800000000000000000e+01,3.400000000000000000e+01,2.800000000000000000e+01,5.100000000000000089e-01,9.060190300000000000e+09
3.800000000000000000e+01,7.700000000000000000e+01,2.350000000000000000e+02,4.600000000000000000e+01,4.600000000000000000e+01,4.900000000000000000e+01,4.000000000000000000e+01,2.900000000000000000e+01,5.100000000000000089e-01,9.082459100000000000e+09
3.500000000000000000e+01,8.200000000000000000e+01,2.330000000000000000e+02,4.800000000000000000e+01,4.400000000000000000e+01,4.900000000000000000e+01,3.400000000000000000e+01,2.300000000000000000e+01,5.100000000000000089e-01,9.100135100000000000e+09
3.900000000000000000e+01,9.900000000000000000e+01,2.480000000000000000e+02,4.900000000000000000e+01,4.300000000000000000e+01,4.300000000000000000e+01,3.800000000000000000e+01,3.200000000000000000e+01,5.100000000000000089e-01,9.119243400000000000e+09
3.800000000000000000e+01,9.800000000000000000e+01,2.610000000000000000e+02,4.900000000000000000e+01,3.900000000000000000e+01,3.900000000000000000e+01,5.000000000000000000e+01,3.300000000000000000e+01,5.100000000000000089e-01,9.138551700000000000e+09
4.000000000000000000e+01,9.600000000000000000e+01,2.450000000000000000e+02,4.600000000000000000e+01,4.200000000000000000e+01,4.000000000000000000e+01,5.100000000000000000e+01,3.300000000000000000e+01,5.100000000000000089e-01,9.160422400000000000e+09
3.800000000000000000e+01,9.100000000000000000e+01,2.500000000000000000e+02,4.700000000000000000e+01,3.800000000000000000e+01,3.700000000000000000e+01,5.300000000000000000e+01,3.400000000000000000e+01,5.100000000000000089e-01,9.182453800000000000e+09
3.800000000000000000e+01,9.300000000000000000e+01,2.360000000000000000e+02,4.500000000000000000e+01,4.000000000000000000e+01,3.600000000000000000e+01,5.800000000000000000e+01,3.800000000000000000e+01,5.100000000000000089e-01,9.201506300000000000e+09
3.100000000000000000e+01,8.300000000000000000e+01,2.540000000000000000e+02,5.200000000000000000e+01,4.000000000000000000e+01,4.200000000000000000e+01,5.700000000000000000e+01,3.700000000000000000e+01,5.100000000000000089e-01,9.221525300000000000e+09
3.100000000000000000e+01,8.500000000000000000e+01,2.660000000000000000e+02,5.200000000000000000e+01,4.100000000000000000e+01,5.000000000000000000e+01,5.400000000000000000e+01,3.700000000000000000e+01,5.100000000000000089e-01,9.240662500000000000e+09
3.200000000000000000e+01,7.800000000000000000e+01,2.410000000000000000e+02,4.800000000000000000e+01,3.900000000000000000e+01,5.000000000000000000e+01,5.500000000000000000e+01,3.400000000000000000e+01,5.100000000000000089e-01,9.260125600000000000e+09
3.300000000000000000e+01,7.500000000000000000e+01,2.390000000000000000e+02,5.000000000000000000e+01,4.600000000000000000e+01,4.900000000000000000e+01,5.000000000000000000e+01,3.800000000000000000e+01,5.100000000000000089e-01,9.282260100000000000e+09
3.100000000000000000e+01,7.100000000000000000e+01,2.380000000000000000e+02,4.800000000000000000e+01,5.000000000000000000e+01,4.900000000000000000e+01,4.800000000000000000e+01,3.400000000000000000e+01,5.100000000000000089e-01,9.300595800000000000e+09
3.500000000000000000e+01,6.700000000000000000e+01,2.250000000000000000e+02,4.500000000000000000e+01,5.200000000000000000e+01,4.800000000000000000e+01,4.800000000000000000e+01,3.200000000000000000e+01,5.100000000000000089e-01,9.318812700000000000e+09
3.700000000000000000e+01,7.900000000000000000e+01,2.150000000000000000e+02,5.600000000000000000e+01,5.200000000000000000e+01,3.600000000000000000e+01,4.100000000000000000e+01,3.000000000000000000e+01,5.100000000000000089e-01,9.337821100000000000e+09
3.700000000000000000e+01,8.800000000000000000e+01,2.300000000000000000e+02,5.900000000000000000e+01,5.400000000000000000e+01,3.700000000000000000e+01,4.100000000000000000e+01,3.600000000000000000e+01,5.100000000000000089e-01,9.359990200000000000e+09
4.700000000000000000e+01,9.700000000000000000e+01,2.490000000000000000e+02,6.100000000000000000e+01,5.000000000000000000e+01,4.100000000000000000e+01,4.400000000000000000e+01,3.000000000000000000e+01,5.100000000000000089e-01,9.382218100000000000e+09
5.300000000000000000e+01,9.200000000000000000e+01,2.480000000000000000e+02,6.200000000000000000e+01,4.400000000000000000e+01,3.900000000000000000e+01,4.200000000000000000e+01,3.200000000000000000e+01,5.100000000000000089e-01,9.401940000000000000e+09
5.100000000000000000e+01,8.600000000000000000e+01,2.190000000000000000e+02,5.800000000000000000e+01,4.300000000000000000e+01,3.600000000000000000e+01,4.600000000000000000e+01,3.400000000000000000e+01,5.000000000000000000e-01,9.420495000000000000e+09
5.400000000000000000e+01,6.900000000000000000e+01,2.160000000000000000e+02,5.500000000000000000e+01,4.600000000000000000e+01,3.600000000000000000e+01,5.100000000000000000e+01,3.900000000000000000e+01,5.000000000000000000e-01,9.440415800000000000e+09
5.400000000000000000e+01,6.900000000000000000e+01,1.900000000000000000e+02,5.200000000000000000e+01,4.400000000000000000e+01,3.600000000000000000e+01,6.000000000000000000e+01,3.500000000000000000e+01,5.000000000000000000e-01,9.459935400000000000e+09
4.500000000000000000e+01,6.700000000000000000e+01,1.580000000000000000e+02,4.800000000000000000e+01,3.700000000000000000e+01,3.500000000000000000e+01,5.700000000000000000e+01,3.500000000000000000e+01,5.000000000000000000e-01,9.482192700000000000e+09
5.100000000000000000e+01,9.200000000000000000e+01,3.310000000000000000e+02,1.100000000000000000e+02,4.800000000000000000e+01,4.200000000000000000e+01,5.700000000000000000e+01,3.400000000000000000e+01,5.100000000000000089e-01,9.500795600000000000e+09
6.700000000000000000e+01,2.080000000000000000e+02,4.560000000000000000e+02,1.650000000000000000e+02,5.100000000000000000e+01,4.400000000000000000e+01,5.300000000000000000e+01,4.200000000000000000e+01,5.100000000000000089e-01,9.520014700000000000e+09
7.300000000000000000e+01,2.330000000000000000e+02,6.170000000000000000e+02,2.280000000000000000e+02,8.300000000000000000e+01,8.100000000000000000e+01,5.100000000000000000e+01,4.500000000000000000e+01,5.100000000000000089e-01,9.538804200000000000e+09
7.700000000000000000e+01,2.680000000000000000e+02,7.150000000000000000e+02,2.480000000000000000e+02,9.700000000000000000e+01,9.800000000000000000e+01,4.300000000000000000e+01,4.800000000000000000e+01,5.100000000000000089e-01,9.559989000000000000e+09
9.600000000000000000e+01,3.840000000000000000e+02,9.180000000000000000e+02,3.620000000000000000e+02,1.280000000000000000e+02,1.060000000000000000e+02,6.100000000000000000e+01,6.100000000000000000e+01,5.000000000000000000e-01,9.582303300000000000e+09
1.030000000000000000e+02,4.250000000000000000e+02,9.960000000000000000e+02,4.150000000000000000e+02,1.530000000000000000e+02,1.130000000000000000e+02,6.900000000000000000e+01,7.000000000000000000e+01,4.799999999999999822e-01,9.601063200000000000e+09
1.030000000000000000e+02,4.260000000000000000e+02,1.024000000000000000e+03,4.980000000000000000e+02,1.710000000000000000e+02,1.180000000000000000e+02,7.400000000000000000e+01,6.800000000000000000e+01,4.600000000000000200e-01,9.619253000000000000e+09
1.200000000000000000e+02,4.670000000000000000e+02,1.065000000000000000e+03,4.940000000000000000e+02,1.800000000000000000e+02,1.140000000000000000e+02,7.500000000000000000e+01,7.700000000000000000e+01,4.400000000000000022e-01,9.638537700000000000e+09
1.800000000000000000e+02,5.250000000000000000e+02,1.047000000000000000e+03,5.380000000000000000e+02,2.280000000000000000e+02,1.390000000000000000e+02,9.300000000000000000e+01,1.090000000000000000e+02,4.199999999999999845e-01,9.660199500000000000e+09
1.850000000000000000e+02,4.800000000000000000e+02,9.980000000000000000e+02,5.880000000000000000e+02,2.430000000000000000e+02,1.460000000000000000e+02,8.700000000000000000e+01,1.110000000000000000e+02,4.000000000000000222e-01,9.682282200000000000e+09
2.010000000000000000e+02,5.360000000000000000e+02,1.158000000000000000e+03,5.990000000000000000e+02,2.470000000000000000e+02,1.460000000000000000e+02,8.500000000000000000e+01,1.160000000000000000e+02,3.699999999999999956e-01,9.700439400000000000e+09
1.990000000000000000e+02,5.210000000000000000e+02,1.206000000000000000e+03,5.490000000000000000e+02,2.430000000000000000e+02,1.480000000000000000e+02,8.300000000000000000e+01,1.170000000000000000e+02,3.499999999999999778e-01,9.720573800000000000e+09
2.010000000000000000e+02,5.400000000000000000e+02,1.305000000000000000e+03,5.720000000000000000e+02,2.540000000000000000e+02,1.860000000000000000e+02,8.900000000000000000e+01,1.170000000000000000e+02,3.200000000000000067e-01,9.739553800000000000e+09
1.650000000000000000e+02,4.970000000000000000e+02,1.338000000000000000e+03,5.870000000000000000e+02,2.180000000000000000e+02,1.910000000000000000e+02,7.500000000000000000e+01,9.400000000000000000e+01,2.899999999999999800e-01,9.760102300000000000e+09
1.710000000000000000e+02,5.310000000000000000e+02,1.346000000000000000e+03,5.600000000000000000e+02,2.180000000000000000e+02,2.110000000000000000e+02,7.300000000000000000e+01,9.400000000000000000e+01,2.600000000000000089e-01,9.782672000000000000e+09
1.640000000000000000e+02,4.950000000000000000e+02,1.239000000000000000e+03,5.940000000000000000e+02,2.170000000000000000e+02,2.240000000000000000e+02,8.300000000000000000e+01,9.500000000000000000e+01,2.399999999999999911e-01,9.801029800000000000e+09
2.050000000000000000e+02,5.990000000000000000e+02,1.262000000000000000e+03,7.120000000000000000e+02,2.510000000000000000e+02,2.300000000000000000e+02,9.700000000000000000e+01,1.090000000000000000e+02,2.200000000000000011e-01,9.819722900000000000e+09
1.950000000000000000e+02,5.680000000000000000e+02,1.177000000000000000e+03,7.210000000000000000e+02,2.370000000000000000e+02,1.980000000000000000e+02,9.300000000000000000e+01,1.030000000000000000e+02,2.099999999999999922e-01,9.838424700000000000e+09
2.190000000000000000e+02,6.370000000000000000e+02,1.226000000000000000e+03,7.780000000000000000e+02,2.650000000000000000e+02,2.090000000000000000e+02,1.030000000000000000e+02,1.240000000000000000e+02,2.000000000000000111e-01,9.860642100000000000e+09
2.580000000000000000e+02,6.890000000000000000e+02,1.178000000000000000e+03,7.580000000000000000e+02,3.040000000000000000e+02,2.120000000000000000e+02,1.250000000000000000e+02,1.420000000000000000e+02,1.900000000000000022e-01,9.883198400000000000e+09
2.620000000000000000e+02,7.090000000000000000e+02,1.162000000000000000e+03,7.320000000000000000e+02,3.310000000000000000e+02,2.110000000000000000e+02,1.270000000000000000e+02,1.450000000000000000e+02,1.799999999999999933e-01,9.901505700000000000e+09
2.680000000000000000e+02,6.780000000000000000e+02,1.103000000000000000e+03,7.050000000000000000e+02,3.530000000000000000e+02,2.310000000000000000e+02,1.360000000000000000e+02,1.550000000000000000e+02,1.700000000000000122e-01,9.920591300000000000e+09
2.960000000000000000e+02,7.930000000000000000e+02,1.073000000000000000e+03,8.420000000000000000e+02,4.030000000000000000e+02,2.490000000000000000e+02,1.490000000000000000e+02,1.700000000000000000e+02,1.600000000000000033e-01,9.939297100000000000e+09
3.050000000000000000e+02,7.440000000000000000e+02,1.041000000000000000e+03,8.380000000000000000e+02,4.580000000000000000e+02,2.530000000000000000e+02,1.620000000000000000e+02,1.780000000000000000e+02,1.499999999999999944e-01,9.961121400000000000e+09
2.710000000000000000e+02,6.800000000000000000e+02,1.063000000000000000e+03,8.330000000000000000e+02,4.260000000000000000e+02,2.300000000000000000e+02,1.450000000000000000e+02,1.620000000000000000e+02,1.400000000000000133e-01,9.983795200000000000e+09
2.740000000000000000e+02,6.780000000000000000e+02,1.082000000000000000e+03,8.620000000000000000e+02,4.310000000000000000e+02,2.290000000000000000e+02,1.470000000000000000e+02,1.640000000000000000e+02,1.300000000000000044e-01,1.000323640000000000e+10
2.490000000000000000e+02,6.310000000000000000e+02,1.113000000000000000e+03,8.950000000000000000e+02,4.150000000000000000e+02,2.080000000000000000e+02,1.330000000000000000e+02,1.490000000000000000e+02,1.300000000000000044e-01,1.002710010000000000e+10
2.240000000000000000e+02,5.220000000000000000e+02,1.119000000000000000e+03,8.460000000000000000e+02,3.750000000000000000e+02,1.870000000000000000e+02,1.210000000000000000e+02,1.370000000000000000e+02,1.199999999999999956e-01,1.004505490000000000e+10
1.860000000000000000e+02,5.210000000000000000e+02,1.081000000000000000e+03,7.830000000000000000e+02,2.990000000000000000e+02,1.400000000000000000e+02,9.200000000000000000e+01,1.050000000000000000e+02,1.199999999999999956e-01,1.006368190000000000e+10
1.750000000000000000e+02,5.000000000000000000e+02,1.119000000000000000e+03,8.100000000000000000e+02,2.880000000000000000e+02,1.370000000000000000e+02,9.100000000000000000e+01,1.020000000000000000e+02,1.100000000000000006e-01,1.008237110000000000e+10
1.470000000000000000e+02,4.190000000000000000e+02,1.059000000000000000e+03,7.660000000000000000e+02,2.340000000000000000e+02,1.100000000000000000e+02,7.700000000000000000e+01,8.300000000000000000e+01,1.100000000000000006e-01,1.010034570000000000e+10
1.370000000000000000e+02,4.000000000000000000e+02,1.013000000000000000e+03,6.460000000000000000e+02,1.910000000000000000e+02,8.900000000000000000e+01,6.900000000000000000e+01,7.500000000000000000e+01,1.100000000000000006e-01,1.011879130000000000e+10
1.240000000000000000e+02,3.380000000000000000e+02,1.015000000000000000e+03,5.420000000000000000e+02,1.740000000000000000e+02,7.900000000000000000e+01,6.400000000000000000e+01,6.600000000000000000e+01,1.100000000000000006e-01,1.013969340000000000e+10
1.040000000000000000e+02,3.050000000000000000e+02,1.066000000000000000e+03,5.240000000000000000e+02,1.350000000000000000e+02,7.600000000000000000e+01,5.900000000000000000e+01,6.000000000000000000e+01,1.199999999999999956e-01,1.016005810000000000e+10
1.090000000000000000e+02,3.280000000000000000e+02,1.027000000000000000e+03,4.320000000000000000e+02,1.470000000000000000e+02,7.700000000000000000e+01,6.100000000000000000e+01,6.700000000000000000e+01,1.199999999999999956e-01,1.018208230000000000e+10
1.080000000000000000e+02,3.220000000000000000e+02,1.006000000000000000e+03,4.770000000000000000e+02,1.610000000000000000e+02,7.900000000000000000e+01,6.700000000000000000e+01,7.000000000000000000e+01,1.300000000000000044e-01,1.020435470000000000e+10
1.210000000000000000e+02,3.530000000000000000e+02,9.890000000000000000e+02,5.420000000000000000e+02,2.210000000000000000e+02,9.600000000000000000e+01,7.400000000000000000e+01,7.900000000000000000e+01,1.300000000000000044e-01,1.022284700000000000e+10
1.140000000000000000e+02,3.350000000000000000e+02,9.740000000000000000e+02,5.080000000000000000e+02,2.190000000000000000e+02,9.400000000000000000e+01,7.100000000000000000e+01,7.600000000000000000e+01,1.300000000000000044e-01,1.024219980000000000e+10
1.200000000000000000e+02,3.640000000000000000e+02,9.740000000000000000e+02,5.050000000000000000e+02,2.160000000000000000e+02,8.600000000000000000e+01,7.400000000000000000e+01,7.900000000000000000e+01,1.300000000000000044e-01,1.026250830000000000e+10
1.200000000000000000e+02,3.330000000000000000e+02,9.580000000000000000e+02,5.210000000000000000e+02,2.200000000000000000e+02,9.200000000000000000e+01,7.200000000000000000e+01,7.500000000000000000e+01,1.300000000000000044e-01,1.028248530000000000e+10
1.160000000000000000e+02,3.450000000000000000e+02,1.008000000000000000e+03,4.640000000000000000e+02,2.120000000000000000e+02,9.100000000000000000e+01,6.100000000000000000e+01,7.200000000000000000e+01,1.300000000000000044e-01,1.030190650000000000e+10
9.700000000000000000e+01,3.340000000000000000e+02,1.083000000000000000e+03,4.150000000000000000e+02,1.650000000000000000e+02,1.120000000000000000e+02,5.400000000000000000e+01,6.200000000000000000e+01,1.300000000000000044e-01,1.032316780000000000e+10
9.200000000000000000e+01,3.130000000000000000e+02,9.950000000000000000e+02,3.920000000000000000e+02,1.550000000000000000e+02,1.160000000000000000e+02,5.100000000000000000e+01,6.200000000000000000e+01,1.300000000000000044e-01,1.034156550000000000e+10
8.200000000000000000e+01,2.690000000000000000e+02,9.830000000000000000e+02,3.690000000000000000e+02,1.570000000000000000e+02,1.210000000000000000e+02,4.700000000000000000e+01,5.500000000000000000e+01,1.400000000000000133e-01,1.036030570000000000e+10
8.800000000000000000e+01,3.270000000000000000e+02,1.002000000000000000e+03,4.610000000000000000e+02,1.460000000000000000e+02,1.140000000000000000e+02,4.600000000000000000e+01,5.100000000000000000e+01,1.400000000000000133e-01,1.038015580000000000e+10
1.270000000000000000e+02,3.640000000000000000e+02,1.004000000000000000e+03,5.120000000000000000e+02,2.050000000000000000e+02,1.360000000000000000e+02,5.700000000000000000e+01,7.900000000000000000e+01,1.300000000000000044e-01,1.040232110000000000e+10
1.440000000000000000e+02,3.870000000000000000e+02,9.210000000000000000e+02,5.420000000000000000e+02,2.160000000000000000e+02,1.160000000000000000e+02,6.700000000000000000e+01,8.500000000000000000e+01,1.300000000000000044e-01,1.042162620000000000e+10
1.470000000000000000e+02,3.940000000000000000e+02,9.670000000000000000e+02,5.750000000000000000e+02,2.160000000000000000e+02,1.130000000000000000e+02,7.500000000000000000e+01,8.600000000000000000e+01,1.199999999999999956e-01,1.044160930000000000e+10
1.510000000000000000e+02,3.940000000000000000e+02,9.240000000000000000e+02,6.120000000000000000e+02,2.220000000000000000e+02,1.140000000000000000e+02,7.900000000000000000e+01,8.700000000000000000e+01,1.199999999999999956e-01,1.046093320000000000e+10
1.530000000000000000e+02,3.660000000000000000e+02,9.080000000000000000e+02,6.460000000000000000e+02,2.460000000000000000e+02,1.220000000000000000e+02,8.500000000000000000e+01,9.100000000000000000e+01,1.300000000000000044e-01,1.048028700000000000e+10
1.470000000000000000e+02,3.560000000000000000e+02,8.590000000000000000e+02,6.880000000000000000e+02,2.700000000000000000e+02,1.130000000000000000e+02,8.600000000000000000e+01,8.400000000000000000e+01,1.300000000000000044e-01,1.050230090000000000e+10
1.430000000000000000e+02,3.370000000000000000e+02,8.870000000000000000e+02,6.590000000000000000e+02,2.680000000000000000e+02,1.110000000000000000e+02,8.400000000000000000e+01,8.000000000000000000e+01,1.300000000000000044e-01,1.052208570000000000e+10
1.490000000000000000e+02,3.400000000000000000e+02,9.680000000000000000e+02,6.730000000000000000e+02,2.740000000000000000e+02,1.180000000000000000e+02,8.200000000000000000e+01,8.700000000000000000e+01,1.300000000000000044e-01,1.054111640000000000e+10
1.580000000000000000e+02,3.440000000000000000e+02,9.680000000000000000e+02,7.350000000000000000e+02,2.840000000000000000e+02,1.200000000000000000e+02,8.400000000000000000e+01,9.400000000000000000e+01,1.300000000000000044e-01,1.056005810000000000e+10
1.560000000000000000e+02,3.240000000000000000e+02,1.002000000000000000e+03,7.020000000000000000e+02,2.610000000000000000e+02,1.150000000000000000e+02,7.800000000000000000e+01,9.300000000000000000e+01,1.300000000000000044e-01,1.057993050000000000e+10
1.370000000000000000e+02,2.930000000000000000e+02,1.019000000000000000e+03,6.250000000000000000e+02,1.850000000000000000e+02,1.010000000000000000e+02,7.000000000000000000e+01,7.800000000000000000e+01,1.300000000000000044e-01,1.060224200000000000e+10
1.340000000000000000e+02,2.800000000000000000e+02,1.007000000000000000e+03,6.900000000000000000e+02,1.810000000000000000e+02,1.090000000000000000e+02,6.800000000000000000e+01,8.200000000000000000e+01,1.300000000000000044e-01,1.062157420000000000e+10
2.050000000000000000e+02,4.120000000000000000e+02,9.760000000000000000e+02,8.330000000000000000e+02,2.770000000000000000e+02,1.710000000000000000e+02,9.400000000000000000e+01,1.190000000000000000e+02,1.400000000000000133e-01,1.064004890000000000e+10
2.050000000000000000e+02,4.380000000000000000e+02,1.047000000000000000e+03,7.730000000000000000e+02,2.860000000000000000e+02,1.770000000000000000e+02,9.500000000000000000e+01,1.150000000000000000e+02,1.400000000000000133e-01,1.065845090000000000e+10
2.050000000000000000e+02,4.410000000000000000e+02,1.058000000000000000e+03,7.590000000000000000e+02,2.930000000000000000e+02,1.760000000000000000e+02,9.500000000000000000e+01,1.140000000000000000e+02,1.400000000000000133e-01,1.067998870000000000e+10
