5.100000000000000000e+01,2.160000000000000000e+02,1.930000000000000000e+02,1.400000000000000000e+02,5.900000000000000000e+01,2.900000000000000000e+01,2.600000000000000000e+01,2.500000000000000000e+01,6.099999999999999867e-01,4.679175000000000000e+08
5.100000000000000000e+01,1.860000000000000000e+02,1.920000000000000000e+02,1.440000000000000000e+02,6.100000000000000000e+01,2.800000000000000000e+01,2.600000000000000000e+01,2.600000000000000000e+01,6.099999999999999867e-01,4.939426000000000000e+08
5.600000000000000000e+01,1.880000000000000000e+02,1.970000000000000000e+02,1.430000000000000000e+02,5.900000000000000000e+01,2.900000000000000000e+01,2.700000000000000000e+01,2.700000000000000000e+01,6.099999999999999867e-01,1.155064800000000000e+09
5.700000000000000000e+01,1.960000000000000000e+02,1.980000000000000000e+02,1.430000000000000000e+02,6.000000000000000000e+01,3.300000000000000000e+01,3.000000000000000000e+01,2.800000000000000000e+01,6.099999999999999867e-01,1.175962300000000000e+09
6.100000000000000000e+01,1.920000000000000000e+02,1.810000000000000000e+02,1.230000000000000000e+02,5.300000000000000000e+01,3.300000000000000000e+01,2.900000000000000000e+01,2.600000000000000000e+01,6.099999999999999867e-01,1.203007700000000000e+09
6.400000000000000000e+01,2.170000000000000000e+02,2.160000000000000000e+02,1.170000000000000000e+02,4.800000000000000000e+01,5.000000000000000000e+01,3.000000000000000000e+01,2.900000000000000000e+01,6.099999999999999867e-01,1.225045000000000000e+09
8.600000000000000000e+01,2.810000000000000000e+02,2.640000000000000000e+02,1.380000000000000000e+02,9.200000000000000000e+01,1.140000000000000000e+02,4.600000000000000000e+01,2.900000000000000000e+01,6.099999999999999867e-01,1.278570800000000000e+09
1.080000000000000000e+02,3.840000000000000000e+02,3.250000000000000000e+02,1.440000000000000000e+02,1.710000000000000000e+02,1.520000000000000000e+02,4.700000000000000000e+01,3.000000000000000000e+01,6.099999999999999867e-01,1.298810700000000000e+09
1.150000000000000000e+02,4.260000000000000000e+02,3.490000000000000000e+02,1.470000000000000000e+02,1.860000000000000000e+02,1.630000000000000000e+02,4.700000000000000000e+01,3.200000000000000000e+01,5.999999999999999778e-01,1.317508900000000000e+09
1.140000000000000000e+02,4.350000000000000000e+02,3.590000000000000000e+02,1.640000000000000000e+02,1.960000000000000000e+02,1.690000000000000000e+02,5.200000000000000000e+01,3.100000000000000000e+01,5.899999999999999689e-01,1.337371000000000000e+09
1.120000000000000000e+02,4.210000000000000000e+02,3.330000000000000000e+02,1.670000000000000000e+02,2.000000000000000000e+02,1.680000000000000000e+02,5.400000000000000000e+01,3.000000000000000000e+01,5.899999999999999689e-01,1.356530900000000000e+09
9.600000000000000000e+01,3.850000000000000000e+02,2.950000000000000000e+02,1.520000000000000000e+02,1.850000000000000000e+02,1.390000000000000000e+02,4.000000000000000000e+01,2.900000000000000000e+01,5.799999999999999600e-01,1.374916200000000000e+09
6.500000000000000000e+01,2.850000000000000000e+02,2.540000000000000000e+02,1.500000000000000000e+02,1.220000000000000000e+02,1.020000000000000000e+02,4.000000000000000000e+01,2.700000000000000000e+01,5.699999999999999512e-01,1.393292700000000000e+09
4.900000000000000000e+01,2.120000000000000000e+02,2.310000000000000000e+02,1.570000000000000000e+02,1.050000000000000000e+02,8.800000000000000000e+01,3.700000000000000000e+01,2.400000000000000000e+01,5.699999999999999512e-01,1.411706300000000000e+09
4.000000000000000000e+01,1.600000000000000000e+02,2.170000000000000000e+02,1.510000000000000000e+02,8.600000000000000000e+01,7.400000000000000000e+01,2.700000000000000000e+01,2.500000000000000000e+01,5.699999999999999512e-01,1.430254400000000000e+09
3.800000000000000000e+01,1.770000000000000000e+02,2.120000000000000000e+02,1.550000000000000000e+02,7.200000000000000000e+01,6.700000000000000000e+01,2.300000000000000000e+01,2.300000000000000000e+01,5.600000000000000533e-01,1.448914700000000000e+09
4.400000000000000000e+01,1.740000000000000000e+02,2.110000000000000000e+02,1.560000000000000000e+02,6.900000000000000000e+01,5.300000000000000000e+01,2.200000000000000000e+01,2.500000000000000000e+01,5.600000000000000533e-01,1.467788100000000000e+09
4.300000000000000000e+01,1.690000000000000000e+02,1.840000000000000000e+02,1.580000000000000000e+02,5.900000000000000000e+01,4.100000000000000000e+01,2.100000000000000000e+01,2.600000000000000000e+01,5.600000000000000533e-01,1.486108500000000000e+09
5.400000000000000000e+01,1.670000000000000000e+02,1.580000000000000000e+02,1.430000000000000000e+02,4.400000000000000000e+01,2.800000000000000000e+01,2.300000000000000000e+01,2.600000000000000000e+01,5.600000000000000533e-01,1.519247000000000000e+09
7.000000000000000000e+01,1.570000000000000000e+02,1.490000000000000000e+02,1.160000000000000000e+02,3.800000000000000000e+01,2.600000000000000000e+01,2.300000000000000000e+01,3.600000000000000000e+01,5.699999999999999512e-01,1.537318400000000000e+09
7.000000000000000000e+01,1.050000000000000000e+02,1.330000000000000000e+02,9.200000000000000000e+01,3.300000000000000000e+01,2.700000000000000000e+01,2.200000000000000000e+01,3.700000000000000000e+01,5.699999999999999512e-01,1.556692700000000000e+09
6.800000000000000000e+01,8.600000000000000000e+01,1.350000000000000000e+02,1.010000000000000000e+02,3.700000000000000000e+01,2.900000000000000000e+01,2.200000000000000000e+01,3.700000000000000000e+01,5.799999999999999600e-01,1.574286800000000000e+09
6.800000000000000000e+01,7.600000000000000000e+01,1.250000000000000000e+02,1.320000000000000000e+02,3.900000000000000000e+01,2.800000000000000000e+01,2.200000000000000000e+01,3.600000000000000000e+01,5.799999999999999600e-01,1.592584000000000000e+09
5.900000000000000000e+01,6.900000000000000000e+01,1.390000000000000000e+02,1.740000000000000000e+02,4.700000000000000000e+01,3.200000000000000000e+01,2.300000000000000000e+01,3.500000000000000000e+01,5.899999999999999689e-01,1.610613300000000000e+09
3.800000000000000000e+01,1.050000000000000000e+02,1.410000000000000000e+02,1.870000000000000000e+02,4.800000000000000000e+01,3.500000000000000000e+01,2.300000000000000000e+01,2.300000000000000000e+01,5.999999999999999778e-01,1.628856600000000000e+09
3.600000000000000000e+01,1.050000000000000000e+02,1.480000000000000000e+02,1.990000000000000000e+02,5.000000000000000000e+01,3.400000000000000000e+01,2.600000000000000000e+01,2.200000000000000000e+01,5.999999999999999778e-01,1.648277700000000000e+09
3.600000000000000000e+01,1.070000000000000000e+02,1.430000000000000000e+02,1.970000000000000000e+02,4.700000000000000000e+01,3.100000000000000000e+01,2.600000000000000000e+01,2.200000000000000000e+01,6.099999999999999867e-01,1.668341900000000000e+09
5.900000000000000000e+01,1.060000000000000000e+02,1.550000000000000000e+02,1.940000000000000000e+02,4.300000000000000000e+01,3.000000000000000000e+01,2.500000000000000000e+01,2.500000000000000000e+01,6.099999999999999867e-01,1.686650400000000000e+09
6.000000000000000000e+01,1.490000000000000000e+02,1.500000000000000000e+02,1.970000000000000000e+02,4.600000000000000000e+01,2.800000000000000000e+01,2.600000000000000000e+01,2.700000000000000000e+01,6.099999999999999867e-01,1.705222400000000000e+09
6.700000000000000000e+01,1.590000000000000000e+02,1.510000000000000000e+02,2.320000000000000000e+02,4.700000000000000000e+01,2.800000000000000000e+01,2.800000000000000000e+01,2.700000000000000000e+01,6.199999999999999956e-01,1.724145200000000000e+09
7.000000000000000000e+01,1.600000000000000000e+02,1.420000000000000000e+02,2.280000000000000000e+02,4.700000000000000000e+01,2.900000000000000000e+01,2.700000000000000000e+01,2.700000000000000000e+01,6.199999999999999956e-01,1.742957700000000000e+09
6.800000000000000000e+01,1.630000000000000000e+02,1.390000000000000000e+02,2.210000000000000000e+02,4.400000000000000000e+01,2.900000000000000000e+01,2.700000000000000000e+01,2.600000000000000000e+01,6.300000000000000044e-01,1.761779700000000000e+09
5.100000000000000000e+01,1.640000000000000000e+02,1.390000000000000000e+02,2.080000000000000000e+02,4.800000000000000000e+01,3.400000000000000000e+01,2.800000000000000000e+01,2.500000000000000000e+01,6.400000000000000133e-01,1.779917300000000000e+09
4.800000000000000000e+01,1.320000000000000000e+02,1.840000000000000000e+02,1.760000000000000000e+02,6.100000000000000000e+01,3.500000000000000000e+01,2.500000000000000000e+01,2.200000000000000000e+01,6.400000000000000133e-01,1.798636600000000000e+09
4.000000000000000000e+01,9.800000000000000000e+01,1.880000000000000000e+02,2.110000000000000000e+02,7.700000000000000000e+01,3.400000000000000000e+01,2.200000000000000000e+01,2.200000000000000000e+01,6.500000000000000222e-01,1.817412300000000000e+09
3.300000000000000000e+01,1.000000000000000000e+02,2.500000000000000000e+02,2.480000000000000000e+02,8.300000000000000000e+01,3.400000000000000000e+01,2.000000000000000000e+01,2.200000000000000000e+01,6.500000000000000222e-01,1.837613700000000000e+09
3.600000000000000000e+01,8.800000000000000000e+01,2.630000000000000000e+02,2.660000000000000000e+02,8.600000000000000000e+01,3.800000000000000000e+01,2.100000000000000000e+01,2.200000000000000000e+01,6.500000000000000222e-01,1.856335800000000000e+09
5.500000000000000000e+01,8.300000000000000000e+01,2.540000000000000000e+02,2.730000000000000000e+02,8.600000000000000000e+01,3.300000000000000000e+01,2.000000000000000000e+01,2.300000000000000000e+01,6.500000000000000222e-01,1.874614600000000000e+09
5.700000000000000000e+01,6.700000000000000000e+01,2.300000000000000000e+02,2.810000000000000000e+02,7.700000000000000000e+01,3.100000000000000000e+01,2.100000000000000000e+01,2.200000000000000000e+01,6.500000000000000222e-01,1.893330300000000000e+09
5.900000000000000000e+01,6.100000000000000000e+01,2.350000000000000000e+02,2.590000000000000000e+02,7.500000000000000000e+01,3.200000000000000000e+01,2.400000000000000000e+01,2.300000000000000000e+01,6.600000000000000311e-01,1.911380300000000000e+09
6.100000000000000000e+01,5.700000000000000000e+01,1.910000000000000000e+02,2.640000000000000000e+02,9.400000000000000000e+01,3.300000000000000000e+01,2.300000000000000000e+01,2.200000000000000000e+01,6.600000000000000311e-01,1.929024000000000000e+09
6.600000000000000000e+01,1.040000000000000000e+02,1.750000000000000000e+02,2.650000000000000000e+02,1.020000000000000000e+02,3.700000000000000000e+01,2.400000000000000000e+01,2.600000000000000000e+01,6.600000000000000311e-01,1.947784500000000000e+09
4.800000000000000000e+01,1.060000000000000000e+02,1.720000000000000000e+02,2.790000000000000000e+02,1.020000000000000000e+02,3.900000000000000000e+01,2.500000000000000000e+01,2.600000000000000000e+01,6.600000000000000311e-01,1.966466900000000000e+09
4.800000000000000000e+01,1.130000000000000000e+02,1.710000000000000000e+02,2.730000000000000000e+02,9.700000000000000000e+01,3.800000000000000000e+01,2.500000000000000000e+01,2.700000000000000000e+01,6.600000000000000311e-01,1.985570100000000000e+09
4.500000000000000000e+01,1.140000000000000000e+02,1.610000000000000000e+02,2.530000000000000000e+02,8.800000000000000000e+01,3.700000000000000000e+01,2.400000000000000000e+01,2.800000000000000000e+01,6.500000000000000222e-01,2.004934300000000000e+09
4.200000000000000000e+01,1.100000000000000000e+02,1.560000000000000000e+02,2.070000000000000000e+02,6.000000000000000000e+01,3.700000000000000000e+01,2.500000000000000000e+01,2.800000000000000000e+01,6.600000000000000311e-01,2.022980100000000000e+09
2.800000000000000000e+01,7.500000000000000000e+01,1.880000000000000000e+02,3.080000000000000000e+02,6.100000000000000000e+01,3.300000000000000000e+01,2.300000000000000000e+01,2.300000000000000000e+01,6.600000000000000311e-01,2.041330800000000000e+09
2.800000000000000000e+01,7.400000000000000000e+01,2.150000000000000000e+02,3.090000000000000000e+02,7.200000000000000000e+01,3.200000000000000000e+01,2.200000000000000000e+01,2.300000000000000000e+01,6.700000000000000400e-01,2.061309600000000000e+09
2.600000000000000000e+01,7.400000000000000000e+01,2.290000000000000000e+02,3.060000000000000000e+02,7.600000000000000000e+01,3.200000000000000000e+01,2.200000000000000000e+01,2.400000000000000000e+01,6.700000000000000400e-01,2.079080300000000000e+09
5.300000000000000000e+01,7.800000000000000000e+01,2.320000000000000000e+02,3.030000000000000000e+02,7.200000000000000000e+01,3.200000000000000000e+01,2.200000000000000000e+01,2.500000000000000000e+01,6.700000000000000400e-01,2.097893700000000000e+09
5.300000000000000000e+01,7.800000000000000000e+01,2.240000000000000000e+02,3.080000000000000000e+02,7.400000000000000000e+01,3.100000000000000000e+01,2.200000000000000000e+01,2.400000000000000000e+01,6.800000000000000488e-01,2.118395500000000000e+09
5.600000000000000000e+01,7.000000000000000000e+01,1.960000000000000000e+02,1.910000000000000000e+02,7.800000000000000000e+01,2.700000000000000000e+01,2.400000000000000000e+01,2.500000000000000000e+01,6.800000000000000488e-01,2.137273700000000000e+09
5.700000000000000000e+01,6.800000000000000000e+01,1.590000000000000000e+02,1.500000000000000000e+02,7.100000000000000000e+01,3.000000000000000000e+01,2.500000000000000000e+01,2.600000000000000000e+01,6.700000000000000400e-01,2.155641500000000000e+09
5.700000000000000000e+01,6.500000000000000000e+01,1.550000000000000000e+02,1.570000000000000000e+02,6.700000000000000000e+01,3.000000000000000000e+01,2.500000000000000000e+01,2.700000000000000000e+01,6.700000000000000400e-01,2.173762000000000000e+09
3.100000000000000000e+01,6.100000000000000000e+01,1.440000000000000000e+02,1.390000000000000000e+02,7.100000000000000000e+01,2.900000000000000000e+01,2.700000000000000000e+01,2.600000000000000000e+01,6.700000000000000400e-01,2.192070600000000000e+09
3.300000000000000000e+01,6.500000000000000000e+01,1.770000000000000000e+02,1.760000000000000000e+02,7.500000000000000000e+01,2.900000000000000000e+01,2.700000000000000000e+01,2.600000000000000000e+01,6.700000000000000400e-01,2.211029600000000000e+09
3.300000000000000000e+01,8.400000000000000000e+01,2.250000000000000000e+02,2.610000000000000000e+02,1.070000000000000000e+02,3.200000000000000000e+01,2.700000000000000000e+01,2.400000000000000000e+01,6.700000000000000400e-01,2.228938000000000000e+09
3.100000000000000000e+01,8.500000000000000000e+01,2.290000000000000000e+02,2.850000000000000000e+02,1.100000000000000000e+02,3.000000000000000000e+01,2.700000000000000000e+01,2.500000000000000000e+01,6.700000000000000400e-01,2.246931200000000000e+09
2.900000000000000000e+01,8.200000000000000000e+01,2.260000000000000000e+02,2.940000000000000000e+02,1.110000000000000000e+02,3.200000000000000000e+01,2.900000000000000000e+01,2.400000000000000000e+01,6.600000000000000311e-01,2.266068100000000000e+09
3.100000000000000000e+01,8.800000000000000000e+01,2.290000000000000000e+02,2.910000000000000000e+02,1.090000000000000000e+02,3.100000000000000000e+01,2.600000000000000000e+01,2.300000000000000000e+01,6.600000000000000311e-01,2.283685100000000000e+09
2.900000000000000000e+01,8.500000000000000000e+01,2.050000000000000000e+02,2.630000000000000000e+02,1.050000000000000000e+02,3.300000000000000000e+01,2.500000000000000000e+01,2.300000000000000000e+01,6.500000000000000222e-01,2.301661400000000000e+09
2.600000000000000000e+01,6.700000000000000000e+01,1.510000000000000000e+02,1.820000000000000000e+02,5.000000000000000000e+01,2.900000000000000000e+01,2.400000000000000000e+01,2.300000000000000000e+01,6.500000000000000222e-01,2.320924200000000000e+09
2.600000000000000000e+01,6.800000000000000000e+01,1.480000000000000000e+02,1.540000000000000000e+02,4.700000000000000000e+01,3.000000000000000000e+01,2.400000000000000000e+01,2.400000000000000000e+01,6.400000000000000133e-01,2.340906400000000000e+09
2.700000000000000000e+01,6.600000000000000000e+01,1.310000000000000000e+02,1.280000000000000000e+02,4.600000000000000000e+01,3.000000000000000000e+01,2.300000000000000000e+01,2.200000000000000000e+01,6.400000000000000133e-01,2.358375500000000000e+09
2.300000000000000000e+01,6.400000000000000000e+01,1.530000000000000000e+02,1.450000000000000000e+02,4.900000000000000000e+01,2.900000000000000000e+01,2.200000000000000000e+01,2.000000000000000000e+01,6.400000000000000133e-01,2.377292600000000000e+09
2.500000000000000000e+01,6.900000000000000000e+01,1.490000000000000000e+02,2.190000000000000000e+02,7.200000000000000000e+01,3.300000000000000000e+01,2.400000000000000000e+01,2.100000000000000000e+01,6.500000000000000222e-01,2.397006000000000000e+09
2.400000000000000000e+01,8.200000000000000000e+01,1.750000000000000000e+02,2.200000000000000000e+02,9.200000000000000000e+01,3.200000000000000000e+01,2.100000000000000000e+01,2.000000000000000000e+01,6.500000000000000222e-01,2.417240900000000000e+09
2.200000000000000000e+01,9.400000000000000000e+01,1.850000000000000000e+02,2.300000000000000000e+02,9.200000000000000000e+01,3.400000000000000000e+01,2.300000000000000000e+01,2.000000000000000000e+01,6.500000000000000222e-01,2.435450000000000000e+09
2.400000000000000000e+01,9.200000000000000000e+01,1.960000000000000000e+02,2.320000000000000000e+02,9.100000000000000000e+01,3.000000000000000000e+01,2.300000000000000000e+01,2.000000000000000000e+01,6.500000000000000222e-01,2.454931600000000000e+09
2.700000000000000000e+01,9.500000000000000000e+01,1.850000000000000000e+02,2.480000000000000000e+02,9.300000000000000000e+01,3.400000000000000000e+01,2.500000000000000000e+01,2.100000000000000000e+01,6.400000000000000133e-01,2.473708600000000000e+09
2.700000000000000000e+01,9.300000000000000000e+01,1.780000000000000000e+02,2.000000000000000000e+02,7.600000000000000000e+01,3.200000000000000000e+01,2.400000000000000000e+01,2.000000000000000000e+01,6.400000000000000133e-01,2.491979500000000000e+09
2.600000000000000000e+01,9.200000000000000000e+01,1.610000000000000000e+02,2.430000000000000000e+02,5.600000000000000000e+01,3.200000000000000000e+01,2.500000000000000000e+01,2.200000000000000000e+01,6.400000000000000133e-01,2.511575400000000000e+09
2.800000000000000000e+01,8.300000000000000000e+01,1.760000000000000000e+02,2.400000000000000000e+02,7.400000000000000000e+01,3.000000000000000000e+01,2.200000000000000000e+01,2.300000000000000000e+01,6.400000000000000133e-01,2.529661000000000000e+09
2.800000000000000000e+01,8.500000000000000000e+01,1.660000000000000000e+02,2.400000000000000000e+02,7.700000000000000000e+01,3.300000000000000000e+01,2.100000000000000000e+01,2.600000000000000000e+01,6.400000000000000133e-01,2.548400100000000000e+09
2.600000000000000000e+01,7.400000000000000000e+01,1.530000000000000000e+02,2.170000000000000000e+02,7.500000000000000000e+01,3.100000000000000000e+01,1.900000000000000000e+01,2.500000000000000000e+01,6.400000000000000133e-01,2.566493000000000000e+09
2.500000000000000000e+01,7.100000000000000000e+01,1.630000000000000000e+02,2.030000000000000000e+02,7.500000000000000000e+01,3.000000000000000000e+01,2.000000000000000000e+01,2.500000000000000000e+01,6.400000000000000133e-01,2.584322100000000000e+09
2.600000000000000000e+01,6.200000000000000000e+01,1.740000000000000000e+02,1.400000000000000000e+02,7.500000000000000000e+01,3.100000000000000000e+01,2.100000000000000000e+01,2.400000000000000000e+01,6.400000000000000133e-01,2.602908900000000000e+09
2.800000000000000000e+01,5.900000000000000000e+01,1.460000000000000000e+02,1.540000000000000000e+02,6.800000000000000000e+01,3.600000000000000000e+01,2.200000000000000000e+01,2.200000000000000000e+01,6.400000000000000133e-01,2.622455700000000000e+09
2.700000000000000000e+01,4.900000000000000000e+01,1.320000000000000000e+02,1.550000000000000000e+02,6.400000000000000000e+01,3.400000000000000000e+01,2.500000000000000000e+01,2.300000000000000000e+01,6.400000000000000133e-01,2.641272300000000000e+09
2.700000000000000000e+01,4.600000000000000000e+01,1.400000000000000000e+02,1.510000000000000000e+02,6.200000000000000000e+01,3.300000000000000000e+01,2.800000000000000000e+01,2.500000000000000000e+01,6.400000000000000133e-01,2.660133100000000000e+09
2.900000000000000000e+01,5.100000000000000000e+01,1.300000000000000000e+02,1.740000000000000000e+02,6.200000000000000000e+01,3.500000000000000000e+01,2.700000000000000000e+01,2.600000000000000000e+01,6.400000000000000133e-01,2.678912500000000000e+09
2.900000000000000000e+01,4.800000000000000000e+01,9.800000000000000000e+01,1.720000000000000000e+02,6.100000000000000000e+01,3.500000000000000000e+01,2.500000000000000000e+01,2.700000000000000000e+01,6.400000000000000133e-01,2.697695200000000000e+09
2.400000000000000000e+01,4.500000000000000000e+01,9.500000000000000000e+01,1.680000000000000000e+02,5.700000000000000000e+01,3.000000000000000000e+01,2.600000000000000000e+01,2.600000000000000000e+01,6.400000000000000133e-01,2.715035800000000000e+09
2.400000000000000000e+01,4.800000000000000000e+01,1.050000000000000000e+02,1.830000000000000000e+02,6.700000000000000000e+01,3.200000000000000000e+01,2.300000000000000000e+01,2.400000000000000000e+01,6.300000000000000044e-01,2.732563500000000000e+09
2.300000000000000000e+01,4.600000000000000000e+01,1.040000000000000000e+02,1.900000000000000000e+02,6.800000000000000000e+01,3.100000000000000000e+01,2.100000000000000000e+01,2.300000000000000000e+01,6.300000000000000044e-01,2.751637100000000000e+09
2.300000000000000000e+01,3.900000000000000000e+01,1.070000000000000000e+02,2.270000000000000000e+02,6.800000000000000000e+01,3.000000000000000000e+01,2.000000000000000000e+01,2.200000000000000000e+01,6.300000000000000044e-01,2.770033200000000000e+09
2.100000000000000000e+01,3.700000000000000000e+01,1.180000000000000000e+02,2.260000000000000000e+02,6.600000000000000000e+01,2.900000000000000000e+01,2.000000000000000000e+01,2.200000000000000000e+01,6.300000000000000044e-01,2.788464900000000000e+09
2.200000000000000000e+01,4.000000000000000000e+01,1.240000000000000000e+02,2.250000000000000000e+02,7.000000000000000000e+01,3.100000000000000000e+01,2.100000000000000000e+01,2.300000000000000000e+01,6.300000000000000044e-01,2.806935200000000000e+09
2.300000000000000000e+01,4.000000000000000000e+01,1.300000000000000000e+02,2.230000000000000000e+02,6.100000000000000000e+01,3.400000000000000000e+01,2.200000000000000000e+01,2.200000000000000000e+01,6.300000000000000044e-01,2.825015100000000000e+09
2.200000000000000000e+01,4.300000000000000000e+01,1.220000000000000000e+02,2.240000000000000000e+02,6.200000000000000000e+01,3.800000000000000000e+01,2.200000000000000000e+01,2.100000000000000000e+01,6.400000000000000133e-01,2.844328500000000000e+09
1.900000000000000000e+01,5.700000000000000000e+01,1.280000000000000000e+02,1.760000000000000000e+02,6.200000000000000000e+01,3.600000000000000000e+01,2.100000000000000000e+01,1.900000000000000000e+01,6.400000000000000133e-01,2.865088000000000000e+09
2.100000000000000000e+01,6.100000000000000000e+01,1.210000000000000000e+02,1.850000000000000000e+02,6.300000000000000000e+01,3.500000000000000000e+01,2.200000000000000000e+01,1.800000000000000000e+01,6.400000000000000133e-01,2.883383700000000000e+09
2.200000000000000000e+01,6.000000000000000000e+01,1.220000000000000000e+02,1.680000000000000000e+02,4.700000000000000000e+01,3.200000000000000000e+01,2.100000000000000000e+01,1.800000000000000000e+01,6.400000000000000133e-01,2.902073700000000000e+09
2.200000000000000000e+01,6.300000000000000000e+01,1.310000000000000000e+02,1.490000000000000000e+02,4.900000000000000000e+01,3.500000000000000000e+01,2.000000000000000000e+01,1.900000000000000000e+01,6.400000000000000133e-01,2.921599300000000000e+09
2.100000000000000000e+01,6.000000000000000000e+01,1.530000000000000000e+02,1.500000000000000000e+02,7.500000000000000000e+01,3.600000000000000000e+01,2.000000000000000000e+01,2.100000000000000000e+01,6.400000000000000133e-01,2.939655000000000000e+09
2.200000000000000000e+01,5.000000000000000000e+01,1.480000000000000000e+02,1.590000000000000000e+02,7.800000000000000000e+01,3.700000000000000000e+01,2.300000000000000000e+01,2.300000000000000000e+01,6.400000000000000133e-01,2.958057300000000000e+09
2.100000000000000000e+01,4.500000000000000000e+01,1.460000000000000000e+02,1.560000000000000000e+02,8.000000000000000000e+01,4.400000000000000000e+01,2.200000000000000000e+01,2.200000000000000000e+01,6.300000000000000044e-01,2.977515900000000000e+09
2.200000000000000000e+01,4.500000000000000000e+01,1.470000000000000000e+02,1.810000000000000000e+02,8.800000000000000000e+01,5.100000000000000000e+01,2.400000000000000000e+01,2.200000000000000000e+01,6.300000000000000044e-01,2.996994200000000000e+09
2.300000000000000000e+01,4.200000000000000000e+01,1.470000000000000000e+02,1.990000000000000000e+02,9.200000000000000000e+01,5.200000000000000000e+01,2.600000000000000000e+01,2.300000000000000000e+01,6.300000000000000044e-01,3.015885000000000000e+09
2.400000000000000000e+01,4.100000000000000000e+01,1.320000000000000000e+02,1.970000000000000000e+02,7.900000000000000000e+01,4.900000000000000000e+01,2.600000000000000000e+01,2.300000000000000000e+01,6.300000000000000044e-01,3.032924100000000000e+09
2.300000000000000000e+01,3.600000000000000000e+01,1.360000000000000000e+02,2.270000000000000000e+02,8.900000000000000000e+01,5.500000000000000000e+01,2.800000000000000000e+01,2.400000000000000000e+01,6.300000000000000044e-01,3.050288600000000000e+09
2.400000000000000000e+01,3.900000000000000000e+01,1.510000000000000000e+02,2.270000000000000000e+02,8.600000000000000000e+01,5.200000000000000000e+01,2.900000000000000000e+01,2.400000000000000000e+01,6.199999999999999956e-01,3.069497600000000000e+09
2.200000000000000000e+01,3.600000000000000000e+01,1.470000000000000000e+02,2.050000000000000000e+02,7.800000000000000000e+01,4.800000000000000000e+01,2.800000000000000000e+01,2.500000000000000000e+01,6.199999999999999956e-01,3.086568700000000000e+09
2.200000000000000000e+01,3.300000000000000000e+01,1.310000000000000000e+02,2.210000000000000000e+02,1.160000000000000000e+02,5.600000000000000000e+01,2.700000000000000000e+01,2.200000000000000000e+01,6.199999999999999956e-01,3.104592800000000000e+09
2.400000000000000000e+01,3.300000000000000000e+01,1.290000000000000000e+02,2.310000000000000000e+02,1.310000000000000000e+02,6.100000000000000000e+01,2.700000000000000000e+01,2.200000000000000000e+01,6.099999999999999867e-01,3.121218600000000000e+09
2.700000000000000000e+01,4.200000000000000000e+01,1.410000000000000000e+02,2.140000000000000000e+02,1.260000000000000000e+02,5.900000000000000000e+01,2.300000000000000000e+01,2.100000000000000000e+01,6.099999999999999867e-01,3.138401900000000000e+09
2.700000000000000000e+01,3.800000000000000000e+01,1.320000000000000000e+02,2.660000000000000000e+02,1.280000000000000000e+02,6.000000000000000000e+01,2.400000000000000000e+01,2.000000000000000000e+01,6.099999999999999867e-01,3.156343100000000000e+09
2.800000000000000000e+01,5.200000000000000000e+01,1.540000000000000000e+02,3.670000000000000000e+02,1.340000000000000000e+02,5.800000000000000000e+01,2.600000000000000000e+01,2.100000000000000000e+01,6.099999999999999867e-01,3.173728500000000000e+09
2.700000000000000000e+01,5.200000000000000000e+01,1.560000000000000000e+02,3.830000000000000000e+02,1.120000000000000000e+02,5.200000000000000000e+01,2.900000000000000000e+01,2.500000000000000000e+01,6.199999999999999956e-01,3.191393100000000000e+09
5.700000000000000000e+01,5.400000000000000000e+01,1.560000000000000000e+02,3.850000000000000000e+02,9.400000000000000000e+01,4.700000000000000000e+01,3.300000000000000000e+01,3.000000000000000000e+01,6.199999999999999956e-01,3.208224800000000000e+09
5.700000000000000000e+01,4.600000000000000000e+01,1.530000000000000000e+02,3.840000000000000000e+02,8.900000000000000000e+01,4.800000000000000000e+01,3.300000000000000000e+01,2.900000000000000000e+01,6.300000000000000044e-01,3.225156700000000000e+09
5.900000000000000000e+01,4.900000000000000000e+01,1.820000000000000000e+02,4.110000000000000000e+02,8.500000000000000000e+01,4.600000000000000000e+01,3.100000000000000000e+01,3.000000000000000000e+01,6.400000000000000133e-01,3.242520200000000000e+09
7.700000000000000000e+01,3.700000000000000000e+01,1.810000000000000000e+02,3.690000000000000000e+02,7.700000000000000000e+01,4.800000000000000000e+01,3.200000000000000000e+01,4.700000000000000000e+01,6.400000000000000133e-01,3.260342600000000000e+09
1.220000000000000000e+02,4.300000000000000000e+01,1.810000000000000000e+02,3.440000000000000000e+02,5.400000000000000000e+01,4.400000000000000000e+01,3.200000000000000000e+01,5.400000000000000000e+01,6.500000000000000222e-01,3.277897000000000000e+09
1.160000000000000000e+02,4.300000000000000000e+01,1.820000000000000000e+02,3.330000000000000000e+02,4.400000000000000000e+01,4.300000000000000000e+01,3.000000000000000000e+01,5.300000000000000000e+01,6.600000000000000311e-01,3.294579000000000000e+09
1.210000000000000000e+02,4.400000000000000000e+01,1.780000000000000000e+02,3.280000000000000000e+02,5.700000000000000000e+01,4.300000000000000000e+01,3.300000000000000000e+01,5.500000000000000000e+01,6.600000000000000311e-01,3.311472400000000000e+09
1.230000000000000000e+02,4.700000000000000000e+01,1.580000000000000000e+02,2.630000000000000000e+02,5.600000000000000000e+01,4.200000000000000000e+01,3.400000000000000000e+01,5.500000000000000000e+01,6.700000000000000400e-01,3.328121200000000000e+09
1.450000000000000000e+02,4.800000000000000000e+01,1.390000000000000000e+02,1.930000000000000000e+02,5.300000000000000000e+01,3.800000000000000000e+01,3.200000000000000000e+01,4.500000000000000000e+01,6.800000000000000488e-01,3.345084600000000000e+09
1.280000000000000000e+02,4.700000000000000000e+01,1.590000000000000000e+02,1.940000000000000000e+02,5.100000000000000000e+01,3.300000000000000000e+01,2.900000000000000000e+01,5.800000000000000000e+01,6.800000000000000488e-01,3.361672200000000000e+09
1.290000000000000000e+02,5.000000000000000000e+01,1.560000000000000000e+02,2.160000000000000000e+02,5.400000000000000000e+01,3.600000000000000000e+01,3.000000000000000000e+01,6.300000000000000000e+01,6.899999999999999467e-01,3.379664900000000000e+09
1.280000000000000000e+02,5.000000000000000000e+01,1.520000000000000000e+02,2.160000000000000000e+02,4.100000000000000000e+01,3.300000000000000000e+01,2.900000000000000000e+01,6.100000000000000000e+01,6.899999999999999467e-01,3.397216300000000000e+09
1.280000000000000000e+02,5.100000000000000000e+01,1.770000000000000000e+02,2.210000000000000000e+02,4.700000000000000000e+01,3.500000000000000000e+01,3.100000000000000000e+01,6.400000000000000000e+01,6.800000000000000488e-01,3.416351000000000000e+09
1.100000000000000000e+02,5.400000000000000000e+01,1.990000000000000000e+02,2.330000000000000000e+02,5.000000000000000000e+01,3.600000000000000000e+01,3.200000000000000000e+01,6.500000000000000000e+01,6.800000000000000488e-01,3.434648700000000000e+09
8.800000000000000000e+01,5.600000000000000000e+01,1.980000000000000000e+02,2.360000000000000000e+02,5.100000000000000000e+01,3.900000000000000000e+01,3.300000000000000000e+01,4.700000000000000000e+01,6.800000000000000488e-01,3.452641800000000000e+09
1.070000000000000000e+02,5.500000000000000000e+01,2.130000000000000000e+02,2.280000000000000000e+02,5.000000000000000000e+01,3.700000000000000000e+01,3.100000000000000000e+01,4.500000000000000000e+01,6.800000000000000488e-01,3.470451400000000000e+09
1.260000000000000000e+02,7.100000000000000000e+01,2.260000000000000000e+02,2.250000000000000000e+02,5.100000000000000000e+01,3.600000000000000000e+01,3.200000000000000000e+01,7.400000000000000000e+01,6.700000000000000400e-01,3.488620300000000000e+09
1.260000000000000000e+02,6.800000000000000000e+01,2.350000000000000000e+02,2.390000000000000000e+02,5.000000000000000000e+01,3.600000000000000000e+01,3.000000000000000000e+01,7.400000000000000000e+01,6.700000000000000400e-01,3.505726200000000000e+09
1.100000000000000000e+02,7.200000000000000000e+01,2.400000000000000000e+02,3.300000000000000000e+02,5.300000000000000000e+01,3.600000000000000000e+01,3.000000000000000000e+01,7.000000000000000000e+01,6.700000000000000400e-01,3.523053900000000000e+09
1.140000000000000000e+02,8.200000000000000000e+01,2.460000000000000000e+02,3.460000000000000000e+02,7.300000000000000000e+01,4.000000000000000000e+01,3.000000000000000000e+01,7.200000000000000000e+01,6.700000000000000400e-01,3.540816700000000000e+09
1.210000000000000000e+02,8.600000000000000000e+01,2.520000000000000000e+02,3.620000000000000000e+02,8.900000000000000000e+01,4.600000000000000000e+01,3.400000000000000000e+01,7.200000000000000000e+01,6.800000000000000488e-01,3.558979500000000000e+09
1.330000000000000000e+02,1.160000000000000000e+02,2.570000000000000000e+02,3.690000000000000000e+02,9.200000000000000000e+01,4.800000000000000000e+01,3.500000000000000000e+01,5.400000000000000000e+01,6.800000000000000488e-01,3.576444800000000000e+09
1.510000000000000000e+02,1.350000000000000000e+02,2.490000000000000000e+02,3.570000000000000000e+02,8.900000000000000000e+01,4.500000000000000000e+01,3.300000000000000000e+01,5.800000000000000000e+01,6.800000000000000488e-01,3.593224300000000000e+09
1.610000000000000000e+02,1.430000000000000000e+02,2.460000000000000000e+02,2.860000000000000000e+02,9.300000000000000000e+01,4.700000000000000000e+01,3.500000000000000000e+01,1.410000000000000000e+02,6.800000000000000488e-01,3.609659900000000000e+09
1.680000000000000000e+02,1.490000000000000000e+02,2.540000000000000000e+02,2.590000000000000000e+02,7.900000000000000000e+01,4.300000000000000000e+01,3.400000000000000000e+01,1.440000000000000000e+02,6.800000000000000488e-01,3.626837900000000000e+09
1.550000000000000000e+02,1.500000000000000000e+02,2.440000000000000000e+02,2.350000000000000000e+02,6.100000000000000000e+01,3.700000000000000000e+01,2.900000000000000000e+01,1.460000000000000000e+02,6.800000000000000488e-01,3.643547800000000000e+09
1.650000000000000000e+02,1.270000000000000000e+02,2.590000000000000000e+02,2.650000000000000000e+02,5.800000000000000000e+01,3.600000000000000000e+01,2.800000000000000000e+01,1.520000000000000000e+02,6.800000000000000488e-01,3.660934100000000000e+09
1.700000000000000000e+02,1.460000000000000000e+02,2.440000000000000000e+02,2.670000000000000000e+02,5.800000000000000000e+01,4.000000000000000000e+01,2.900000000000000000e+01,1.560000000000000000e+02,6.800000000000000488e-01,3.679470000000000000e+09
1.660000000000000000e+02,1.520000000000000000e+02,2.470000000000000000e+02,2.460000000000000000e+02,4.700000000000000000e+01,3.700000000000000000e+01,2.900000000000000000e+01,1.400000000000000000e+02,6.800000000000000488e-01,3.697473600000000000e+09
1.640000000000000000e+02,1.530000000000000000e+02,2.250000000000000000e+02,2.570000000000000000e+02,4.700000000000000000e+01,3.900000000000000000e+01,3.100000000000000000e+01,1.450000000000000000e+02,6.800000000000000488e-01,3.715844000000000000e+09
1.660000000000000000e+02,1.680000000000000000e+02,2.510000000000000000e+02,4.130000000000000000e+02,4.500000000000000000e+01,3.900000000000000000e+01,3.400000000000000000e+01,1.640000000000000000e+02,6.800000000000000488e-01,3.733475000000000000e+09
1.400000000000000000e+02,1.800000000000000000e+02,2.740000000000000000e+02,4.170000000000000000e+02,4.800000000000000000e+01,3.800000000000000000e+01,3.300000000000000000e+01,1.650000000000000000e+02,6.800000000000000488e-01,3.750420100000000000e+09
1.220000000000000000e+02,1.600000000000000000e+02,3.370000000000000000e+02,4.410000000000000000e+02,4.800000000000000000e+01,3.500000000000000000e+01,3.600000000000000000e+01,1.610000000000000000e+02,6.800000000000000488e-01,3.769387800000000000e+09
1.240000000000000000e+02,1.540000000000000000e+02,3.660000000000000000e+02,4.610000000000000000e+02,4.800000000000000000e+01,3.600000000000000000e+01,3.400000000000000000e+01,1.310000000000000000e+02,6.800000000000000488e-01,3.786532300000000000e+09
1.360000000000000000e+02,1.840000000000000000e+02,4.220000000000000000e+02,5.350000000000000000e+02,6.200000000000000000e+01,3.800000000000000000e+01,3.500000000000000000e+01,1.640000000000000000e+02,6.800000000000000488e-01,3.803665600000000000e+09
1.280000000000000000e+02,1.790000000000000000e+02,4.320000000000000000e+02,4.310000000000000000e+02,6.300000000000000000e+01,3.600000000000000000e+01,3.700000000000000000e+01,1.540000000000000000e+02,6.899999999999999467e-01,3.820146300000000000e+09
1.240000000000000000e+02,1.720000000000000000e+02,4.320000000000000000e+02,4.320000000000000000e+02,6.000000000000000000e+01,4.100000000000000000e+01,3.900000000000000000e+01,1.500000000000000000e+02,6.899999999999999467e-01,3.837200700000000000e+09
1.310000000000000000e+02,1.640000000000000000e+02,3.910000000000000000e+02,4.670000000000000000e+02,6.100000000000000000e+01,4.000000000000000000e+01,3.700000000000000000e+01,1.560000000000000000e+02,6.999999999999999556e-01,3.853690400000000000e+09
1.410000000000000000e+02,1.610000000000000000e+02,3.750000000000000000e+02,4.680000000000000000e+02,6.500000000000000000e+01,4.500000000000000000e+01,4.100000000000000000e+01,1.510000000000000000e+02,6.999999999999999556e-01,3.872227100000000000e+09
1.510000000000000000e+02,1.250000000000000000e+02,3.410000000000000000e+02,3.830000000000000000e+02,6.800000000000000000e+01,4.800000000000000000e+01,3.800000000000000000e+01,1.670000000000000000e+02,7.099999999999999645e-01,3.889925900000000000e+09
1.580000000000000000e+02,1.140000000000000000e+02,3.590000000000000000e+02,4.150000000000000000e+02,7.000000000000000000e+01,5.200000000000000000e+01,4.000000000000000000e+01,1.580000000000000000e+02,7.099999999999999645e-01,3.908228800000000000e+09
1.590000000000000000e+02,1.050000000000000000e+02,3.320000000000000000e+02,4.090000000000000000e+02,6.800000000000000000e+01,5.100000000000000000e+01,4.100000000000000000e+01,1.570000000000000000e+02,7.199999999999999734e-01,3.925042500000000000e+09
1.580000000000000000e+02,1.210000000000000000e+02,3.300000000000000000e+02,3.770000000000000000e+02,6.800000000000000000e+01,5.300000000000000000e+01,4.200000000000000000e+01,1.510000000000000000e+02,7.099999999999999645e-01,3.942248200000000000e+09
1.630000000000000000e+02,1.240000000000000000e+02,3.030000000000000000e+02,3.780000000000000000e+02,6.400000000000000000e+01,4.800000000000000000e+01,3.900000000000000000e+01,1.510000000000000000e+02,7.099999999999999645e-01,3.961048000000000000e+09
1.320000000000000000e+02,1.450000000000000000e+02,2.980000000000000000e+02,4.250000000000000000e+02,4.900000000000000000e+01,4.200000000000000000e+01,3.800000000000000000e+01,7.000000000000000000e+01,7.199999999999999734e-01,3.978373900000000000e+09
1.360000000000000000e+02,1.450000000000000000e+02,2.640000000000000000e+02,4.200000000000000000e+02,4.400000000000000000e+01,4.100000000000000000e+01,3.800000000000000000e+01,6.800000000000000000e+01,7.199999999999999734e-01,3.994992400000000000e+09
1.390000000000000000e+02,1.500000000000000000e+02,2.500000000000000000e+02,4.590000000000000000e+02,4.900000000000000000e+01,3.900000000000000000e+01,3.300000000000000000e+01,7.000000000000000000e+01,7.199999999999999734e-01,4.012258000000000000e+09
1.280000000000000000e+02,1.550000000000000000e+02,2.410000000000000000e+02,4.300000000000000000e+02,4.800000000000000000e+01,3.700000000000000000e+01,3.000000000000000000e+01,7.200000000000000000e+01,7.299999999999999822e-01,4.031071700000000000e+09
1.160000000000000000e+02,1.490000000000000000e+02,2.360000000000000000e+02,4.040000000000000000e+02,4.800000000000000000e+01,3.600000000000000000e+01,3.000000000000000000e+01,7.300000000000000000e+01,7.299999999999999822e-01,4.048488400000000000e+09
1.230000000000000000e+02,1.190000000000000000e+02,2.020000000000000000e+02,3.530000000000000000e+02,5.000000000000000000e+01,3.800000000000000000e+01,3.200000000000000000e+01,7.700000000000000000e+01,7.399999999999999911e-01,4.065396400000000000e+09
1.400000000000000000e+02,1.140000000000000000e+02,1.500000000000000000e+02,3.440000000000000000e+02,6.200000000000000000e+01,3.400000000000000000e+01,2.900000000000000000e+01,1.560000000000000000e+02,7.399999999999999911e-01,4.083031200000000000e+09
1.370000000000000000e+02,1.700000000000000000e+02,1.910000000000000000e+02,3.290000000000000000e+02,6.300000000000000000e+01,3.200000000000000000e+01,2.900000000000000000e+01,1.540000000000000000e+02,7.399999999999999911e-01,4.101313000000000000e+09
1.370000000000000000e+02,1.780000000000000000e+02,2.260000000000000000e+02,4.390000000000000000e+02,6.200000000000000000e+01,3.300000000000000000e+01,2.800000000000000000e+01,1.560000000000000000e+02,7.399999999999999911e-01,4.119165200000000000e+09
1.250000000000000000e+02,1.870000000000000000e+02,2.830000000000000000e+02,4.580000000000000000e+02,6.600000000000000000e+01,3.600000000000000000e+01,3.100000000000000000e+01,1.580000000000000000e+02,7.399999999999999911e-01,4.136597000000000000e+09
1.230000000000000000e+02,1.960000000000000000e+02,3.850000000000000000e+02,5.060000000000000000e+02,8.000000000000000000e+01,4.200000000000000000e+01,3.200000000000000000e+01,1.600000000000000000e+02,7.399999999999999911e-01,4.154920300000000000e+09
1.580000000000000000e+02,2.010000000000000000e+02,4.030000000000000000e+02,5.440000000000000000e+02,8.100000000000000000e+01,4.700000000000000000e+01,3.300000000000000000e+01,1.140000000000000000e+02,7.500000000000000000e-01,4.172876500000000000e+09
1.520000000000000000e+02,1.530000000000000000e+02,3.840000000000000000e+02,5.110000000000000000e+02,7.900000000000000000e+01,4.700000000000000000e+01,3.200000000000000000e+01,1.540000000000000000e+02,7.399999999999999911e-01,4.190386000000000000e+09
1.590000000000000000e+02,1.250000000000000000e+02,3.670000000000000000e+02,4.400000000000000000e+02,8.200000000000000000e+01,4.900000000000000000e+01,3.600000000000000000e+01,1.770000000000000000e+02,7.399999999999999911e-01,4.208862600000000000e+09
1.730000000000000000e+02,1.490000000000000000e+02,3.620000000000000000e+02,4.740000000000000000e+02,8.100000000000000000e+01,4.800000000000000000e+01,3.500000000000000000e+01,1.820000000000000000e+02,7.299999999999999822e-01,4.225878800000000000e+09
1.850000000000000000e+02,1.500000000000000000e+02,3.140000000000000000e+02,4.770000000000000000e+02,6.900000000000000000e+01,4.400000000000000000e+01,3.200000000000000000e+01,1.810000000000000000e+02,7.299999999999999822e-01,4.242727900000000000e+09
1.490000000000000000e+02,1.440000000000000000e+02,3.030000000000000000e+02,4.130000000000000000e+02,6.000000000000000000e+01,4.100000000000000000e+01,3.000000000000000000e+01,1.860000000000000000e+02,7.299999999999999822e-01,4.261303100000000000e+09
1.500000000000000000e+02,1.700000000000000000e+02,3.040000000000000000e+02,4.600000000000000000e+02,6.100000000000000000e+01,4.100000000000000000e+01,3.200000000000000000e+01,1.620000000000000000e+02,7.199999999999999734e-01,4.278780900000000000e+09
1.400000000000000000e+02,1.690000000000000000e+02,3.090000000000000000e+02,4.680000000000000000e+02,5.600000000000000000e+01,3.800000000000000000e+01,3.100000000000000000e+01,1.580000000000000000e+02,7.299999999999999822e-01,4.296741600000000000e+09
1.250000000000000000e+02,1.570000000000000000e+02,2.980000000000000000e+02,4.300000000000000000e+02,6.900000000000000000e+01,4.900000000000000000e+01,3.700000000000000000e+01,1.560000000000000000e+02,7.299999999999999822e-01,4.313646500000000000e+09
1.020000000000000000e+02,1.420000000000000000e+02,2.250000000000000000e+02,3.740000000000000000e+02,6.400000000000000000e+01,4.800000000000000000e+01,3.800000000000000000e+01,1.580000000000000000e+02,7.299999999999999822e-01,4.331700100000000000e+09
1.190000000000000000e+02,1.440000000000000000e+02,2.020000000000000000e+02,3.720000000000000000e+02,6.100000000000000000e+01,4.500000000000000000e+01,3.700000000000000000e+01,1.350000000000000000e+02,7.299999999999999822e-01,4.348764600000000000e+09
1.240000000000000000e+02,1.360000000000000000e+02,2.710000000000000000e+02,5.340000000000000000e+02,7.300000000000000000e+01,4.900000000000000000e+01,3.600000000000000000e+01,1.240000000000000000e+02,7.299999999999999822e-01,4.367462800000000000e+09
1.310000000000000000e+02,1.420000000000000000e+02,3.120000000000000000e+02,5.090000000000000000e+02,8.000000000000000000e+01,5.300000000000000000e+01,3.400000000000000000e+01,1.050000000000000000e+02,7.299999999999999822e-01,4.384591500000000000e+09
1.450000000000000000e+02,1.530000000000000000e+02,3.250000000000000000e+02,5.060000000000000000e+02,7.300000000000000000e+01,4.600000000000000000e+01,2.900000000000000000e+01,1.250000000000000000e+02,7.299999999999999822e-01,4.402333900000000000e+09
1.520000000000000000e+02,1.950000000000000000e+02,3.320000000000000000e+02,5.040000000000000000e+02,7.300000000000000000e+01,4.500000000000000000e+01,3.100000000000000000e+01,1.270000000000000000e+02,7.399999999999999911e-01,4.420053400000000000e+09
1.250000000000000000e+02,1.990000000000000000e+02,3.530000000000000000e+02,5.160000000000000000e+02,7.700000000000000000e+01,4.700000000000000000e+01,3.100000000000000000e+01,1.320000000000000000e+02,7.399999999999999911e-01,4.438135000000000000e+09
1.200000000000000000e+02,1.830000000000000000e+02,2.990000000000000000e+02,2.840000000000000000e+02,6.300000000000000000e+01,4.300000000000000000e+01,3.100000000000000000e+01,1.380000000000000000e+02,7.299999999999999822e-01,4.456273900000000000e+09
1.120000000000000000e+02,1.820000000000000000e+02,2.670000000000000000e+02,2.830000000000000000e+02,5.600000000000000000e+01,3.900000000000000000e+01,2.900000000000000000e+01,1.230000000000000000e+02,7.299999999999999822e-01,4.474715700000000000e+09
1.010000000000000000e+02,1.630000000000000000e+02,3.330000000000000000e+02,3.500000000000000000e+02,5.700000000000000000e+01,3.500000000000000000e+01,2.500000000000000000e+01,9.300000000000000000e+01,7.399999999999999911e-01,4.492005500000000000e+09
1.570000000000000000e+02,1.170000000000000000e+02,3.340000000000000000e+02,3.860000000000000000e+02,6.000000000000000000e+01,3.700000000000000000e+01,2.500000000000000000e+01,1.350000000000000000e+02,7.299999999999999822e-01,4.510740100000000000e+09
1.640000000000000000e+02,1.280000000000000000e+02,3.500000000000000000e+02,4.010000000000000000e+02,6.600000000000000000e+01,3.900000000000000000e+01,2.600000000000000000e+01,1.310000000000000000e+02,7.299999999999999822e-01,4.531278800000000000e+09
1.710000000000000000e+02,1.490000000000000000e+02,3.740000000000000000e+02,3.940000000000000000e+02,6.800000000000000000e+01,4.000000000000000000e+01,2.800000000000000000e+01,1.250000000000000000e+02,7.299999999999999822e-01,4.549702600000000000e+09
1.690000000000000000e+02,1.470000000000000000e+02,3.610000000000000000e+02,4.000000000000000000e+02,7.300000000000000000e+01,4.100000000000000000e+01,3.100000000000000000e+01,1.250000000000000000e+02,7.299999999999999822e-01,4.568639900000000000e+09
1.660000000000000000e+02,1.450000000000000000e+02,2.540000000000000000e+02,3.350000000000000000e+02,9.900000000000000000e+01,4.700000000000000000e+01,3.300000000000000000e+01,1.240000000000000000e+02,7.299999999999999822e-01,4.588655400000000000e+09
1.070000000000000000e+02,1.440000000000000000e+02,2.420000000000000000e+02,2.670000000000000000e+02,1.160000000000000000e+02,6.500000000000000000e+01,3.900000000000000000e+01,6.800000000000000000e+01,7.199999999999999734e-01,4.608579800000000000e+09
8.400000000000000000e+01,1.250000000000000000e+02,1.910000000000000000e+02,3.160000000000000000e+02,1.360000000000000000e+02,6.800000000000000000e+01,4.500000000000000000e+01,5.700000000000000000e+01,7.099999999999999645e-01,4.626802200000000000e+09
6.500000000000000000e+01,1.190000000000000000e+02,1.870000000000000000e+02,3.100000000000000000e+02,1.440000000000000000e+02,7.100000000000000000e+01,4.600000000000000000e+01,4.700000000000000000e+01,6.999999999999999556e-01,4.644654200000000000e+09
6.500000000000000000e+01,1.170000000000000000e+02,2.340000000000000000e+02,3.230000000000000000e+02,1.640000000000000000e+02,7.300000000000000000e+01,4.600000000000000000e+01,4.300000000000000000e+01,6.899999999999999467e-01,4.664192500000000000e+09
7.800000000000000000e+01,2.100000000000000000e+02,2.950000000000000000e+02,4.340000000000000000e+02,2.860000000000000000e+02,8.200000000000000000e+01,4.700000000000000000e+01,4.400000000000000000e+01,6.700000000000000400e-01,4.682307500000000000e+09
9.300000000000000000e+01,3.340000000000000000e+02,3.720000000000000000e+02,4.620000000000000000e+02,2.930000000000000000e+02,7.900000000000000000e+01,4.800000000000000000e+01,4.400000000000000000e+01,6.500000000000000222e-01,4.702076600000000000e+09
9.700000000000000000e+01,3.510000000000000000e+02,3.820000000000000000e+02,4.420000000000000000e+02,3.100000000000000000e+02,8.100000000000000000e+01,4.700000000000000000e+01,4.800000000000000000e+01,6.300000000000000044e-01,4.720527100000000000e+09
9.500000000000000000e+01,3.510000000000000000e+02,3.840000000000000000e+02,4.650000000000000000e+02,3.160000000000000000e+02,7.900000000000000000e+01,4.600000000000000000e+01,4.900000000000000000e+01,5.999999999999999778e-01,4.742862500000000000e+09
9.700000000000000000e+01,3.590000000000000000e+02,3.620000000000000000e+02,4.630000000000000000e+02,3.130000000000000000e+02,7.800000000000000000e+01,4.800000000000000000e+01,5.000000000000000000e+01,5.699999999999999512e-01,4.761276600000000000e+09
8.900000000000000000e+01,3.120000000000000000e+02,3.230000000000000000e+02,4.350000000000000000e+02,2.710000000000000000e+02,8.000000000000000000e+01,5.500000000000000000e+01,4.900000000000000000e+01,5.500000000000000444e-01,4.779543700000000000e+09
7.100000000000000000e+01,1.750000000000000000e+02,2.530000000000000000e+02,4.390000000000000000e+02,2.950000000000000000e+02,1.030000000000000000e+02,5.300000000000000000e+01,4.000000000000000000e+01,5.300000000000000266e-01,4.798282700000000000e+09
8.100000000000000000e+01,1.780000000000000000e+02,3.300000000000000000e+02,4.450000000000000000e+02,3.650000000000000000e+02,1.410000000000000000e+02,6.500000000000000000e+01,5.100000000000000000e+01,5.000000000000000000e-01,4.820751900000000000e+09
8.900000000000000000e+01,1.820000000000000000e+02,3.200000000000000000e+02,5.110000000000000000e+02,3.780000000000000000e+02,1.590000000000000000e+02,6.900000000000000000e+01,5.400000000000000000e+01,4.799999999999999822e-01,4.842891600000000000e+09
9.000000000000000000e+01,1.760000000000000000e+02,3.130000000000000000e+02,5.510000000000000000e+02,4.000000000000000000e+02,1.950000000000000000e+02,8.200000000000000000e+01,6.000000000000000000e+01,4.600000000000000200e-01,4.862699100000000000e+09
8.600000000000000000e+01,2.020000000000000000e+02,3.290000000000000000e+02,5.160000000000000000e+02,3.640000000000000000e+02,1.950000000000000000e+02,8.000000000000000000e+01,6.000000000000000000e+01,4.500000000000000111e-01,4.881055800000000000e+09
8.600000000000000000e+01,2.390000000000000000e+02,3.220000000000000000e+02,5.130000000000000000e+02,3.400000000000000000e+02,1.860000000000000000e+02,8.200000000000000000e+01,6.300000000000000000e+01,4.299999999999999933e-01,4.899349700000000000e+09
7.400000000000000000e+01,2.150000000000000000e+02,2.410000000000000000e+02,5.120000000000000000e+02,3.310000000000000000e+02,1.840000000000000000e+02,7.700000000000000000e+01,5.700000000000000000e+01,4.199999999999999845e-01,4.920316700000000000e+09
9.900000000000000000e+01,2.100000000000000000e+02,3.580000000000000000e+02,5.060000000000000000e+02,3.230000000000000000e+02,1.770000000000000000e+02,8.000000000000000000e+01,5.900000000000000000e+01,4.199999999999999845e-01,4.943161200000000000e+09
1.290000000000000000e+02,2.070000000000000000e+02,4.000000000000000000e+02,4.800000000000000000e+02,3.020000000000000000e+02,1.410000000000000000e+02,7.800000000000000000e+01,6.600000000000000000e+01,4.099999999999999756e-01,4.961983800000000000e+09
1.320000000000000000e+02,2.040000000000000000e+02,4.050000000000000000e+02,4.950000000000000000e+02,3.180000000000000000e+02,1.400000000000000000e+02,7.400000000000000000e+01,6.500000000000000000e+01,4.099999999999999756e-01,4.980652700000000000e+09
1.440000000000000000e+02,1.840000000000000000e+02,4.260000000000000000e+02,5.650000000000000000e+02,3.210000000000000000e+02,1.400000000000000000e+02,7.300000000000000000e+01,6.700000000000000000e+01,4.099999999999999756e-01,4.998850000000000000e+09
1.480000000000000000e+02,2.600000000000000000e+02,4.500000000000000000e+02,5.570000000000000000e+02,2.540000000000000000e+02,1.060000000000000000e+02,7.000000000000000000e+01,6.800000000000000000e+01,4.000000000000000222e-01,5.020401600000000000e+09
1.450000000000000000e+02,3.040000000000000000e+02,4.070000000000000000e+02,5.650000000000000000e+02,3.200000000000000000e+02,1.030000000000000000e+02,6.900000000000000000e+01,6.500000000000000000e+01,3.900000000000000133e-01,5.042522000000000000e+09
1.210000000000000000e+02,3.090000000000000000e+02,4.070000000000000000e+02,5.790000000000000000e+02,3.660000000000000000e+02,1.290000000000000000e+02,7.100000000000000000e+01,5.600000000000000000e+01,3.800000000000000044e-01,5.061552200000000000e+09
1.210000000000000000e+02,2.970000000000000000e+02,4.360000000000000000e+02,5.580000000000000000e+02,3.730000000000000000e+02,1.270000000000000000e+02,7.900000000000000000e+01,6.500000000000000000e+01,3.699999999999999956e-01,5.081415500000000000e+09
1.120000000000000000e+02,2.910000000000000000e+02,4.550000000000000000e+02,5.310000000000000000e+02,3.840000000000000000e+02,1.260000000000000000e+02,9.000000000000000000e+01,6.900000000000000000e+01,3.599999999999999867e-01,5.099383300000000000e+09
1.230000000000000000e+02,2.670000000000000000e+02,4.410000000000000000e+02,6.110000000000000000e+02,4.440000000000000000e+02,1.410000000000000000e+02,8.700000000000000000e+01,6.400000000000000000e+01,3.499999999999999778e-01,5.122308500000000000e+09
1.060000000000000000e+02,2.200000000000000000e+02,4.470000000000000000e+02,6.180000000000000000e+02,4.710000000000000000e+02,1.730000000000000000e+02,8.400000000000000000e+01,6.400000000000000000e+01,3.400000000000000244e-01,5.139994000000000000e+09
1.090000000000000000e+02,2.320000000000000000e+02,4.070000000000000000e+02,5.800000000000000000e+02,4.410000000000000000e+02,1.700000000000000000e+02,8.300000000000000000e+01,6.500000000000000000e+01,3.300000000000000155e-01,5.158801500000000000e+09
1.240000000000000000e+02,2.920000000000000000e+02,3.740000000000000000e+02,6.570000000000000000e+02,4.880000000000000000e+02,1.830000000000000000e+02,8.300000000000000000e+01,6.200000000000000000e+01,3.200000000000000067e-01,5.179290600000000000e+09
1.200000000000000000e+02,3.030000000000000000e+02,3.570000000000000000e+02,6.220000000000000000e+02,4.890000000000000000e+02,1.840000000000000000e+02,7.100000000000000000e+01,5.400000000000000000e+01,3.099999999999999978e-01,5.201013900000000000e+09
1.160000000000000000e+02,2.980000000000000000e+02,3.410000000000000000e+02,6.460000000000000000e+02,5.450000000000000000e+02,2.330000000000000000e+02,8.600000000000000000e+01,6.700000000000000000e+01,2.999999999999999889e-01,5.223367100000000000e+09
1.220000000000000000e+02,3.200000000000000000e+02,2.610000000000000000e+02,5.790000000000000000e+02,4.910000000000000000e+02,2.110000000000000000e+02,9.200000000000000000e+01,6.900000000000000000e+01,2.899999999999999800e-01,5.240944600000000000e+09
1.230000000000000000e+02,3.340000000000000000e+02,2.800000000000000000e+02,5.830000000000000000e+02,4.850000000000000000e+02,1.970000000000000000e+02,8.400000000000000000e+01,6.500000000000000000e+01,2.800000000000000266e-01,5.260001400000000000e+09
1.430000000000000000e+02,3.600000000000000000e+02,3.150000000000000000e+02,7.180000000000000000e+02,4.810000000000000000e+02,1.920000000000000000e+02,8.500000000000000000e+01,7.100000000000000000e+01,2.800000000000000266e-01,5.279615600000000000e+09
1.640000000000000000e+02,4.270000000000000000e+02,2.840000000000000000e+02,7.370000000000000000e+02,4.850000000000000000e+02,1.940000000000000000e+02,9.200000000000000000e+01,7.900000000000000000e+01,2.700000000000000178e-01,5.302317900000000000e+09
1.670000000000000000e+02,4.700000000000000000e+02,3.290000000000000000e+02,7.400000000000000000e+02,3.910000000000000000e+02,1.180000000000000000e+02,8.200000000000000000e+01,7.700000000000000000e+01,2.700000000000000178e-01,5.320481400000000000e+09
1.640000000000000000e+02,4.810000000000000000e+02,3.690000000000000000e+02,8.080000000000000000e+02,4.460000000000000000e+02,1.170000000000000000e+02,8.100000000000000000e+01,8.000000000000000000e+01,2.700000000000000178e-01,5.338597000000000000e+09
1.650000000000000000e+02,4.760000000000000000e+02,3.720000000000000000e+02,8.420000000000000000e+02,4.960000000000000000e+02,1.230000000000000000e+02,9.000000000000000000e+01,8.100000000000000000e+01,2.700000000000000178e-01,5.358650900000000000e+09
1.450000000000000000e+02,5.060000000000000000e+02,3.650000000000000000e+02,7.530000000000000000e+02,4.520000000000000000e+02,1.140000000000000000e+02,8.600000000000000000e+01,7.300000000000000000e+01,2.600000000000000089e-01,5.381414300000000000e+09
1.920000000000000000e+02,5.470000000000000000e+02,3.990000000000000000e+02,8.500000000000000000e+02,5.430000000000000000e+02,1.760000000000000000e+02,1.230000000000000000e+02,1.140000000000000000e+02,2.500000000000000000e-01,5.403371800000000000e+09
1.980000000000000000e+02,5.330000000000000000e+02,3.850000000000000000e+02,8.040000000000000000e+02,5.200000000000000000e+02,1.920000000000000000e+02,1.330000000000000000e+02,1.170000000000000000e+02,2.500000000000000000e-01,5.422534400000000000e+09
2.020000000000000000e+02,5.370000000000000000e+02,3.520000000000000000e+02,7.240000000000000000e+02,4.610000000000000000e+02,1.910000000000000000e+02,1.340000000000000000e+02,1.180000000000000000e+02,2.500000000000000000e-01,5.442123100000000000e+09
1.970000000000000000e+02,5.370000000000000000e+02,3.560000000000000000e+02,7.350000000000000000e+02,4.610000000000000000e+02,2.210000000000000000e+02,1.350000000000000000e+02,1.200000000000000000e+02,2.399999999999999911e-01,5.461138400000000000e+09
1.990000000000000000e+02,4.610000000000000000e+02,3.340000000000000000e+02,6.600000000000000000e+02,4.930000000000000000e+02,2.480000000000000000e+02,1.370000000000000000e+02,1.250000000000000000e+02,2.399999999999999911e-01,5.479167700000000000e+09
1.360000000000000000e+02,3.310000000000000000e+02,4.100000000000000000e+02,6.390000000000000000e+02,4.520000000000000000e+02,2.250000000000000000e+02,1.050000000000000000e+02,8.600000000000000000e+01,2.399999999999999911e-01,5.501363600000000000e+09
1.190000000000000000e+02,2.940000000000000000e+02,3.940000000000000000e+02,6.370000000000000000e+02,5.130000000000000000e+02,2.340000000000000000e+02,1.030000000000000000e+02,7.900000000000000000e+01,2.300000000000000100e-01,5.519794000000000000e+09
1.360000000000000000e+02,3.030000000000000000e+02,4.890000000000000000e+02,6.680000000000000000e+02,5.310000000000000000e+02,2.430000000000000000e+02,1.030000000000000000e+02,7.700000000000000000e+01,2.300000000000000100e-01,5.538248500000000000e+09
1.540000000000000000e+02,3.070000000000000000e+02,5.280000000000000000e+02,6.360000000000000000e+02,4.870000000000000000e+02,2.380000000000000000e+02,9.600000000000000000e+01,8.300000000000000000e+01,2.200000000000000011e-01,5.556962000000000000e+09
1.450000000000000000e+02,3.060000000000000000e+02,5.250000000000000000e+02,6.190000000000000000e+02,4.500000000000000000e+02,2.300000000000000000e+02,9.500000000000000000e+01,7.700000000000000000e+01,2.099999999999999922e-01,5.578913000000000000e+09
1.440000000000000000e+02,3.430000000000000000e+02,4.410000000000000000e+02,5.200000000000000000e+02,3.800000000000000000e+02,2.260000000000000000e+02,1.050000000000000000e+02,7.800000000000000000e+01,2.099999999999999922e-01,5.601164400000000000e+09
1.440000000000000000e+02,3.870000000000000000e+02,4.320000000000000000e+02,4.680000000000000000e+02,2.730000000000000000e+02,2.000000000000000000e+02,1.050000000000000000e+02,7.500000000000000000e+01,2.099999999999999922e-01,5.619826300000000000e+09
1.230000000000000000e+02,3.600000000000000000e+02,3.270000000000000000e+02,4.380000000000000000e+02,2.430000000000000000e+02,1.910000000000000000e+02,1.160000000000000000e+02,7.900000000000000000e+01,2.200000000000000011e-01,5.640278800000000000e+09
1.030000000000000000e+02,3.380000000000000000e+02,2.530000000000000000e+02,4.190000000000000000e+02,3.050000000000000000e+02,1.910000000000000000e+02,4.170000000000000000e+02,8.200000000000000000e+01,2.200000000000000011e-01,5.661344500000000000e+09
9.700000000000000000e+01,3.370000000000000000e+02,2.260000000000000000e+02,4.130000000000000000e+02,3.430000000000000000e+02,1.770000000000000000e+02,4.840000000000000000e+02,8.800000000000000000e+01,2.300000000000000100e-01,5.688307600000000000e+09
1.200000000000000000e+02,4.280000000000000000e+02,2.280000000000000000e+02,3.270000000000000000e+02,3.340000000000000000e+02,1.590000000000000000e+02,5.010000000000000000e+02,9.100000000000000000e+01,2.300000000000000100e-01,5.706796700000000000e+09
1.210000000000000000e+02,3.820000000000000000e+02,2.180000000000000000e+02,3.090000000000000000e+02,3.570000000000000000e+02,1.590000000000000000e+02,5.050000000000000000e+02,9.100000000000000000e+01,2.300000000000000100e-01,5.724825200000000000e+09
1.250000000000000000e+02,3.820000000000000000e+02,2.250000000000000000e+02,3.850000000000000000e+02,3.740000000000000000e+02,2.010000000000000000e+02,5.200000000000000000e+02,9.300000000000000000e+01,2.399999999999999911e-01,5.743539000000000000e+09
1.320000000000000000e+02,3.910000000000000000e+02,2.090000000000000000e+02,3.850000000000000000e+02,3.510000000000000000e+02,1.850000000000000000e+02,3.490000000000000000e+02,1.110000000000000000e+02,2.399999999999999911e-01,5.761335900000000000e+09
1.470000000000000000e+02,4.260000000000000000e+02,2.520000000000000000e+02,3.960000000000000000e+02,3.330000000000000000e+02,1.900000000000000000e+02,4.640000000000000000e+02,1.250000000000000000e+02,2.500000000000000000e-01,5.779425600000000000e+09
1.500000000000000000e+02,3.670000000000000000e+02,2.500000000000000000e+02,4.250000000000000000e+02,3.740000000000000000e+02,1.930000000000000000e+02,4.670000000000000000e+02,1.260000000000000000e+02,2.600000000000000089e-01,5.797818900000000000e+09
1.570000000000000000e+02,3.710000000000000000e+02,3.100000000000000000e+02,4.290000000000000000e+02,3.580000000000000000e+02,1.970000000000000000e+02,4.710000000000000000e+02,1.270000000000000000e+02,2.700000000000000178e-01,5.819915800000000000e+09
1.530000000000000000e+02,3.690000000000000000e+02,3.330000000000000000e+02,3.810000000000000000e+02,3.900000000000000000e+02,1.620000000000000000e+02,4.550000000000000000e+02,1.190000000000000000e+02,2.700000000000000178e-01,5.842212600000000000e+09
2.040000000000000000e+02,4.310000000000000000e+02,3.810000000000000000e+02,3.670000000000000000e+02,3.760000000000000000e+02,2.110000000000000000e+02,4.560000000000000000e+02,1.480000000000000000e+02,2.700000000000000178e-01,5.860675900000000000e+09
2.370000000000000000e+02,4.980000000000000000e+02,3.850000000000000000e+02,4.940000000000000000e+02,4.340000000000000000e+02,2.330000000000000000e+02,2.820000000000000000e+02,1.710000000000000000e+02,2.600000000000000089e-01,5.879282100000000000e+09
2.560000000000000000e+02,5.540000000000000000e+02,4.540000000000000000e+02,5.100000000000000000e+02,4.090000000000000000e+02,2.300000000000000000e+02,2.530000000000000000e+02,1.720000000000000000e+02,2.500000000000000000e-01,5.897887400000000000e+09
2.580000000000000000e+02,6.080000000000000000e+02,4.300000000000000000e+02,5.120000000000000000e+02,4.310000000000000000e+02,2.370000000000000000e+02,2.540000000000000000e+02,1.770000000000000000e+02,2.399999999999999911e-01,5.919972700000000000e+09
2.670000000000000000e+02,5.970000000000000000e+02,4.430000000000000000e+02,5.370000000000000000e+02,3.970000000000000000e+02,2.320000000000000000e+02,2.530000000000000000e+02,1.800000000000000000e+02,2.300000000000000100e-01,5.942585500000000000e+09
2.470000000000000000e+02,5.540000000000000000e+02,4.510000000000000000e+02,5.300000000000000000e+02,3.800000000000000000e+02,1.750000000000000000e+02,2.530000000000000000e+02,1.610000000000000000e+02,2.300000000000000100e-01,5.961128900000000000e+09
2.290000000000000000e+02,5.100000000000000000e+02,4.470000000000000000e+02,3.970000000000000000e+02,2.670000000000000000e+02,1.380000000000000000e+02,2.420000000000000000e+02,1.870000000000000000e+02,2.200000000000000011e-01,5.979415700000000000e+09
1.940000000000000000e+02,4.180000000000000000e+02,3.690000000000000000e+02,3.380000000000000000e+02,2.440000000000000000e+02,1.310000000000000000e+02,2.370000000000000000e+02,1.970000000000000000e+02,2.200000000000000011e-01,5.998642900000000000e+09
1.900000000000000000e+02,3.970000000000000000e+02,3.710000000000000000e+02,3.370000000000000000e+02,1.780000000000000000e+02,1.160000000000000000e+02,2.240000000000000000e+02,1.960000000000000000e+02,2.200000000000000011e-01,6.019940200000000000e+09
1.740000000000000000e+02,4.100000000000000000e+02,3.390000000000000000e+02,3.270000000000000000e+02,1.310000000000000000e+02,1.050000000000000000e+02,2.230000000000000000e+02,1.960000000000000000e+02,2.200000000000000011e-01,6.041956800000000000e+09
1.610000000000000000e+02,4.200000000000000000e+02,3.280000000000000000e+02,3.210000000000000000e+02,1.170000000000000000e+02,1.030000000000000000e+02,2.160000000000000000e+02,2.000000000000000000e+02,2.300000000000000100e-01,6.060098400000000000e+09
1.330000000000000000e+02,4.200000000000000000e+02,4.250000000000000000e+02,3.270000000000000000e+02,1.180000000000000000e+02,8.400000000000000000e+01,1.710000000000000000e+02,1.540000000000000000e+02,2.399999999999999911e-01,6.078648400000000000e+09
1.600000000000000000e+02,4.650000000000000000e+02,4.420000000000000000e+02,3.670000000000000000e+02,1.270000000000000000e+02,9.700000000000000000e+01,1.700000000000000000e+02,2.590000000000000000e+02,2.500000000000000000e-01,6.097637400000000000e+09
2.490000000000000000e+02,5.000000000000000000e+02,4.640000000000000000e+02,4.040000000000000000e+02,1.600000000000000000e+02,1.030000000000000000e+02,1.770000000000000000e+02,4.040000000000000000e+02,2.500000000000000000e-01,6.120291300000000000e+09
2.880000000000000000e+02,5.350000000000000000e+02,5.680000000000000000e+02,4.950000000000000000e+02,2.530000000000000000e+02,1.040000000000000000e+02,1.710000000000000000e+02,4.740000000000000000e+02,2.500000000000000000e-01,6.143008000000000000e+09
3.230000000000000000e+02,6.070000000000000000e+02,5.610000000000000000e+02,5.200000000000000000e+02,2.660000000000000000e+02,1.090000000000000000e+02,1.600000000000000000e+02,5.020000000000000000e+02,2.500000000000000000e-01,6.162052800000000000e+09
3.690000000000000000e+02,5.870000000000000000e+02,4.950000000000000000e+02,5.100000000000000000e+02,2.680000000000000000e+02,1.090000000000000000e+02,1.720000000000000000e+02,5.110000000000000000e+02,2.600000000000000089e-01,6.180738500000000000e+09
3.950000000000000000e+02,6.520000000000000000e+02,6.390000000000000000e+02,5.370000000000000000e+02,2.640000000000000000e+02,1.440000000000000000e+02,1.660000000000000000e+02,6.030000000000000000e+02,2.600000000000000089e-01,6.200146700000000000e+09
4.010000000000000000e+02,7.330000000000000000e+02,7.740000000000000000e+02,5.480000000000000000e+02,2.780000000000000000e+02,1.530000000000000000e+02,1.730000000000000000e+02,6.180000000000000000e+02,2.600000000000000089e-01,6.222359600000000000e+09
3.910000000000000000e+02,7.690000000000000000e+02,7.620000000000000000e+02,4.470000000000000000e+02,2.040000000000000000e+02,1.610000000000000000e+02,1.920000000000000000e+02,5.980000000000000000e+02,2.600000000000000089e-01,6.240342600000000000e+09
3.820000000000000000e+02,7.700000000000000000e+02,8.520000000000000000e+02,4.670000000000000000e+02,2.200000000000000000e+02,1.770000000000000000e+02,2.300000000000000000e+02,7.650000000000000000e+02,2.500000000000000000e-01,6.258936100000000000e+09
3.430000000000000000e+02,8.170000000000000000e+02,9.580000000000000000e+02,4.680000000000000000e+02,2.150000000000000000e+02,1.810000000000000000e+02,2.480000000000000000e+02,8.030000000000000000e+02,2.500000000000000000e-01,6.279057900000000000e+09
3.480000000000000000e+02,8.030000000000000000e+02,9.510000000000000000e+02,5.630000000000000000e+02,2.800000000000000000e+02,1.800000000000000000e+02,2.530000000000000000e+02,7.390000000000000000e+02,2.399999999999999911e-01,6.302176200000000000e+09
3.070000000000000000e+02,7.080000000000000000e+02,8.540000000000000000e+02,5.950000000000000000e+02,2.570000000000000000e+02,1.770000000000000000e+02,2.690000000000000000e+02,6.930000000000000000e+02,2.300000000000000100e-01,6.320493200000000000e+09
3.060000000000000000e+02,7.180000000000000000e+02,8.510000000000000000e+02,7.040000000000000000e+02,2.710000000000000000e+02,1.710000000000000000e+02,2.850000000000000000e+02,7.700000000000000000e+02,2.200000000000000011e-01,6.338605300000000000e+09
3.310000000000000000e+02,6.880000000000000000e+02,8.060000000000000000e+02,6.870000000000000000e+02,2.560000000000000000e+02,1.650000000000000000e+02,2.960000000000000000e+02,7.170000000000000000e+02,2.200000000000000011e-01,6.358474600000000000e+09
3.570000000000000000e+02,6.720000000000000000e+02,7.090000000000000000e+02,7.070000000000000000e+02,2.610000000000000000e+02,1.790000000000000000e+02,2.980000000000000000e+02,7.000000000000000000e+02,2.200000000000000011e-01,6.381032500000000000e+09
3.540000000000000000e+02,6.310000000000000000e+02,6.460000000000000000e+02,6.920000000000000000e+02,2.000000000000000000e+02,1.680000000000000000e+02,3.120000000000000000e+02,7.600000000000000000e+02,2.200000000000000011e-01,6.403137100000000000e+09
3.370000000000000000e+02,6.040000000000000000e+02,6.760000000000000000e+02,6.870000000000000000e+02,2.000000000000000000e+02,1.570000000000000000e+02,2.920000000000000000e+02,7.420000000000000000e+02,2.200000000000000011e-01,6.422629400000000000e+09
3.340000000000000000e+02,5.250000000000000000e+02,6.260000000000000000e+02,5.750000000000000000e+02,1.880000000000000000e+02,1.780000000000000000e+02,2.610000000000000000e+02,6.680000000000000000e+02,2.300000000000000100e-01,6.440809400000000000e+09
3.310000000000000000e+02,5.050000000000000000e+02,6.560000000000000000e+02,6.120000000000000000e+02,3.440000000000000000e+02,2.640000000000000000e+02,2.150000000000000000e+02,5.270000000000000000e+02,2.200000000000000011e-01,6.460341300000000000e+09
3.370000000000000000e+02,5.180000000000000000e+02,6.450000000000000000e+02,6.940000000000000000e+02,4.190000000000000000e+02,2.930000000000000000e+02,1.910000000000000000e+02,5.230000000000000000e+02,2.200000000000000011e-01,6.479519000000000000e+09
3.570000000000000000e+02,4.650000000000000000e+02,5.820000000000000000e+02,6.470000000000000000e+02,4.270000000000000000e+02,3.030000000000000000e+02,1.820000000000000000e+02,5.540000000000000000e+02,2.099999999999999922e-01,6.501133600000000000e+09
3.580000000000000000e+02,4.630000000000000000e+02,5.130000000000000000e+02,6.680000000000000000e+02,4.240000000000000000e+02,3.090000000000000000e+02,1.810000000000000000e+02,5.810000000000000000e+02,2.000000000000000111e-01,6.520173400000000000e+09
3.650000000000000000e+02,4.420000000000000000e+02,4.890000000000000000e+02,6.700000000000000000e+02,4.340000000000000000e+02,3.320000000000000000e+02,1.910000000000000000e+02,5.530000000000000000e+02,1.900000000000000022e-01,6.538598600000000000e+09
3.610000000000000000e+02,4.040000000000000000e+02,3.900000000000000000e+02,6.580000000000000000e+02,4.470000000000000000e+02,3.780000000000000000e+02,2.140000000000000000e+02,5.540000000000000000e+02,1.900000000000000022e-01,6.556856100000000000e+09
3.270000000000000000e+02,3.410000000000000000e+02,4.020000000000000000e+02,5.750000000000000000e+02,3.970000000000000000e+02,3.660000000000000000e+02,2.130000000000000000e+02,5.350000000000000000e+02,1.900000000000000022e-01,6.578893800000000000e+09
2.570000000000000000e+02,3.810000000000000000e+02,3.970000000000000000e+02,5.830000000000000000e+02,3.880000000000000000e+02,3.550000000000000000e+02,1.960000000000000000e+02,3.640000000000000000e+02,1.799999999999999933e-01,6.600917500000000000e+09
2.610000000000000000e+02,3.640000000000000000e+02,3.890000000000000000e+02,6.080000000000000000e+02,3.860000000000000000e+02,3.520000000000000000e+02,2.000000000000000000e+02,3.130000000000000000e+02,1.900000000000000022e-01,6.623322100000000000e+09
2.400000000000000000e+02,3.560000000000000000e+02,4.010000000000000000e+02,7.310000000000000000e+02,3.840000000000000000e+02,3.290000000000000000e+02,2.080000000000000000e+02,4.550000000000000000e+02,1.799999999999999933e-01,6.642036500000000000e+09
1.690000000000000000e+02,3.530000000000000000e+02,3.380000000000000000e+02,7.950000000000000000e+02,2.450000000000000000e+02,2.020000000000000000e+02,1.810000000000000000e+02,4.890000000000000000e+02,1.900000000000000022e-01,6.660981300000000000e+09
1.780000000000000000e+02,3.500000000000000000e+02,2.300000000000000000e+02,1.004000000000000000e+03,2.690000000000000000e+02,1.950000000000000000e+02,2.130000000000000000e+02,5.600000000000000000e+02,1.900000000000000022e-01,6.679296700000000000e+09
2.170000000000000000e+02,3.820000000000000000e+02,2.990000000000000000e+02,1.014000000000000000e+03,2.680000000000000000e+02,1.870000000000000000e+02,2.220000000000000000e+02,6.200000000000000000e+02,2.000000000000000111e-01,6.700895200000000000e+09
2.800000000000000000e+02,4.150000000000000000e+02,3.160000000000000000e+02,9.960000000000000000e+02,2.760000000000000000e+02,2.160000000000000000e+02,2.180000000000000000e+02,6.540000000000000000e+02,2.099999999999999922e-01,6.726056100000000000e+09
3.020000000000000000e+02,4.290000000000000000e+02,3.380000000000000000e+02,1.007000000000000000e+03,3.580000000000000000e+02,3.090000000000000000e+02,2.230000000000000000e+02,6.010000000000000000e+02,2.200000000000000011e-01,6.745514700000000000e+09
4.670000000000000000e+02,4.320000000000000000e+02,3.540000000000000000e+02,9.940000000000000000e+02,3.660000000000000000e+02,3.160000000000000000e+02,2.470000000000000000e+02,6.110000000000000000e+02,2.300000000000000100e-01,6.764533700000000000e+09
4.940000000000000000e+02,3.940000000000000000e+02,3.690000000000000000e+02,7.740000000000000000e+02,3.270000000000000000e+02,3.210000000000000000e+02,3.190000000000000000e+02,5.870000000000000000e+02,2.399999999999999911e-01,6.787573700000000000e+09
5.570000000000000000e+02,3.430000000000000000e+02,3.720000000000000000e+02,7.250000000000000000e+02,3.230000000000000000e+02,3.280000000000000000e+02,3.540000000000000000e+02,5.530000000000000000e+02,2.399999999999999911e-01,6.806525300000000000e+09
5.740000000000000000e+02,2.900000000000000000e+02,3.680000000000000000e+02,6.470000000000000000e+02,3.370000000000000000e+02,3.550000000000000000e+02,3.790000000000000000e+02,5.010000000000000000e+02,2.500000000000000000e-01,6.824186100000000000e+09
5.840000000000000000e+02,2.640000000000000000e+02,3.370000000000000000e+02,6.530000000000000000e+02,2.590000000000000000e+02,3.500000000000000000e+02,4.320000000000000000e+02,4.590000000000000000e+02,2.600000000000000089e-01,6.842669100000000000e+09
5.290000000000000000e+02,2.620000000000000000e+02,3.280000000000000000e+02,7.040000000000000000e+02,2.520000000000000000e+02,3.860000000000000000e+02,4.290000000000000000e+02,4.370000000000000000e+02,2.700000000000000178e-01,6.861255200000000000e+09
5.280000000000000000e+02,2.580000000000000000e+02,4.670000000000000000e+02,7.380000000000000000e+02,2.850000000000000000e+02,4.120000000000000000e+02,3.820000000000000000e+02,3.970000000000000000e+02,2.800000000000000266e-01,6.880317600000000000e+09
4.740000000000000000e+02,2.120000000000000000e+02,4.450000000000000000e+02,7.340000000000000000e+02,2.840000000000000000e+02,4.080000000000000000e+02,3.570000000000000000e+02,3.720000000000000000e+02,2.899999999999999800e-01,6.898593400000000000e+09
4.370000000000000000e+02,3.120000000000000000e+02,6.070000000000000000e+02,7.950000000000000000e+02,2.670000000000000000e+02,3.720000000000000000e+02,3.380000000000000000e+02,3.800000000000000000e+02,2.999999999999999889e-01,6.919435700000000000e+09
4.440000000000000000e+02,3.660000000000000000e+02,6.640000000000000000e+02,6.540000000000000000e+02,2.480000000000000000e+02,3.110000000000000000e+02,2.780000000000000000e+02,4.070000000000000000e+02,3.099999999999999978e-01,6.942243100000000000e+09
4.830000000000000000e+02,4.460000000000000000e+02,7.270000000000000000e+02,5.010000000000000000e+02,2.840000000000000000e+02,2.830000000000000000e+02,2.700000000000000000e+02,3.670000000000000000e+02,3.099999999999999978e-01,6.960149600000000000e+09
4.680000000000000000e+02,4.670000000000000000e+02,6.520000000000000000e+02,4.630000000000000000e+02,2.560000000000000000e+02,2.420000000000000000e+02,2.270000000000000000e+02,3.190000000000000000e+02,2.999999999999999889e-01,6.980985600000000000e+09
4.380000000000000000e+02,5.180000000000000000e+02,6.590000000000000000e+02,4.470000000000000000e+02,2.530000000000000000e+02,2.390000000000000000e+02,1.970000000000000000e+02,2.700000000000000000e+02,2.999999999999999889e-01,7.000252100000000000e+09
4.230000000000000000e+02,5.010000000000000000e+02,7.470000000000000000e+02,4.090000000000000000e+02,2.530000000000000000e+02,2.320000000000000000e+02,1.800000000000000000e+02,2.820000000000000000e+02,2.999999999999999889e-01,7.019552500000000000e+09
3.900000000000000000e+02,4.660000000000000000e+02,6.990000000000000000e+02,3.930000000000000000e+02,2.480000000000000000e+02,2.330000000000000000e+02,1.310000000000000000e+02,2.400000000000000000e+02,2.999999999999999889e-01,7.041648700000000000e+09
2.490000000000000000e+02,3.930000000000000000e+02,6.590000000000000000e+02,4.320000000000000000e+02,2.090000000000000000e+02,2.040000000000000000e+02,8.700000000000000000e+01,2.220000000000000000e+02,2.999999999999999889e-01,7.059654900000000000e+09
2.240000000000000000e+02,3.730000000000000000e+02,7.550000000000000000e+02,4.070000000000000000e+02,1.990000000000000000e+02,1.730000000000000000e+02,8.300000000000000000e+01,2.250000000000000000e+02,2.899999999999999800e-01,7.078003200000000000e+09
2.440000000000000000e+02,3.570000000000000000e+02,8.260000000000000000e+02,4.360000000000000000e+02,2.090000000000000000e+02,1.810000000000000000e+02,7.600000000000000000e+01,2.200000000000000000e+02,2.800000000000000266e-01,7.097514000000000000e+09
2.430000000000000000e+02,3.130000000000000000e+02,6.290000000000000000e+02,5.100000000000000000e+02,2.410000000000000000e+02,2.570000000000000000e+02,1.940000000000000000e+02,1.910000000000000000e+02,2.800000000000000266e-01,7.119615900000000000e+09
2.450000000000000000e+02,3.230000000000000000e+02,6.270000000000000000e+02,5.110000000000000000e+02,2.270000000000000000e+02,2.400000000000000000e+02,2.690000000000000000e+02,1.650000000000000000e+02,2.700000000000000178e-01,7.141860400000000000e+09
2.450000000000000000e+02,3.940000000000000000e+02,6.730000000000000000e+02,5.050000000000000000e+02,2.000000000000000000e+02,2.210000000000000000e+02,2.820000000000000000e+02,1.600000000000000000e+02,2.600000000000000089e-01,7.159984000000000000e+09
2.410000000000000000e+02,4.070000000000000000e+02,6.180000000000000000e+02,5.120000000000000000e+02,2.060000000000000000e+02,2.560000000000000000e+02,2.930000000000000000e+02,3.620000000000000000e+02,2.600000000000000089e-01,7.178596700000000000e+09
2.750000000000000000e+02,3.930000000000000000e+02,5.560000000000000000e+02,5.040000000000000000e+02,1.960000000000000000e+02,2.540000000000000000e+02,2.970000000000000000e+02,5.110000000000000000e+02,2.500000000000000000e-01,7.198643600000000000e+09
2.690000000000000000e+02,3.950000000000000000e+02,5.500000000000000000e+02,3.350000000000000000e+02,1.370000000000000000e+02,1.820000000000000000e+02,2.670000000000000000e+02,5.370000000000000000e+02,2.500000000000000000e-01,7.219316700000000000e+09
2.840000000000000000e+02,4.120000000000000000e+02,5.500000000000000000e+02,3.220000000000000000e+02,1.690000000000000000e+02,2.140000000000000000e+02,2.510000000000000000e+02,5.580000000000000000e+02,2.500000000000000000e-01,7.241730300000000000e+09
3.330000000000000000e+02,4.460000000000000000e+02,4.680000000000000000e+02,2.570000000000000000e+02,1.780000000000000000e+02,2.410000000000000000e+02,2.400000000000000000e+02,5.980000000000000000e+02,2.399999999999999911e-01,7.261315500000000000e+09
3.820000000000000000e+02,5.010000000000000000e+02,4.450000000000000000e+02,2.150000000000000000e+02,1.690000000000000000e+02,2.360000000000000000e+02,2.280000000000000000e+02,5.340000000000000000e+02,2.500000000000000000e-01,7.279962500000000000e+09
3.720000000000000000e+02,4.800000000000000000e+02,3.640000000000000000e+02,1.510000000000000000e+02,1.640000000000000000e+02,2.340000000000000000e+02,2.830000000000000000e+02,4.340000000000000000e+02,2.600000000000000089e-01,7.297888800000000000e+09
3.620000000000000000e+02,4.720000000000000000e+02,3.440000000000000000e+02,1.560000000000000000e+02,2.320000000000000000e+02,3.150000000000000000e+02,4.690000000000000000e+02,4.190000000000000000e+02,2.600000000000000089e-01,7.320705700000000000e+09
3.430000000000000000e+02,4.440000000000000000e+02,3.360000000000000000e+02,2.120000000000000000e+02,2.330000000000000000e+02,3.280000000000000000e+02,5.110000000000000000e+02,4.040000000000000000e+02,2.700000000000000178e-01,7.343413600000000000e+09
3.190000000000000000e+02,3.800000000000000000e+02,3.760000000000000000e+02,2.320000000000000000e+02,2.250000000000000000e+02,3.230000000000000000e+02,6.010000000000000000e+02,3.530000000000000000e+02,2.700000000000000178e-01,7.361020700000000000e+09
2.820000000000000000e+02,3.900000000000000000e+02,4.300000000000000000e+02,2.380000000000000000e+02,2.310000000000000000e+02,2.980000000000000000e+02,6.170000000000000000e+02,3.070000000000000000e+02,2.700000000000000178e-01,7.379556800000000000e+09
2.440000000000000000e+02,4.010000000000000000e+02,4.730000000000000000e+02,2.470000000000000000e+02,2.590000000000000000e+02,3.000000000000000000e+02,5.950000000000000000e+02,2.610000000000000000e+02,2.600000000000000089e-01,7.400930500000000000e+09
2.460000000000000000e+02,3.990000000000000000e+02,4.900000000000000000e+02,2.590000000000000000e+02,2.980000000000000000e+02,2.840000000000000000e+02,4.710000000000000000e+02,2.370000000000000000e+02,2.600000000000000089e-01,7.423193600000000000e+09
2.980000000000000000e+02,3.990000000000000000e+02,5.510000000000000000e+02,3.260000000000000000e+02,3.330000000000000000e+02,2.960000000000000000e+02,4.140000000000000000e+02,3.030000000000000000e+02,2.600000000000000089e-01,7.442451800000000000e+09
2.740000000000000000e+02,3.600000000000000000e+02,5.950000000000000000e+02,3.710000000000000000e+02,3.750000000000000000e+02,3.550000000000000000e+02,2.770000000000000000e+02,3.180000000000000000e+02,2.500000000000000000e-01,7.462568000000000000e+09
2.540000000000000000e+02,3.310000000000000000e+02,5.130000000000000000e+02,4.550000000000000000e+02,3.910000000000000000e+02,3.740000000000000000e+02,2.410000000000000000e+02,3.190000000000000000e+02,2.500000000000000000e-01,7.480925200000000000e+09
2.690000000000000000e+02,3.320000000000000000e+02,5.130000000000000000e+02,4.600000000000000000e+02,3.750000000000000000e+02,3.770000000000000000e+02,2.400000000000000000e+02,4.100000000000000000e+02,2.500000000000000000e-01,7.500916600000000000e+09
3.180000000000000000e+02,3.530000000000000000e+02,5.370000000000000000e+02,4.800000000000000000e+02,3.110000000000000000e+02,3.340000000000000000e+02,1.870000000000000000e+02,4.820000000000000000e+02,2.399999999999999911e-01,7.523624400000000000e+09
2.690000000000000000e+02,3.870000000000000000e+02,4.820000000000000000e+02,4.670000000000000000e+02,2.710000000000000000e+02,3.800000000000000000e+02,1.450000000000000000e+02,4.420000000000000000e+02,2.300000000000000100e-01,7.542410800000000000e+09
3.010000000000000000e+02,4.060000000000000000e+02,4.420000000000000000e+02,5.220000000000000000e+02,2.260000000000000000e+02,3.540000000000000000e+02,2.810000000000000000e+02,4.450000000000000000e+02,2.200000000000000011e-01,7.560758500000000000e+09
3.230000000000000000e+02,3.460000000000000000e+02,5.150000000000000000e+02,4.960000000000000000e+02,1.950000000000000000e+02,3.360000000000000000e+02,2.920000000000000000e+02,4.500000000000000000e+02,2.200000000000000011e-01,7.579750000000000000e+09
3.200000000000000000e+02,3.230000000000000000e+02,6.080000000000000000e+02,5.610000000000000000e+02,1.900000000000000000e+02,3.370000000000000000e+02,2.890000000000000000e+02,3.760000000000000000e+02,2.200000000000000011e-01,7.600704900000000000e+09
2.970000000000000000e+02,3.650000000000000000e+02,6.320000000000000000e+02,6.720000000000000000e+02,1.760000000000000000e+02,3.330000000000000000e+02,2.930000000000000000e+02,3.270000000000000000e+02,2.200000000000000011e-01,7.622811300000000000e+09
3.070000000000000000e+02,3.430000000000000000e+02,6.270000000000000000e+02,7.070000000000000000e+02,1.810000000000000000e+02,2.310000000000000000e+02,2.960000000000000000e+02,3.210000000000000000e+02,2.300000000000000100e-01,7.641106100000000000e+09
2.880000000000000000e+02,3.180000000000000000e+02,5.970000000000000000e+02,6.710000000000000000e+02,3.760000000000000000e+02,2.760000000000000000e+02,1.880000000000000000e+02,4.280000000000000000e+02,2.300000000000000100e-01,7.661338700000000000e+09
2.700000000000000000e+02,3.070000000000000000e+02,6.190000000000000000e+02,6.720000000000000000e+02,4.250000000000000000e+02,3.200000000000000000e+02,1.700000000000000000e+02,5.330000000000000000e+02,2.300000000000000100e-01,7.680515400000000000e+09
2.620000000000000000e+02,3.230000000000000000e+02,5.640000000000000000e+02,6.230000000000000000e+02,4.260000000000000000e+02,3.160000000000000000e+02,1.660000000000000000e+02,5.560000000000000000e+02,2.300000000000000100e-01,7.700472500000000000e+09
2.390000000000000000e+02,2.970000000000000000e+02,5.060000000000000000e+02,5.240000000000000000e+02,4.670000000000000000e+02,3.550000000000000000e+02,1.620000000000000000e+02,5.250000000000000000e+02,2.300000000000000100e-01,7.722936900000000000e+09
2.350000000000000000e+02,3.070000000000000000e+02,6.100000000000000000e+02,4.530000000000000000e+02,4.600000000000000000e+02,3.520000000000000000e+02,1.470000000000000000e+02,5.170000000000000000e+02,2.200000000000000011e-01,7.742015700000000000e+09
2.140000000000000000e+02,3.100000000000000000e+02,6.940000000000000000e+02,4.530000000000000000e+02,4.750000000000000000e+02,4.750000000000000000e+02,1.140000000000000000e+02,4.210000000000000000e+02,2.200000000000000011e-01,7.760864000000000000e+09
2.010000000000000000e+02,3.150000000000000000e+02,7.220000000000000000e+02,4.120000000000000000e+02,6.060000000000000000e+02,5.630000000000000000e+02,1.470000000000000000e+02,2.970000000000000000e+02,2.099999999999999922e-01,7.779210500000000000e+09
2.060000000000000000e+02,3.030000000000000000e+02,7.020000000000000000e+02,4.020000000000000000e+02,6.360000000000000000e+02,5.800000000000000000e+02,1.640000000000000000e+02,2.780000000000000000e+02,2.000000000000000111e-01,7.803206700000000000e+09
2.070000000000000000e+02,3.400000000000000000e+02,8.190000000000000000e+02,3.410000000000000000e+02,6.140000000000000000e+02,5.580000000000000000e+02,1.580000000000000000e+02,2.810000000000000000e+02,1.900000000000000022e-01,7.825554700000000000e+09
1.880000000000000000e+02,3.470000000000000000e+02,7.670000000000000000e+02,3.290000000000000000e+02,6.660000000000000000e+02,6.760000000000000000e+02,1.760000000000000000e+02,2.770000000000000000e+02,1.799999999999999933e-01,7.857775500000000000e+09
1.490000000000000000e+02,3.510000000000000000e+02,7.570000000000000000e+02,2.620000000000000000e+02,5.750000000000000000e+02,5.640000000000000000e+02,1.650000000000000000e+02,2.540000000000000000e+02,1.600000000000000033e-01,7.876143800000000000e+09
1.370000000000000000e+02,3.370000000000000000e+02,7.230000000000000000e+02,2.530000000000000000e+02,3.920000000000000000e+02,4.560000000000000000e+02,1.260000000000000000e+02,2.190000000000000000e+02,1.300000000000000044e-01,7.894546500000000000e+09
1.370000000000000000e+02,3.440000000000000000e+02,7.280000000000000000e+02,3.470000000000000000e+02,3.590000000000000000e+02,4.370000000000000000e+02,1.030000000000000000e+02,1.680000000000000000e+02,1.199999999999999956e-01,7.913012500000000000e+09
1.500000000000000000e+02,2.790000000000000000e+02,6.940000000000000000e+02,4.680000000000000000e+02,3.590000000000000000e+02,4.910000000000000000e+02,1.050000000000000000e+02,1.870000000000000000e+02,1.100000000000000006e-01,7.931316900000000000e+09
1.690000000000000000e+02,2.750000000000000000e+02,7.960000000000000000e+02,4.600000000000000000e+02,2.900000000000000000e+02,3.380000000000000000e+02,8.200000000000000000e+01,1.920000000000000000e+02,1.100000000000000006e-01,7.951076200000000000e+09
1.780000000000000000e+02,3.250000000000000000e+02,7.380000000000000000e+02,4.490000000000000000e+02,2.590000000000000000e+02,3.530000000000000000e+02,8.100000000000000000e+01,2.290000000000000000e+02,1.100000000000000006e-01,7.968652200000000000e+09
1.790000000000000000e+02,3.210000000000000000e+02,6.910000000000000000e+02,4.520000000000000000e+02,2.570000000000000000e+02,3.520000000000000000e+02,8.200000000000000000e+01,2.240000000000000000e+02,1.199999999999999956e-01,7.987539000000000000e+09
1.600000000000000000e+02,5.300000000000000000e+02,6.880000000000000000e+02,3.920000000000000000e+02,2.890000000000000000e+02,3.580000000000000000e+02,7.800000000000000000e+01,2.310000000000000000e+02,1.100000000000000006e-01,8.004690100000000000e+09
1.690000000000000000e+02,5.410000000000000000e+02,6.050000000000000000e+02,2.330000000000000000e+02,2.950000000000000000e+02,3.580000000000000000e+02,8.500000000000000000e+01,2.100000000000000000e+02,1.100000000000000006e-01,8.023591200000000000e+09
1.680000000000000000e+02,5.390000000000000000e+02,4.700000000000000000e+02,2.110000000000000000e+02,2.730000000000000000e+02,4.110000000000000000e+02,9.300000000000000000e+01,2.020000000000000000e+02,1.199999999999999956e-01,8.042900000000000000e+09
1.590000000000000000e+02,5.040000000000000000e+02,4.710000000000000000e+02,2.300000000000000000e+02,3.170000000000000000e+02,4.010000000000000000e+02,9.400000000000000000e+01,1.710000000000000000e+02,1.199999999999999956e-01,8.061046500000000000e+09
1.680000000000000000e+02,5.070000000000000000e+02,4.360000000000000000e+02,2.210000000000000000e+02,3.150000000000000000e+02,3.990000000000000000e+02,2.430000000000000000e+02,1.980000000000000000e+02,1.300000000000000044e-01,8.080423500000000000e+09
1.780000000000000000e+02,2.580000000000000000e+02,3.720000000000000000e+02,1.870000000000000000e+02,2.660000000000000000e+02,3.940000000000000000e+02,2.580000000000000000e+02,1.620000000000000000e+02,1.499999999999999944e-01,8.098647200000000000e+09
1.390000000000000000e+02,2.320000000000000000e+02,3.230000000000000000e+02,1.770000000000000000e+02,2.390000000000000000e+02,3.190000000000000000e+02,2.610000000000000000e+02,1.510000000000000000e+02,1.700000000000000122e-01,8.119124400000000000e+09
1.270000000000000000e+02,2.370000000000000000e+02,2.700000000000000000e+02,2.370000000000000000e+02,2.190000000000000000e+02,2.160000000000000000e+02,2.710000000000000000e+02,2.380000000000000000e+02,1.799999999999999933e-01,8.141665400000000000e+09
1.450000000000000000e+02,2.420000000000000000e+02,2.120000000000000000e+02,2.230000000000000000e+02,1.630000000000000000e+02,1.950000000000000000e+02,2.730000000000000000e+02,2.430000000000000000e+02,2.000000000000000111e-01,8.159676800000000000e+09
1.430000000000000000e+02,2.320000000000000000e+02,2.270000000000000000e+02,2.160000000000000000e+02,1.620000000000000000e+02,2.450000000000000000e+02,1.640000000000000000e+02,2.170000000000000000e+02,2.200000000000000011e-01,8.178053000000000000e+09
1.290000000000000000e+02,2.160000000000000000e+02,2.240000000000000000e+02,2.270000000000000000e+02,1.700000000000000000e+02,2.550000000000000000e+02,1.690000000000000000e+02,2.220000000000000000e+02,2.300000000000000100e-01,8.197485400000000000e+09
1.730000000000000000e+02,2.040000000000000000e+02,2.440000000000000000e+02,2.400000000000000000e+02,1.940000000000000000e+02,2.720000000000000000e+02,1.740000000000000000e+02,3.350000000000000000e+02,2.399999999999999911e-01,8.219003300000000000e+09
1.640000000000000000e+02,1.650000000000000000e+02,2.400000000000000000e+02,2.230000000000000000e+02,4.570000000000000000e+02,4.520000000000000000e+02,1.790000000000000000e+02,3.040000000000000000e+02,2.600000000000000089e-01,8.241347500000000000e+09
1.670000000000000000e+02,1.880000000000000000e+02,2.450000000000000000e+02,2.200000000000000000e+02,5.030000000000000000e+02,4.780000000000000000e+02,1.870000000000000000e+02,4.610000000000000000e+02,2.700000000000000178e-01,8.259668700000000000e+09
1.640000000000000000e+02,2.110000000000000000e+02,2.340000000000000000e+02,2.170000000000000000e+02,5.040000000000000000e+02,4.570000000000000000e+02,1.840000000000000000e+02,4.840000000000000000e+02,2.800000000000000266e-01,8.278073400000000000e+09
1.720000000000000000e+02,2.180000000000000000e+02,2.430000000000000000e+02,2.940000000000000000e+02,5.100000000000000000e+02,4.940000000000000000e+02,1.600000000000000000e+02,4.850000000000000000e+02,2.800000000000000266e-01,8.296572500000000000e+09
1.430000000000000000e+02,1.910000000000000000e+02,2.200000000000000000e+02,2.930000000000000000e+02,6.810000000000000000e+02,6.580000000000000000e+02,1.600000000000000000e+02,4.270000000000000000e+02,2.800000000000000266e-01,8.318904600000000000e+09
1.400000000000000000e+02,1.760000000000000000e+02,1.820000000000000000e+02,2.890000000000000000e+02,6.090000000000000000e+02,5.930000000000000000e+02,1.720000000000000000e+02,4.140000000000000000e+02,2.800000000000000266e-01,8.341134400000000000e+09
1.170000000000000000e+02,2.900000000000000000e+02,1.790000000000000000e+02,3.000000000000000000e+02,5.720000000000000000e+02,5.760000000000000000e+02,1.750000000000000000e+02,2.200000000000000000e+02,2.800000000000000266e-01,8.359488100000000000e+09
1.080000000000000000e+02,3.520000000000000000e+02,1.670000000000000000e+02,4.470000000000000000e+02,5.980000000000000000e+02,5.820000000000000000e+02,3.840000000000000000e+02,1.590000000000000000e+02,2.899999999999999800e-01,8.378414000000000000e+09
1.070000000000000000e+02,3.930000000000000000e+02,1.420000000000000000e+02,4.440000000000000000e+02,6.300000000000000000e+02,5.490000000000000000e+02,4.210000000000000000e+02,1.540000000000000000e+02,2.899999999999999800e-01,8.398288200000000000e+09
1.030000000000000000e+02,4.120000000000000000e+02,1.450000000000000000e+02,4.840000000000000000e+02,4.600000000000000000e+02,3.300000000000000000e+02,4.250000000000000000e+02,1.320000000000000000e+02,2.899999999999999800e-01,8.418819500000000000e+09
1.050000000000000000e+02,4.160000000000000000e+02,1.480000000000000000e+02,5.120000000000000000e+02,3.850000000000000000e+02,2.600000000000000000e+02,4.420000000000000000e+02,1.150000000000000000e+02,2.899999999999999800e-01,8.441397000000000000e+09
1.060000000000000000e+02,3.250000000000000000e+02,1.230000000000000000e+02,5.220000000000000000e+02,3.930000000000000000e+02,2.590000000000000000e+02,4.780000000000000000e+02,9.900000000000000000e+01,2.999999999999999889e-01,8.463382900000000000e+09
1.180000000000000000e+02,2.370000000000000000e+02,1.310000000000000000e+02,4.080000000000000000e+02,3.880000000000000000e+02,2.680000000000000000e+02,3.370000000000000000e+02,9.800000000000000000e+01,2.999999999999999889e-01,8.481662800000000000e+09
1.520000000000000000e+02,1.530000000000000000e+02,1.300000000000000000e+02,3.570000000000000000e+02,4.800000000000000000e+02,3.300000000000000000e+02,3.120000000000000000e+02,8.700000000000000000e+01,3.099999999999999978e-01,8.499848200000000000e+09
1.430000000000000000e+02,8.800000000000000000e+01,1.690000000000000000e+02,2.960000000000000000e+02,4.800000000000000000e+02,3.540000000000000000e+02,3.240000000000000000e+02,5.900000000000000000e+01,3.099999999999999978e-01,8.520815500000000000e+09
1.620000000000000000e+02,6.100000000000000000e+01,1.760000000000000000e+02,2.360000000000000000e+02,4.620000000000000000e+02,3.340000000000000000e+02,2.800000000000000000e+02,6.200000000000000000e+01,3.200000000000000067e-01,8.538687100000000000e+09
1.730000000000000000e+02,8.300000000000000000e+01,4.040000000000000000e+02,2.500000000000000000e+02,4.510000000000000000e+02,3.210000000000000000e+02,1.980000000000000000e+02,6.900000000000000000e+01,3.200000000000000067e-01,8.566773100000000000e+09
1.720000000000000000e+02,1.460000000000000000e+02,4.860000000000000000e+02,2.820000000000000000e+02,4.280000000000000000e+02,2.920000000000000000e+02,1.870000000000000000e+02,7.400000000000000000e+01,3.099999999999999978e-01,8.584890800000000000e+09
1.550000000000000000e+02,1.950000000000000000e+02,5.680000000000000000e+02,3.080000000000000000e+02,2.370000000000000000e+02,2.080000000000000000e+02,1.520000000000000000e+02,1.030000000000000000e+02,3.099999999999999978e-01,8.603737500000000000e+09
1.820000000000000000e+02,3.010000000000000000e+02,5.960000000000000000e+02,3.140000000000000000e+02,1.930000000000000000e+02,1.710000000000000000e+02,8.900000000000000000e+01,1.450000000000000000e+02,3.099999999999999978e-01,8.621988400000000000e+09
2.080000000000000000e+02,3.200000000000000000e+02,6.600000000000000000e+02,3.110000000000000000e+02,2.220000000000000000e+02,2.460000000000000000e+02,9.100000000000000000e+01,1.660000000000000000e+02,2.999999999999999889e-01,8.641092100000000000e+09
2.650000000000000000e+02,3.440000000000000000e+02,6.230000000000000000e+02,2.840000000000000000e+02,2.140000000000000000e+02,2.470000000000000000e+02,9.800000000000000000e+01,2.030000000000000000e+02,2.899999999999999800e-01,8.665405500000000000e+09
2.800000000000000000e+02,3.330000000000000000e+02,5.850000000000000000e+02,3.000000000000000000e+02,3.230000000000000000e+02,4.390000000000000000e+02,4.740000000000000000e+02,2.350000000000000000e+02,2.800000000000000266e-01,8.683411800000000000e+09
2.700000000000000000e+02,3.140000000000000000e+02,6.030000000000000000e+02,2.930000000000000000e+02,3.400000000000000000e+02,4.640000000000000000e+02,5.250000000000000000e+02,2.340000000000000000e+02,2.700000000000000178e-01,8.702271600000000000e+09
2.800000000000000000e+02,2.790000000000000000e+02,7.860000000000000000e+02,3.110000000000000000e+02,3.280000000000000000e+02,4.590000000000000000e+02,5.260000000000000000e+02,2.520000000000000000e+02,2.600000000000000089e-01,8.721110200000000000e+09
3.750000000000000000e+02,2.990000000000000000e+02,8.720000000000000000e+02,4.190000000000000000e+02,6.070000000000000000e+02,6.780000000000000000e+02,5.640000000000000000e+02,2.620000000000000000e+02,2.600000000000000089e-01,8.742946400000000000e+09
3.770000000000000000e+02,2.780000000000000000e+02,8.840000000000000000e+02,4.580000000000000000e+02,6.730000000000000000e+02,7.400000000000000000e+02,5.910000000000000000e+02,2.590000000000000000e+02,2.600000000000000089e-01,8.765801000000000000e+09
3.840000000000000000e+02,2.800000000000000000e+02,9.730000000000000000e+02,4.320000000000000000e+02,6.320000000000000000e+02,6.530000000000000000e+02,3.850000000000000000e+02,2.450000000000000000e+02,2.500000000000000000e-01,8.785009200000000000e+09
3.860000000000000000e+02,3.130000000000000000e+02,9.610000000000000000e+02,5.060000000000000000e+02,6.490000000000000000e+02,6.860000000000000000e+02,3.200000000000000000e+02,2.400000000000000000e+02,2.500000000000000000e-01,8.803780300000000000e+09
4.140000000000000000e+02,3.330000000000000000e+02,8.650000000000000000e+02,5.570000000000000000e+02,6.900000000000000000e+02,7.200000000000000000e+02,3.310000000000000000e+02,2.020000000000000000e+02,2.600000000000000089e-01,8.822455900000000000e+09
3.140000000000000000e+02,3.010000000000000000e+02,7.310000000000000000e+02,4.970000000000000000e+02,4.600000000000000000e+02,5.040000000000000000e+02,2.640000000000000000e+02,1.690000000000000000e+02,2.500000000000000000e-01,8.842928800000000000e+09
2.600000000000000000e+02,2.950000000000000000e+02,7.240000000000000000e+02,4.830000000000000000e+02,3.670000000000000000e+02,4.140000000000000000e+02,2.000000000000000000e+02,1.380000000000000000e+02,2.500000000000000000e-01,8.865446200000000000e+09
2.970000000000000000e+02,3.100000000000000000e+02,6.150000000000000000e+02,5.000000000000000000e+02,5.640000000000000000e+02,6.730000000000000000e+02,3.130000000000000000e+02,1.770000000000000000e+02,2.500000000000000000e-01,8.883539100000000000e+09
3.310000000000000000e+02,2.820000000000000000e+02,5.910000000000000000e+02,5.940000000000000000e+02,5.890000000000000000e+02,6.700000000000000000e+02,5.280000000000000000e+02,3.230000000000000000e+02,2.600000000000000089e-01,8.901939700000000000e+09
2.970000000000000000e+02,2.110000000000000000e+02,5.250000000000000000e+02,5.370000000000000000e+02,5.690000000000000000e+02,6.620000000000000000e+02,5.620000000000000000e+02,3.390000000000000000e+02,2.700000000000000178e-01,8.922404400000000000e+09
3.060000000000000000e+02,2.700000000000000000e+02,6.660000000000000000e+02,6.280000000000000000e+02,5.890000000000000000e+02,6.620000000000000000e+02,5.670000000000000000e+02,3.530000000000000000e+02,2.700000000000000178e-01,8.945306000000000000e+09
3.060000000000000000e+02,2.720000000000000000e+02,7.240000000000000000e+02,6.760000000000000000e+02,6.210000000000000000e+02,6.760000000000000000e+02,5.760000000000000000e+02,3.500000000000000000e+02,2.800000000000000266e-01,8.966503500000000000e+09
2.440000000000000000e+02,2.600000000000000000e+02,7.510000000000000000e+02,7.140000000000000000e+02,4.900000000000000000e+02,4.430000000000000000e+02,5.220000000000000000e+02,3.250000000000000000e+02,2.800000000000000266e-01,8.984804400000000000e+09
2.040000000000000000e+02,2.920000000000000000e+02,7.860000000000000000e+02,5.840000000000000000e+02,4.240000000000000000e+02,3.670000000000000000e+02,3.070000000000000000e+02,1.820000000000000000e+02,2.800000000000000266e-01,9.003256600000000000e+09
1.670000000000000000e+02,3.490000000000000000e+02,8.720000000000000000e+02,6.080000000000000000e+02,4.320000000000000000e+02,3.200000000000000000e+02,2.210000000000000000e+02,1.430000000000000000e+02,2.700000000000000178e-01,9.021820400000000000e+09
1.300000000000000000e+02,3.110000000000000000e+02,7.810000000000000000e+02,4.890000000000000000e+02,4.090000000000000000e+02,3.170000000000000000e+02,2.000000000000000000e+02,1.050000000000000000e+02,2.600000000000000089e-01,9.040890900000000000e+09
1.310000000000000000e+02,3.390000000000000000e+02,8.140000000000000000e+02,3.890000000000000000e+02,3.500000000000000000e+02,2.720000000000000000e+02,1.660000000000000000e+02,1.030000000000000000e+02,2.500000000000000000e-01,9.063074300000000000e+09
1.660000000000000000e+02,3.910000000000000000e+02,8.520000000000000000e+02,2.950000000000000000e+02,2.770000000000000000e+02,2.160000000000000000e+02,1.280000000000000000e+02,1.370000000000000000e+02,2.399999999999999911e-01,9.083387000000000000e+09
1.470000000000000000e+02,3.700000000000000000e+02,7.940000000000000000e+02,3.260000000000000000e+02,2.840000000000000000e+02,2.290000000000000000e+02,9.000000000000000000e+01,1.380000000000000000e+02,2.300000000000000100e-01,9.102539700000000000e+09
1.480000000000000000e+02,3.310000000000000000e+02,6.920000000000000000e+02,3.410000000000000000e+02,2.360000000000000000e+02,2.310000000000000000e+02,1.020000000000000000e+02,1.430000000000000000e+02,2.200000000000000011e-01,9.120339400000000000e+09
1.490000000000000000e+02,3.650000000000000000e+02,7.800000000000000000e+02,4.150000000000000000e+02,2.440000000000000000e+02,2.020000000000000000e+02,1.030000000000000000e+02,1.430000000000000000e+02,2.099999999999999922e-01,9.140936900000000000e+09
1.540000000000000000e+02,3.940000000000000000e+02,7.610000000000000000e+02,4.820000000000000000e+02,2.390000000000000000e+02,2.010000000000000000e+02,9.900000000000000000e+01,1.430000000000000000e+02,1.900000000000000022e-01,9.162774700000000000e+09
1.160000000000000000e+02,3.690000000000000000e+02,6.700000000000000000e+02,4.750000000000000000e+02,3.050000000000000000e+02,2.250000000000000000e+02,8.800000000000000000e+01,9.400000000000000000e+01,1.700000000000000122e-01,9.181098200000000000e+09
1.660000000000000000e+02,4.270000000000000000e+02,7.150000000000000000e+02,4.650000000000000000e+02,3.460000000000000000e+02,2.120000000000000000e+02,9.300000000000000000e+01,1.040000000000000000e+02,1.499999999999999944e-01,9.200734200000000000e+09
2.050000000000000000e+02,4.110000000000000000e+02,6.960000000000000000e+02,5.690000000000000000e+02,3.690000000000000000e+02,3.670000000000000000e+02,4.340000000000000000e+02,1.430000000000000000e+02,1.400000000000000133e-01,9.220353100000000000e+09
2.070000000000000000e+02,3.760000000000000000e+02,5.790000000000000000e+02,5.710000000000000000e+02,4.970000000000000000e+02,5.630000000000000000e+02,5.080000000000000000e+02,1.550000000000000000e+02,1.400000000000000133e-01,9.240964200000000000e+09
2.140000000000000000e+02,3.360000000000000000e+02,3.970000000000000000e+02,5.710000000000000000e+02,5.430000000000000000e+02,6.100000000000000000e+02,5.640000000000000000e+02,1.670000000000000000e+02,1.499999999999999944e-01,9.263014100000000000e+09
2.110000000000000000e+02,3.810000000000000000e+02,4.150000000000000000e+02,5.810000000000000000e+02,5.190000000000000000e+02,5.980000000000000000e+02,5.790000000000000000e+02,1.650000000000000000e+02,1.600000000000000033e-01,9.281561900000000000e+09
2.060000000000000000e+02,3.200000000000000000e+02,3.900000000000000000e+02,6.190000000000000000e+02,4.920000000000000000e+02,6.420000000000000000e+02,5.920000000000000000e+02,2.420000000000000000e+02,1.799999999999999933e-01,9.300148800000000000e+09
2.860000000000000000e+02,3.290000000000000000e+02,4.230000000000000000e+02,5.750000000000000000e+02,4.600000000000000000e+02,5.650000000000000000e+02,4.310000000000000000e+02,2.710000000000000000e+02,1.900000000000000022e-01,9.319184100000000000e+09
3.370000000000000000e+02,3.420000000000000000e+02,4.400000000000000000e+02,5.250000000000000000e+02,3.590000000000000000e+02,4.210000000000000000e+02,5.120000000000000000e+02,3.400000000000000000e+02,2.000000000000000111e-01,9.340981100000000000e+09
3.420000000000000000e+02,3.320000000000000000e+02,4.720000000000000000e+02,5.330000000000000000e+02,3.080000000000000000e+02,3.720000000000000000e+02,4.620000000000000000e+02,3.430000000000000000e+02,2.099999999999999922e-01,9.362962900000000000e+09
3.510000000000000000e+02,2.290000000000000000e+02,4.520000000000000000e+02,5.210000000000000000e+02,2.900000000000000000e+02,3.700000000000000000e+02,4.440000000000000000e+02,3.480000000000000000e+02,2.200000000000000011e-01,9.382257700000000000e+09
3.360000000000000000e+02,2.020000000000000000e+02,3.920000000000000000e+02,4.560000000000000000e+02,2.810000000000000000e+02,3.030000000000000000e+02,4.390000000000000000e+02,3.020000000000000000e+02,2.300000000000000100e-01,9.401990600000000000e+09
2.400000000000000000e+02,1.770000000000000000e+02,3.470000000000000000e+02,4.410000000000000000e+02,3.000000000000000000e+02,3.490000000000000000e+02,4.290000000000000000e+02,2.550000000000000000e+02,2.500000000000000000e-01,9.421380200000000000e+09
1.550000000000000000e+02,1.490000000000000000e+02,3.270000000000000000e+02,6.370000000000000000e+02,2.540000000000000000e+02,3.080000000000000000e+02,2.180000000000000000e+02,1.530000000000000000e+02,2.800000000000000266e-01,9.440902300000000000e+09
1.430000000000000000e+02,1.150000000000000000e+02,3.250000000000000000e+02,6.720000000000000000e+02,2.450000000000000000e+02,2.900000000000000000e+02,2.280000000000000000e+02,1.650000000000000000e+02,2.999999999999999889e-01,9.463691200000000000e+09
1.930000000000000000e+02,1.110000000000000000e+02,2.940000000000000000e+02,7.720000000000000000e+02,2.780000000000000000e+02,3.100000000000000000e+02,2.400000000000000000e+02,1.850000000000000000e+02,3.200000000000000067e-01,9.482131000000000000e+09
2.110000000000000000e+02,1.590000000000000000e+02,4.380000000000000000e+02,8.290000000000000000e+02,3.170000000000000000e+02,3.040000000000000000e+02,2.980000000000000000e+02,2.020000000000000000e+02,3.400000000000000244e-01,9.500230500000000000e+09
2.220000000000000000e+02,1.730000000000000000e+02,5.280000000000000000e+02,8.170000000000000000e+02,3.290000000000000000e+02,2.590000000000000000e+02,3.800000000000000000e+02,2.280000000000000000e+02,3.499999999999999778e-01,9.520514800000000000e+09
2.700000000000000000e+02,1.700000000000000000e+02,5.370000000000000000e+02,6.920000000000000000e+02,3.270000000000000000e+02,2.450000000000000000e+02,3.730000000000000000e+02,2.200000000000000000e+02,3.599999999999999867e-01,9.543293700000000000e+09
2.640000000000000000e+02,1.660000000000000000e+02,4.960000000000000000e+02,6.050000000000000000e+02,3.150000000000000000e+02,2.580000000000000000e+02,3.660000000000000000e+02,1.960000000000000000e+02,3.699999999999999956e-01,9.566238600000000000e+09
2.260000000000000000e+02,1.590000000000000000e+02,5.010000000000000000e+02,4.990000000000000000e+02,2.940000000000000000e+02,2.440000000000000000e+02,3.640000000000000000e+02,1.760000000000000000e+02,3.800000000000000044e-01,9.584811700000000000e+09
2.060000000000000000e+02,1.110000000000000000e+02,3.860000000000000000e+02,4.010000000000000000e+02,2.470000000000000000e+02,2.620000000000000000e+02,3.100000000000000000e+02,1.410000000000000000e+02,3.900000000000000133e-01,9.602795100000000000e+09
2.060000000000000000e+02,1.070000000000000000e+02,3.000000000000000000e+02,3.470000000000000000e+02,2.060000000000000000e+02,2.690000000000000000e+02,1.940000000000000000e+02,9.600000000000000000e+01,4.000000000000000222e-01,9.622576800000000000e+09
1.600000000000000000e+02,1.150000000000000000e+02,2.810000000000000000e+02,3.440000000000000000e+02,1.690000000000000000e+02,2.550000000000000000e+02,1.850000000000000000e+02,9.700000000000000000e+01,4.199999999999999845e-01,9.640469600000000000e+09
1.780000000000000000e+02,1.280000000000000000e+02,2.800000000000000000e+02,3.650000000000000000e+02,1.550000000000000000e+02,2.290000000000000000e+02,1.580000000000000000e+02,1.080000000000000000e+02,4.400000000000000022e-01,9.658473200000000000e+09
1.700000000000000000e+02,1.330000000000000000e+02,2.800000000000000000e+02,3.760000000000000000e+02,1.370000000000000000e+02,2.220000000000000000e+02,1.380000000000000000e+02,1.000000000000000000e+02,4.500000000000000111e-01,9.678347700000000000e+09
1.730000000000000000e+02,2.020000000000000000e+02,2.770000000000000000e+02,3.740000000000000000e+02,1.340000000000000000e+02,1.760000000000000000e+02,1.120000000000000000e+02,9.600000000000000000e+01,4.500000000000000111e-01,9.700208300000000000e+09
1.840000000000000000e+02,2.060000000000000000e+02,2.320000000000000000e+02,3.420000000000000000e+02,1.360000000000000000e+02,1.270000000000000000e+02,6.700000000000000000e+01,9.500000000000000000e+01,4.600000000000000200e-01,9.722461200000000000e+09
2.020000000000000000e+02,2.090000000000000000e+02,2.210000000000000000e+02,3.390000000000000000e+02,1.270000000000000000e+02,1.340000000000000000e+02,5.500000000000000000e+01,9.300000000000000000e+01,4.600000000000000200e-01,9.741537000000000000e+09
2.100000000000000000e+02,2.020000000000000000e+02,2.510000000000000000e+02,4.050000000000000000e+02,1.490000000000000000e+02,1.970000000000000000e+02,7.400000000000000000e+01,1.110000000000000000e+02,4.699999999999999734e-01,9.760406100000000000e+09
2.060000000000000000e+02,2.020000000000000000e+02,2.370000000000000000e+02,3.600000000000000000e+02,1.440000000000000000e+02,2.100000000000000000e+02,7.600000000000000000e+01,1.090000000000000000e+02,4.799999999999999822e-01,9.778872600000000000e+09
2.120000000000000000e+02,1.390000000000000000e+02,4.240000000000000000e+02,4.260000000000000000e+02,1.990000000000000000e+02,2.490000000000000000e+02,8.000000000000000000e+01,1.160000000000000000e+02,4.899999999999999911e-01,9.800813700000000000e+09
2.430000000000000000e+02,1.260000000000000000e+02,4.530000000000000000e+02,4.280000000000000000e+02,4.060000000000000000e+02,3.590000000000000000e+02,8.900000000000000000e+01,1.210000000000000000e+02,4.899999999999999911e-01,9.823079100000000000e+09
2.260000000000000000e+02,1.190000000000000000e+02,6.460000000000000000e+02,4.100000000000000000e+02,4.470000000000000000e+02,3.890000000000000000e+02,9.900000000000000000e+01,1.230000000000000000e+02,4.799999999999999822e-01,9.841142000000000000e+09
2.090000000000000000e+02,1.280000000000000000e+02,6.730000000000000000e+02,3.750000000000000000e+02,4.520000000000000000e+02,3.700000000000000000e+02,8.500000000000000000e+01,9.500000000000000000e+01,4.699999999999999734e-01,9.859495300000000000e+09
2.120000000000000000e+02,1.500000000000000000e+02,6.900000000000000000e+02,4.830000000000000000e+02,4.640000000000000000e+02,3.600000000000000000e+02,8.300000000000000000e+01,1.010000000000000000e+02,4.500000000000000111e-01,9.878866000000000000e+09
2.020000000000000000e+02,1.770000000000000000e+02,6.420000000000000000e+02,4.540000000000000000e+02,4.730000000000000000e+02,3.950000000000000000e+02,8.200000000000000000e+01,9.500000000000000000e+01,4.299999999999999933e-01,9.901043000000000000e+09
1.380000000000000000e+02,3.120000000000000000e+02,6.860000000000000000e+02,5.310000000000000000e+02,4.460000000000000000e+02,3.670000000000000000e+02,8.200000000000000000e+01,8.500000000000000000e+01,4.099999999999999756e-01,9.923241000000000000e+09
1.230000000000000000e+02,3.550000000000000000e+02,5.410000000000000000e+02,5.760000000000000000e+02,4.420000000000000000e+02,3.480000000000000000e+02,8.100000000000000000e+01,8.000000000000000000e+01,3.800000000000000044e-01,9.941721300000000000e+09
1.250000000000000000e+02,3.770000000000000000e+02,5.240000000000000000e+02,6.320000000000000000e+02,4.360000000000000000e+02,3.620000000000000000e+02,8.100000000000000000e+01,8.200000000000000000e+01,3.599999999999999867e-01,9.959959100000000000e+09
1.440000000000000000e+02,4.830000000000000000e+02,7.330000000000000000e+02,6.050000000000000000e+02,4.340000000000000000e+02,3.950000000000000000e+02,8.400000000000000000e+01,8.600000000000000000e+01,3.300000000000000155e-01,9.978438700000000000e+09
1.590000000000000000e+02,4.870000000000000000e+02,7.320000000000000000e+02,6.300000000000000000e+02,4.450000000000000000e+02,3.720000000000000000e+02,8.800000000000000000e+01,8.600000000000000000e+01,2.999999999999999889e-01,1.000147240000000000e+10
1.620000000000000000e+02,4.140000000000000000e+02,6.890000000000000000e+02,5.880000000000000000e+02,3.140000000000000000e+02,3.200000000000000000e+02,8.600000000000000000e+01,1.000000000000000000e+02,2.700000000000000178e-01,1.002937630000000000e+10
1.560000000000000000e+02,3.780000000000000000e+02,6.820000000000000000e+02,5.870000000000000000e+02,2.720000000000000000e+02,3.490000000000000000e+02,8.900000000000000000e+01,1.070000000000000000e+02,2.500000000000000000e-01,1.004801330000000000e+10
1.430000000000000000e+02,3.570000000000000000e+02,6.730000000000000000e+02,5.010000000000000000e+02,3.040000000000000000e+02,3.690000000000000000e+02,9.600000000000000000e+01,1.020000000000000000e+02,2.300000000000000100e-01,1.006837560000000000e+10
1.250000000000000000e+02,1.920000000000000000e+02,4.720000000000000000e+02,4.380000000000000000e+02,3.140000000000000000e+02,3.860000000000000000e+02,1.060000000000000000e+02,9.200000000000000000e+01,2.300000000000000100e-01,1.008777430000000000e+10
1.030000000000000000e+02,1.500000000000000000e+02,4.220000000000000000e+02,3.650000000000000000e+02,2.530000000000000000e+02,3.520000000000000000e+02,1.030000000000000000e+02,9.300000000000000000e+01,2.300000000000000100e-01,1.010599250000000000e+10
1.180000000000000000e+02,1.480000000000000000e+02,4.570000000000000000e+02,3.320000000000000000e+02,2.540000000000000000e+02,3.440000000000000000e+02,1.010000000000000000e+02,9.100000000000000000e+01,2.300000000000000100e-01,1.012399500000000000e+10
1.290000000000000000e+02,1.960000000000000000e+02,6.700000000000000000e+02,2.450000000000000000e+02,2.810000000000000000e+02,3.520000000000000000e+02,1.150000000000000000e+02,8.800000000000000000e+01,2.200000000000000011e-01,1.014191560000000000e+10
1.430000000000000000e+02,2.560000000000000000e+02,7.630000000000000000e+02,2.420000000000000000e+02,2.800000000000000000e+02,3.710000000000000000e+02,1.910000000000000000e+02,1.110000000000000000e+02,2.200000000000000011e-01,1.016254900000000000e+10
1.530000000000000000e+02,2.460000000000000000e+02,7.470000000000000000e+02,2.360000000000000000e+02,2.440000000000000000e+02,3.190000000000000000e+02,1.900000000000000000e+02,1.110000000000000000e+02,2.200000000000000011e-01,1.018138770000000000e+10
1.770000000000000000e+02,2.770000000000000000e+02,7.460000000000000000e+02,2.450000000000000000e+02,2.480000000000000000e+02,3.210000000000000000e+02,1.960000000000000000e+02,1.100000000000000000e+02,2.099999999999999922e-01,1.020096080000000000e+10
1.890000000000000000e+02,2.890000000000000000e+02,7.330000000000000000e+02,2.430000000000000000e+02,2.970000000000000000e+02,4.200000000000000000e+02,2.100000000000000000e+02,1.030000000000000000e+02,2.099999999999999922e-01,1.021919000000000000e+10
2.210000000000000000e+02,2.830000000000000000e+02,6.340000000000000000e+02,2.430000000000000000e+02,2.850000000000000000e+02,3.890000000000000000e+02,2.190000000000000000e+02,1.040000000000000000e+02,2.200000000000000011e-01,1.024044530000000000e+10
2.180000000000000000e+02,2.360000000000000000e+02,6.480000000000000000e+02,2.030000000000000000e+02,2.470000000000000000e+02,3.360000000000000000e+02,1.570000000000000000e+02,8.800000000000000000e+01,2.300000000000000100e-01,1.026268680000000000e+10
2.590000000000000000e+02,2.320000000000000000e+02,6.460000000000000000e+02,2.060000000000000000e+02,2.470000000000000000e+02,3.410000000000000000e+02,1.540000000000000000e+02,9.200000000000000000e+01,2.300000000000000100e-01,1.028123970000000000e+10
2.750000000000000000e+02,2.690000000000000000e+02,7.670000000000000000e+02,1.710000000000000000e+02,2.500000000000000000e+02,3.440000000000000000e+02,1.780000000000000000e+02,9.800000000000000000e+01,2.399999999999999911e-01,1.029965420000000000e+10
2.700000000000000000e+02,2.990000000000000000e+02,8.210000000000000000e+02,1.870000000000000000e+02,2.030000000000000000e+02,2.530000000000000000e+02,1.740000000000000000e+02,1.030000000000000000e+02,2.399999999999999911e-01,1.031818270000000000e+10
2.490000000000000000e+02,2.850000000000000000e+02,8.290000000000000000e+02,1.780000000000000000e+02,1.690000000000000000e+02,2.550000000000000000e+02,1.570000000000000000e+02,9.200000000000000000e+01,2.399999999999999911e-01,1.034028460000000000e+10
3.580000000000000000e+02,2.820000000000000000e+02,7.560000000000000000e+02,1.900000000000000000e+02,1.980000000000000000e+02,2.910000000000000000e+02,5.360000000000000000e+02,1.410000000000000000e+02,2.399999999999999911e-01,1.036269560000000000e+10
4.790000000000000000e+02,3.010000000000000000e+02,7.800000000000000000e+02,2.340000000000000000e+02,4.470000000000000000e+02,4.580000000000000000e+02,7.540000000000000000e+02,2.070000000000000000e+02,2.500000000000000000e-01,1.038079880000000000e+10
4.710000000000000000e+02,2.380000000000000000e+02,6.570000000000000000e+02,2.460000000000000000e+02,5.110000000000000000e+02,5.030000000000000000e+02,9.150000000000000000e+02,2.230000000000000000e+02,2.600000000000000089e-01,1.040033800000000000e+10
4.740000000000000000e+02,1.820000000000000000e+02,5.850000000000000000e+02,2.340000000000000000e+02,5.080000000000000000e+02,4.940000000000000000e+02,9.620000000000000000e+02,2.240000000000000000e+02,2.700000000000000178e-01,1.041923410000000000e+10
