6.900000000000000000e+01,2.600000000000000000e+01,3.200000000000000000e+01,2.600000000000000000e+01,2.300000000000000000e+01,4.300000000000000000e+01,7.700000000000000000e+01,2.460000000000000000e+02,4.000000000000000222e-01,4.910158000000000000e+08
7.000000000000000000e+01,2.600000000000000000e+01,3.200000000000000000e+01,2.500000000000000000e+01,2.300000000000000000e+01,4.300000000000000000e+01,7.700000000000000000e+01,2.460000000000000000e+02,4.000000000000000222e-01,5.190400000000000000e+08
7.300000000000000000e+01,2.600000000000000000e+01,3.100000000000000000e+01,2.500000000000000000e+01,2.400000000000000000e+01,4.100000000000000000e+01,9.800000000000000000e+01,2.480000000000000000e+02,4.000000000000000222e-01,1.112508600000000000e+09
6.800000000000000000e+01,2.600000000000000000e+01,3.000000000000000000e+01,2.400000000000000000e+01,2.400000000000000000e+01,4.000000000000000000e+01,1.020000000000000000e+02,2.150000000000000000e+02,4.000000000000000222e-01,1.129889400000000000e+09
5.100000000000000000e+01,2.400000000000000000e+01,2.700000000000000000e+01,2.400000000000000000e+01,2.500000000000000000e+01,4.500000000000000000e+01,9.700000000000000000e+01,1.590000000000000000e+02,4.000000000000000222e-01,1.149568400000000000e+09
6.300000000000000000e+01,2.100000000000000000e+01,2.700000000000000000e+01,2.400000000000000000e+01,2.700000000000000000e+01,3.900000000000000000e+01,1.070000000000000000e+02,1.510000000000000000e+02,4.000000000000000222e-01,1.169656800000000000e+09
6.200000000000000000e+01,2.500000000000000000e+01,2.900000000000000000e+01,2.600000000000000000e+01,2.800000000000000000e+01,4.200000000000000000e+01,1.090000000000000000e+02,2.570000000000000000e+02,4.000000000000000222e-01,1.188598000000000000e+09
5.700000000000000000e+01,2.600000000000000000e+01,2.900000000000000000e+01,2.600000000000000000e+01,2.600000000000000000e+01,4.400000000000000000e+01,9.200000000000000000e+01,2.640000000000000000e+02,4.000000000000000222e-01,1.206618200000000000e+09
5.700000000000000000e+01,2.600000000000000000e+01,3.000000000000000000e+01,2.500000000000000000e+01,2.500000000000000000e+01,4.600000000000000000e+01,9.500000000000000000e+01,2.740000000000000000e+02,4.000000000000000222e-01,1.223890600000000000e+09
5.700000000000000000e+01,2.800000000000000000e+01,3.100000000000000000e+01,2.400000000000000000e+01,2.400000000000000000e+01,4.200000000000000000e+01,9.800000000000000000e+01,2.680000000000000000e+02,4.000000000000000222e-01,1.242210700000000000e+09
7.000000000000000000e+01,2.900000000000000000e+01,3.300000000000000000e+01,2.600000000000000000e+01,2.200000000000000000e+01,4.400000000000000000e+01,8.500000000000000000e+01,2.760000000000000000e+02,4.000000000000000222e-01,1.260290100000000000e+09
7.000000000000000000e+01,2.900000000000000000e+01,3.000000000000000000e+01,2.400000000000000000e+01,2.000000000000000000e+01,4.300000000000000000e+01,8.300000000000000000e+01,1.750000000000000000e+02,4.000000000000000222e-01,1.278354600000000000e+09
6.900000000000000000e+01,2.900000000000000000e+01,3.000000000000000000e+01,2.200000000000000000e+01,1.900000000000000000e+01,4.100000000000000000e+01,8.300000000000000000e+01,1.650000000000000000e+02,4.000000000000000222e-01,1.296575100000000000e+09
6.700000000000000000e+01,3.000000000000000000e+01,2.900000000000000000e+01,2.000000000000000000e+01,2.100000000000000000e+01,3.800000000000000000e+01,8.000000000000000000e+01,1.520000000000000000e+02,4.000000000000000222e-01,1.314185200000000000e+09
6.800000000000000000e+01,2.700000000000000000e+01,2.900000000000000000e+01,2.000000000000000000e+01,2.000000000000000000e+01,3.800000000000000000e+01,6.700000000000000000e+01,2.180000000000000000e+02,4.099999999999999756e-01,1.332193900000000000e+09
5.700000000000000000e+01,2.800000000000000000e+01,2.800000000000000000e+01,1.700000000000000000e+01,2.100000000000000000e+01,3.500000000000000000e+01,7.200000000000000000e+01,2.170000000000000000e+02,4.099999999999999756e-01,1.350548600000000000e+09
6.000000000000000000e+01,2.700000000000000000e+01,2.600000000000000000e+01,2.000000000000000000e+01,2.400000000000000000e+01,3.500000000000000000e+01,7.200000000000000000e+01,2.330000000000000000e+02,4.099999999999999756e-01,1.369237600000000000e+09
6.000000000000000000e+01,2.600000000000000000e+01,2.600000000000000000e+01,2.000000000000000000e+01,2.400000000000000000e+01,3.700000000000000000e+01,8.600000000000000000e+01,2.390000000000000000e+02,4.099999999999999756e-01,1.387207700000000000e+09
6.000000000000000000e+01,2.700000000000000000e+01,2.700000000000000000e+01,2.200000000000000000e+01,2.400000000000000000e+01,3.900000000000000000e+01,8.200000000000000000e+01,2.530000000000000000e+02,4.099999999999999756e-01,1.412910500000000000e+09
7.200000000000000000e+01,2.700000000000000000e+01,2.400000000000000000e+01,2.400000000000000000e+01,2.400000000000000000e+01,3.900000000000000000e+01,8.600000000000000000e+01,2.020000000000000000e+02,4.099999999999999756e-01,1.432771700000000000e+09
6.200000000000000000e+01,2.700000000000000000e+01,2.700000000000000000e+01,2.500000000000000000e+01,2.300000000000000000e+01,4.500000000000000000e+01,9.600000000000000000e+01,1.970000000000000000e+02,4.099999999999999756e-01,1.451502000000000000e+09
6.300000000000000000e+01,2.700000000000000000e+01,2.900000000000000000e+01,2.200000000000000000e+01,2.000000000000000000e+01,4.600000000000000000e+01,9.900000000000000000e+01,2.320000000000000000e+02,4.099999999999999756e-01,1.468894500000000000e+09
6.600000000000000000e+01,2.700000000000000000e+01,2.900000000000000000e+01,2.400000000000000000e+01,2.000000000000000000e+01,4.400000000000000000e+01,8.400000000000000000e+01,2.630000000000000000e+02,4.099999999999999756e-01,1.486590100000000000e+09
7.600000000000000000e+01,2.600000000000000000e+01,2.900000000000000000e+01,2.400000000000000000e+01,1.800000000000000000e+01,4.800000000000000000e+01,9.100000000000000000e+01,2.570000000000000000e+02,4.099999999999999756e-01,1.505604200000000000e+09
6.200000000000000000e+01,2.600000000000000000e+01,3.000000000000000000e+01,2.400000000000000000e+01,2.100000000000000000e+01,4.600000000000000000e+01,8.800000000000000000e+01,2.510000000000000000e+02,4.099999999999999756e-01,1.522904600000000000e+09
6.800000000000000000e+01,2.600000000000000000e+01,3.100000000000000000e+01,2.500000000000000000e+01,2.200000000000000000e+01,4.000000000000000000e+01,8.400000000000000000e+01,3.050000000000000000e+02,4.000000000000000222e-01,1.540993900000000000e+09
7.600000000000000000e+01,2.300000000000000000e+01,3.000000000000000000e+01,2.600000000000000000e+01,2.300000000000000000e+01,4.200000000000000000e+01,7.900000000000000000e+01,2.790000000000000000e+02,4.000000000000000222e-01,1.559443400000000000e+09
8.200000000000000000e+01,2.200000000000000000e+01,3.000000000000000000e+01,2.700000000000000000e+01,2.300000000000000000e+01,4.300000000000000000e+01,8.400000000000000000e+01,2.460000000000000000e+02,4.000000000000000222e-01,1.577943600000000000e+09
7.400000000000000000e+01,2.200000000000000000e+01,3.100000000000000000e+01,2.400000000000000000e+01,2.400000000000000000e+01,3.700000000000000000e+01,7.600000000000000000e+01,2.390000000000000000e+02,4.000000000000000222e-01,1.596787100000000000e+09
7.500000000000000000e+01,2.100000000000000000e+01,3.200000000000000000e+01,2.300000000000000000e+01,2.300000000000000000e+01,3.800000000000000000e+01,7.400000000000000000e+01,2.280000000000000000e+02,4.000000000000000222e-01,1.616588700000000000e+09
8.000000000000000000e+01,2.300000000000000000e+01,3.100000000000000000e+01,2.200000000000000000e+01,2.500000000000000000e+01,4.200000000000000000e+01,7.000000000000000000e+01,2.440000000000000000e+02,4.000000000000000222e-01,1.635921900000000000e+09
7.800000000000000000e+01,2.400000000000000000e+01,3.300000000000000000e+01,2.400000000000000000e+01,2.700000000000000000e+01,4.400000000000000000e+01,9.200000000000000000e+01,2.620000000000000000e+02,4.000000000000000222e-01,1.654066500000000000e+09
7.100000000000000000e+01,2.600000000000000000e+01,3.200000000000000000e+01,2.100000000000000000e+01,2.700000000000000000e+01,4.700000000000000000e+01,9.000000000000000000e+01,2.650000000000000000e+02,4.000000000000000222e-01,1.672119300000000000e+09
7.800000000000000000e+01,2.800000000000000000e+01,3.400000000000000000e+01,2.400000000000000000e+01,2.800000000000000000e+01,4.700000000000000000e+01,8.900000000000000000e+01,2.990000000000000000e+02,4.000000000000000222e-01,1.690814800000000000e+09
7.800000000000000000e+01,3.000000000000000000e+01,3.300000000000000000e+01,2.500000000000000000e+01,2.900000000000000000e+01,4.900000000000000000e+01,9.700000000000000000e+01,3.040000000000000000e+02,4.000000000000000222e-01,1.709975100000000000e+09
7.600000000000000000e+01,2.800000000000000000e+01,3.400000000000000000e+01,2.700000000000000000e+01,2.700000000000000000e+01,4.700000000000000000e+01,9.800000000000000000e+01,3.670000000000000000e+02,4.000000000000000222e-01,1.730615500000000000e+09
6.700000000000000000e+01,2.800000000000000000e+01,3.100000000000000000e+01,2.600000000000000000e+01,2.500000000000000000e+01,4.200000000000000000e+01,7.900000000000000000e+01,3.440000000000000000e+02,4.000000000000000222e-01,1.750547600000000000e+09
6.300000000000000000e+01,2.800000000000000000e+01,3.100000000000000000e+01,2.600000000000000000e+01,2.500000000000000000e+01,3.700000000000000000e+01,8.200000000000000000e+01,3.420000000000000000e+02,4.000000000000000222e-01,1.770433600000000000e+09
6.300000000000000000e+01,2.600000000000000000e+01,3.000000000000000000e+01,2.600000000000000000e+01,2.300000000000000000e+01,3.600000000000000000e+01,7.900000000000000000e+01,3.310000000000000000e+02,3.900000000000000133e-01,1.791628900000000000e+09
7.000000000000000000e+01,2.700000000000000000e+01,3.100000000000000000e+01,2.500000000000000000e+01,2.300000000000000000e+01,3.600000000000000000e+01,7.200000000000000000e+01,3.280000000000000000e+02,3.900000000000000133e-01,1.810253100000000000e+09
6.200000000000000000e+01,2.600000000000000000e+01,3.000000000000000000e+01,2.200000000000000000e+01,2.300000000000000000e+01,3.600000000000000000e+01,6.600000000000000000e+01,1.660000000000000000e+02,4.000000000000000222e-01,1.828749600000000000e+09
6.400000000000000000e+01,2.700000000000000000e+01,2.900000000000000000e+01,2.000000000000000000e+01,2.500000000000000000e+01,3.800000000000000000e+01,6.700000000000000000e+01,2.070000000000000000e+02,4.000000000000000222e-01,1.847320000000000000e+09
6.700000000000000000e+01,2.700000000000000000e+01,3.000000000000000000e+01,2.200000000000000000e+01,2.400000000000000000e+01,4.300000000000000000e+01,6.200000000000000000e+01,2.120000000000000000e+02,4.000000000000000222e-01,1.865774000000000000e+09
6.300000000000000000e+01,2.900000000000000000e+01,3.400000000000000000e+01,1.900000000000000000e+01,2.500000000000000000e+01,4.500000000000000000e+01,6.300000000000000000e+01,2.010000000000000000e+02,4.000000000000000222e-01,1.883877400000000000e+09
6.600000000000000000e+01,2.700000000000000000e+01,3.200000000000000000e+01,2.300000000000000000e+01,2.400000000000000000e+01,4.700000000000000000e+01,7.400000000000000000e+01,2.160000000000000000e+02,4.000000000000000222e-01,1.901870400000000000e+09
6.300000000000000000e+01,2.700000000000000000e+01,3.100000000000000000e+01,2.400000000000000000e+01,2.500000000000000000e+01,4.700000000000000000e+01,6.800000000000000000e+01,2.150000000000000000e+02,4.000000000000000222e-01,1.919829900000000000e+09
6.900000000000000000e+01,2.500000000000000000e+01,3.300000000000000000e+01,2.500000000000000000e+01,2.100000000000000000e+01,4.700000000000000000e+01,7.100000000000000000e+01,1.860000000000000000e+02,4.000000000000000222e-01,1.938729300000000000e+09
6.900000000000000000e+01,2.400000000000000000e+01,3.500000000000000000e+01,2.500000000000000000e+01,2.400000000000000000e+01,4.500000000000000000e+01,6.700000000000000000e+01,2.040000000000000000e+02,4.000000000000000222e-01,1.957253100000000000e+09
6.900000000000000000e+01,2.100000000000000000e+01,2.900000000000000000e+01,2.600000000000000000e+01,2.400000000000000000e+01,4.100000000000000000e+01,6.600000000000000000e+01,1.800000000000000000e+02,4.099999999999999756e-01,1.977551800000000000e+09
6.100000000000000000e+01,2.400000000000000000e+01,3.200000000000000000e+01,2.600000000000000000e+01,2.400000000000000000e+01,3.800000000000000000e+01,4.700000000000000000e+01,1.570000000000000000e+02,4.099999999999999756e-01,1.996492700000000000e+09
6.700000000000000000e+01,2.300000000000000000e+01,3.100000000000000000e+01,2.600000000000000000e+01,2.600000000000000000e+01,3.500000000000000000e+01,4.600000000000000000e+01,1.570000000000000000e+02,4.099999999999999756e-01,2.014756200000000000e+09
6.600000000000000000e+01,2.500000000000000000e+01,3.200000000000000000e+01,2.500000000000000000e+01,2.700000000000000000e+01,3.400000000000000000e+01,3.500000000000000000e+01,1.920000000000000000e+02,4.099999999999999756e-01,2.033686800000000000e+09
6.300000000000000000e+01,2.400000000000000000e+01,3.300000000000000000e+01,2.600000000000000000e+01,2.500000000000000000e+01,2.800000000000000000e+01,3.200000000000000000e+01,1.580000000000000000e+02,4.099999999999999756e-01,2.051748500000000000e+09
5.900000000000000000e+01,2.500000000000000000e+01,3.300000000000000000e+01,2.400000000000000000e+01,2.500000000000000000e+01,3.300000000000000000e+01,3.100000000000000000e+01,1.620000000000000000e+02,4.099999999999999756e-01,2.070423400000000000e+09
5.600000000000000000e+01,2.500000000000000000e+01,3.100000000000000000e+01,2.100000000000000000e+01,2.500000000000000000e+01,3.100000000000000000e+01,3.000000000000000000e+01,1.630000000000000000e+02,4.099999999999999756e-01,2.088620200000000000e+09
4.900000000000000000e+01,2.700000000000000000e+01,3.700000000000000000e+01,2.800000000000000000e+01,2.100000000000000000e+01,3.200000000000000000e+01,4.200000000000000000e+01,1.590000000000000000e+02,4.099999999999999756e-01,2.107154500000000000e+09
4.100000000000000000e+01,2.500000000000000000e+01,4.200000000000000000e+01,3.000000000000000000e+01,2.000000000000000000e+01,2.800000000000000000e+01,4.200000000000000000e+01,7.900000000000000000e+01,4.099999999999999756e-01,2.126101000000000000e+09
4.000000000000000000e+01,2.700000000000000000e+01,5.300000000000000000e+01,3.100000000000000000e+01,2.300000000000000000e+01,2.800000000000000000e+01,4.200000000000000000e+01,7.200000000000000000e+01,4.199999999999999845e-01,2.144149000000000000e+09
4.500000000000000000e+01,2.900000000000000000e+01,5.900000000000000000e+01,4.000000000000000000e+01,2.400000000000000000e+01,2.700000000000000000e+01,4.300000000000000000e+01,6.500000000000000000e+01,4.199999999999999845e-01,2.163342900000000000e+09
4.300000000000000000e+01,3.500000000000000000e+01,1.140000000000000000e+02,5.000000000000000000e+01,2.600000000000000000e+01,2.800000000000000000e+01,4.300000000000000000e+01,5.800000000000000000e+01,4.199999999999999845e-01,2.182924700000000000e+09
5.400000000000000000e+01,5.500000000000000000e+01,1.710000000000000000e+02,6.300000000000000000e+01,2.900000000000000000e+01,2.800000000000000000e+01,3.400000000000000000e+01,5.700000000000000000e+01,4.299999999999999933e-01,2.201601300000000000e+09
5.100000000000000000e+01,6.000000000000000000e+01,1.890000000000000000e+02,7.700000000000000000e+01,3.900000000000000000e+01,3.400000000000000000e+01,3.500000000000000000e+01,5.700000000000000000e+01,4.299999999999999933e-01,2.220433600000000000e+09
5.200000000000000000e+01,7.100000000000000000e+01,2.020000000000000000e+02,9.200000000000000000e+01,4.100000000000000000e+01,3.600000000000000000e+01,3.600000000000000000e+01,5.800000000000000000e+01,4.400000000000000022e-01,2.238720000000000000e+09
5.100000000000000000e+01,8.300000000000000000e+01,2.370000000000000000e+02,1.050000000000000000e+02,5.100000000000000000e+01,3.700000000000000000e+01,3.800000000000000000e+01,4.300000000000000000e+01,4.500000000000000111e-01,2.256283300000000000e+09
5.100000000000000000e+01,8.300000000000000000e+01,2.550000000000000000e+02,1.360000000000000000e+02,6.000000000000000000e+01,3.800000000000000000e+01,4.000000000000000000e+01,4.300000000000000000e+01,4.500000000000000111e-01,2.272905400000000000e+09
4.100000000000000000e+01,8.600000000000000000e+01,2.580000000000000000e+02,1.870000000000000000e+02,6.900000000000000000e+01,4.000000000000000000e+01,3.900000000000000000e+01,3.800000000000000000e+01,4.699999999999999734e-01,2.289414300000000000e+09
4.100000000000000000e+01,8.400000000000000000e+01,2.520000000000000000e+02,1.890000000000000000e+02,6.900000000000000000e+01,3.600000000000000000e+01,3.700000000000000000e+01,3.500000000000000000e+01,4.799999999999999822e-01,2.306787900000000000e+09
3.900000000000000000e+01,7.600000000000000000e+01,2.640000000000000000e+02,1.880000000000000000e+02,6.800000000000000000e+01,3.700000000000000000e+01,3.900000000000000000e+01,4.700000000000000000e+01,4.899999999999999911e-01,2.323012400000000000e+09
5.200000000000000000e+01,8.000000000000000000e+01,2.500000000000000000e+02,1.840000000000000000e+02,6.800000000000000000e+01,3.400000000000000000e+01,3.700000000000000000e+01,4.600000000000000000e+01,5.000000000000000000e-01,2.339928800000000000e+09
5.300000000000000000e+01,9.200000000000000000e+01,2.330000000000000000e+02,1.740000000000000000e+02,7.200000000000000000e+01,3.700000000000000000e+01,3.700000000000000000e+01,4.400000000000000000e+01,5.100000000000000089e-01,2.356878200000000000e+09
5.200000000000000000e+01,9.700000000000000000e+01,1.940000000000000000e+02,1.210000000000000000e+02,7.500000000000000000e+01,4.600000000000000000e+01,3.600000000000000000e+01,4.500000000000000000e+01,5.200000000000000178e-01,2.373335600000000000e+09
5.300000000000000000e+01,1.010000000000000000e+02,2.020000000000000000e+02,1.170000000000000000e+02,7.600000000000000000e+01,4.600000000000000000e+01,3.700000000000000000e+01,4.800000000000000000e+01,5.200000000000000178e-01,2.390095000000000000e+09
5.200000000000000000e+01,1.020000000000000000e+02,1.850000000000000000e+02,1.190000000000000000e+02,8.100000000000000000e+01,4.600000000000000000e+01,3.400000000000000000e+01,3.200000000000000000e+01,5.300000000000000266e-01,2.408288800000000000e+09
3.400000000000000000e+01,9.200000000000000000e+01,1.750000000000000000e+02,1.770000000000000000e+02,9.900000000000000000e+01,4.700000000000000000e+01,3.300000000000000000e+01,3.000000000000000000e+01,5.400000000000000355e-01,2.425753400000000000e+09
3.100000000000000000e+01,7.900000000000000000e+01,1.500000000000000000e+02,1.870000000000000000e+02,9.300000000000000000e+01,4.400000000000000000e+01,3.100000000000000000e+01,3.000000000000000000e+01,5.400000000000000355e-01,2.442344700000000000e+09
2.900000000000000000e+01,5.900000000000000000e+01,1.470000000000000000e+02,1.860000000000000000e+02,8.800000000000000000e+01,3.100000000000000000e+01,2.800000000000000000e+01,2.600000000000000000e+01,5.500000000000000444e-01,2.459471200000000000e+09
2.700000000000000000e+01,5.400000000000000000e+01,1.620000000000000000e+02,2.250000000000000000e+02,1.060000000000000000e+02,3.200000000000000000e+01,2.800000000000000000e+01,2.300000000000000000e+01,5.500000000000000444e-01,2.476374200000000000e+09
2.600000000000000000e+01,6.500000000000000000e+01,1.510000000000000000e+02,2.510000000000000000e+02,1.270000000000000000e+02,2.900000000000000000e+01,2.700000000000000000e+01,2.300000000000000000e+01,5.500000000000000444e-01,2.493211800000000000e+09
2.800000000000000000e+01,7.400000000000000000e+01,1.610000000000000000e+02,2.680000000000000000e+02,1.210000000000000000e+02,2.500000000000000000e+01,2.600000000000000000e+01,2.600000000000000000e+01,5.500000000000000444e-01,2.509920800000000000e+09
2.700000000000000000e+01,8.500000000000000000e+01,2.090000000000000000e+02,2.610000000000000000e+02,1.230000000000000000e+02,3.100000000000000000e+01,2.800000000000000000e+01,2.600000000000000000e+01,5.500000000000000444e-01,2.526601200000000000e+09
2.800000000000000000e+01,1.570000000000000000e+02,2.150000000000000000e+02,2.590000000000000000e+02,1.370000000000000000e+02,3.500000000000000000e+01,2.900000000000000000e+01,2.600000000000000000e+01,5.500000000000000444e-01,2.544149800000000000e+09
2.900000000000000000e+01,1.600000000000000000e+02,3.070000000000000000e+02,2.460000000000000000e+02,1.250000000000000000e+02,3.300000000000000000e+01,2.700000000000000000e+01,2.800000000000000000e+01,5.500000000000000444e-01,2.560869500000000000e+09
2.900000000000000000e+01,1.580000000000000000e+02,3.150000000000000000e+02,2.240000000000000000e+02,1.240000000000000000e+02,3.300000000000000000e+01,2.500000000000000000e+01,2.800000000000000000e+01,5.500000000000000444e-01,2.578294200000000000e+09
3.000000000000000000e+01,1.630000000000000000e+02,3.150000000000000000e+02,1.890000000000000000e+02,1.520000000000000000e+02,3.900000000000000000e+01,2.900000000000000000e+01,2.500000000000000000e+01,5.500000000000000444e-01,2.596472500000000000e+09
3.200000000000000000e+01,1.820000000000000000e+02,3.010000000000000000e+02,1.840000000000000000e+02,1.520000000000000000e+02,4.100000000000000000e+01,2.800000000000000000e+01,2.500000000000000000e+01,5.500000000000000444e-01,2.613249500000000000e+09
3.400000000000000000e+01,2.650000000000000000e+02,3.390000000000000000e+02,1.960000000000000000e+02,1.450000000000000000e+02,4.100000000000000000e+01,2.800000000000000000e+01,2.500000000000000000e+01,5.500000000000000444e-01,2.630263500000000000e+09
3.400000000000000000e+01,2.750000000000000000e+02,2.690000000000000000e+02,1.850000000000000000e+02,1.450000000000000000e+02,4.200000000000000000e+01,3.100000000000000000e+01,2.600000000000000000e+01,5.500000000000000444e-01,2.647287900000000000e+09
3.900000000000000000e+01,3.310000000000000000e+02,3.780000000000000000e+02,2.750000000000000000e+02,1.290000000000000000e+02,4.400000000000000000e+01,3.300000000000000000e+01,2.800000000000000000e+01,5.400000000000000355e-01,2.664717800000000000e+09
3.900000000000000000e+01,3.440000000000000000e+02,4.390000000000000000e+02,2.830000000000000000e+02,9.200000000000000000e+01,4.200000000000000000e+01,3.400000000000000000e+01,3.500000000000000000e+01,5.400000000000000355e-01,2.681710200000000000e+09
4.800000000000000000e+01,3.500000000000000000e+02,4.780000000000000000e+02,2.980000000000000000e+02,9.300000000000000000e+01,4.400000000000000000e+01,3.900000000000000000e+01,4.100000000000000000e+01,5.400000000000000355e-01,2.698859500000000000e+09
5.400000000000000000e+01,3.140000000000000000e+02,5.280000000000000000e+02,3.620000000000000000e+02,8.700000000000000000e+01,4.400000000000000000e+01,3.900000000000000000e+01,4.200000000000000000e+01,5.400000000000000355e-01,2.716751800000000000e+09
5.500000000000000000e+01,3.180000000000000000e+02,5.750000000000000000e+02,3.990000000000000000e+02,9.100000000000000000e+01,4.500000000000000000e+01,3.800000000000000000e+01,4.400000000000000000e+01,5.300000000000000266e-01,2.736159900000000000e+09
5.900000000000000000e+01,2.960000000000000000e+02,6.680000000000000000e+02,3.840000000000000000e+02,9.000000000000000000e+01,5.100000000000000000e+01,4.000000000000000000e+01,4.500000000000000000e+01,5.300000000000000266e-01,2.754446600000000000e+09
5.900000000000000000e+01,2.990000000000000000e+02,6.640000000000000000e+02,3.840000000000000000e+02,7.900000000000000000e+01,5.000000000000000000e+01,3.800000000000000000e+01,4.600000000000000000e+01,5.300000000000000266e-01,2.771009700000000000e+09
5.300000000000000000e+01,2.800000000000000000e+02,6.960000000000000000e+02,3.870000000000000000e+02,8.300000000000000000e+01,4.400000000000000000e+01,3.100000000000000000e+01,4.100000000000000000e+01,5.200000000000000178e-01,2.787497700000000000e+09
5.400000000000000000e+01,2.490000000000000000e+02,6.960000000000000000e+02,3.900000000000000000e+02,7.700000000000000000e+01,5.300000000000000000e+01,6.900000000000000000e+01,4.300000000000000000e+01,5.200000000000000178e-01,2.804618700000000000e+09
6.700000000000000000e+01,2.560000000000000000e+02,6.930000000000000000e+02,3.670000000000000000e+02,6.600000000000000000e+01,5.700000000000000000e+01,7.000000000000000000e+01,4.300000000000000000e+01,5.200000000000000178e-01,2.821482100000000000e+09
7.200000000000000000e+01,2.720000000000000000e+02,5.940000000000000000e+02,3.360000000000000000e+02,7.000000000000000000e+01,5.600000000000000000e+01,8.800000000000000000e+01,4.700000000000000000e+01,5.200000000000000178e-01,2.839166300000000000e+09
1.010000000000000000e+02,2.950000000000000000e+02,5.700000000000000000e+02,3.430000000000000000e+02,7.700000000000000000e+01,7.300000000000000000e+01,1.040000000000000000e+02,2.190000000000000000e+02,5.200000000000000178e-01,2.855647300000000000e+09
1.050000000000000000e+02,3.110000000000000000e+02,6.110000000000000000e+02,3.440000000000000000e+02,7.900000000000000000e+01,7.800000000000000000e+01,1.080000000000000000e+02,2.310000000000000000e+02,5.300000000000000266e-01,2.878404700000000000e+09
1.080000000000000000e+02,3.330000000000000000e+02,5.820000000000000000e+02,3.020000000000000000e+02,9.400000000000000000e+01,8.200000000000000000e+01,1.050000000000000000e+02,2.400000000000000000e+02,5.200000000000000178e-01,2.897192900000000000e+09
1.060000000000000000e+02,3.330000000000000000e+02,5.840000000000000000e+02,3.100000000000000000e+02,1.010000000000000000e+02,9.800000000000000000e+01,1.060000000000000000e+02,2.510000000000000000e+02,5.200000000000000178e-01,2.914690200000000000e+09
1.150000000000000000e+02,3.190000000000000000e+02,6.020000000000000000e+02,3.450000000000000000e+02,1.040000000000000000e+02,1.030000000000000000e+02,1.050000000000000000e+02,2.860000000000000000e+02,5.100000000000000089e-01,2.932022100000000000e+09
1.190000000000000000e+02,2.810000000000000000e+02,6.780000000000000000e+02,3.520000000000000000e+02,1.000000000000000000e+02,1.020000000000000000e+02,1.220000000000000000e+02,2.210000000000000000e+02,5.100000000000000089e-01,2.949261300000000000e+09
1.220000000000000000e+02,3.020000000000000000e+02,6.640000000000000000e+02,3.740000000000000000e+02,1.060000000000000000e+02,1.060000000000000000e+02,1.320000000000000000e+02,2.180000000000000000e+02,5.100000000000000089e-01,2.965561100000000000e+09
1.190000000000000000e+02,2.620000000000000000e+02,7.080000000000000000e+02,3.740000000000000000e+02,9.400000000000000000e+01,1.010000000000000000e+02,1.300000000000000000e+02,2.180000000000000000e+02,5.100000000000000089e-01,2.981684300000000000e+09
1.250000000000000000e+02,2.500000000000000000e+02,7.060000000000000000e+02,4.150000000000000000e+02,8.800000000000000000e+01,8.800000000000000000e+01,1.370000000000000000e+02,2.460000000000000000e+02,5.100000000000000089e-01,2.999816400000000000e+09
1.220000000000000000e+02,2.760000000000000000e+02,6.730000000000000000e+02,4.060000000000000000e+02,8.500000000000000000e+01,7.900000000000000000e+01,1.520000000000000000e+02,2.060000000000000000e+02,5.100000000000000089e-01,3.018530200000000000e+09
1.050000000000000000e+02,2.820000000000000000e+02,6.680000000000000000e+02,4.300000000000000000e+02,8.800000000000000000e+01,7.600000000000000000e+01,1.430000000000000000e+02,2.340000000000000000e+02,5.100000000000000089e-01,3.036021800000000000e+09
1.050000000000000000e+02,2.440000000000000000e+02,7.260000000000000000e+02,5.180000000000000000e+02,7.600000000000000000e+01,7.300000000000000000e+01,1.350000000000000000e+02,2.300000000000000000e+02,5.000000000000000000e-01,3.052803400000000000e+09
1.090000000000000000e+02,2.480000000000000000e+02,6.990000000000000000e+02,5.380000000000000000e+02,7.800000000000000000e+01,7.700000000000000000e+01,1.330000000000000000e+02,2.380000000000000000e+02,5.000000000000000000e-01,3.069603900000000000e+09
1.050000000000000000e+02,2.420000000000000000e+02,7.420000000000000000e+02,5.590000000000000000e+02,7.900000000000000000e+01,8.000000000000000000e+01,1.330000000000000000e+02,2.500000000000000000e+02,5.000000000000000000e-01,3.086089000000000000e+09
1.440000000000000000e+02,2.290000000000000000e+02,7.910000000000000000e+02,6.660000000000000000e+02,7.400000000000000000e+01,8.700000000000000000e+01,1.080000000000000000e+02,2.940000000000000000e+02,5.100000000000000089e-01,3.103373600000000000e+09
1.540000000000000000e+02,2.590000000000000000e+02,8.010000000000000000e+02,6.630000000000000000e+02,8.200000000000000000e+01,1.020000000000000000e+02,1.150000000000000000e+02,2.540000000000000000e+02,5.200000000000000178e-01,3.120629000000000000e+09
1.560000000000000000e+02,2.580000000000000000e+02,7.180000000000000000e+02,5.750000000000000000e+02,7.800000000000000000e+01,1.120000000000000000e+02,1.320000000000000000e+02,2.740000000000000000e+02,5.300000000000000266e-01,3.137385900000000000e+09
1.690000000000000000e+02,2.460000000000000000e+02,7.340000000000000000e+02,5.660000000000000000e+02,7.500000000000000000e+01,1.100000000000000000e+02,1.290000000000000000e+02,2.760000000000000000e+02,5.400000000000000355e-01,3.154527900000000000e+09
1.740000000000000000e+02,2.610000000000000000e+02,7.630000000000000000e+02,5.840000000000000000e+02,7.900000000000000000e+01,1.080000000000000000e+02,1.230000000000000000e+02,2.410000000000000000e+02,5.500000000000000444e-01,3.173313800000000000e+09
1.420000000000000000e+02,2.110000000000000000e+02,7.460000000000000000e+02,4.720000000000000000e+02,7.900000000000000000e+01,1.030000000000000000e+02,1.190000000000000000e+02,2.150000000000000000e+02,5.500000000000000444e-01,3.190789700000000000e+09
1.300000000000000000e+02,1.610000000000000000e+02,7.000000000000000000e+02,4.630000000000000000e+02,6.600000000000000000e+01,8.500000000000000000e+01,1.190000000000000000e+02,2.560000000000000000e+02,5.600000000000000533e-01,3.208166900000000000e+09
1.400000000000000000e+02,1.580000000000000000e+02,6.720000000000000000e+02,4.780000000000000000e+02,6.400000000000000000e+01,7.000000000000000000e+01,1.060000000000000000e+02,2.430000000000000000e+02,5.699999999999999512e-01,3.224810500000000000e+09
1.220000000000000000e+02,1.840000000000000000e+02,6.780000000000000000e+02,4.560000000000000000e+02,6.800000000000000000e+01,6.900000000000000000e+01,1.030000000000000000e+02,2.360000000000000000e+02,5.799999999999999600e-01,3.241452800000000000e+09
1.160000000000000000e+02,1.940000000000000000e+02,5.680000000000000000e+02,3.500000000000000000e+02,6.400000000000000000e+01,6.300000000000000000e+01,1.180000000000000000e+02,2.260000000000000000e+02,5.799999999999999600e-01,3.258238000000000000e+09
1.190000000000000000e+02,2.290000000000000000e+02,6.010000000000000000e+02,3.150000000000000000e+02,6.900000000000000000e+01,6.700000000000000000e+01,1.250000000000000000e+02,2.160000000000000000e+02,5.899999999999999689e-01,3.275725800000000000e+09
1.340000000000000000e+02,2.280000000000000000e+02,6.480000000000000000e+02,3.300000000000000000e+02,8.900000000000000000e+01,6.800000000000000000e+01,1.020000000000000000e+02,2.370000000000000000e+02,5.899999999999999689e-01,3.293134600000000000e+09
1.230000000000000000e+02,2.340000000000000000e+02,6.590000000000000000e+02,3.300000000000000000e+02,9.100000000000000000e+01,6.100000000000000000e+01,9.500000000000000000e+01,2.330000000000000000e+02,5.899999999999999689e-01,3.310435300000000000e+09
1.270000000000000000e+02,2.390000000000000000e+02,6.450000000000000000e+02,3.260000000000000000e+02,9.000000000000000000e+01,5.900000000000000000e+01,9.900000000000000000e+01,2.270000000000000000e+02,5.799999999999999600e-01,3.327328400000000000e+09
1.270000000000000000e+02,2.170000000000000000e+02,6.350000000000000000e+02,3.170000000000000000e+02,8.800000000000000000e+01,5.800000000000000000e+01,8.400000000000000000e+01,2.390000000000000000e+02,5.799999999999999600e-01,3.344395900000000000e+09
1.400000000000000000e+02,2.600000000000000000e+02,5.480000000000000000e+02,3.770000000000000000e+02,9.400000000000000000e+01,5.300000000000000000e+01,8.500000000000000000e+01,2.370000000000000000e+02,5.799999999999999600e-01,3.361490000000000000e+09
1.310000000000000000e+02,2.760000000000000000e+02,5.020000000000000000e+02,3.310000000000000000e+02,7.800000000000000000e+01,4.300000000000000000e+01,8.300000000000000000e+01,2.310000000000000000e+02,5.799999999999999600e-01,3.378500900000000000e+09
1.270000000000000000e+02,2.870000000000000000e+02,5.620000000000000000e+02,3.490000000000000000e+02,8.800000000000000000e+01,5.000000000000000000e+01,7.800000000000000000e+01,2.310000000000000000e+02,5.799999999999999600e-01,3.395637900000000000e+09
1.230000000000000000e+02,2.710000000000000000e+02,6.450000000000000000e+02,5.350000000000000000e+02,9.000000000000000000e+01,5.200000000000000000e+01,7.600000000000000000e+01,2.300000000000000000e+02,5.799999999999999600e-01,3.412715100000000000e+09
1.160000000000000000e+02,2.850000000000000000e+02,6.800000000000000000e+02,5.770000000000000000e+02,9.400000000000000000e+01,5.300000000000000000e+01,6.400000000000000000e+01,2.190000000000000000e+02,5.699999999999999512e-01,3.429457300000000000e+09
1.330000000000000000e+02,2.440000000000000000e+02,8.080000000000000000e+02,6.290000000000000000e+02,1.070000000000000000e+02,6.000000000000000000e+01,4.800000000000000000e+01,2.040000000000000000e+02,5.699999999999999512e-01,3.446888600000000000e+09
1.560000000000000000e+02,2.760000000000000000e+02,9.140000000000000000e+02,6.990000000000000000e+02,1.400000000000000000e+02,9.900000000000000000e+01,8.300000000000000000e+01,1.190000000000000000e+02,5.600000000000000533e-01,3.463640000000000000e+09
1.600000000000000000e+02,2.740000000000000000e+02,8.980000000000000000e+02,7.090000000000000000e+02,1.500000000000000000e+02,1.100000000000000000e+02,9.300000000000000000e+01,1.790000000000000000e+02,5.500000000000000444e-01,3.482398400000000000e+09
1.680000000000000000e+02,3.320000000000000000e+02,9.180000000000000000e+02,7.190000000000000000e+02,1.550000000000000000e+02,1.110000000000000000e+02,9.600000000000000000e+01,1.930000000000000000e+02,5.400000000000000355e-01,3.499503800000000000e+09
1.750000000000000000e+02,3.490000000000000000e+02,1.001000000000000000e+03,8.010000000000000000e+02,1.620000000000000000e+02,1.130000000000000000e+02,1.110000000000000000e+02,1.900000000000000000e+02,5.300000000000000266e-01,3.517745900000000000e+09
1.620000000000000000e+02,3.570000000000000000e+02,1.029000000000000000e+03,7.840000000000000000e+02,1.600000000000000000e+02,1.890000000000000000e+02,1.590000000000000000e+02,2.400000000000000000e+02,5.200000000000000178e-01,3.534950300000000000e+09
1.390000000000000000e+02,3.610000000000000000e+02,1.083000000000000000e+03,8.060000000000000000e+02,1.750000000000000000e+02,2.010000000000000000e+02,1.570000000000000000e+02,2.810000000000000000e+02,5.100000000000000089e-01,3.553417300000000000e+09
1.580000000000000000e+02,4.090000000000000000e+02,1.167000000000000000e+03,9.080000000000000000e+02,1.860000000000000000e+02,2.020000000000000000e+02,1.520000000000000000e+02,2.660000000000000000e+02,4.899999999999999911e-01,3.571452200000000000e+09
2.160000000000000000e+02,4.600000000000000000e+02,1.169000000000000000e+03,8.850000000000000000e+02,2.140000000000000000e+02,2.110000000000000000e+02,1.670000000000000000e+02,4.150000000000000000e+02,4.799999999999999822e-01,3.588881600000000000e+09
2.300000000000000000e+02,4.640000000000000000e+02,1.198000000000000000e+03,9.660000000000000000e+02,2.400000000000000000e+02,2.470000000000000000e+02,1.960000000000000000e+02,4.350000000000000000e+02,4.600000000000000200e-01,3.606965000000000000e+09
2.770000000000000000e+02,5.040000000000000000e+02,1.207000000000000000e+03,1.033000000000000000e+03,2.980000000000000000e+02,2.390000000000000000e+02,1.940000000000000000e+02,4.540000000000000000e+02,4.400000000000000022e-01,3.624721300000000000e+09
3.910000000000000000e+02,6.480000000000000000e+02,1.192000000000000000e+03,1.025000000000000000e+03,4.270000000000000000e+02,2.540000000000000000e+02,2.160000000000000000e+02,4.970000000000000000e+02,4.299999999999999933e-01,3.642329900000000000e+09
4.680000000000000000e+02,8.100000000000000000e+02,1.224000000000000000e+03,1.039000000000000000e+03,5.660000000000000000e+02,3.600000000000000000e+02,3.110000000000000000e+02,5.400000000000000000e+02,4.000000000000000222e-01,3.660301000000000000e+09
5.360000000000000000e+02,8.500000000000000000e+02,1.294000000000000000e+03,1.130000000000000000e+03,6.280000000000000000e+02,3.970000000000000000e+02,3.410000000000000000e+02,5.100000000000000000e+02,3.800000000000000044e-01,3.678510600000000000e+09
5.560000000000000000e+02,9.040000000000000000e+02,1.332000000000000000e+03,1.077000000000000000e+03,6.580000000000000000e+02,3.970000000000000000e+02,3.600000000000000000e+02,5.560000000000000000e+02,3.699999999999999956e-01,3.696181200000000000e+09
5.530000000000000000e+02,9.430000000000000000e+02,1.355000000000000000e+03,1.053000000000000000e+03,6.840000000000000000e+02,3.970000000000000000e+02,3.610000000000000000e+02,5.390000000000000000e+02,3.499999999999999778e-01,3.715911700000000000e+09
5.110000000000000000e+02,9.030000000000000000e+02,1.333000000000000000e+03,1.128000000000000000e+03,6.330000000000000000e+02,3.880000000000000000e+02,3.520000000000000000e+02,4.860000000000000000e+02,3.300000000000000155e-01,3.733332000000000000e+09
4.540000000000000000e+02,8.070000000000000000e+02,1.302000000000000000e+03,1.083000000000000000e+03,5.300000000000000000e+02,3.210000000000000000e+02,2.840000000000000000e+02,4.480000000000000000e+02,3.200000000000000067e-01,3.751005300000000000e+09
3.740000000000000000e+02,7.410000000000000000e+02,1.202000000000000000e+03,9.440000000000000000e+02,4.610000000000000000e+02,2.880000000000000000e+02,2.490000000000000000e+02,4.320000000000000000e+02,2.999999999999999889e-01,3.768980700000000000e+09
4.060000000000000000e+02,7.440000000000000000e+02,1.196000000000000000e+03,9.470000000000000000e+02,5.020000000000000000e+02,3.310000000000000000e+02,2.580000000000000000e+02,4.230000000000000000e+02,2.800000000000000266e-01,3.786640400000000000e+09
4.510000000000000000e+02,8.180000000000000000e+02,1.157000000000000000e+03,1.040000000000000000e+03,5.250000000000000000e+02,4.700000000000000000e+02,2.860000000000000000e+02,4.650000000000000000e+02,2.700000000000000178e-01,3.805247400000000000e+09
4.540000000000000000e+02,8.780000000000000000e+02,1.174000000000000000e+03,1.045000000000000000e+03,5.350000000000000000e+02,5.360000000000000000e+02,3.010000000000000000e+02,5.000000000000000000e+02,2.500000000000000000e-01,3.824303400000000000e+09
4.680000000000000000e+02,9.280000000000000000e+02,1.185000000000000000e+03,1.112000000000000000e+03,6.050000000000000000e+02,5.900000000000000000e+02,3.010000000000000000e+02,5.020000000000000000e+02,2.399999999999999911e-01,3.846127500000000000e+09
4.900000000000000000e+02,1.025000000000000000e+03,1.260000000000000000e+03,1.193000000000000000e+03,6.780000000000000000e+02,6.260000000000000000e+02,3.160000000000000000e+02,5.050000000000000000e+02,2.300000000000000100e-01,3.868402600000000000e+09
4.770000000000000000e+02,1.040000000000000000e+03,1.181000000000000000e+03,1.165000000000000000e+03,6.490000000000000000e+02,6.200000000000000000e+02,2.760000000000000000e+02,5.190000000000000000e+02,2.200000000000000011e-01,3.887080100000000000e+09
4.600000000000000000e+02,9.700000000000000000e+02,1.195000000000000000e+03,1.124000000000000000e+03,5.990000000000000000e+02,5.440000000000000000e+02,2.530000000000000000e+02,5.300000000000000000e+02,2.099999999999999922e-01,3.905523200000000000e+09
4.940000000000000000e+02,9.820000000000000000e+02,1.177000000000000000e+03,1.087000000000000000e+03,6.300000000000000000e+02,5.820000000000000000e+02,2.400000000000000000e+02,5.670000000000000000e+02,2.099999999999999922e-01,3.928262800000000000e+09
4.990000000000000000e+02,9.730000000000000000e+02,1.156000000000000000e+03,1.009000000000000000e+03,5.910000000000000000e+02,6.420000000000000000e+02,2.530000000000000000e+02,5.670000000000000000e+02,2.000000000000000111e-01,3.947186600000000000e+09
4.930000000000000000e+02,9.410000000000000000e+02,1.173000000000000000e+03,9.340000000000000000e+02,5.510000000000000000e+02,7.140000000000000000e+02,2.550000000000000000e+02,6.110000000000000000e+02,2.000000000000000111e-01,3.968458000000000000e+09
5.250000000000000000e+02,9.730000000000000000e+02,1.232000000000000000e+03,9.110000000000000000e+02,6.130000000000000000e+02,7.650000000000000000e+02,2.660000000000000000e+02,5.810000000000000000e+02,1.900000000000000022e-01,3.987446500000000000e+09
5.340000000000000000e+02,1.004000000000000000e+03,1.202000000000000000e+03,8.830000000000000000e+02,6.480000000000000000e+02,7.950000000000000000e+02,2.700000000000000000e+02,5.650000000000000000e+02,1.900000000000000022e-01,4.006069300000000000e+09
4.920000000000000000e+02,9.860000000000000000e+02,1.276000000000000000e+03,9.140000000000000000e+02,6.250000000000000000e+02,7.500000000000000000e+02,2.660000000000000000e+02,5.130000000000000000e+02,1.799999999999999933e-01,4.025413600000000000e+09
4.930000000000000000e+02,9.380000000000000000e+02,1.257000000000000000e+03,9.870000000000000000e+02,6.010000000000000000e+02,6.910000000000000000e+02,2.550000000000000000e+02,5.950000000000000000e+02,1.799999999999999933e-01,4.046191000000000000e+09
5.320000000000000000e+02,9.450000000000000000e+02,1.178000000000000000e+03,1.010000000000000000e+03,6.170000000000000000e+02,6.330000000000000000e+02,2.580000000000000000e+02,5.480000000000000000e+02,1.700000000000000122e-01,4.068231200000000000e+09
5.220000000000000000e+02,9.210000000000000000e+02,1.135000000000000000e+03,1.039000000000000000e+03,5.930000000000000000e+02,6.590000000000000000e+02,2.840000000000000000e+02,5.440000000000000000e+02,1.700000000000000122e-01,4.086437400000000000e+09
4.810000000000000000e+02,8.990000000000000000e+02,1.145000000000000000e+03,9.640000000000000000e+02,5.580000000000000000e+02,6.190000000000000000e+02,2.790000000000000000e+02,5.470000000000000000e+02,1.700000000000000122e-01,4.104699400000000000e+09
4.730000000000000000e+02,8.040000000000000000e+02,1.003000000000000000e+03,9.320000000000000000e+02,5.170000000000000000e+02,5.980000000000000000e+02,2.810000000000000000e+02,5.470000000000000000e+02,1.700000000000000122e-01,4.123746500000000000e+09
4.650000000000000000e+02,8.260000000000000000e+02,1.017000000000000000e+03,8.800000000000000000e+02,5.540000000000000000e+02,6.010000000000000000e+02,3.230000000000000000e+02,5.460000000000000000e+02,1.700000000000000122e-01,4.146158000000000000e+09
4.290000000000000000e+02,7.750000000000000000e+02,9.980000000000000000e+02,8.880000000000000000e+02,5.170000000000000000e+02,5.800000000000000000e+02,3.340000000000000000e+02,5.150000000000000000e+02,1.700000000000000122e-01,4.168386200000000000e+09
3.630000000000000000e+02,7.120000000000000000e+02,1.021000000000000000e+03,9.760000000000000000e+02,4.410000000000000000e+02,5.210000000000000000e+02,3.480000000000000000e+02,4.960000000000000000e+02,1.700000000000000122e-01,4.187062300000000000e+09
4.010000000000000000e+02,7.480000000000000000e+02,1.003000000000000000e+03,1.005000000000000000e+03,4.360000000000000000e+02,5.260000000000000000e+02,3.330000000000000000e+02,5.030000000000000000e+02,1.700000000000000122e-01,4.205878000000000000e+09
4.010000000000000000e+02,7.740000000000000000e+02,1.028000000000000000e+03,9.650000000000000000e+02,4.570000000000000000e+02,5.370000000000000000e+02,3.330000000000000000e+02,5.520000000000000000e+02,1.700000000000000122e-01,4.223689800000000000e+09
4.170000000000000000e+02,7.710000000000000000e+02,1.136000000000000000e+03,9.760000000000000000e+02,4.510000000000000000e+02,6.260000000000000000e+02,3.160000000000000000e+02,4.730000000000000000e+02,1.600000000000000033e-01,4.245858300000000000e+09
4.120000000000000000e+02,7.740000000000000000e+02,1.123000000000000000e+03,9.230000000000000000e+02,4.520000000000000000e+02,6.260000000000000000e+02,2.930000000000000000e+02,4.560000000000000000e+02,1.600000000000000033e-01,4.268172700000000000e+09
4.790000000000000000e+02,9.070000000000000000e+02,1.190000000000000000e+03,8.720000000000000000e+02,4.520000000000000000e+02,6.270000000000000000e+02,2.490000000000000000e+02,5.570000000000000000e+02,1.600000000000000033e-01,4.286971900000000000e+09
4.830000000000000000e+02,8.570000000000000000e+02,1.250000000000000000e+03,9.110000000000000000e+02,4.830000000000000000e+02,6.770000000000000000e+02,2.750000000000000000e+02,5.730000000000000000e+02,1.600000000000000033e-01,4.305174100000000000e+09
5.310000000000000000e+02,8.970000000000000000e+02,1.307000000000000000e+03,9.600000000000000000e+02,5.230000000000000000e+02,6.630000000000000000e+02,2.880000000000000000e+02,5.910000000000000000e+02,1.600000000000000033e-01,4.323663700000000000e+09
5.520000000000000000e+02,8.920000000000000000e+02,1.252000000000000000e+03,1.027000000000000000e+03,5.680000000000000000e+02,5.800000000000000000e+02,2.540000000000000000e+02,6.050000000000000000e+02,1.700000000000000122e-01,4.345751200000000000e+09
5.430000000000000000e+02,8.640000000000000000e+02,1.286000000000000000e+03,1.056000000000000000e+03,5.380000000000000000e+02,5.580000000000000000e+02,2.350000000000000000e+02,6.120000000000000000e+02,1.700000000000000122e-01,4.368107000000000000e+09
5.410000000000000000e+02,7.480000000000000000e+02,1.242000000000000000e+03,1.036000000000000000e+03,5.630000000000000000e+02,5.380000000000000000e+02,2.410000000000000000e+02,5.730000000000000000e+02,1.700000000000000122e-01,4.387129500000000000e+09
5.530000000000000000e+02,8.470000000000000000e+02,1.240000000000000000e+03,1.014000000000000000e+03,6.140000000000000000e+02,4.580000000000000000e+02,2.400000000000000000e+02,5.300000000000000000e+02,1.700000000000000122e-01,4.405912100000000000e+09
5.240000000000000000e+02,7.990000000000000000e+02,1.237000000000000000e+03,9.640000000000000000e+02,5.880000000000000000e+02,4.790000000000000000e+02,2.250000000000000000e+02,4.920000000000000000e+02,1.700000000000000122e-01,4.424358200000000000e+09
4.720000000000000000e+02,7.520000000000000000e+02,1.227000000000000000e+03,9.190000000000000000e+02,4.990000000000000000e+02,4.720000000000000000e+02,2.480000000000000000e+02,4.630000000000000000e+02,1.700000000000000122e-01,4.447412100000000000e+09
4.680000000000000000e+02,7.740000000000000000e+02,1.197000000000000000e+03,9.070000000000000000e+02,5.030000000000000000e+02,4.880000000000000000e+02,2.560000000000000000e+02,5.240000000000000000e+02,1.700000000000000122e-01,4.466098800000000000e+09
4.060000000000000000e+02,7.700000000000000000e+02,1.133000000000000000e+03,8.500000000000000000e+02,4.970000000000000000e+02,4.650000000000000000e+02,2.270000000000000000e+02,5.200000000000000000e+02,1.700000000000000122e-01,4.484346900000000000e+09
3.720000000000000000e+02,6.430000000000000000e+02,1.120000000000000000e+03,8.430000000000000000e+02,4.070000000000000000e+02,4.960000000000000000e+02,2.100000000000000000e+02,5.750000000000000000e+02,1.700000000000000122e-01,4.504729500000000000e+09
3.380000000000000000e+02,7.260000000000000000e+02,1.113000000000000000e+03,9.240000000000000000e+02,3.940000000000000000e+02,4.660000000000000000e+02,2.160000000000000000e+02,6.000000000000000000e+02,1.700000000000000122e-01,4.527560200000000000e+09
3.580000000000000000e+02,7.440000000000000000e+02,1.071000000000000000e+03,8.550000000000000000e+02,4.400000000000000000e+02,4.380000000000000000e+02,1.960000000000000000e+02,5.900000000000000000e+02,1.700000000000000122e-01,4.547494500000000000e+09
4.160000000000000000e+02,8.120000000000000000e+02,1.121000000000000000e+03,9.720000000000000000e+02,5.520000000000000000e+02,4.110000000000000000e+02,2.130000000000000000e+02,5.570000000000000000e+02,1.700000000000000122e-01,4.566289500000000000e+09
4.540000000000000000e+02,8.400000000000000000e+02,1.189000000000000000e+03,1.025000000000000000e+03,5.780000000000000000e+02,4.470000000000000000e+02,2.200000000000000000e+02,5.380000000000000000e+02,1.700000000000000122e-01,4.584313100000000000e+09
4.690000000000000000e+02,9.090000000000000000e+02,1.246000000000000000e+03,1.051000000000000000e+03,6.290000000000000000e+02,4.750000000000000000e+02,2.510000000000000000e+02,4.670000000000000000e+02,1.700000000000000122e-01,4.606060700000000000e+09
4.690000000000000000e+02,8.560000000000000000e+02,1.216000000000000000e+03,9.820000000000000000e+02,6.230000000000000000e+02,5.020000000000000000e+02,2.410000000000000000e+02,4.000000000000000000e+02,1.700000000000000122e-01,4.628107000000000000e+09
5.100000000000000000e+02,8.820000000000000000e+02,1.226000000000000000e+03,1.012000000000000000e+03,6.360000000000000000e+02,5.220000000000000000e+02,2.530000000000000000e+02,4.170000000000000000e+02,1.700000000000000122e-01,4.647311400000000000e+09
4.620000000000000000e+02,8.700000000000000000e+02,1.250000000000000000e+03,9.760000000000000000e+02,5.610000000000000000e+02,5.600000000000000000e+02,2.470000000000000000e+02,4.220000000000000000e+02,1.600000000000000033e-01,4.665799600000000000e+09
4.380000000000000000e+02,8.530000000000000000e+02,1.267000000000000000e+03,9.720000000000000000e+02,5.680000000000000000e+02,5.890000000000000000e+02,2.420000000000000000e+02,4.180000000000000000e+02,1.600000000000000033e-01,4.684137600000000000e+09
4.440000000000000000e+02,8.260000000000000000e+02,1.228000000000000000e+03,9.160000000000000000e+02,5.680000000000000000e+02,5.720000000000000000e+02,2.100000000000000000e+02,4.300000000000000000e+02,1.600000000000000033e-01,4.705905300000000000e+09
4.980000000000000000e+02,8.540000000000000000e+02,1.263000000000000000e+03,9.800000000000000000e+02,6.340000000000000000e+02,5.620000000000000000e+02,2.520000000000000000e+02,5.160000000000000000e+02,1.600000000000000033e-01,4.728241000000000000e+09
4.640000000000000000e+02,8.420000000000000000e+02,1.290000000000000000e+03,9.640000000000000000e+02,6.010000000000000000e+02,5.320000000000000000e+02,2.560000000000000000e+02,5.440000000000000000e+02,1.600000000000000033e-01,4.746620700000000000e+09
4.490000000000000000e+02,7.770000000000000000e+02,1.258000000000000000e+03,9.400000000000000000e+02,5.950000000000000000e+02,5.500000000000000000e+02,2.740000000000000000e+02,5.000000000000000000e+02,1.600000000000000033e-01,4.765289900000000000e+09
4.520000000000000000e+02,8.290000000000000000e+02,1.308000000000000000e+03,9.730000000000000000e+02,6.120000000000000000e+02,4.870000000000000000e+02,3.070000000000000000e+02,5.270000000000000000e+02,1.499999999999999944e-01,4.783941700000000000e+09
4.370000000000000000e+02,9.100000000000000000e+02,1.316000000000000000e+03,1.072000000000000000e+03,5.940000000000000000e+02,5.420000000000000000e+02,3.070000000000000000e+02,5.210000000000000000e+02,1.499999999999999944e-01,4.805814900000000000e+09
4.020000000000000000e+02,8.790000000000000000e+02,1.244000000000000000e+03,1.039000000000000000e+03,5.510000000000000000e+02,6.190000000000000000e+02,2.720000000000000000e+02,4.460000000000000000e+02,1.499999999999999944e-01,4.827997900000000000e+09
4.560000000000000000e+02,9.540000000000000000e+02,1.260000000000000000e+03,1.052000000000000000e+03,6.210000000000000000e+02,6.900000000000000000e+02,2.920000000000000000e+02,4.470000000000000000e+02,1.499999999999999944e-01,4.847460500000000000e+09
4.900000000000000000e+02,9.700000000000000000e+02,1.309000000000000000e+03,1.054000000000000000e+03,6.310000000000000000e+02,6.650000000000000000e+02,3.010000000000000000e+02,5.290000000000000000e+02,1.499999999999999944e-01,4.867013700000000000e+09
4.860000000000000000e+02,9.070000000000000000e+02,1.212000000000000000e+03,1.009000000000000000e+03,5.680000000000000000e+02,6.510000000000000000e+02,2.720000000000000000e+02,5.710000000000000000e+02,1.499999999999999944e-01,4.885920900000000000e+09
4.600000000000000000e+02,8.200000000000000000e+02,1.177000000000000000e+03,9.450000000000000000e+02,5.220000000000000000e+02,5.970000000000000000e+02,2.750000000000000000e+02,5.720000000000000000e+02,1.499999999999999944e-01,4.905216700000000000e+09
4.410000000000000000e+02,8.190000000000000000e+02,1.150000000000000000e+03,9.100000000000000000e+02,4.780000000000000000e+02,5.180000000000000000e+02,2.690000000000000000e+02,5.610000000000000000e+02,1.499999999999999944e-01,4.927548100000000000e+09
3.760000000000000000e+02,7.180000000000000000e+02,1.064000000000000000e+03,8.760000000000000000e+02,3.680000000000000000e+02,4.330000000000000000e+02,2.420000000000000000e+02,5.440000000000000000e+02,1.499999999999999944e-01,4.946551200000000000e+09
3.280000000000000000e+02,7.080000000000000000e+02,9.760000000000000000e+02,8.540000000000000000e+02,3.290000000000000000e+02,4.330000000000000000e+02,1.970000000000000000e+02,4.890000000000000000e+02,1.499999999999999944e-01,4.967288600000000000e+09
3.170000000000000000e+02,7.450000000000000000e+02,9.780000000000000000e+02,9.060000000000000000e+02,4.070000000000000000e+02,4.890000000000000000e+02,3.140000000000000000e+02,4.360000000000000000e+02,1.499999999999999944e-01,4.988070900000000000e+09
3.320000000000000000e+02,7.390000000000000000e+02,9.110000000000000000e+02,8.720000000000000000e+02,4.010000000000000000e+02,4.540000000000000000e+02,3.260000000000000000e+02,4.600000000000000000e+02,1.499999999999999944e-01,5.008045200000000000e+09
3.360000000000000000e+02,7.710000000000000000e+02,9.780000000000000000e+02,8.650000000000000000e+02,4.210000000000000000e+02,4.560000000000000000e+02,3.440000000000000000e+02,4.890000000000000000e+02,1.499999999999999944e-01,5.029072000000000000e+09
3.400000000000000000e+02,8.320000000000000000e+02,1.093000000000000000e+03,9.320000000000000000e+02,4.700000000000000000e+02,4.530000000000000000e+02,3.810000000000000000e+02,5.120000000000000000e+02,1.499999999999999944e-01,5.047401700000000000e+09
3.570000000000000000e+02,8.170000000000000000e+02,1.061000000000000000e+03,9.060000000000000000e+02,4.820000000000000000e+02,4.220000000000000000e+02,4.030000000000000000e+02,5.370000000000000000e+02,1.499999999999999944e-01,5.072716000000000000e+09
3.430000000000000000e+02,7.570000000000000000e+02,1.024000000000000000e+03,8.730000000000000000e+02,4.150000000000000000e+02,3.900000000000000000e+02,3.250000000000000000e+02,4.920000000000000000e+02,1.499999999999999944e-01,5.093356900000000000e+09
3.480000000000000000e+02,7.000000000000000000e+02,1.038000000000000000e+03,9.100000000000000000e+02,4.500000000000000000e+02,3.840000000000000000e+02,3.470000000000000000e+02,5.320000000000000000e+02,1.499999999999999944e-01,5.111676400000000000e+09
3.400000000000000000e+02,6.450000000000000000e+02,1.062000000000000000e+03,9.710000000000000000e+02,4.290000000000000000e+02,3.540000000000000000e+02,3.950000000000000000e+02,5.560000000000000000e+02,1.499999999999999944e-01,5.130573000000000000e+09
3.710000000000000000e+02,6.500000000000000000e+02,1.051000000000000000e+03,9.760000000000000000e+02,4.170000000000000000e+02,3.480000000000000000e+02,3.620000000000000000e+02,5.360000000000000000e+02,1.499999999999999944e-01,5.149608600000000000e+09
3.740000000000000000e+02,6.670000000000000000e+02,1.151000000000000000e+03,9.810000000000000000e+02,3.910000000000000000e+02,3.360000000000000000e+02,3.360000000000000000e+02,5.000000000000000000e+02,1.499999999999999944e-01,5.170265400000000000e+09
4.390000000000000000e+02,7.490000000000000000e+02,1.183000000000000000e+03,9.870000000000000000e+02,4.230000000000000000e+02,2.940000000000000000e+02,3.330000000000000000e+02,5.520000000000000000e+02,1.499999999999999944e-01,5.190353400000000000e+09
4.210000000000000000e+02,7.820000000000000000e+02,1.170000000000000000e+03,9.640000000000000000e+02,3.780000000000000000e+02,3.100000000000000000e+02,3.120000000000000000e+02,5.170000000000000000e+02,1.499999999999999944e-01,5.208244600000000000e+09
4.430000000000000000e+02,7.840000000000000000e+02,1.122000000000000000e+03,9.230000000000000000e+02,4.070000000000000000e+02,3.630000000000000000e+02,2.940000000000000000e+02,4.640000000000000000e+02,1.600000000000000033e-01,5.226476300000000000e+09
3.950000000000000000e+02,7.150000000000000000e+02,1.197000000000000000e+03,8.070000000000000000e+02,3.530000000000000000e+02,3.430000000000000000e+02,2.900000000000000000e+02,4.820000000000000000e+02,1.600000000000000033e-01,5.245458800000000000e+09
3.870000000000000000e+02,7.260000000000000000e+02,1.231000000000000000e+03,8.290000000000000000e+02,3.600000000000000000e+02,3.870000000000000000e+02,2.920000000000000000e+02,6.040000000000000000e+02,1.600000000000000033e-01,5.267616400000000000e+09
3.140000000000000000e+02,6.650000000000000000e+02,1.203000000000000000e+03,7.800000000000000000e+02,3.020000000000000000e+02,4.450000000000000000e+02,2.860000000000000000e+02,5.610000000000000000e+02,1.700000000000000122e-01,5.285537400000000000e+09
3.100000000000000000e+02,6.790000000000000000e+02,1.196000000000000000e+03,7.830000000000000000e+02,3.060000000000000000e+02,4.560000000000000000e+02,2.620000000000000000e+02,5.260000000000000000e+02,1.700000000000000122e-01,5.303754100000000000e+09
2.750000000000000000e+02,7.060000000000000000e+02,1.188000000000000000e+03,7.680000000000000000e+02,2.980000000000000000e+02,4.260000000000000000e+02,1.940000000000000000e+02,5.100000000000000000e+02,1.700000000000000122e-01,5.323442100000000000e+09
3.140000000000000000e+02,7.190000000000000000e+02,1.098000000000000000e+03,8.980000000000000000e+02,3.300000000000000000e+02,4.150000000000000000e+02,2.130000000000000000e+02,4.850000000000000000e+02,1.700000000000000122e-01,5.345442000000000000e+09
2.980000000000000000e+02,7.210000000000000000e+02,1.006000000000000000e+03,8.300000000000000000e+02,3.380000000000000000e+02,3.700000000000000000e+02,2.540000000000000000e+02,3.620000000000000000e+02,1.600000000000000033e-01,5.367619000000000000e+09
3.150000000000000000e+02,7.160000000000000000e+02,1.014000000000000000e+03,7.990000000000000000e+02,3.600000000000000000e+02,2.950000000000000000e+02,4.150000000000000000e+02,4.400000000000000000e+02,1.600000000000000033e-01,5.385496000000000000e+09
3.520000000000000000e+02,7.070000000000000000e+02,9.990000000000000000e+02,7.860000000000000000e+02,3.670000000000000000e+02,2.550000000000000000e+02,4.850000000000000000e+02,4.900000000000000000e+02,1.600000000000000033e-01,5.403644700000000000e+09
3.520000000000000000e+02,6.880000000000000000e+02,1.010000000000000000e+03,7.160000000000000000e+02,3.340000000000000000e+02,2.860000000000000000e+02,5.650000000000000000e+02,5.120000000000000000e+02,1.499999999999999944e-01,5.423176400000000000e+09
3.510000000000000000e+02,6.400000000000000000e+02,9.010000000000000000e+02,5.120000000000000000e+02,2.980000000000000000e+02,3.160000000000000000e+02,6.780000000000000000e+02,5.170000000000000000e+02,1.499999999999999944e-01,5.445328200000000000e+09
3.730000000000000000e+02,6.910000000000000000e+02,9.460000000000000000e+02,5.810000000000000000e+02,3.160000000000000000e+02,3.310000000000000000e+02,7.430000000000000000e+02,5.960000000000000000e+02,1.499999999999999944e-01,5.467600100000000000e+09
3.570000000000000000e+02,6.610000000000000000e+02,8.850000000000000000e+02,5.870000000000000000e+02,2.830000000000000000e+02,3.770000000000000000e+02,8.950000000000000000e+02,5.670000000000000000e+02,1.400000000000000133e-01,5.485727500000000000e+09
3.200000000000000000e+02,5.950000000000000000e+02,8.430000000000000000e+02,5.030000000000000000e+02,2.350000000000000000e+02,3.770000000000000000e+02,8.920000000000000000e+02,5.200000000000000000e+02,1.400000000000000133e-01,5.504911300000000000e+09
3.160000000000000000e+02,5.330000000000000000e+02,8.210000000000000000e+02,6.070000000000000000e+02,2.540000000000000000e+02,4.970000000000000000e+02,9.150000000000000000e+02,5.430000000000000000e+02,1.300000000000000044e-01,5.523137200000000000e+09
2.640000000000000000e+02,5.220000000000000000e+02,9.350000000000000000e+02,6.380000000000000000e+02,2.520000000000000000e+02,6.210000000000000000e+02,9.060000000000000000e+02,5.160000000000000000e+02,1.300000000000000044e-01,5.545526200000000000e+09
2.200000000000000000e+02,3.960000000000000000e+02,8.600000000000000000e+02,5.630000000000000000e+02,1.980000000000000000e+02,6.330000000000000000e+02,8.800000000000000000e+02,3.980000000000000000e+02,1.400000000000000133e-01,5.568297200000000000e+09
2.130000000000000000e+02,3.950000000000000000e+02,9.090000000000000000e+02,5.700000000000000000e+02,2.330000000000000000e+02,6.650000000000000000e+02,7.710000000000000000e+02,3.950000000000000000e+02,1.499999999999999944e-01,5.587133100000000000e+09
2.150000000000000000e+02,3.760000000000000000e+02,9.220000000000000000e+02,5.810000000000000000e+02,2.580000000000000000e+02,7.210000000000000000e+02,8.990000000000000000e+02,5.150000000000000000e+02,1.600000000000000033e-01,5.606515500000000000e+09
2.080000000000000000e+02,4.450000000000000000e+02,9.110000000000000000e+02,5.120000000000000000e+02,2.370000000000000000e+02,6.560000000000000000e+02,9.260000000000000000e+02,4.790000000000000000e+02,1.600000000000000033e-01,5.625439300000000000e+09
2.220000000000000000e+02,4.570000000000000000e+02,8.460000000000000000e+02,6.000000000000000000e+02,2.320000000000000000e+02,5.790000000000000000e+02,8.960000000000000000e+02,5.320000000000000000e+02,1.700000000000000122e-01,5.648161900000000000e+09
2.280000000000000000e+02,4.050000000000000000e+02,7.850000000000000000e+02,6.000000000000000000e+02,2.350000000000000000e+02,5.810000000000000000e+02,9.170000000000000000e+02,5.450000000000000000e+02,1.700000000000000122e-01,5.666534300000000000e+09
2.380000000000000000e+02,4.770000000000000000e+02,7.510000000000000000e+02,6.020000000000000000e+02,2.000000000000000000e+02,6.590000000000000000e+02,9.400000000000000000e+02,5.170000000000000000e+02,1.799999999999999933e-01,5.686198900000000000e+09
2.240000000000000000e+02,5.290000000000000000e+02,7.420000000000000000e+02,6.490000000000000000e+02,1.810000000000000000e+02,6.210000000000000000e+02,8.440000000000000000e+02,4.210000000000000000e+02,1.900000000000000022e-01,5.704934500000000000e+09
2.160000000000000000e+02,4.720000000000000000e+02,8.140000000000000000e+02,6.700000000000000000e+02,1.850000000000000000e+02,6.130000000000000000e+02,8.180000000000000000e+02,4.120000000000000000e+02,2.000000000000000111e-01,5.727419400000000000e+09
2.050000000000000000e+02,4.540000000000000000e+02,7.600000000000000000e+02,5.890000000000000000e+02,1.860000000000000000e+02,5.800000000000000000e+02,9.070000000000000000e+02,3.930000000000000000e+02,2.099999999999999922e-01,5.745234100000000000e+09
1.810000000000000000e+02,4.630000000000000000e+02,8.110000000000000000e+02,5.850000000000000000e+02,1.920000000000000000e+02,5.660000000000000000e+02,8.660000000000000000e+02,3.580000000000000000e+02,2.200000000000000011e-01,5.763369300000000000e+09
1.590000000000000000e+02,4.180000000000000000e+02,7.750000000000000000e+02,5.280000000000000000e+02,1.990000000000000000e+02,4.250000000000000000e+02,8.860000000000000000e+02,3.860000000000000000e+02,2.300000000000000100e-01,5.783549200000000000e+09
1.670000000000000000e+02,4.260000000000000000e+02,8.750000000000000000e+02,5.290000000000000000e+02,1.900000000000000000e+02,4.480000000000000000e+02,9.290000000000000000e+02,3.900000000000000000e+02,2.300000000000000100e-01,5.805903300000000000e+09
1.710000000000000000e+02,4.610000000000000000e+02,7.920000000000000000e+02,4.610000000000000000e+02,1.790000000000000000e+02,4.590000000000000000e+02,8.830000000000000000e+02,4.260000000000000000e+02,2.200000000000000011e-01,5.827946500000000000e+09
1.570000000000000000e+02,4.850000000000000000e+02,7.840000000000000000e+02,4.610000000000000000e+02,1.720000000000000000e+02,4.800000000000000000e+02,8.420000000000000000e+02,3.860000000000000000e+02,2.200000000000000011e-01,5.845643900000000000e+09
1.680000000000000000e+02,4.900000000000000000e+02,7.460000000000000000e+02,4.860000000000000000e+02,1.370000000000000000e+02,4.980000000000000000e+02,8.450000000000000000e+02,4.390000000000000000e+02,2.300000000000000100e-01,5.864405200000000000e+09
1.600000000000000000e+02,4.580000000000000000e+02,7.380000000000000000e+02,4.960000000000000000e+02,1.100000000000000000e+02,4.810000000000000000e+02,6.980000000000000000e+02,4.360000000000000000e+02,2.300000000000000100e-01,5.883556000000000000e+09
1.610000000000000000e+02,4.050000000000000000e+02,6.280000000000000000e+02,4.120000000000000000e+02,9.900000000000000000e+01,4.900000000000000000e+02,5.820000000000000000e+02,4.770000000000000000e+02,2.399999999999999911e-01,5.905723800000000000e+09
1.680000000000000000e+02,4.180000000000000000e+02,6.960000000000000000e+02,4.930000000000000000e+02,9.500000000000000000e+01,4.720000000000000000e+02,6.010000000000000000e+02,4.970000000000000000e+02,2.500000000000000000e-01,5.928112600000000000e+09
1.830000000000000000e+02,3.990000000000000000e+02,6.750000000000000000e+02,4.840000000000000000e+02,1.040000000000000000e+02,5.220000000000000000e+02,5.920000000000000000e+02,5.050000000000000000e+02,2.600000000000000089e-01,5.946995900000000000e+09
1.840000000000000000e+02,3.920000000000000000e+02,6.580000000000000000e+02,4.370000000000000000e+02,1.030000000000000000e+02,5.620000000000000000e+02,6.800000000000000000e+02,4.730000000000000000e+02,2.600000000000000089e-01,5.964900200000000000e+09
1.930000000000000000e+02,3.960000000000000000e+02,6.430000000000000000e+02,3.930000000000000000e+02,8.700000000000000000e+01,5.790000000000000000e+02,8.110000000000000000e+02,4.740000000000000000e+02,2.700000000000000178e-01,5.983577700000000000e+09
2.120000000000000000e+02,4.130000000000000000e+02,7.030000000000000000e+02,4.700000000000000000e+02,1.120000000000000000e+02,5.300000000000000000e+02,8.250000000000000000e+02,4.790000000000000000e+02,2.700000000000000178e-01,6.005686200000000000e+09
2.010000000000000000e+02,3.620000000000000000e+02,5.970000000000000000e+02,3.750000000000000000e+02,1.120000000000000000e+02,5.140000000000000000e+02,9.740000000000000000e+02,4.620000000000000000e+02,2.800000000000000266e-01,6.027934000000000000e+09
1.940000000000000000e+02,3.470000000000000000e+02,5.970000000000000000e+02,3.780000000000000000e+02,1.050000000000000000e+02,4.620000000000000000e+02,9.190000000000000000e+02,4.600000000000000000e+02,2.800000000000000266e-01,6.045389600000000000e+09
1.790000000000000000e+02,3.950000000000000000e+02,6.770000000000000000e+02,4.680000000000000000e+02,1.090000000000000000e+02,4.740000000000000000e+02,8.760000000000000000e+02,4.710000000000000000e+02,2.899999999999999800e-01,6.062968300000000000e+09
1.740000000000000000e+02,4.110000000000000000e+02,7.130000000000000000e+02,5.000000000000000000e+02,1.150000000000000000e+02,4.570000000000000000e+02,7.770000000000000000e+02,4.560000000000000000e+02,2.999999999999999889e-01,6.083550300000000000e+09
1.390000000000000000e+02,4.260000000000000000e+02,6.890000000000000000e+02,4.800000000000000000e+02,9.700000000000000000e+01,4.970000000000000000e+02,7.870000000000000000e+02,3.890000000000000000e+02,3.099999999999999978e-01,6.105706000000000000e+09
1.480000000000000000e+02,4.350000000000000000e+02,6.960000000000000000e+02,5.000000000000000000e+02,9.700000000000000000e+01,5.350000000000000000e+02,6.290000000000000000e+02,3.240000000000000000e+02,3.200000000000000067e-01,6.127805300000000000e+09
1.400000000000000000e+02,4.320000000000000000e+02,6.720000000000000000e+02,4.640000000000000000e+02,9.600000000000000000e+01,5.390000000000000000e+02,6.540000000000000000e+02,3.240000000000000000e+02,3.300000000000000155e-01,6.147103700000000000e+09
1.340000000000000000e+02,4.040000000000000000e+02,5.750000000000000000e+02,3.730000000000000000e+02,8.800000000000000000e+01,4.850000000000000000e+02,7.020000000000000000e+02,3.460000000000000000e+02,3.400000000000000244e-01,6.167809900000000000e+09
1.240000000000000000e+02,3.530000000000000000e+02,5.130000000000000000e+02,3.230000000000000000e+02,7.600000000000000000e+01,4.660000000000000000e+02,6.730000000000000000e+02,3.210000000000000000e+02,3.599999999999999867e-01,6.194027600000000000e+09
1.330000000000000000e+02,3.450000000000000000e+02,4.590000000000000000e+02,2.320000000000000000e+02,7.100000000000000000e+01,4.910000000000000000e+02,7.000000000000000000e+02,3.790000000000000000e+02,3.699999999999999956e-01,6.212405800000000000e+09
1.160000000000000000e+02,3.600000000000000000e+02,4.990000000000000000e+02,2.290000000000000000e+02,6.800000000000000000e+01,4.640000000000000000e+02,6.290000000000000000e+02,3.820000000000000000e+02,3.800000000000000044e-01,6.230882500000000000e+09
1.220000000000000000e+02,3.560000000000000000e+02,4.940000000000000000e+02,2.340000000000000000e+02,5.900000000000000000e+01,4.950000000000000000e+02,6.290000000000000000e+02,4.090000000000000000e+02,3.900000000000000133e-01,6.250773200000000000e+09
1.240000000000000000e+02,3.380000000000000000e+02,5.860000000000000000e+02,2.540000000000000000e+02,6.600000000000000000e+01,4.970000000000000000e+02,5.550000000000000000e+02,3.640000000000000000e+02,4.000000000000000222e-01,6.268488300000000000e+09
1.220000000000000000e+02,3.470000000000000000e+02,5.970000000000000000e+02,2.640000000000000000e+02,6.800000000000000000e+01,4.940000000000000000e+02,6.130000000000000000e+02,4.040000000000000000e+02,4.199999999999999845e-01,6.287042100000000000e+09
1.130000000000000000e+02,2.920000000000000000e+02,5.370000000000000000e+02,2.550000000000000000e+02,6.900000000000000000e+01,4.710000000000000000e+02,5.710000000000000000e+02,4.180000000000000000e+02,4.299999999999999933e-01,6.305734600000000000e+09
1.080000000000000000e+02,2.940000000000000000e+02,5.450000000000000000e+02,2.500000000000000000e+02,7.200000000000000000e+01,4.940000000000000000e+02,6.190000000000000000e+02,4.290000000000000000e+02,4.400000000000000022e-01,6.324653400000000000e+09
9.800000000000000000e+01,3.210000000000000000e+02,5.520000000000000000e+02,2.580000000000000000e+02,6.700000000000000000e+01,4.240000000000000000e+02,5.790000000000000000e+02,3.900000000000000000e+02,4.500000000000000111e-01,6.344979400000000000e+09
1.000000000000000000e+02,3.000000000000000000e+02,4.570000000000000000e+02,2.420000000000000000e+02,5.800000000000000000e+01,3.930000000000000000e+02,5.610000000000000000e+02,3.860000000000000000e+02,4.600000000000000200e-01,6.367292900000000000e+09
9.900000000000000000e+01,3.120000000000000000e+02,5.050000000000000000e+02,2.500000000000000000e+02,6.500000000000000000e+01,4.430000000000000000e+02,5.680000000000000000e+02,4.060000000000000000e+02,4.699999999999999734e-01,6.384827400000000000e+09
9.900000000000000000e+01,3.470000000000000000e+02,5.300000000000000000e+02,3.060000000000000000e+02,7.300000000000000000e+01,4.410000000000000000e+02,5.780000000000000000e+02,3.480000000000000000e+02,4.799999999999999822e-01,6.402871600000000000e+09
1.020000000000000000e+02,3.330000000000000000e+02,4.830000000000000000e+02,2.740000000000000000e+02,6.800000000000000000e+01,4.030000000000000000e+02,5.270000000000000000e+02,3.270000000000000000e+02,4.799999999999999822e-01,6.422768400000000000e+09
1.000000000000000000e+02,2.950000000000000000e+02,5.260000000000000000e+02,3.210000000000000000e+02,7.000000000000000000e+01,3.880000000000000000e+02,4.920000000000000000e+02,3.240000000000000000e+02,4.899999999999999911e-01,6.444947800000000000e+09
9.500000000000000000e+01,2.980000000000000000e+02,5.190000000000000000e+02,3.120000000000000000e+02,7.000000000000000000e+01,4.040000000000000000e+02,6.160000000000000000e+02,3.830000000000000000e+02,5.000000000000000000e-01,6.467064900000000000e+09
1.010000000000000000e+02,3.510000000000000000e+02,4.430000000000000000e+02,2.910000000000000000e+02,7.000000000000000000e+01,3.570000000000000000e+02,6.650000000000000000e+02,4.240000000000000000e+02,5.000000000000000000e-01,6.484902400000000000e+09
9.900000000000000000e+01,3.610000000000000000e+02,5.050000000000000000e+02,2.760000000000000000e+02,6.200000000000000000e+01,3.100000000000000000e+02,6.840000000000000000e+02,4.300000000000000000e+02,5.000000000000000000e-01,6.503117700000000000e+09
9.700000000000000000e+01,3.690000000000000000e+02,5.140000000000000000e+02,2.940000000000000000e+02,7.300000000000000000e+01,3.220000000000000000e+02,6.990000000000000000e+02,4.560000000000000000e+02,4.899999999999999911e-01,6.522891900000000000e+09
1.040000000000000000e+02,3.790000000000000000e+02,5.470000000000000000e+02,2.600000000000000000e+02,8.100000000000000000e+01,3.790000000000000000e+02,7.100000000000000000e+02,4.590000000000000000e+02,4.899999999999999911e-01,6.544832400000000000e+09
1.130000000000000000e+02,3.750000000000000000e+02,5.990000000000000000e+02,2.650000000000000000e+02,8.500000000000000000e+01,3.940000000000000000e+02,6.210000000000000000e+02,4.580000000000000000e+02,4.899999999999999911e-01,6.567087400000000000e+09
1.110000000000000000e+02,3.320000000000000000e+02,5.960000000000000000e+02,2.770000000000000000e+02,8.100000000000000000e+01,4.230000000000000000e+02,5.320000000000000000e+02,3.910000000000000000e+02,4.799999999999999822e-01,6.584658100000000000e+09
1.160000000000000000e+02,3.070000000000000000e+02,5.520000000000000000e+02,2.510000000000000000e+02,8.600000000000000000e+01,4.300000000000000000e+02,4.760000000000000000e+02,3.820000000000000000e+02,4.799999999999999822e-01,6.602755000000000000e+09
1.160000000000000000e+02,3.250000000000000000e+02,5.290000000000000000e+02,2.400000000000000000e+02,8.600000000000000000e+01,4.150000000000000000e+02,5.050000000000000000e+02,3.740000000000000000e+02,4.799999999999999822e-01,6.622617800000000000e+09
1.230000000000000000e+02,3.320000000000000000e+02,5.530000000000000000e+02,2.740000000000000000e+02,9.900000000000000000e+01,4.040000000000000000e+02,5.460000000000000000e+02,3.720000000000000000e+02,4.799999999999999822e-01,6.645236200000000000e+09
1.440000000000000000e+02,3.990000000000000000e+02,4.850000000000000000e+02,2.660000000000000000e+02,1.010000000000000000e+02,3.880000000000000000e+02,5.670000000000000000e+02,4.210000000000000000e+02,4.699999999999999734e-01,6.668179700000000000e+09
1.460000000000000000e+02,3.810000000000000000e+02,4.910000000000000000e+02,2.680000000000000000e+02,1.010000000000000000e+02,3.840000000000000000e+02,5.570000000000000000e+02,4.230000000000000000e+02,4.600000000000000200e-01,6.686560600000000000e+09
1.440000000000000000e+02,3.740000000000000000e+02,5.270000000000000000e+02,2.820000000000000000e+02,9.600000000000000000e+01,3.900000000000000000e+02,5.660000000000000000e+02,4.160000000000000000e+02,4.600000000000000200e-01,6.704730300000000000e+09
1.450000000000000000e+02,3.290000000000000000e+02,5.610000000000000000e+02,3.080000000000000000e+02,9.100000000000000000e+01,4.790000000000000000e+02,5.480000000000000000e+02,4.180000000000000000e+02,4.600000000000000200e-01,6.724993600000000000e+09
1.460000000000000000e+02,3.160000000000000000e+02,4.350000000000000000e+02,2.830000000000000000e+02,7.500000000000000000e+01,4.920000000000000000e+02,5.280000000000000000e+02,4.490000000000000000e+02,4.600000000000000200e-01,6.747777300000000000e+09
1.240000000000000000e+02,2.800000000000000000e+02,5.170000000000000000e+02,3.030000000000000000e+02,7.100000000000000000e+01,4.940000000000000000e+02,5.400000000000000000e+02,3.490000000000000000e+02,4.699999999999999734e-01,6.766385800000000000e+09
1.380000000000000000e+02,3.350000000000000000e+02,5.480000000000000000e+02,2.990000000000000000e+02,6.900000000000000000e+01,4.720000000000000000e+02,6.050000000000000000e+02,3.670000000000000000e+02,4.799999999999999822e-01,6.784232500000000000e+09
2.270000000000000000e+02,3.280000000000000000e+02,4.900000000000000000e+02,2.790000000000000000e+02,8.400000000000000000e+01,5.370000000000000000e+02,6.780000000000000000e+02,5.060000000000000000e+02,4.799999999999999822e-01,6.804818500000000000e+09
2.270000000000000000e+02,3.360000000000000000e+02,4.680000000000000000e+02,2.480000000000000000e+02,8.200000000000000000e+01,4.860000000000000000e+02,7.100000000000000000e+02,5.090000000000000000e+02,4.699999999999999734e-01,6.827535700000000000e+09
2.280000000000000000e+02,3.490000000000000000e+02,5.010000000000000000e+02,2.350000000000000000e+02,7.900000000000000000e+01,4.560000000000000000e+02,7.350000000000000000e+02,5.470000000000000000e+02,4.600000000000000200e-01,6.847057200000000000e+09
2.400000000000000000e+02,3.110000000000000000e+02,4.050000000000000000e+02,2.440000000000000000e+02,8.400000000000000000e+01,4.710000000000000000e+02,7.300000000000000000e+02,5.960000000000000000e+02,4.600000000000000200e-01,6.865345400000000000e+09
2.420000000000000000e+02,2.830000000000000000e+02,3.620000000000000000e+02,2.460000000000000000e+02,9.500000000000000000e+01,5.680000000000000000e+02,7.200000000000000000e+02,5.950000000000000000e+02,4.600000000000000200e-01,6.883889600000000000e+09
1.750000000000000000e+02,3.090000000000000000e+02,3.510000000000000000e+02,2.420000000000000000e+02,8.100000000000000000e+01,5.270000000000000000e+02,7.500000000000000000e+02,5.480000000000000000e+02,4.600000000000000200e-01,6.904645900000000000e+09
1.870000000000000000e+02,3.160000000000000000e+02,3.860000000000000000e+02,2.390000000000000000e+02,8.300000000000000000e+01,5.580000000000000000e+02,7.290000000000000000e+02,5.710000000000000000e+02,4.600000000000000200e-01,6.926898000000000000e+09
2.180000000000000000e+02,3.380000000000000000e+02,4.810000000000000000e+02,2.720000000000000000e+02,1.120000000000000000e+02,6.330000000000000000e+02,7.280000000000000000e+02,5.780000000000000000e+02,4.500000000000000111e-01,6.944792600000000000e+09
2.140000000000000000e+02,3.280000000000000000e+02,4.890000000000000000e+02,2.630000000000000000e+02,1.150000000000000000e+02,6.530000000000000000e+02,7.460000000000000000e+02,6.220000000000000000e+02,4.400000000000000022e-01,6.963462600000000000e+09
3.180000000000000000e+02,3.140000000000000000e+02,5.710000000000000000e+02,2.790000000000000000e+02,1.260000000000000000e+02,6.890000000000000000e+02,8.510000000000000000e+02,7.920000000000000000e+02,4.299999999999999933e-01,6.982946500000000000e+09
3.130000000000000000e+02,3.210000000000000000e+02,5.880000000000000000e+02,2.870000000000000000e+02,1.330000000000000000e+02,6.590000000000000000e+02,7.990000000000000000e+02,7.890000000000000000e+02,4.099999999999999756e-01,7.004630300000000000e+09
3.380000000000000000e+02,3.250000000000000000e+02,5.530000000000000000e+02,2.880000000000000000e+02,1.300000000000000000e+02,6.820000000000000000e+02,9.210000000000000000e+02,8.020000000000000000e+02,3.900000000000000133e-01,7.026795500000000000e+09
3.350000000000000000e+02,3.090000000000000000e+02,4.560000000000000000e+02,2.460000000000000000e+02,1.160000000000000000e+02,6.580000000000000000e+02,9.500000000000000000e+02,7.860000000000000000e+02,3.900000000000000133e-01,7.045729200000000000e+09
3.540000000000000000e+02,3.290000000000000000e+02,4.530000000000000000e+02,2.310000000000000000e+02,1.110000000000000000e+02,7.130000000000000000e+02,1.015000000000000000e+03,8.180000000000000000e+02,3.800000000000000044e-01,7.064267700000000000e+09
2.700000000000000000e+02,3.080000000000000000e+02,4.080000000000000000e+02,2.220000000000000000e+02,9.000000000000000000e+01,6.520000000000000000e+02,9.590000000000000000e+02,6.520000000000000000e+02,3.800000000000000044e-01,7.082423500000000000e+09
2.770000000000000000e+02,3.110000000000000000e+02,4.140000000000000000e+02,2.200000000000000000e+02,9.300000000000000000e+01,6.570000000000000000e+02,1.021000000000000000e+03,6.260000000000000000e+02,3.699999999999999956e-01,7.104541900000000000e+09
2.920000000000000000e+02,3.220000000000000000e+02,4.100000000000000000e+02,2.320000000000000000e+02,1.170000000000000000e+02,6.480000000000000000e+02,1.077000000000000000e+03,6.570000000000000000e+02,3.599999999999999867e-01,7.126896400000000000e+09
3.030000000000000000e+02,2.990000000000000000e+02,3.930000000000000000e+02,2.370000000000000000e+02,1.190000000000000000e+02,6.100000000000000000e+02,1.058000000000000000e+03,6.670000000000000000e+02,3.599999999999999867e-01,7.146017400000000000e+09
3.110000000000000000e+02,2.860000000000000000e+02,4.120000000000000000e+02,2.330000000000000000e+02,1.260000000000000000e+02,6.250000000000000000e+02,9.980000000000000000e+02,5.910000000000000000e+02,3.499999999999999778e-01,7.169549100000000000e+09
3.030000000000000000e+02,3.410000000000000000e+02,4.040000000000000000e+02,2.080000000000000000e+02,1.290000000000000000e+02,6.000000000000000000e+02,9.280000000000000000e+02,5.670000000000000000e+02,3.499999999999999778e-01,7.191020100000000000e+09
3.140000000000000000e+02,3.340000000000000000e+02,3.910000000000000000e+02,2.350000000000000000e+02,1.320000000000000000e+02,6.660000000000000000e+02,8.280000000000000000e+02,6.430000000000000000e+02,3.499999999999999778e-01,7.209961800000000000e+09
3.160000000000000000e+02,2.980000000000000000e+02,3.890000000000000000e+02,2.190000000000000000e+02,1.180000000000000000e+02,6.730000000000000000e+02,6.010000000000000000e+02,6.820000000000000000e+02,3.499999999999999778e-01,7.231897800000000000e+09
3.270000000000000000e+02,2.960000000000000000e+02,4.170000000000000000e+02,1.950000000000000000e+02,1.090000000000000000e+02,6.850000000000000000e+02,5.940000000000000000e+02,7.260000000000000000e+02,3.499999999999999778e-01,7.250593200000000000e+09
3.630000000000000000e+02,3.070000000000000000e+02,5.080000000000000000e+02,1.960000000000000000e+02,1.080000000000000000e+02,6.250000000000000000e+02,5.870000000000000000e+02,8.140000000000000000e+02,3.599999999999999867e-01,7.270405700000000000e+09
4.020000000000000000e+02,2.560000000000000000e+02,4.790000000000000000e+02,2.150000000000000000e+02,1.150000000000000000e+02,6.470000000000000000e+02,6.530000000000000000e+02,9.090000000000000000e+02,3.599999999999999867e-01,7.290902100000000000e+09
4.330000000000000000e+02,2.440000000000000000e+02,4.690000000000000000e+02,1.740000000000000000e+02,1.050000000000000000e+02,6.090000000000000000e+02,6.550000000000000000e+02,9.160000000000000000e+02,3.599999999999999867e-01,7.308662200000000000e+09
4.180000000000000000e+02,2.850000000000000000e+02,5.600000000000000000e+02,1.980000000000000000e+02,1.070000000000000000e+02,5.460000000000000000e+02,6.910000000000000000e+02,8.600000000000000000e+02,3.599999999999999867e-01,7.327645300000000000e+09
4.090000000000000000e+02,2.900000000000000000e+02,5.670000000000000000e+02,2.150000000000000000e+02,1.130000000000000000e+02,5.950000000000000000e+02,7.150000000000000000e+02,8.250000000000000000e+02,3.599999999999999867e-01,7.345892300000000000e+09
3.650000000000000000e+02,2.910000000000000000e+02,4.980000000000000000e+02,2.070000000000000000e+02,1.170000000000000000e+02,5.760000000000000000e+02,7.150000000000000000e+02,7.440000000000000000e+02,3.599999999999999867e-01,7.366783600000000000e+09
3.430000000000000000e+02,3.030000000000000000e+02,4.980000000000000000e+02,2.110000000000000000e+02,1.130000000000000000e+02,5.330000000000000000e+02,7.020000000000000000e+02,7.620000000000000000e+02,3.599999999999999867e-01,7.385396700000000000e+09
2.980000000000000000e+02,3.390000000000000000e+02,5.050000000000000000e+02,2.180000000000000000e+02,1.090000000000000000e+02,5.470000000000000000e+02,7.360000000000000000e+02,7.630000000000000000e+02,3.599999999999999867e-01,7.403777000000000000e+09
3.240000000000000000e+02,3.120000000000000000e+02,4.490000000000000000e+02,2.250000000000000000e+02,1.080000000000000000e+02,5.600000000000000000e+02,7.360000000000000000e+02,7.540000000000000000e+02,3.599999999999999867e-01,7.422711000000000000e+09
3.430000000000000000e+02,3.070000000000000000e+02,3.980000000000000000e+02,2.140000000000000000e+02,1.050000000000000000e+02,4.990000000000000000e+02,7.420000000000000000e+02,7.720000000000000000e+02,3.599999999999999867e-01,7.444619000000000000e+09
3.710000000000000000e+02,3.100000000000000000e+02,4.140000000000000000e+02,2.310000000000000000e+02,9.200000000000000000e+01,5.030000000000000000e+02,7.150000000000000000e+02,8.090000000000000000e+02,3.599999999999999867e-01,7.466966300000000000e+09
3.600000000000000000e+02,3.380000000000000000e+02,4.180000000000000000e+02,2.300000000000000000e+02,8.600000000000000000e+01,5.090000000000000000e+02,7.210000000000000000e+02,7.010000000000000000e+02,3.599999999999999867e-01,7.488962500000000000e+09
3.580000000000000000e+02,2.750000000000000000e+02,4.760000000000000000e+02,2.450000000000000000e+02,9.100000000000000000e+01,4.850000000000000000e+02,7.870000000000000000e+02,6.820000000000000000e+02,3.699999999999999956e-01,7.506916200000000000e+09
4.300000000000000000e+02,2.920000000000000000e+02,4.280000000000000000e+02,2.200000000000000000e+02,8.800000000000000000e+01,5.630000000000000000e+02,7.760000000000000000e+02,6.960000000000000000e+02,3.599999999999999867e-01,7.525788400000000000e+09
4.210000000000000000e+02,3.630000000000000000e+02,4.400000000000000000e+02,2.320000000000000000e+02,9.100000000000000000e+01,5.720000000000000000e+02,8.720000000000000000e+02,6.880000000000000000e+02,3.599999999999999867e-01,7.544688500000000000e+09
4.640000000000000000e+02,3.680000000000000000e+02,4.850000000000000000e+02,2.230000000000000000e+02,9.200000000000000000e+01,5.800000000000000000e+02,9.680000000000000000e+02,6.600000000000000000e+02,3.599999999999999867e-01,7.566647200000000000e+09
4.680000000000000000e+02,3.600000000000000000e+02,4.780000000000000000e+02,2.150000000000000000e+02,9.500000000000000000e+01,6.200000000000000000e+02,9.890000000000000000e+02,7.090000000000000000e+02,3.599999999999999867e-01,7.588733200000000000e+09
4.830000000000000000e+02,3.890000000000000000e+02,4.030000000000000000e+02,2.010000000000000000e+02,9.500000000000000000e+01,6.100000000000000000e+02,9.350000000000000000e+02,7.160000000000000000e+02,3.599999999999999867e-01,7.607404700000000000e+09
4.170000000000000000e+02,3.840000000000000000e+02,4.270000000000000000e+02,2.120000000000000000e+02,9.500000000000000000e+01,5.370000000000000000e+02,9.880000000000000000e+02,7.240000000000000000e+02,3.599999999999999867e-01,7.625826000000000000e+09
4.300000000000000000e+02,3.230000000000000000e+02,4.200000000000000000e+02,2.000000000000000000e+02,9.200000000000000000e+01,5.090000000000000000e+02,9.150000000000000000e+02,7.820000000000000000e+02,3.699999999999999956e-01,7.644444000000000000e+09
3.910000000000000000e+02,3.300000000000000000e+02,3.140000000000000000e+02,1.990000000000000000e+02,9.400000000000000000e+01,4.980000000000000000e+02,8.010000000000000000e+02,7.610000000000000000e+02,3.699999999999999956e-01,7.666789900000000000e+09
4.130000000000000000e+02,3.160000000000000000e+02,3.900000000000000000e+02,1.890000000000000000e+02,9.600000000000000000e+01,4.450000000000000000e+02,7.950000000000000000e+02,7.500000000000000000e+02,3.699999999999999956e-01,7.686372600000000000e+09
4.040000000000000000e+02,3.040000000000000000e+02,4.140000000000000000e+02,2.080000000000000000e+02,9.400000000000000000e+01,4.540000000000000000e+02,8.230000000000000000e+02,7.430000000000000000e+02,3.699999999999999956e-01,7.704281400000000000e+09
3.730000000000000000e+02,3.270000000000000000e+02,4.160000000000000000e+02,2.360000000000000000e+02,1.050000000000000000e+02,4.740000000000000000e+02,7.730000000000000000e+02,7.620000000000000000e+02,3.699999999999999956e-01,7.723655100000000000e+09
3.780000000000000000e+02,3.360000000000000000e+02,4.380000000000000000e+02,2.370000000000000000e+02,1.020000000000000000e+02,5.270000000000000000e+02,7.370000000000000000e+02,7.600000000000000000e+02,3.699999999999999956e-01,7.746414400000000000e+09
3.680000000000000000e+02,3.050000000000000000e+02,4.420000000000000000e+02,2.270000000000000000e+02,1.070000000000000000e+02,5.080000000000000000e+02,8.660000000000000000e+02,7.780000000000000000e+02,3.699999999999999956e-01,7.769047700000000000e+09
3.470000000000000000e+02,3.270000000000000000e+02,3.870000000000000000e+02,2.330000000000000000e+02,1.030000000000000000e+02,4.900000000000000000e+02,9.010000000000000000e+02,7.540000000000000000e+02,3.699999999999999956e-01,7.787773400000000000e+09
3.320000000000000000e+02,3.500000000000000000e+02,4.560000000000000000e+02,2.210000000000000000e+02,1.110000000000000000e+02,5.600000000000000000e+02,9.190000000000000000e+02,7.150000000000000000e+02,3.800000000000000044e-01,7.805757000000000000e+09
3.490000000000000000e+02,3.110000000000000000e+02,4.640000000000000000e+02,2.060000000000000000e+02,1.070000000000000000e+02,5.430000000000000000e+02,1.048000000000000000e+03,7.200000000000000000e+02,3.800000000000000044e-01,7.825876800000000000e+09
3.520000000000000000e+02,3.070000000000000000e+02,4.490000000000000000e+02,2.050000000000000000e+02,1.130000000000000000e+02,5.620000000000000000e+02,1.060000000000000000e+03,6.760000000000000000e+02,3.800000000000000044e-01,7.848416300000000000e+09
3.480000000000000000e+02,3.210000000000000000e+02,4.490000000000000000e+02,2.100000000000000000e+02,1.050000000000000000e+02,5.540000000000000000e+02,1.019000000000000000e+03,6.970000000000000000e+02,3.800000000000000044e-01,7.866584100000000000e+09
4.150000000000000000e+02,3.120000000000000000e+02,4.270000000000000000e+02,1.930000000000000000e+02,1.040000000000000000e+02,6.060000000000000000e+02,9.810000000000000000e+02,8.180000000000000000e+02,3.800000000000000044e-01,7.884720100000000000e+09
4.290000000000000000e+02,2.660000000000000000e+02,3.360000000000000000e+02,1.850000000000000000e+02,9.300000000000000000e+01,5.480000000000000000e+02,9.220000000000000000e+02,8.130000000000000000e+02,3.900000000000000133e-01,7.904909800000000000e+09
4.800000000000000000e+02,3.050000000000000000e+02,2.910000000000000000e+02,1.430000000000000000e+02,8.000000000000000000e+01,5.310000000000000000e+02,7.460000000000000000e+02,7.970000000000000000e+02,3.900000000000000133e-01,7.927131200000000000e+09
4.710000000000000000e+02,3.170000000000000000e+02,2.620000000000000000e+02,1.490000000000000000e+02,7.100000000000000000e+01,4.680000000000000000e+02,7.290000000000000000e+02,8.110000000000000000e+02,4.000000000000000222e-01,7.946052600000000000e+09
4.970000000000000000e+02,3.340000000000000000e+02,3.220000000000000000e+02,1.610000000000000000e+02,8.200000000000000000e+01,4.530000000000000000e+02,6.680000000000000000e+02,8.060000000000000000e+02,4.000000000000000222e-01,7.964981600000000000e+09
4.670000000000000000e+02,3.020000000000000000e+02,3.230000000000000000e+02,1.710000000000000000e+02,8.500000000000000000e+01,3.930000000000000000e+02,8.640000000000000000e+02,6.820000000000000000e+02,4.099999999999999756e-01,7.983773800000000000e+09
4.950000000000000000e+02,3.180000000000000000e+02,3.220000000000000000e+02,1.980000000000000000e+02,8.200000000000000000e+01,3.640000000000000000e+02,8.620000000000000000e+02,7.300000000000000000e+02,4.099999999999999756e-01,8.004679400000000000e+09
4.540000000000000000e+02,2.760000000000000000e+02,3.190000000000000000e+02,2.110000000000000000e+02,8.700000000000000000e+01,4.020000000000000000e+02,9.260000000000000000e+02,7.250000000000000000e+02,4.099999999999999756e-01,8.027015100000000000e+09
4.520000000000000000e+02,2.580000000000000000e+02,3.490000000000000000e+02,2.170000000000000000e+02,8.300000000000000000e+01,4.090000000000000000e+02,9.770000000000000000e+02,7.680000000000000000e+02,4.099999999999999756e-01,8.046302300000000000e+09
4.370000000000000000e+02,2.150000000000000000e+02,3.490000000000000000e+02,2.050000000000000000e+02,7.100000000000000000e+01,3.960000000000000000e+02,9.900000000000000000e+02,7.250000000000000000e+02,4.199999999999999845e-01,8.065229000000000000e+09
4.930000000000000000e+02,2.430000000000000000e+02,3.610000000000000000e+02,2.320000000000000000e+02,6.600000000000000000e+01,3.810000000000000000e+02,8.250000000000000000e+02,7.540000000000000000e+02,4.199999999999999845e-01,8.083560200000000000e+09
4.910000000000000000e+02,2.420000000000000000e+02,4.530000000000000000e+02,2.920000000000000000e+02,7.600000000000000000e+01,3.810000000000000000e+02,8.970000000000000000e+02,7.120000000000000000e+02,4.199999999999999845e-01,8.104657000000000000e+09
5.500000000000000000e+02,2.640000000000000000e+02,4.670000000000000000e+02,3.090000000000000000e+02,7.600000000000000000e+01,3.570000000000000000e+02,8.890000000000000000e+02,7.460000000000000000e+02,4.199999999999999845e-01,8.126725100000000000e+09
5.500000000000000000e+02,2.650000000000000000e+02,4.620000000000000000e+02,3.070000000000000000e+02,7.800000000000000000e+01,3.320000000000000000e+02,8.270000000000000000e+02,6.690000000000000000e+02,4.299999999999999933e-01,8.149102100000000000e+09
5.560000000000000000e+02,2.830000000000000000e+02,4.280000000000000000e+02,3.200000000000000000e+02,7.800000000000000000e+01,3.510000000000000000e+02,7.800000000000000000e+02,6.990000000000000000e+02,4.199999999999999845e-01,8.167454600000000000e+09
5.380000000000000000e+02,2.660000000000000000e+02,4.400000000000000000e+02,3.100000000000000000e+02,7.500000000000000000e+01,3.430000000000000000e+02,7.730000000000000000e+02,7.370000000000000000e+02,4.199999999999999845e-01,8.186444400000000000e+09
5.250000000000000000e+02,2.420000000000000000e+02,3.490000000000000000e+02,2.260000000000000000e+02,6.400000000000000000e+01,3.400000000000000000e+02,6.660000000000000000e+02,7.710000000000000000e+02,4.199999999999999845e-01,8.205091500000000000e+09
4.580000000000000000e+02,2.410000000000000000e+02,3.260000000000000000e+02,1.940000000000000000e+02,6.000000000000000000e+01,3.330000000000000000e+02,5.660000000000000000e+02,7.540000000000000000e+02,4.199999999999999845e-01,8.226924000000000000e+09
4.550000000000000000e+02,2.430000000000000000e+02,3.260000000000000000e+02,1.940000000000000000e+02,6.800000000000000000e+01,3.820000000000000000e+02,5.250000000000000000e+02,7.500000000000000000e+02,4.199999999999999845e-01,8.248807400000000000e+09
5.370000000000000000e+02,2.470000000000000000e+02,3.030000000000000000e+02,1.860000000000000000e+02,8.100000000000000000e+01,4.120000000000000000e+02,6.330000000000000000e+02,7.850000000000000000e+02,4.299999999999999933e-01,8.267594500000000000e+09
4.760000000000000000e+02,2.300000000000000000e+02,2.850000000000000000e+02,1.780000000000000000e+02,8.600000000000000000e+01,4.140000000000000000e+02,5.760000000000000000e+02,8.000000000000000000e+02,4.299999999999999933e-01,8.286044700000000000e+09
4.960000000000000000e+02,2.250000000000000000e+02,2.890000000000000000e+02,1.780000000000000000e+02,8.600000000000000000e+01,4.020000000000000000e+02,6.260000000000000000e+02,7.820000000000000000e+02,4.400000000000000022e-01,8.304264800000000000e+09
5.100000000000000000e+02,2.560000000000000000e+02,2.840000000000000000e+02,1.670000000000000000e+02,8.300000000000000000e+01,3.970000000000000000e+02,6.050000000000000000e+02,7.780000000000000000e+02,4.400000000000000022e-01,8.323907300000000000e+09
5.640000000000000000e+02,2.640000000000000000e+02,2.830000000000000000e+02,1.620000000000000000e+02,7.800000000000000000e+01,4.230000000000000000e+02,6.340000000000000000e+02,8.050000000000000000e+02,4.400000000000000022e-01,8.345368200000000000e+09
5.110000000000000000e+02,2.520000000000000000e+02,2.930000000000000000e+02,1.500000000000000000e+02,6.700000000000000000e+01,3.840000000000000000e+02,5.550000000000000000e+02,7.840000000000000000e+02,4.400000000000000022e-01,8.366396900000000000e+09
5.340000000000000000e+02,2.850000000000000000e+02,3.070000000000000000e+02,1.420000000000000000e+02,6.600000000000000000e+01,3.810000000000000000e+02,6.050000000000000000e+02,7.240000000000000000e+02,4.500000000000000111e-01,8.389946700000000000e+09
5.830000000000000000e+02,3.270000000000000000e+02,2.930000000000000000e+02,1.480000000000000000e+02,6.600000000000000000e+01,3.750000000000000000e+02,6.790000000000000000e+02,7.480000000000000000e+02,4.500000000000000111e-01,8.408643900000000000e+09
6.010000000000000000e+02,2.970000000000000000e+02,2.790000000000000000e+02,1.940000000000000000e+02,8.600000000000000000e+01,3.810000000000000000e+02,7.320000000000000000e+02,7.350000000000000000e+02,4.500000000000000111e-01,8.427494400000000000e+09
5.540000000000000000e+02,2.790000000000000000e+02,3.040000000000000000e+02,2.150000000000000000e+02,8.600000000000000000e+01,2.870000000000000000e+02,7.550000000000000000e+02,6.860000000000000000e+02,4.500000000000000111e-01,8.446552900000000000e+09
5.010000000000000000e+02,2.900000000000000000e+02,3.460000000000000000e+02,2.330000000000000000e+02,9.000000000000000000e+01,2.990000000000000000e+02,8.080000000000000000e+02,6.230000000000000000e+02,4.500000000000000111e-01,8.466349600000000000e+09
5.160000000000000000e+02,2.780000000000000000e+02,3.140000000000000000e+02,2.370000000000000000e+02,8.700000000000000000e+01,2.870000000000000000e+02,7.820000000000000000e+02,6.240000000000000000e+02,4.500000000000000111e-01,8.488469000000000000e+09
4.750000000000000000e+02,2.420000000000000000e+02,3.100000000000000000e+02,2.320000000000000000e+02,8.600000000000000000e+01,2.810000000000000000e+02,6.970000000000000000e+02,5.600000000000000000e+02,4.600000000000000200e-01,8.507473100000000000e+09
4.730000000000000000e+02,2.360000000000000000e+02,3.580000000000000000e+02,2.070000000000000000e+02,6.700000000000000000e+01,2.430000000000000000e+02,6.830000000000000000e+02,6.460000000000000000e+02,4.500000000000000111e-01,8.525848400000000000e+09
4.960000000000000000e+02,2.760000000000000000e+02,3.350000000000000000e+02,1.860000000000000000e+02,6.400000000000000000e+01,2.150000000000000000e+02,7.740000000000000000e+02,6.820000000000000000e+02,4.500000000000000111e-01,8.544146700000000000e+09
5.310000000000000000e+02,2.690000000000000000e+02,2.800000000000000000e+02,1.540000000000000000e+02,5.400000000000000000e+01,2.040000000000000000e+02,7.380000000000000000e+02,7.700000000000000000e+02,4.600000000000000200e-01,8.566378600000000000e+09
5.180000000000000000e+02,2.750000000000000000e+02,3.040000000000000000e+02,1.610000000000000000e+02,5.500000000000000000e+01,1.970000000000000000e+02,7.180000000000000000e+02,7.740000000000000000e+02,4.600000000000000200e-01,8.588364400000000000e+09
4.930000000000000000e+02,2.800000000000000000e+02,3.100000000000000000e+02,1.850000000000000000e+02,5.100000000000000000e+01,2.150000000000000000e+02,7.240000000000000000e+02,7.980000000000000000e+02,4.600000000000000200e-01,8.607405100000000000e+09
4.640000000000000000e+02,3.100000000000000000e+02,2.730000000000000000e+02,1.810000000000000000e+02,5.100000000000000000e+01,2.120000000000000000e+02,7.160000000000000000e+02,7.600000000000000000e+02,4.500000000000000111e-01,8.625250700000000000e+09
4.350000000000000000e+02,2.880000000000000000e+02,2.600000000000000000e+02,1.770000000000000000e+02,5.000000000000000000e+01,2.210000000000000000e+02,5.700000000000000000e+02,8.420000000000000000e+02,4.600000000000000200e-01,8.644084500000000000e+09
4.200000000000000000e+02,2.760000000000000000e+02,2.860000000000000000e+02,1.790000000000000000e+02,5.300000000000000000e+01,2.560000000000000000e+02,5.800000000000000000e+02,8.010000000000000000e+02,4.600000000000000200e-01,8.666292100000000000e+09
4.470000000000000000e+02,2.880000000000000000e+02,2.770000000000000000e+02,1.810000000000000000e+02,5.600000000000000000e+01,2.810000000000000000e+02,6.860000000000000000e+02,8.120000000000000000e+02,4.600000000000000200e-01,8.688413400000000000e+09
4.350000000000000000e+02,2.840000000000000000e+02,2.640000000000000000e+02,1.770000000000000000e+02,5.900000000000000000e+01,2.790000000000000000e+02,6.680000000000000000e+02,8.260000000000000000e+02,4.600000000000000200e-01,8.707090200000000000e+09
4.240000000000000000e+02,2.820000000000000000e+02,3.040000000000000000e+02,1.760000000000000000e+02,5.700000000000000000e+01,2.760000000000000000e+02,6.320000000000000000e+02,7.960000000000000000e+02,4.699999999999999734e-01,8.725362700000000000e+09
4.580000000000000000e+02,2.640000000000000000e+02,2.990000000000000000e+02,1.750000000000000000e+02,5.700000000000000000e+01,2.910000000000000000e+02,6.210000000000000000e+02,7.120000000000000000e+02,4.699999999999999734e-01,8.744811100000000000e+09
4.510000000000000000e+02,2.810000000000000000e+02,2.780000000000000000e+02,1.750000000000000000e+02,6.000000000000000000e+01,2.390000000000000000e+02,6.240000000000000000e+02,7.570000000000000000e+02,4.699999999999999734e-01,8.767720100000000000e+09
4.630000000000000000e+02,2.840000000000000000e+02,2.650000000000000000e+02,1.670000000000000000e+02,6.300000000000000000e+01,2.210000000000000000e+02,5.130000000000000000e+02,7.300000000000000000e+02,4.699999999999999734e-01,8.786749600000000000e+09
4.590000000000000000e+02,2.720000000000000000e+02,2.630000000000000000e+02,1.420000000000000000e+02,6.100000000000000000e+01,2.010000000000000000e+02,5.020000000000000000e+02,7.250000000000000000e+02,4.799999999999999822e-01,8.806579100000000000e+09
4.980000000000000000e+02,2.720000000000000000e+02,1.940000000000000000e+02,1.410000000000000000e+02,6.200000000000000000e+01,2.050000000000000000e+02,4.960000000000000000e+02,6.880000000000000000e+02,4.799999999999999822e-01,8.825479000000000000e+09
4.670000000000000000e+02,2.740000000000000000e+02,2.000000000000000000e+02,1.320000000000000000e+02,6.400000000000000000e+01,1.910000000000000000e+02,5.000000000000000000e+02,6.810000000000000000e+02,4.799999999999999822e-01,8.847620600000000000e+09
4.780000000000000000e+02,2.800000000000000000e+02,1.990000000000000000e+02,1.350000000000000000e+02,5.900000000000000000e+01,2.060000000000000000e+02,4.730000000000000000e+02,6.250000000000000000e+02,4.899999999999999911e-01,8.867165600000000000e+09
4.270000000000000000e+02,2.480000000000000000e+02,2.380000000000000000e+02,1.650000000000000000e+02,5.200000000000000000e+01,1.900000000000000000e+02,4.670000000000000000e+02,6.310000000000000000e+02,4.899999999999999911e-01,8.885259700000000000e+09
4.460000000000000000e+02,2.720000000000000000e+02,2.560000000000000000e+02,1.770000000000000000e+02,5.100000000000000000e+01,2.020000000000000000e+02,4.890000000000000000e+02,6.190000000000000000e+02,4.899999999999999911e-01,8.904304800000000000e+09
3.950000000000000000e+02,2.440000000000000000e+02,2.650000000000000000e+02,1.790000000000000000e+02,5.500000000000000000e+01,1.960000000000000000e+02,4.930000000000000000e+02,6.260000000000000000e+02,4.899999999999999911e-01,8.926656800000000000e+09
3.750000000000000000e+02,2.630000000000000000e+02,2.570000000000000000e+02,1.800000000000000000e+02,5.000000000000000000e+01,1.710000000000000000e+02,4.830000000000000000e+02,5.510000000000000000e+02,5.000000000000000000e-01,8.949046200000000000e+09
3.350000000000000000e+02,2.460000000000000000e+02,2.560000000000000000e+02,1.850000000000000000e+02,5.300000000000000000e+01,1.700000000000000000e+02,4.970000000000000000e+02,6.470000000000000000e+02,5.000000000000000000e-01,8.968113200000000000e+09
3.310000000000000000e+02,2.600000000000000000e+02,2.240000000000000000e+02,1.560000000000000000e+02,5.200000000000000000e+01,1.640000000000000000e+02,5.530000000000000000e+02,6.390000000000000000e+02,5.000000000000000000e-01,8.986124100000000000e+09
2.900000000000000000e+02,2.360000000000000000e+02,2.170000000000000000e+02,1.670000000000000000e+02,5.100000000000000000e+01,1.600000000000000000e+02,5.270000000000000000e+02,6.110000000000000000e+02,5.000000000000000000e-01,9.005421800000000000e+09
2.770000000000000000e+02,2.670000000000000000e+02,2.370000000000000000e+02,1.630000000000000000e+02,4.300000000000000000e+01,2.020000000000000000e+02,5.500000000000000000e+02,6.310000000000000000e+02,5.000000000000000000e-01,9.026150700000000000e+09
2.850000000000000000e+02,2.680000000000000000e+02,2.570000000000000000e+02,1.660000000000000000e+02,4.500000000000000000e+01,2.070000000000000000e+02,5.880000000000000000e+02,7.390000000000000000e+02,5.000000000000000000e-01,9.048200800000000000e+09
3.050000000000000000e+02,2.760000000000000000e+02,2.750000000000000000e+02,1.630000000000000000e+02,4.700000000000000000e+01,1.910000000000000000e+02,5.290000000000000000e+02,6.060000000000000000e+02,5.000000000000000000e-01,9.066279200000000000e+09
2.750000000000000000e+02,2.790000000000000000e+02,2.620000000000000000e+02,1.640000000000000000e+02,5.000000000000000000e+01,1.950000000000000000e+02,4.830000000000000000e+02,5.800000000000000000e+02,5.000000000000000000e-01,9.084802100000000000e+09
3.150000000000000000e+02,2.980000000000000000e+02,2.700000000000000000e+02,1.650000000000000000e+02,5.600000000000000000e+01,1.910000000000000000e+02,4.930000000000000000e+02,6.350000000000000000e+02,5.000000000000000000e-01,9.103910400000000000e+09
3.270000000000000000e+02,2.780000000000000000e+02,2.550000000000000000e+02,1.650000000000000000e+02,5.600000000000000000e+01,1.310000000000000000e+02,4.400000000000000000e+02,6.450000000000000000e+02,5.000000000000000000e-01,9.125985600000000000e+09
3.310000000000000000e+02,2.610000000000000000e+02,2.600000000000000000e+02,2.010000000000000000e+02,5.600000000000000000e+01,1.450000000000000000e+02,3.880000000000000000e+02,5.670000000000000000e+02,5.000000000000000000e-01,9.148714800000000000e+09
3.540000000000000000e+02,2.690000000000000000e+02,2.770000000000000000e+02,2.280000000000000000e+02,5.300000000000000000e+01,1.430000000000000000e+02,3.640000000000000000e+02,5.940000000000000000e+02,5.000000000000000000e-01,9.169779300000000000e+09
4.010000000000000000e+02,2.720000000000000000e+02,3.320000000000000000e+02,2.260000000000000000e+02,5.300000000000000000e+01,1.400000000000000000e+02,3.180000000000000000e+02,6.300000000000000000e+02,5.000000000000000000e-01,9.189234800000000000e+09
3.720000000000000000e+02,2.600000000000000000e+02,3.430000000000000000e+02,2.180000000000000000e+02,5.100000000000000000e+01,1.210000000000000000e+02,2.910000000000000000e+02,6.130000000000000000e+02,5.000000000000000000e-01,9.208081800000000000e+09
4.200000000000000000e+02,2.490000000000000000e+02,3.460000000000000000e+02,2.250000000000000000e+02,5.600000000000000000e+01,1.310000000000000000e+02,3.700000000000000000e+02,6.630000000000000000e+02,5.000000000000000000e-01,9.227315900000000000e+09
4.560000000000000000e+02,2.520000000000000000e+02,3.670000000000000000e+02,1.970000000000000000e+02,5.700000000000000000e+01,1.060000000000000000e+02,3.470000000000000000e+02,6.470000000000000000e+02,5.000000000000000000e-01,9.247316400000000000e+09
4.230000000000000000e+02,2.610000000000000000e+02,3.380000000000000000e+02,1.760000000000000000e+02,5.500000000000000000e+01,9.700000000000000000e+01,3.680000000000000000e+02,6.920000000000000000e+02,5.000000000000000000e-01,9.267336000000000000e+09
3.980000000000000000e+02,2.240000000000000000e+02,2.950000000000000000e+02,1.950000000000000000e+02,5.300000000000000000e+01,1.050000000000000000e+02,4.190000000000000000e+02,6.630000000000000000e+02,5.000000000000000000e-01,9.286656100000000000e+09
4.730000000000000000e+02,2.100000000000000000e+02,2.900000000000000000e+02,2.120000000000000000e+02,5.300000000000000000e+01,1.080000000000000000e+02,4.730000000000000000e+02,6.680000000000000000e+02,5.000000000000000000e-01,9.304918000000000000e+09
4.620000000000000000e+02,2.100000000000000000e+02,2.780000000000000000e+02,2.090000000000000000e+02,4.700000000000000000e+01,9.900000000000000000e+01,4.510000000000000000e+02,5.740000000000000000e+02,5.000000000000000000e-01,9.323296400000000000e+09
4.160000000000000000e+02,2.220000000000000000e+02,2.420000000000000000e+02,2.070000000000000000e+02,4.400000000000000000e+01,1.270000000000000000e+02,4.500000000000000000e+02,5.490000000000000000e+02,5.100000000000000089e-01,9.345318400000000000e+09
4.270000000000000000e+02,1.820000000000000000e+02,2.440000000000000000e+02,1.860000000000000000e+02,4.200000000000000000e+01,2.290000000000000000e+02,4.440000000000000000e+02,4.790000000000000000e+02,5.100000000000000089e-01,9.367307600000000000e+09
4.100000000000000000e+02,1.900000000000000000e+02,2.810000000000000000e+02,1.680000000000000000e+02,4.600000000000000000e+01,2.400000000000000000e+02,3.920000000000000000e+02,4.580000000000000000e+02,5.100000000000000089e-01,9.385977000000000000e+09
3.270000000000000000e+02,1.870000000000000000e+02,2.510000000000000000e+02,1.250000000000000000e+02,4.000000000000000000e+01,2.450000000000000000e+02,3.010000000000000000e+02,3.520000000000000000e+02,5.100000000000000089e-01,9.405616500000000000e+09
3.240000000000000000e+02,1.960000000000000000e+02,2.840000000000000000e+02,1.860000000000000000e+02,4.000000000000000000e+01,2.470000000000000000e+02,3.380000000000000000e+02,4.240000000000000000e+02,5.100000000000000089e-01,9.424873000000000000e+09
3.390000000000000000e+02,1.990000000000000000e+02,2.770000000000000000e+02,2.080000000000000000e+02,4.500000000000000000e+01,2.410000000000000000e+02,3.260000000000000000e+02,4.430000000000000000e+02,5.100000000000000089e-01,9.445035600000000000e+09
3.140000000000000000e+02,1.950000000000000000e+02,2.770000000000000000e+02,2.100000000000000000e+02,4.500000000000000000e+01,1.600000000000000000e+02,3.130000000000000000e+02,4.000000000000000000e+02,5.100000000000000089e-01,9.467272700000000000e+09
3.060000000000000000e+02,1.990000000000000000e+02,2.620000000000000000e+02,2.420000000000000000e+02,7.300000000000000000e+01,1.300000000000000000e+02,3.210000000000000000e+02,4.130000000000000000e+02,5.200000000000000178e-01,9.489192600000000000e+09
2.860000000000000000e+02,2.580000000000000000e+02,2.920000000000000000e+02,2.550000000000000000e+02,8.700000000000000000e+01,1.120000000000000000e+02,3.160000000000000000e+02,3.930000000000000000e+02,5.200000000000000178e-01,9.507930900000000000e+09
2.060000000000000000e+02,2.460000000000000000e+02,2.620000000000000000e+02,2.190000000000000000e+02,8.700000000000000000e+01,1.000000000000000000e+02,1.970000000000000000e+02,2.960000000000000000e+02,5.200000000000000178e-01,9.527185700000000000e+09
1.670000000000000000e+02,2.360000000000000000e+02,2.950000000000000000e+02,1.960000000000000000e+02,9.200000000000000000e+01,8.200000000000000000e+01,1.850000000000000000e+02,2.620000000000000000e+02,5.200000000000000178e-01,9.545818700000000000e+09
1.670000000000000000e+02,2.460000000000000000e+02,4.430000000000000000e+02,2.230000000000000000e+02,9.700000000000000000e+01,5.100000000000000000e+01,1.690000000000000000e+02,2.400000000000000000e+02,5.200000000000000178e-01,9.567846900000000000e+09
1.650000000000000000e+02,2.420000000000000000e+02,5.140000000000000000e+02,1.900000000000000000e+02,9.200000000000000000e+01,4.700000000000000000e+01,1.260000000000000000e+02,1.680000000000000000e+02,5.200000000000000178e-01,9.586683400000000000e+09
1.480000000000000000e+02,2.360000000000000000e+02,5.770000000000000000e+02,2.590000000000000000e+02,1.030000000000000000e+02,4.400000000000000000e+01,1.120000000000000000e+02,1.550000000000000000e+02,5.200000000000000178e-01,9.605290200000000000e+09
1.380000000000000000e+02,2.720000000000000000e+02,6.520000000000000000e+02,2.960000000000000000e+02,1.100000000000000000e+02,4.600000000000000000e+01,8.700000000000000000e+01,1.200000000000000000e+02,5.200000000000000178e-01,9.623393500000000000e+09
1.080000000000000000e+02,2.890000000000000000e+02,7.050000000000000000e+02,3.660000000000000000e+02,1.170000000000000000e+02,3.700000000000000000e+01,7.600000000000000000e+01,8.500000000000000000e+01,5.100000000000000089e-01,9.645927300000000000e+09
7.900000000000000000e+01,2.950000000000000000e+02,6.420000000000000000e+02,3.600000000000000000e+02,1.180000000000000000e+02,3.900000000000000000e+01,6.600000000000000000e+01,7.700000000000000000e+01,5.100000000000000089e-01,9.667856100000000000e+09
6.600000000000000000e+01,3.010000000000000000e+02,6.270000000000000000e+02,4.310000000000000000e+02,1.120000000000000000e+02,3.900000000000000000e+01,5.200000000000000000e+01,5.700000000000000000e+01,5.100000000000000089e-01,9.686315900000000000e+09
5.700000000000000000e+01,2.580000000000000000e+02,5.870000000000000000e+02,3.950000000000000000e+02,9.200000000000000000e+01,4.000000000000000000e+01,4.800000000000000000e+01,5.500000000000000000e+01,5.000000000000000000e-01,9.704485400000000000e+09
5.700000000000000000e+01,2.230000000000000000e+02,5.390000000000000000e+02,3.910000000000000000e+02,9.300000000000000000e+01,4.000000000000000000e+01,4.600000000000000000e+01,5.000000000000000000e+01,5.100000000000000089e-01,9.723604000000000000e+09
5.900000000000000000e+01,2.930000000000000000e+02,6.240000000000000000e+02,4.760000000000000000e+02,9.400000000000000000e+01,4.700000000000000000e+01,4.500000000000000000e+01,3.800000000000000000e+01,5.000000000000000000e-01,9.745520000000000000e+09
6.400000000000000000e+01,2.970000000000000000e+02,6.820000000000000000e+02,5.230000000000000000e+02,1.250000000000000000e+02,4.700000000000000000e+01,5.000000000000000000e+01,4.100000000000000000e+01,5.000000000000000000e-01,9.767808500000000000e+09
7.700000000000000000e+01,3.090000000000000000e+02,6.570000000000000000e+02,4.860000000000000000e+02,1.440000000000000000e+02,4.900000000000000000e+01,4.800000000000000000e+01,4.700000000000000000e+01,4.899999999999999911e-01,9.786183500000000000e+09
8.500000000000000000e+01,3.080000000000000000e+02,6.730000000000000000e+02,5.080000000000000000e+02,1.480000000000000000e+02,4.900000000000000000e+01,6.600000000000000000e+01,4.900000000000000000e+01,4.799999999999999822e-01,9.804766400000000000e+09
8.600000000000000000e+01,3.110000000000000000e+02,6.750000000000000000e+02,5.460000000000000000e+02,1.520000000000000000e+02,5.000000000000000000e+01,6.600000000000000000e+01,5.100000000000000000e+01,4.699999999999999734e-01,9.823776000000000000e+09
8.300000000000000000e+01,2.610000000000000000e+02,5.680000000000000000e+02,4.640000000000000000e+02,1.590000000000000000e+02,4.900000000000000000e+01,9.400000000000000000e+01,5.200000000000000000e+01,4.699999999999999734e-01,9.845544000000000000e+09
9.100000000000000000e+01,2.430000000000000000e+02,5.030000000000000000e+02,4.440000000000000000e+02,1.460000000000000000e+02,4.800000000000000000e+01,1.080000000000000000e+02,6.100000000000000000e+01,4.699999999999999734e-01,9.868122100000000000e+09
8.300000000000000000e+01,2.450000000000000000e+02,5.000000000000000000e+02,4.920000000000000000e+02,1.280000000000000000e+02,4.600000000000000000e+01,1.140000000000000000e+02,5.900000000000000000e+01,4.699999999999999734e-01,9.886540000000000000e+09
8.100000000000000000e+01,2.690000000000000000e+02,5.330000000000000000e+02,6.090000000000000000e+02,1.360000000000000000e+02,5.000000000000000000e+01,1.120000000000000000e+02,5.800000000000000000e+01,4.799999999999999822e-01,9.905666100000000000e+09
8.500000000000000000e+01,2.710000000000000000e+02,5.240000000000000000e+02,5.750000000000000000e+02,1.290000000000000000e+02,5.100000000000000000e+01,1.200000000000000000e+02,5.600000000000000000e+01,4.899999999999999911e-01,9.924314400000000000e+09
8.700000000000000000e+01,2.370000000000000000e+02,5.190000000000000000e+02,6.510000000000000000e+02,1.180000000000000000e+02,5.900000000000000000e+01,1.040000000000000000e+02,5.800000000000000000e+01,4.899999999999999911e-01,9.946309600000000000e+09
7.500000000000000000e+01,2.720000000000000000e+02,4.940000000000000000e+02,6.940000000000000000e+02,1.120000000000000000e+02,5.700000000000000000e+01,8.900000000000000000e+01,5.000000000000000000e+01,4.899999999999999911e-01,9.968775700000000000e+09
7.500000000000000000e+01,2.470000000000000000e+02,4.670000000000000000e+02,6.780000000000000000e+02,1.090000000000000000e+02,5.800000000000000000e+01,8.100000000000000000e+01,5.000000000000000000e+01,5.000000000000000000e-01,9.986729400000000000e+09
7.000000000000000000e+01,2.330000000000000000e+02,3.630000000000000000e+02,6.510000000000000000e+02,1.030000000000000000e+02,5.700000000000000000e+01,7.200000000000000000e+01,4.900000000000000000e+01,5.200000000000000178e-01,1.000593200000000000e+10
6.800000000000000000e+01,2.440000000000000000e+02,3.230000000000000000e+02,6.910000000000000000e+02,1.210000000000000000e+02,5.700000000000000000e+01,7.800000000000000000e+01,5.900000000000000000e+01,5.400000000000000355e-01,1.002521890000000000e+10
6.200000000000000000e+01,2.340000000000000000e+02,2.340000000000000000e+02,6.030000000000000000e+02,1.100000000000000000e+02,5.900000000000000000e+01,8.100000000000000000e+01,5.200000000000000000e+01,5.600000000000000533e-01,1.004759050000000000e+10
6.700000000000000000e+01,2.590000000000000000e+02,2.190000000000000000e+02,5.630000000000000000e+02,1.210000000000000000e+02,6.400000000000000000e+01,1.000000000000000000e+02,5.900000000000000000e+01,5.799999999999999600e-01,1.006616480000000000e+10
7.100000000000000000e+01,2.830000000000000000e+02,2.110000000000000000e+02,6.100000000000000000e+02,1.310000000000000000e+02,8.200000000000000000e+01,1.020000000000000000e+02,5.900000000000000000e+01,5.999999999999999778e-01,1.008424480000000000e+10
7.000000000000000000e+01,2.780000000000000000e+02,1.960000000000000000e+02,5.280000000000000000e+02,1.320000000000000000e+02,8.300000000000000000e+01,1.040000000000000000e+02,5.800000000000000000e+01,6.099999999999999867e-01,1.010390230000000000e+10
7.100000000000000000e+01,2.640000000000000000e+02,1.690000000000000000e+02,5.720000000000000000e+02,1.260000000000000000e+02,8.700000000000000000e+01,1.110000000000000000e+02,5.300000000000000000e+01,6.300000000000000044e-01,1.012617780000000000e+10
7.400000000000000000e+01,2.870000000000000000e+02,1.430000000000000000e+02,5.650000000000000000e+02,1.420000000000000000e+02,8.500000000000000000e+01,1.080000000000000000e+02,5.600000000000000000e+01,6.400000000000000133e-01,1.014850220000000000e+10
7.700000000000000000e+01,2.250000000000000000e+02,1.170000000000000000e+02,5.680000000000000000e+02,1.330000000000000000e+02,8.500000000000000000e+01,9.800000000000000000e+01,4.500000000000000000e+01,6.500000000000000222e-01,1.016805690000000000e+10
7.600000000000000000e+01,1.930000000000000000e+02,8.900000000000000000e+01,4.980000000000000000e+02,1.270000000000000000e+02,8.000000000000000000e+01,9.800000000000000000e+01,4.300000000000000000e+01,6.700000000000000400e-01,1.018634270000000000e+10
7.600000000000000000e+01,2.000000000000000000e+02,8.500000000000000000e+01,4.960000000000000000e+02,1.280000000000000000e+02,8.700000000000000000e+01,1.100000000000000000e+02,5.000000000000000000e+01,6.800000000000000488e-01,1.020443080000000000e+10
6.900000000000000000e+01,1.930000000000000000e+02,7.100000000000000000e+01,4.020000000000000000e+02,1.260000000000000000e+02,9.400000000000000000e+01,1.000000000000000000e+02,4.800000000000000000e+01,6.899999999999999467e-01,1.022470500000000000e+10
7.100000000000000000e+01,2.310000000000000000e+02,8.200000000000000000e+01,4.520000000000000000e+02,1.260000000000000000e+02,9.300000000000000000e+01,1.030000000000000000e+02,5.100000000000000000e+01,6.899999999999999467e-01,1.024690360000000000e+10
6.100000000000000000e+01,2.370000000000000000e+02,9.300000000000000000e+01,5.100000000000000000e+02,1.190000000000000000e+02,9.700000000000000000e+01,9.800000000000000000e+01,5.400000000000000000e+01,6.999999999999999556e-01,1.026472230000000000e+10
8.000000000000000000e+01,2.540000000000000000e+02,1.030000000000000000e+02,5.120000000000000000e+02,1.120000000000000000e+02,8.700000000000000000e+01,1.000000000000000000e+02,5.400000000000000000e+01,7.099999999999999645e-01,1.028490630000000000e+10
8.600000000000000000e+01,2.500000000000000000e+02,1.020000000000000000e+02,5.310000000000000000e+02,1.010000000000000000e+02,8.300000000000000000e+01,8.600000000000000000e+01,5.000000000000000000e+01,7.199999999999999734e-01,1.030366940000000000e+10
8.800000000000000000e+01,2.790000000000000000e+02,1.140000000000000000e+02,5.150000000000000000e+02,9.100000000000000000e+01,8.500000000000000000e+01,7.600000000000000000e+01,4.900000000000000000e+01,7.199999999999999734e-01,1.032462660000000000e+10
8.600000000000000000e+01,2.330000000000000000e+02,1.240000000000000000e+02,5.030000000000000000e+02,7.500000000000000000e+01,9.000000000000000000e+01,6.700000000000000000e+01,4.200000000000000000e+01,7.299999999999999822e-01,1.034709370000000000e+10
