3.300000000000000000e+01,4.300000000000000000e+01,1.870000000000000000e+02,1.170000000000000000e+02,6.500000000000000000e+01,3.600000000000000000e+01,3.200000000000000000e+01,3.300000000000000000e+01,5.899999999999999689e-01,4.912971000000000000e+08
3.800000000000000000e+01,4.500000000000000000e+01,1.960000000000000000e+02,1.080000000000000000e+02,6.700000000000000000e+01,3.900000000000000000e+01,3.400000000000000000e+01,3.400000000000000000e+01,5.799999999999999600e-01,5.178212000000000000e+08
3.700000000000000000e+01,5.500000000000000000e+01,2.040000000000000000e+02,1.330000000000000000e+02,6.500000000000000000e+01,4.000000000000000000e+01,3.400000000000000000e+01,3.300000000000000000e+01,5.799999999999999600e-01,1.101441900000000000e+09
4.300000000000000000e+01,5.300000000000000000e+01,2.060000000000000000e+02,1.900000000000000000e+02,5.900000000000000000e+01,4.200000000000000000e+01,3.500000000000000000e+01,3.300000000000000000e+01,5.899999999999999689e-01,1.120193600000000000e+09
4.200000000000000000e+01,5.400000000000000000e+01,2.090000000000000000e+02,1.950000000000000000e+02,6.400000000000000000e+01,4.400000000000000000e+01,3.400000000000000000e+01,4.200000000000000000e+01,5.899999999999999689e-01,1.140207300000000000e+09
4.400000000000000000e+01,5.700000000000000000e+01,2.540000000000000000e+02,2.070000000000000000e+02,7.000000000000000000e+01,4.500000000000000000e+01,3.400000000000000000e+01,4.200000000000000000e+01,5.899999999999999689e-01,1.159391800000000000e+09
3.900000000000000000e+01,5.800000000000000000e+01,2.700000000000000000e+02,1.950000000000000000e+02,5.800000000000000000e+01,4.500000000000000000e+01,3.200000000000000000e+01,4.000000000000000000e+01,5.999999999999999778e-01,1.178345700000000000e+09
4.500000000000000000e+01,5.400000000000000000e+01,2.610000000000000000e+02,1.750000000000000000e+02,5.600000000000000000e+01,4.600000000000000000e+01,3.000000000000000000e+01,4.000000000000000000e+01,5.999999999999999778e-01,1.197336400000000000e+09
4.000000000000000000e+01,5.200000000000000000e+01,2.560000000000000000e+02,1.080000000000000000e+02,5.600000000000000000e+01,4.900000000000000000e+01,3.100000000000000000e+01,5.600000000000000000e+01,5.999999999999999778e-01,1.216654900000000000e+09
4.100000000000000000e+01,5.000000000000000000e+01,2.600000000000000000e+02,9.500000000000000000e+01,5.200000000000000000e+01,4.800000000000000000e+01,3.200000000000000000e+01,5.100000000000000000e+01,5.999999999999999778e-01,1.236219900000000000e+09
4.300000000000000000e+01,4.700000000000000000e+01,2.420000000000000000e+02,6.400000000000000000e+01,4.400000000000000000e+01,4.600000000000000000e+01,3.300000000000000000e+01,5.100000000000000000e+01,5.899999999999999689e-01,1.256948400000000000e+09
4.600000000000000000e+01,4.700000000000000000e+01,2.200000000000000000e+02,5.800000000000000000e+01,4.300000000000000000e+01,4.100000000000000000e+01,3.200000000000000000e+01,5.200000000000000000e+01,5.899999999999999689e-01,1.275502800000000000e+09
4.000000000000000000e+01,4.000000000000000000e+01,2.570000000000000000e+02,6.600000000000000000e+01,4.000000000000000000e+01,3.500000000000000000e+01,3.400000000000000000e+01,5.700000000000000000e+01,5.799999999999999600e-01,1.295934900000000000e+09
4.200000000000000000e+01,3.800000000000000000e+01,2.460000000000000000e+02,6.800000000000000000e+01,3.700000000000000000e+01,3.000000000000000000e+01,3.400000000000000000e+01,4.400000000000000000e+01,5.799999999999999600e-01,1.314776600000000000e+09
4.200000000000000000e+01,3.800000000000000000e+01,2.350000000000000000e+02,8.300000000000000000e+01,6.100000000000000000e+01,4.000000000000000000e+01,3.800000000000000000e+01,4.800000000000000000e+01,5.799999999999999600e-01,1.334218000000000000e+09
3.700000000000000000e+01,5.200000000000000000e+01,2.150000000000000000e+02,8.700000000000000000e+01,6.400000000000000000e+01,4.200000000000000000e+01,3.600000000000000000e+01,5.100000000000000000e+01,5.699999999999999512e-01,1.354761200000000000e+09
3.600000000000000000e+01,5.000000000000000000e+01,2.220000000000000000e+02,9.200000000000000000e+01,6.600000000000000000e+01,4.200000000000000000e+01,3.600000000000000000e+01,5.100000000000000000e+01,5.600000000000000533e-01,1.373552300000000000e+09
3.900000000000000000e+01,5.000000000000000000e+01,1.660000000000000000e+02,8.200000000000000000e+01,6.700000000000000000e+01,4.300000000000000000e+01,3.500000000000000000e+01,4.600000000000000000e+01,5.600000000000000533e-01,1.392930400000000000e+09
4.400000000000000000e+01,5.000000000000000000e+01,1.760000000000000000e+02,8.700000000000000000e+01,6.800000000000000000e+01,4.700000000000000000e+01,3.300000000000000000e+01,5.300000000000000000e+01,5.500000000000000444e-01,1.424883000000000000e+09
4.800000000000000000e+01,4.900000000000000000e+01,1.780000000000000000e+02,7.400000000000000000e+01,4.600000000000000000e+01,3.800000000000000000e+01,2.800000000000000000e+01,5.200000000000000000e+01,5.400000000000000355e-01,1.444583100000000000e+09
4.900000000000000000e+01,3.800000000000000000e+01,1.840000000000000000e+02,6.900000000000000000e+01,4.300000000000000000e+01,3.400000000000000000e+01,2.900000000000000000e+01,4.800000000000000000e+01,5.400000000000000355e-01,1.463947200000000000e+09
4.900000000000000000e+01,4.700000000000000000e+01,2.160000000000000000e+02,8.400000000000000000e+01,3.700000000000000000e+01,3.600000000000000000e+01,2.800000000000000000e+01,4.900000000000000000e+01,5.400000000000000355e-01,1.482880200000000000e+09
4.900000000000000000e+01,4.600000000000000000e+01,2.360000000000000000e+02,9.100000000000000000e+01,3.700000000000000000e+01,3.500000000000000000e+01,2.800000000000000000e+01,4.800000000000000000e+01,5.400000000000000355e-01,1.501940100000000000e+09
4.300000000000000000e+01,4.600000000000000000e+01,2.210000000000000000e+02,8.700000000000000000e+01,3.600000000000000000e+01,3.200000000000000000e+01,2.800000000000000000e+01,3.700000000000000000e+01,5.400000000000000355e-01,1.521140900000000000e+09
3.800000000000000000e+01,4.900000000000000000e+01,2.360000000000000000e+02,9.800000000000000000e+01,4.300000000000000000e+01,3.400000000000000000e+01,2.900000000000000000e+01,3.200000000000000000e+01,5.400000000000000355e-01,1.540236100000000000e+09
3.900000000000000000e+01,4.700000000000000000e+01,2.620000000000000000e+02,1.000000000000000000e+02,4.500000000000000000e+01,3.200000000000000000e+01,3.100000000000000000e+01,3.300000000000000000e+01,5.400000000000000355e-01,1.561805800000000000e+09
3.500000000000000000e+01,4.300000000000000000e+01,2.760000000000000000e+02,8.700000000000000000e+01,4.700000000000000000e+01,3.500000000000000000e+01,3.100000000000000000e+01,3.400000000000000000e+01,5.400000000000000355e-01,1.581713000000000000e+09
3.700000000000000000e+01,5.000000000000000000e+01,3.020000000000000000e+02,9.200000000000000000e+01,5.100000000000000000e+01,3.800000000000000000e+01,3.200000000000000000e+01,4.300000000000000000e+01,5.400000000000000355e-01,1.601398600000000000e+09
4.800000000000000000e+01,4.900000000000000000e+01,3.230000000000000000e+02,9.400000000000000000e+01,5.300000000000000000e+01,3.800000000000000000e+01,3.300000000000000000e+01,5.800000000000000000e+01,5.400000000000000355e-01,1.624350400000000000e+09
5.000000000000000000e+01,4.700000000000000000e+01,3.180000000000000000e+02,9.200000000000000000e+01,5.100000000000000000e+01,3.700000000000000000e+01,3.300000000000000000e+01,5.800000000000000000e+01,5.400000000000000355e-01,1.643850000000000000e+09
5.300000000000000000e+01,5.200000000000000000e+01,3.590000000000000000e+02,1.010000000000000000e+02,4.900000000000000000e+01,3.900000000000000000e+01,3.000000000000000000e+01,6.300000000000000000e+01,5.400000000000000355e-01,1.662643600000000000e+09
5.300000000000000000e+01,5.000000000000000000e+01,3.360000000000000000e+02,1.030000000000000000e+02,4.800000000000000000e+01,3.600000000000000000e+01,2.800000000000000000e+01,7.000000000000000000e+01,5.500000000000000444e-01,1.681371600000000000e+09
6.000000000000000000e+01,4.600000000000000000e+01,3.340000000000000000e+02,1.050000000000000000e+02,4.500000000000000000e+01,3.400000000000000000e+01,2.600000000000000000e+01,7.100000000000000000e+01,5.500000000000000444e-01,1.701414500000000000e+09
5.800000000000000000e+01,5.000000000000000000e+01,3.760000000000000000e+02,1.110000000000000000e+02,4.300000000000000000e+01,3.300000000000000000e+01,2.600000000000000000e+01,6.800000000000000000e+01,5.500000000000000444e-01,1.719676300000000000e+09
6.700000000000000000e+01,5.300000000000000000e+01,3.920000000000000000e+02,1.050000000000000000e+02,4.100000000000000000e+01,3.400000000000000000e+01,2.200000000000000000e+01,6.700000000000000000e+01,5.600000000000000533e-01,1.738521700000000000e+09
6.500000000000000000e+01,5.400000000000000000e+01,3.440000000000000000e+02,9.700000000000000000e+01,3.800000000000000000e+01,3.100000000000000000e+01,2.600000000000000000e+01,6.500000000000000000e+01,5.600000000000000533e-01,1.759382000000000000e+09
6.800000000000000000e+01,6.900000000000000000e+01,3.360000000000000000e+02,1.030000000000000000e+02,3.500000000000000000e+01,2.900000000000000000e+01,2.900000000000000000e+01,6.500000000000000000e+01,5.600000000000000533e-01,1.777956200000000000e+09
6.600000000000000000e+01,6.700000000000000000e+01,4.020000000000000000e+02,1.040000000000000000e+02,4.100000000000000000e+01,3.100000000000000000e+01,3.000000000000000000e+01,6.200000000000000000e+01,5.600000000000000533e-01,1.796774600000000000e+09
6.300000000000000000e+01,8.100000000000000000e+01,3.650000000000000000e+02,1.060000000000000000e+02,4.000000000000000000e+01,3.100000000000000000e+01,3.000000000000000000e+01,5.400000000000000000e+01,5.699999999999999512e-01,1.815204600000000000e+09
5.800000000000000000e+01,7.900000000000000000e+01,3.770000000000000000e+02,1.020000000000000000e+02,4.000000000000000000e+01,3.300000000000000000e+01,3.400000000000000000e+01,6.500000000000000000e+01,5.699999999999999512e-01,1.833794400000000000e+09
5.900000000000000000e+01,7.600000000000000000e+01,3.900000000000000000e+02,1.040000000000000000e+02,4.100000000000000000e+01,3.400000000000000000e+01,3.200000000000000000e+01,6.300000000000000000e+01,5.699999999999999512e-01,1.852493100000000000e+09
5.600000000000000000e+01,6.200000000000000000e+01,3.950000000000000000e+02,9.700000000000000000e+01,4.300000000000000000e+01,3.500000000000000000e+01,3.100000000000000000e+01,5.400000000000000000e+01,5.799999999999999600e-01,1.871303800000000000e+09
5.700000000000000000e+01,7.200000000000000000e+01,3.290000000000000000e+02,9.100000000000000000e+01,3.700000000000000000e+01,3.300000000000000000e+01,3.100000000000000000e+01,5.700000000000000000e+01,5.799999999999999600e-01,1.889916200000000000e+09
7.000000000000000000e+01,5.400000000000000000e+01,3.200000000000000000e+02,9.100000000000000000e+01,3.800000000000000000e+01,3.300000000000000000e+01,2.900000000000000000e+01,6.200000000000000000e+01,5.799999999999999600e-01,1.909590300000000000e+09
6.700000000000000000e+01,5.600000000000000000e+01,2.930000000000000000e+02,9.800000000000000000e+01,4.000000000000000000e+01,3.100000000000000000e+01,2.700000000000000000e+01,6.000000000000000000e+01,5.799999999999999600e-01,1.927302400000000000e+09
6.900000000000000000e+01,5.700000000000000000e+01,2.760000000000000000e+02,9.800000000000000000e+01,3.900000000000000000e+01,3.200000000000000000e+01,2.800000000000000000e+01,6.300000000000000000e+01,5.799999999999999600e-01,1.945041800000000000e+09
6.900000000000000000e+01,6.000000000000000000e+01,3.090000000000000000e+02,1.000000000000000000e+02,4.000000000000000000e+01,3.400000000000000000e+01,2.800000000000000000e+01,6.400000000000000000e+01,5.799999999999999600e-01,1.962393500000000000e+09
6.300000000000000000e+01,5.000000000000000000e+01,2.910000000000000000e+02,9.100000000000000000e+01,3.900000000000000000e+01,3.400000000000000000e+01,2.800000000000000000e+01,5.900000000000000000e+01,5.799999999999999600e-01,1.980290200000000000e+09
4.900000000000000000e+01,5.400000000000000000e+01,2.930000000000000000e+02,8.100000000000000000e+01,3.800000000000000000e+01,3.400000000000000000e+01,3.500000000000000000e+01,6.100000000000000000e+01,5.799999999999999600e-01,1.998163300000000000e+09
7.900000000000000000e+01,5.800000000000000000e+01,2.970000000000000000e+02,7.500000000000000000e+01,3.700000000000000000e+01,3.500000000000000000e+01,3.700000000000000000e+01,5.900000000000000000e+01,5.699999999999999512e-01,2.015896700000000000e+09
7.700000000000000000e+01,5.500000000000000000e+01,3.120000000000000000e+02,8.000000000000000000e+01,3.800000000000000000e+01,3.400000000000000000e+01,4.300000000000000000e+01,6.700000000000000000e+01,5.699999999999999512e-01,2.034151100000000000e+09
8.000000000000000000e+01,7.400000000000000000e+01,2.830000000000000000e+02,7.700000000000000000e+01,3.600000000000000000e+01,3.600000000000000000e+01,4.200000000000000000e+01,6.700000000000000000e+01,5.699999999999999512e-01,2.052585800000000000e+09
9.100000000000000000e+01,7.800000000000000000e+01,2.710000000000000000e+02,8.300000000000000000e+01,3.800000000000000000e+01,3.600000000000000000e+01,4.300000000000000000e+01,7.400000000000000000e+01,5.600000000000000533e-01,2.069275300000000000e+09
1.340000000000000000e+02,8.100000000000000000e+01,2.620000000000000000e+02,8.900000000000000000e+01,4.300000000000000000e+01,4.300000000000000000e+01,5.100000000000000000e+01,8.200000000000000000e+01,5.600000000000000533e-01,2.086523200000000000e+09
1.260000000000000000e+02,8.600000000000000000e+01,2.450000000000000000e+02,9.200000000000000000e+01,4.300000000000000000e+01,4.600000000000000000e+01,5.700000000000000000e+01,8.300000000000000000e+01,5.600000000000000533e-01,2.103087600000000000e+09
1.330000000000000000e+02,8.900000000000000000e+01,2.560000000000000000e+02,8.300000000000000000e+01,4.400000000000000000e+01,4.600000000000000000e+01,5.400000000000000000e+01,7.800000000000000000e+01,5.600000000000000533e-01,2.120503900000000000e+09
1.330000000000000000e+02,7.400000000000000000e+01,2.510000000000000000e+02,8.200000000000000000e+01,4.100000000000000000e+01,4.100000000000000000e+01,5.500000000000000000e+01,7.800000000000000000e+01,5.500000000000000444e-01,2.138627900000000000e+09
1.330000000000000000e+02,8.100000000000000000e+01,2.720000000000000000e+02,8.200000000000000000e+01,4.200000000000000000e+01,4.200000000000000000e+01,5.700000000000000000e+01,7.700000000000000000e+01,5.500000000000000444e-01,2.155615400000000000e+09
1.110000000000000000e+02,7.900000000000000000e+01,2.700000000000000000e+02,7.200000000000000000e+01,3.700000000000000000e+01,3.800000000000000000e+01,4.700000000000000000e+01,6.500000000000000000e+01,5.500000000000000444e-01,2.173190200000000000e+09
1.120000000000000000e+02,7.400000000000000000e+01,3.060000000000000000e+02,6.800000000000000000e+01,3.600000000000000000e+01,3.600000000000000000e+01,4.100000000000000000e+01,5.700000000000000000e+01,5.500000000000000444e-01,2.191676700000000000e+09
1.050000000000000000e+02,8.000000000000000000e+01,3.060000000000000000e+02,8.100000000000000000e+01,3.900000000000000000e+01,4.000000000000000000e+01,3.900000000000000000e+01,5.400000000000000000e+01,5.400000000000000355e-01,2.208858800000000000e+09
1.040000000000000000e+02,7.900000000000000000e+01,3.020000000000000000e+02,9.000000000000000000e+01,4.000000000000000000e+01,4.300000000000000000e+01,3.800000000000000000e+01,5.300000000000000000e+01,5.400000000000000355e-01,2.226242000000000000e+09
9.600000000000000000e+01,7.300000000000000000e+01,3.130000000000000000e+02,1.000000000000000000e+02,4.100000000000000000e+01,4.300000000000000000e+01,3.800000000000000000e+01,4.300000000000000000e+01,5.400000000000000355e-01,2.243433800000000000e+09
6.900000000000000000e+01,7.900000000000000000e+01,3.300000000000000000e+02,1.030000000000000000e+02,4.000000000000000000e+01,4.200000000000000000e+01,3.500000000000000000e+01,4.300000000000000000e+01,5.500000000000000444e-01,2.260485800000000000e+09
5.300000000000000000e+01,7.600000000000000000e+01,3.070000000000000000e+02,1.030000000000000000e+02,3.800000000000000000e+01,4.000000000000000000e+01,3.400000000000000000e+01,4.500000000000000000e+01,5.500000000000000444e-01,2.278587800000000000e+09
5.500000000000000000e+01,6.800000000000000000e+01,3.360000000000000000e+02,9.600000000000000000e+01,3.600000000000000000e+01,3.900000000000000000e+01,3.500000000000000000e+01,5.300000000000000000e+01,5.500000000000000444e-01,2.297501700000000000e+09
5.500000000000000000e+01,7.000000000000000000e+01,3.350000000000000000e+02,8.600000000000000000e+01,3.900000000000000000e+01,3.600000000000000000e+01,3.500000000000000000e+01,5.300000000000000000e+01,5.500000000000000444e-01,2.314719600000000000e+09
5.800000000000000000e+01,6.700000000000000000e+01,3.510000000000000000e+02,7.400000000000000000e+01,3.800000000000000000e+01,3.600000000000000000e+01,3.500000000000000000e+01,5.300000000000000000e+01,5.500000000000000444e-01,2.332277000000000000e+09
5.900000000000000000e+01,6.600000000000000000e+01,3.410000000000000000e+02,7.200000000000000000e+01,3.900000000000000000e+01,3.500000000000000000e+01,3.600000000000000000e+01,5.800000000000000000e+01,5.500000000000000444e-01,2.350231100000000000e+09
6.200000000000000000e+01,6.800000000000000000e+01,3.410000000000000000e+02,7.200000000000000000e+01,3.800000000000000000e+01,3.400000000000000000e+01,3.600000000000000000e+01,5.800000000000000000e+01,5.500000000000000444e-01,2.380608900000000000e+09
5.900000000000000000e+01,6.700000000000000000e+01,3.160000000000000000e+02,7.100000000000000000e+01,4.000000000000000000e+01,3.100000000000000000e+01,3.500000000000000000e+01,5.200000000000000000e+01,5.500000000000000444e-01,2.398386500000000000e+09
5.800000000000000000e+01,6.800000000000000000e+01,3.130000000000000000e+02,7.100000000000000000e+01,3.700000000000000000e+01,3.100000000000000000e+01,3.400000000000000000e+01,5.100000000000000000e+01,5.500000000000000444e-01,2.418077700000000000e+09
5.400000000000000000e+01,7.500000000000000000e+01,2.840000000000000000e+02,6.800000000000000000e+01,3.500000000000000000e+01,3.200000000000000000e+01,3.000000000000000000e+01,5.400000000000000000e+01,5.500000000000000444e-01,2.435737800000000000e+09
6.000000000000000000e+01,6.600000000000000000e+01,2.880000000000000000e+02,7.200000000000000000e+01,3.400000000000000000e+01,3.100000000000000000e+01,2.800000000000000000e+01,6.700000000000000000e+01,5.400000000000000355e-01,2.452679400000000000e+09
6.900000000000000000e+01,6.500000000000000000e+01,2.750000000000000000e+02,6.900000000000000000e+01,3.400000000000000000e+01,3.100000000000000000e+01,2.800000000000000000e+01,6.600000000000000000e+01,5.400000000000000355e-01,2.469746900000000000e+09
6.600000000000000000e+01,7.700000000000000000e+01,2.170000000000000000e+02,6.200000000000000000e+01,3.000000000000000000e+01,3.000000000000000000e+01,2.900000000000000000e+01,6.700000000000000000e+01,5.400000000000000355e-01,2.486304800000000000e+09
6.900000000000000000e+01,7.500000000000000000e+01,2.170000000000000000e+02,7.600000000000000000e+01,3.300000000000000000e+01,3.200000000000000000e+01,3.000000000000000000e+01,7.700000000000000000e+01,5.300000000000000266e-01,2.503490800000000000e+09
6.900000000000000000e+01,7.400000000000000000e+01,1.760000000000000000e+02,7.500000000000000000e+01,3.700000000000000000e+01,3.500000000000000000e+01,3.200000000000000000e+01,7.700000000000000000e+01,5.300000000000000266e-01,2.522083600000000000e+09
7.400000000000000000e+01,7.600000000000000000e+01,1.440000000000000000e+02,7.300000000000000000e+01,3.600000000000000000e+01,3.500000000000000000e+01,3.400000000000000000e+01,6.500000000000000000e+01,5.300000000000000266e-01,2.539586600000000000e+09
6.400000000000000000e+01,8.100000000000000000e+01,1.560000000000000000e+02,8.300000000000000000e+01,3.900000000000000000e+01,3.900000000000000000e+01,3.300000000000000000e+01,6.800000000000000000e+01,5.300000000000000266e-01,2.556590500000000000e+09
6.900000000000000000e+01,9.000000000000000000e+01,2.170000000000000000e+02,8.700000000000000000e+01,4.200000000000000000e+01,4.400000000000000000e+01,3.100000000000000000e+01,6.300000000000000000e+01,5.300000000000000266e-01,2.572989000000000000e+09
6.900000000000000000e+01,1.030000000000000000e+02,2.470000000000000000e+02,9.900000000000000000e+01,4.600000000000000000e+01,4.400000000000000000e+01,3.000000000000000000e+01,5.300000000000000000e+01,5.300000000000000266e-01,2.590449200000000000e+09
6.600000000000000000e+01,9.900000000000000000e+01,2.880000000000000000e+02,1.010000000000000000e+02,4.700000000000000000e+01,4.100000000000000000e+01,2.900000000000000000e+01,4.900000000000000000e+01,5.300000000000000266e-01,2.608297200000000000e+09
5.300000000000000000e+01,9.500000000000000000e+01,2.900000000000000000e+02,9.700000000000000000e+01,4.800000000000000000e+01,4.000000000000000000e+01,2.700000000000000000e+01,4.200000000000000000e+01,5.300000000000000266e-01,2.625477900000000000e+09
5.100000000000000000e+01,8.900000000000000000e+01,3.260000000000000000e+02,9.100000000000000000e+01,4.900000000000000000e+01,3.700000000000000000e+01,3.100000000000000000e+01,3.600000000000000000e+01,5.400000000000000355e-01,2.642703300000000000e+09
4.700000000000000000e+01,8.200000000000000000e+01,3.600000000000000000e+02,9.500000000000000000e+01,4.800000000000000000e+01,3.500000000000000000e+01,3.100000000000000000e+01,4.400000000000000000e+01,5.400000000000000355e-01,2.659445400000000000e+09
4.800000000000000000e+01,6.600000000000000000e+01,3.570000000000000000e+02,6.800000000000000000e+01,4.300000000000000000e+01,3.400000000000000000e+01,3.300000000000000000e+01,4.400000000000000000e+01,5.400000000000000355e-01,2.676016100000000000e+09
5.400000000000000000e+01,6.400000000000000000e+01,3.310000000000000000e+02,6.000000000000000000e+01,3.700000000000000000e+01,3.600000000000000000e+01,3.200000000000000000e+01,5.100000000000000000e+01,5.400000000000000355e-01,2.692636700000000000e+09
5.600000000000000000e+01,6.700000000000000000e+01,3.360000000000000000e+02,6.100000000000000000e+01,3.700000000000000000e+01,3.700000000000000000e+01,3.300000000000000000e+01,5.500000000000000000e+01,5.400000000000000355e-01,2.710495100000000000e+09
6.000000000000000000e+01,7.200000000000000000e+01,3.520000000000000000e+02,7.500000000000000000e+01,3.900000000000000000e+01,4.300000000000000000e+01,3.200000000000000000e+01,5.700000000000000000e+01,5.400000000000000355e-01,2.728385400000000000e+09
5.700000000000000000e+01,6.200000000000000000e+01,2.830000000000000000e+02,6.300000000000000000e+01,3.600000000000000000e+01,4.000000000000000000e+01,3.600000000000000000e+01,5.900000000000000000e+01,5.400000000000000355e-01,2.745934900000000000e+09
5.500000000000000000e+01,7.600000000000000000e+01,2.860000000000000000e+02,6.800000000000000000e+01,3.700000000000000000e+01,3.900000000000000000e+01,3.400000000000000000e+01,6.200000000000000000e+01,5.400000000000000355e-01,2.763202300000000000e+09
5.100000000000000000e+01,7.800000000000000000e+01,3.000000000000000000e+02,7.900000000000000000e+01,3.700000000000000000e+01,3.800000000000000000e+01,3.700000000000000000e+01,6.200000000000000000e+01,5.400000000000000355e-01,2.779922500000000000e+09
5.900000000000000000e+01,8.000000000000000000e+01,3.040000000000000000e+02,8.500000000000000000e+01,4.200000000000000000e+01,4.200000000000000000e+01,3.800000000000000000e+01,5.800000000000000000e+01,5.400000000000000355e-01,2.796564500000000000e+09
1.010000000000000000e+02,1.100000000000000000e+02,2.480000000000000000e+02,7.600000000000000000e+01,4.100000000000000000e+01,4.100000000000000000e+01,4.400000000000000000e+01,6.700000000000000000e+01,5.400000000000000355e-01,2.813362600000000000e+09
1.050000000000000000e+02,1.110000000000000000e+02,2.650000000000000000e+02,9.100000000000000000e+01,4.000000000000000000e+01,3.900000000000000000e+01,4.100000000000000000e+01,6.700000000000000000e+01,5.400000000000000355e-01,2.830093200000000000e+09
1.090000000000000000e+02,1.060000000000000000e+02,2.930000000000000000e+02,9.700000000000000000e+01,3.800000000000000000e+01,4.100000000000000000e+01,4.100000000000000000e+01,6.500000000000000000e+01,5.400000000000000355e-01,2.848193600000000000e+09
1.150000000000000000e+02,1.110000000000000000e+02,2.740000000000000000e+02,8.900000000000000000e+01,3.900000000000000000e+01,4.200000000000000000e+01,4.200000000000000000e+01,6.300000000000000000e+01,5.300000000000000266e-01,2.865527200000000000e+09
1.110000000000000000e+02,1.130000000000000000e+02,3.230000000000000000e+02,9.400000000000000000e+01,4.200000000000000000e+01,3.800000000000000000e+01,4.000000000000000000e+01,6.800000000000000000e+01,5.400000000000000355e-01,2.884227100000000000e+09
1.000000000000000000e+02,9.100000000000000000e+01,3.390000000000000000e+02,9.600000000000000000e+01,4.200000000000000000e+01,3.700000000000000000e+01,3.600000000000000000e+01,6.200000000000000000e+01,5.400000000000000355e-01,2.903034200000000000e+09
1.060000000000000000e+02,9.400000000000000000e+01,3.320000000000000000e+02,8.500000000000000000e+01,4.500000000000000000e+01,3.900000000000000000e+01,3.900000000000000000e+01,7.300000000000000000e+01,5.400000000000000355e-01,2.920122400000000000e+09
1.010000000000000000e+02,8.900000000000000000e+01,2.830000000000000000e+02,7.700000000000000000e+01,4.700000000000000000e+01,3.900000000000000000e+01,5.700000000000000000e+01,7.300000000000000000e+01,5.400000000000000355e-01,2.936570100000000000e+09
1.090000000000000000e+02,9.100000000000000000e+01,3.070000000000000000e+02,7.900000000000000000e+01,4.900000000000000000e+01,4.000000000000000000e+01,5.700000000000000000e+01,8.400000000000000000e+01,5.400000000000000355e-01,2.953690700000000000e+09
1.120000000000000000e+02,9.100000000000000000e+01,2.630000000000000000e+02,6.700000000000000000e+01,4.200000000000000000e+01,5.000000000000000000e+01,6.000000000000000000e+01,8.900000000000000000e+01,5.400000000000000355e-01,2.970505600000000000e+09
1.180000000000000000e+02,9.500000000000000000e+01,3.360000000000000000e+02,6.300000000000000000e+01,3.900000000000000000e+01,5.100000000000000000e+01,7.900000000000000000e+01,9.000000000000000000e+01,5.400000000000000355e-01,2.987936400000000000e+09
1.380000000000000000e+02,1.170000000000000000e+02,3.700000000000000000e+02,7.900000000000000000e+01,4.400000000000000000e+01,5.500000000000000000e+01,8.300000000000000000e+01,7.800000000000000000e+01,5.400000000000000355e-01,3.005216000000000000e+09
1.400000000000000000e+02,1.320000000000000000e+02,4.090000000000000000e+02,8.100000000000000000e+01,4.200000000000000000e+01,6.100000000000000000e+01,7.600000000000000000e+01,8.000000000000000000e+01,5.500000000000000444e-01,3.022793300000000000e+09
1.530000000000000000e+02,1.400000000000000000e+02,4.360000000000000000e+02,8.600000000000000000e+01,4.900000000000000000e+01,7.800000000000000000e+01,8.400000000000000000e+01,7.100000000000000000e+01,5.500000000000000444e-01,3.040847700000000000e+09
1.540000000000000000e+02,1.500000000000000000e+02,4.420000000000000000e+02,8.800000000000000000e+01,5.100000000000000000e+01,9.600000000000000000e+01,8.500000000000000000e+01,6.400000000000000000e+01,5.500000000000000444e-01,3.057945000000000000e+09
1.590000000000000000e+02,1.680000000000000000e+02,3.900000000000000000e+02,9.800000000000000000e+01,5.600000000000000000e+01,9.900000000000000000e+01,6.500000000000000000e+01,7.700000000000000000e+01,5.500000000000000444e-01,3.075779400000000000e+09
1.480000000000000000e+02,1.560000000000000000e+02,4.660000000000000000e+02,1.000000000000000000e+02,6.200000000000000000e+01,1.110000000000000000e+02,1.000000000000000000e+02,8.400000000000000000e+01,5.500000000000000444e-01,3.093132100000000000e+09
1.520000000000000000e+02,2.060000000000000000e+02,4.850000000000000000e+02,1.080000000000000000e+02,6.900000000000000000e+01,1.280000000000000000e+02,1.690000000000000000e+02,9.300000000000000000e+01,5.500000000000000444e-01,3.110395500000000000e+09
1.490000000000000000e+02,2.300000000000000000e+02,4.750000000000000000e+02,1.080000000000000000e+02,6.700000000000000000e+01,1.280000000000000000e+02,1.720000000000000000e+02,9.300000000000000000e+01,5.500000000000000444e-01,3.127019800000000000e+09
1.470000000000000000e+02,2.260000000000000000e+02,4.750000000000000000e+02,1.130000000000000000e+02,6.500000000000000000e+01,1.140000000000000000e+02,1.760000000000000000e+02,9.100000000000000000e+01,5.500000000000000444e-01,3.144218900000000000e+09
1.210000000000000000e+02,2.740000000000000000e+02,5.630000000000000000e+02,1.290000000000000000e+02,6.400000000000000000e+01,1.460000000000000000e+02,1.790000000000000000e+02,7.600000000000000000e+01,5.500000000000000444e-01,3.160908900000000000e+09
1.110000000000000000e+02,3.950000000000000000e+02,5.630000000000000000e+02,1.230000000000000000e+02,5.500000000000000000e+01,1.780000000000000000e+02,1.700000000000000000e+02,6.500000000000000000e+01,5.600000000000000533e-01,3.178701000000000000e+09
1.080000000000000000e+02,3.890000000000000000e+02,5.280000000000000000e+02,1.190000000000000000e+02,4.600000000000000000e+01,2.020000000000000000e+02,1.040000000000000000e+02,6.100000000000000000e+01,5.699999999999999512e-01,3.195925300000000000e+09
8.300000000000000000e+01,3.730000000000000000e+02,5.050000000000000000e+02,1.150000000000000000e+02,4.300000000000000000e+01,2.240000000000000000e+02,9.400000000000000000e+01,5.700000000000000000e+01,5.699999999999999512e-01,3.213730500000000000e+09
8.200000000000000000e+01,3.870000000000000000e+02,5.340000000000000000e+02,1.110000000000000000e+02,4.300000000000000000e+01,2.260000000000000000e+02,9.100000000000000000e+01,5.300000000000000000e+01,5.799999999999999600e-01,3.231014900000000000e+09
1.400000000000000000e+02,5.130000000000000000e+02,6.300000000000000000e+02,8.200000000000000000e+01,4.900000000000000000e+01,2.130000000000000000e+02,1.660000000000000000e+02,5.900000000000000000e+01,5.799999999999999600e-01,3.249368800000000000e+09
1.750000000000000000e+02,4.580000000000000000e+02,7.360000000000000000e+02,2.840000000000000000e+02,4.900000000000000000e+01,2.170000000000000000e+02,1.600000000000000000e+02,6.100000000000000000e+01,5.799999999999999600e-01,3.268032000000000000e+09
3.290000000000000000e+02,4.430000000000000000e+02,7.400000000000000000e+02,3.870000000000000000e+02,6.000000000000000000e+01,2.040000000000000000e+02,1.680000000000000000e+02,5.000000000000000000e+01,5.699999999999999512e-01,3.285727300000000000e+09
6.760000000000000000e+02,5.240000000000000000e+02,7.810000000000000000e+02,4.550000000000000000e+02,6.900000000000000000e+01,2.260000000000000000e+02,1.700000000000000000e+02,5.800000000000000000e+01,5.699999999999999512e-01,3.303377500000000000e+09
1.014000000000000000e+03,5.570000000000000000e+02,7.900000000000000000e+02,4.600000000000000000e+02,7.000000000000000000e+01,2.820000000000000000e+02,1.710000000000000000e+02,6.800000000000000000e+01,5.699999999999999512e-01,3.320183300000000000e+09
1.159000000000000000e+03,4.310000000000000000e+02,7.100000000000000000e+02,4.740000000000000000e+02,6.500000000000000000e+01,3.280000000000000000e+02,1.070000000000000000e+02,6.600000000000000000e+01,5.600000000000000533e-01,3.336814600000000000e+09
1.158000000000000000e+03,4.040000000000000000e+02,5.330000000000000000e+02,3.940000000000000000e+02,6.200000000000000000e+01,3.370000000000000000e+02,1.360000000000000000e+02,6.900000000000000000e+01,5.600000000000000533e-01,3.353498100000000000e+09
1.132000000000000000e+03,4.010000000000000000e+02,5.200000000000000000e+02,2.970000000000000000e+02,5.200000000000000000e+01,3.290000000000000000e+02,1.310000000000000000e+02,7.900000000000000000e+01,5.500000000000000444e-01,3.370813400000000000e+09
9.780000000000000000e+02,2.870000000000000000e+02,4.510000000000000000e+02,1.780000000000000000e+02,3.600000000000000000e+01,3.050000000000000000e+02,1.250000000000000000e+02,7.500000000000000000e+01,5.500000000000000444e-01,3.388465800000000000e+09
6.280000000000000000e+02,2.340000000000000000e+02,3.750000000000000000e+02,1.690000000000000000e+02,4.400000000000000000e+01,2.530000000000000000e+02,1.340000000000000000e+02,6.700000000000000000e+01,5.400000000000000355e-01,3.406363300000000000e+09
2.630000000000000000e+02,2.370000000000000000e+02,2.010000000000000000e+02,1.260000000000000000e+02,4.200000000000000000e+01,1.950000000000000000e+02,1.350000000000000000e+02,6.700000000000000000e+01,5.400000000000000355e-01,3.424535500000000000e+09
2.500000000000000000e+02,2.340000000000000000e+02,1.390000000000000000e+02,9.600000000000000000e+01,4.600000000000000000e+01,2.350000000000000000e+02,1.050000000000000000e+02,6.700000000000000000e+01,5.400000000000000355e-01,3.442293300000000000e+09
2.240000000000000000e+02,2.380000000000000000e+02,1.140000000000000000e+02,9.300000000000000000e+01,4.800000000000000000e+01,2.450000000000000000e+02,1.350000000000000000e+02,6.600000000000000000e+01,5.300000000000000266e-01,3.460186600000000000e+09
1.650000000000000000e+02,2.350000000000000000e+02,1.050000000000000000e+02,9.100000000000000000e+01,4.900000000000000000e+01,2.590000000000000000e+02,1.590000000000000000e+02,6.400000000000000000e+01,5.300000000000000266e-01,3.478050000000000000e+09
1.390000000000000000e+02,1.920000000000000000e+02,9.800000000000000000e+01,7.800000000000000000e+01,4.000000000000000000e+01,2.970000000000000000e+02,1.590000000000000000e+02,6.600000000000000000e+01,5.400000000000000355e-01,3.495904300000000000e+09
1.240000000000000000e+02,1.210000000000000000e+02,9.100000000000000000e+01,7.100000000000000000e+01,4.200000000000000000e+01,2.970000000000000000e+02,1.660000000000000000e+02,6.600000000000000000e+01,5.400000000000000355e-01,3.514142000000000000e+09
1.090000000000000000e+02,9.700000000000000000e+01,9.800000000000000000e+01,7.400000000000000000e+01,4.400000000000000000e+01,2.260000000000000000e+02,1.950000000000000000e+02,6.200000000000000000e+01,5.500000000000000444e-01,3.531110400000000000e+09
7.800000000000000000e+01,1.740000000000000000e+02,1.040000000000000000e+02,5.400000000000000000e+01,4.700000000000000000e+01,3.650000000000000000e+02,1.790000000000000000e+02,5.600000000000000000e+01,5.500000000000000444e-01,3.548179500000000000e+09
7.300000000000000000e+01,3.060000000000000000e+02,9.500000000000000000e+01,5.700000000000000000e+01,4.900000000000000000e+01,4.880000000000000000e+02,1.720000000000000000e+02,5.600000000000000000e+01,5.600000000000000533e-01,3.566218000000000000e+09
6.800000000000000000e+01,3.170000000000000000e+02,8.900000000000000000e+01,6.100000000000000000e+01,5.300000000000000000e+01,5.200000000000000000e+02,1.790000000000000000e+02,7.400000000000000000e+01,5.699999999999999512e-01,3.582943100000000000e+09
9.600000000000000000e+01,3.190000000000000000e+02,8.300000000000000000e+01,6.900000000000000000e+01,5.000000000000000000e+01,5.220000000000000000e+02,2.400000000000000000e+02,7.700000000000000000e+01,5.799999999999999600e-01,3.600732600000000000e+09
9.200000000000000000e+01,3.200000000000000000e+02,8.600000000000000000e+01,6.400000000000000000e+01,4.600000000000000000e+01,5.240000000000000000e+02,2.380000000000000000e+02,8.300000000000000000e+01,5.799999999999999600e-01,3.617877800000000000e+09
8.900000000000000000e+01,2.810000000000000000e+02,7.300000000000000000e+01,6.100000000000000000e+01,4.500000000000000000e+01,4.330000000000000000e+02,2.470000000000000000e+02,8.100000000000000000e+01,5.899999999999999689e-01,3.635712400000000000e+09
9.200000000000000000e+01,1.230000000000000000e+02,7.300000000000000000e+01,6.500000000000000000e+01,6.000000000000000000e+01,2.640000000000000000e+02,2.440000000000000000e+02,8.400000000000000000e+01,5.899999999999999689e-01,3.652622700000000000e+09
9.300000000000000000e+01,8.600000000000000000e+01,7.000000000000000000e+01,6.200000000000000000e+01,7.000000000000000000e+01,1.240000000000000000e+02,2.460000000000000000e+02,7.100000000000000000e+01,5.799999999999999600e-01,3.669673500000000000e+09
6.700000000000000000e+01,1.060000000000000000e+02,6.700000000000000000e+01,5.200000000000000000e+01,7.000000000000000000e+01,1.020000000000000000e+02,1.870000000000000000e+02,7.100000000000000000e+01,5.799999999999999600e-01,3.688508700000000000e+09
6.600000000000000000e+01,1.050000000000000000e+02,5.400000000000000000e+01,5.800000000000000000e+01,7.200000000000000000e+01,9.000000000000000000e+01,1.690000000000000000e+02,8.000000000000000000e+01,5.699999999999999512e-01,3.706577900000000000e+09
6.000000000000000000e+01,1.050000000000000000e+02,5.200000000000000000e+01,6.400000000000000000e+01,8.000000000000000000e+01,9.100000000000000000e+01,2.080000000000000000e+02,8.900000000000000000e+01,5.699999999999999512e-01,3.724495500000000000e+09
5.700000000000000000e+01,1.050000000000000000e+02,4.900000000000000000e+01,7.400000000000000000e+01,7.500000000000000000e+01,9.300000000000000000e+01,2.090000000000000000e+02,8.900000000000000000e+01,5.699999999999999512e-01,3.742778700000000000e+09
5.600000000000000000e+01,9.600000000000000000e+01,5.200000000000000000e+01,8.700000000000000000e+01,7.100000000000000000e+01,9.500000000000000000e+01,2.210000000000000000e+02,9.900000000000000000e+01,5.699999999999999512e-01,3.759872000000000000e+09
5.200000000000000000e+01,5.900000000000000000e+01,6.100000000000000000e+01,9.000000000000000000e+01,8.200000000000000000e+01,1.080000000000000000e+02,2.350000000000000000e+02,9.900000000000000000e+01,5.600000000000000533e-01,3.776165800000000000e+09
5.100000000000000000e+01,5.000000000000000000e+01,6.600000000000000000e+01,8.900000000000000000e+01,8.200000000000000000e+01,1.080000000000000000e+02,2.410000000000000000e+02,8.700000000000000000e+01,5.500000000000000444e-01,3.794786000000000000e+09
5.200000000000000000e+01,4.500000000000000000e+01,7.700000000000000000e+01,8.900000000000000000e+01,7.300000000000000000e+01,1.070000000000000000e+02,2.350000000000000000e+02,8.300000000000000000e+01,5.400000000000000355e-01,3.812535800000000000e+09
4.800000000000000000e+01,4.100000000000000000e+01,7.500000000000000000e+01,7.700000000000000000e+01,6.800000000000000000e+01,1.200000000000000000e+02,2.720000000000000000e+02,8.600000000000000000e+01,5.400000000000000355e-01,3.830794700000000000e+09
6.700000000000000000e+01,3.900000000000000000e+01,7.300000000000000000e+01,6.200000000000000000e+01,6.200000000000000000e+01,1.410000000000000000e+02,2.730000000000000000e+02,8.300000000000000000e+01,5.300000000000000266e-01,3.847694900000000000e+09
6.800000000000000000e+01,3.800000000000000000e+01,6.400000000000000000e+01,5.800000000000000000e+01,4.700000000000000000e+01,1.360000000000000000e+02,2.760000000000000000e+02,8.500000000000000000e+01,5.200000000000000178e-01,3.866008900000000000e+09
6.700000000000000000e+01,3.900000000000000000e+01,5.500000000000000000e+01,5.700000000000000000e+01,4.700000000000000000e+01,1.350000000000000000e+02,2.740000000000000000e+02,9.800000000000000000e+01,5.200000000000000178e-01,3.883884800000000000e+09
6.800000000000000000e+01,3.700000000000000000e+01,3.900000000000000000e+01,5.400000000000000000e+01,4.800000000000000000e+01,1.380000000000000000e+02,2.530000000000000000e+02,9.400000000000000000e+01,5.200000000000000178e-01,3.901395100000000000e+09
7.100000000000000000e+01,3.700000000000000000e+01,3.700000000000000000e+01,5.000000000000000000e+01,4.400000000000000000e+01,1.270000000000000000e+02,2.310000000000000000e+02,9.000000000000000000e+01,5.100000000000000089e-01,3.918620300000000000e+09
6.600000000000000000e+01,7.100000000000000000e+01,4.100000000000000000e+01,4.700000000000000000e+01,4.500000000000000000e+01,1.130000000000000000e+02,2.180000000000000000e+02,8.500000000000000000e+01,5.100000000000000089e-01,3.935999900000000000e+09
6.400000000000000000e+01,7.500000000000000000e+01,4.400000000000000000e+01,4.500000000000000000e+01,4.300000000000000000e+01,1.070000000000000000e+02,1.980000000000000000e+02,7.800000000000000000e+01,5.100000000000000089e-01,3.953767600000000000e+09
8.600000000000000000e+01,1.390000000000000000e+02,5.800000000000000000e+01,4.500000000000000000e+01,4.100000000000000000e+01,1.060000000000000000e+02,1.980000000000000000e+02,6.300000000000000000e+01,5.100000000000000089e-01,3.971305900000000000e+09
1.000000000000000000e+02,1.610000000000000000e+02,6.200000000000000000e+01,4.000000000000000000e+01,3.900000000000000000e+01,9.900000000000000000e+01,1.870000000000000000e+02,6.300000000000000000e+01,5.100000000000000089e-01,3.988672600000000000e+09
1.010000000000000000e+02,1.650000000000000000e+02,6.100000000000000000e+01,4.100000000000000000e+01,4.200000000000000000e+01,9.900000000000000000e+01,1.630000000000000000e+02,6.200000000000000000e+01,5.000000000000000000e-01,4.006560400000000000e+09
9.300000000000000000e+01,1.560000000000000000e+02,6.000000000000000000e+01,4.500000000000000000e+01,4.300000000000000000e+01,9.700000000000000000e+01,1.620000000000000000e+02,6.000000000000000000e+01,5.000000000000000000e-01,4.024751700000000000e+09
9.200000000000000000e+01,1.550000000000000000e+02,7.800000000000000000e+01,7.200000000000000000e+01,5.100000000000000000e+01,8.900000000000000000e+01,1.620000000000000000e+02,6.300000000000000000e+01,5.000000000000000000e-01,4.042857600000000000e+09
7.200000000000000000e+01,1.050000000000000000e+02,7.200000000000000000e+01,8.100000000000000000e+01,6.000000000000000000e+01,9.600000000000000000e+01,1.670000000000000000e+02,6.100000000000000000e+01,5.000000000000000000e-01,4.060630600000000000e+09
6.400000000000000000e+01,7.100000000000000000e+01,7.100000000000000000e+01,8.200000000000000000e+01,5.800000000000000000e+01,1.110000000000000000e+02,2.110000000000000000e+02,7.000000000000000000e+01,5.100000000000000089e-01,4.079032600000000000e+09
7.400000000000000000e+01,6.500000000000000000e+01,9.100000000000000000e+01,8.400000000000000000e+01,5.900000000000000000e+01,1.240000000000000000e+02,2.190000000000000000e+02,7.800000000000000000e+01,5.100000000000000089e-01,4.096972800000000000e+09
7.600000000000000000e+01,6.200000000000000000e+01,9.700000000000000000e+01,8.300000000000000000e+01,5.600000000000000000e+01,1.280000000000000000e+02,2.460000000000000000e+02,7.400000000000000000e+01,5.100000000000000089e-01,4.118290700000000000e+09
7.600000000000000000e+01,6.000000000000000000e+01,8.500000000000000000e+01,6.500000000000000000e+01,5.200000000000000000e+01,1.340000000000000000e+02,2.450000000000000000e+02,7.500000000000000000e+01,5.100000000000000089e-01,4.136125500000000000e+09
7.600000000000000000e+01,5.300000000000000000e+01,1.310000000000000000e+02,5.500000000000000000e+01,4.300000000000000000e+01,1.410000000000000000e+02,2.610000000000000000e+02,7.400000000000000000e+01,5.100000000000000089e-01,4.156535400000000000e+09
6.600000000000000000e+01,5.000000000000000000e+01,1.370000000000000000e+02,5.300000000000000000e+01,4.800000000000000000e+01,1.400000000000000000e+02,2.460000000000000000e+02,6.800000000000000000e+01,5.100000000000000089e-01,4.174439400000000000e+09
4.600000000000000000e+01,5.000000000000000000e+01,1.260000000000000000e+02,5.700000000000000000e+01,4.900000000000000000e+01,1.370000000000000000e+02,2.560000000000000000e+02,5.600000000000000000e+01,5.100000000000000089e-01,4.192523400000000000e+09
4.500000000000000000e+01,4.600000000000000000e+01,1.270000000000000000e+02,7.100000000000000000e+01,5.200000000000000000e+01,1.380000000000000000e+02,2.390000000000000000e+02,6.200000000000000000e+01,5.100000000000000089e-01,4.212220000000000000e+09
4.500000000000000000e+01,4.800000000000000000e+01,1.440000000000000000e+02,7.300000000000000000e+01,5.100000000000000000e+01,1.410000000000000000e+02,2.540000000000000000e+02,8.000000000000000000e+01,5.100000000000000089e-01,4.234356400000000000e+09
4.400000000000000000e+01,4.700000000000000000e+01,1.030000000000000000e+02,7.200000000000000000e+01,5.500000000000000000e+01,1.360000000000000000e+02,2.290000000000000000e+02,7.900000000000000000e+01,5.100000000000000089e-01,4.256591800000000000e+09
4.500000000000000000e+01,4.500000000000000000e+01,1.020000000000000000e+02,7.400000000000000000e+01,5.700000000000000000e+01,1.220000000000000000e+02,2.080000000000000000e+02,7.700000000000000000e+01,5.100000000000000089e-01,4.273976000000000000e+09
4.900000000000000000e+01,4.200000000000000000e+01,1.050000000000000000e+02,1.020000000000000000e+02,6.500000000000000000e+01,1.200000000000000000e+02,2.350000000000000000e+02,7.800000000000000000e+01,5.100000000000000089e-01,4.293816700000000000e+09
5.000000000000000000e+01,4.400000000000000000e+01,1.170000000000000000e+02,9.600000000000000000e+01,6.600000000000000000e+01,1.300000000000000000e+02,2.440000000000000000e+02,7.600000000000000000e+01,5.100000000000000089e-01,4.312642700000000000e+09
4.900000000000000000e+01,4.000000000000000000e+01,1.000000000000000000e+02,9.300000000000000000e+01,6.600000000000000000e+01,1.310000000000000000e+02,2.340000000000000000e+02,5.700000000000000000e+01,5.100000000000000089e-01,4.334193000000000000e+09
5.000000000000000000e+01,4.500000000000000000e+01,1.140000000000000000e+02,1.010000000000000000e+02,6.600000000000000000e+01,1.640000000000000000e+02,2.680000000000000000e+02,7.100000000000000000e+01,5.100000000000000089e-01,4.356561500000000000e+09
4.800000000000000000e+01,4.500000000000000000e+01,1.130000000000000000e+02,1.020000000000000000e+02,6.400000000000000000e+01,1.700000000000000000e+02,2.820000000000000000e+02,6.800000000000000000e+01,5.100000000000000089e-01,4.375849600000000000e+09
4.400000000000000000e+01,4.500000000000000000e+01,1.170000000000000000e+02,7.200000000000000000e+01,5.600000000000000000e+01,1.890000000000000000e+02,2.550000000000000000e+02,6.900000000000000000e+01,5.100000000000000089e-01,4.395042300000000000e+09
4.300000000000000000e+01,4.400000000000000000e+01,1.090000000000000000e+02,7.700000000000000000e+01,5.500000000000000000e+01,1.760000000000000000e+02,2.360000000000000000e+02,7.400000000000000000e+01,5.100000000000000089e-01,4.413673500000000000e+09
4.200000000000000000e+01,4.400000000000000000e+01,1.240000000000000000e+02,1.020000000000000000e+02,5.600000000000000000e+01,1.710000000000000000e+02,2.280000000000000000e+02,8.000000000000000000e+01,5.100000000000000089e-01,4.434271400000000000e+09
4.100000000000000000e+01,4.200000000000000000e+01,1.120000000000000000e+02,1.020000000000000000e+02,5.800000000000000000e+01,1.840000000000000000e+02,2.470000000000000000e+02,7.700000000000000000e+01,5.200000000000000178e-01,4.456379200000000000e+09
4.400000000000000000e+01,4.200000000000000000e+01,1.220000000000000000e+02,1.150000000000000000e+02,6.700000000000000000e+01,1.850000000000000000e+02,2.440000000000000000e+02,8.300000000000000000e+01,5.200000000000000178e-01,4.474431100000000000e+09
4.400000000000000000e+01,4.700000000000000000e+01,1.310000000000000000e+02,1.210000000000000000e+02,7.400000000000000000e+01,1.740000000000000000e+02,2.370000000000000000e+02,8.300000000000000000e+01,5.200000000000000178e-01,4.492452700000000000e+09
4.600000000000000000e+01,4.900000000000000000e+01,1.240000000000000000e+02,1.270000000000000000e+02,8.000000000000000000e+01,1.740000000000000000e+02,2.500000000000000000e+02,7.700000000000000000e+01,5.200000000000000178e-01,4.512281700000000000e+09
4.800000000000000000e+01,5.000000000000000000e+01,1.120000000000000000e+02,1.100000000000000000e+02,8.200000000000000000e+01,2.080000000000000000e+02,2.630000000000000000e+02,7.600000000000000000e+01,5.200000000000000178e-01,4.535228700000000000e+09
4.700000000000000000e+01,5.100000000000000000e+01,1.160000000000000000e+02,1.030000000000000000e+02,7.900000000000000000e+01,1.700000000000000000e+02,2.530000000000000000e+02,7.500000000000000000e+01,5.200000000000000178e-01,4.557943100000000000e+09
4.700000000000000000e+01,5.000000000000000000e+01,1.100000000000000000e+02,8.800000000000000000e+01,7.100000000000000000e+01,1.670000000000000000e+02,2.710000000000000000e+02,6.800000000000000000e+01,5.200000000000000178e-01,4.576597100000000000e+09
4.900000000000000000e+01,4.800000000000000000e+01,9.900000000000000000e+01,7.900000000000000000e+01,6.300000000000000000e+01,1.610000000000000000e+02,2.940000000000000000e+02,7.900000000000000000e+01,5.300000000000000266e-01,4.596222700000000000e+09
4.700000000000000000e+01,4.500000000000000000e+01,1.070000000000000000e+02,6.100000000000000000e+01,5.100000000000000000e+01,1.650000000000000000e+02,2.870000000000000000e+02,7.700000000000000000e+01,5.200000000000000178e-01,4.617689200000000000e+09
4.900000000000000000e+01,4.500000000000000000e+01,9.900000000000000000e+01,6.600000000000000000e+01,5.300000000000000000e+01,1.250000000000000000e+02,2.920000000000000000e+02,6.900000000000000000e+01,5.200000000000000178e-01,4.637986900000000000e+09
5.200000000000000000e+01,4.500000000000000000e+01,1.090000000000000000e+02,6.700000000000000000e+01,5.600000000000000000e+01,1.520000000000000000e+02,2.630000000000000000e+02,7.200000000000000000e+01,5.200000000000000178e-01,4.656835100000000000e+09
4.900000000000000000e+01,5.900000000000000000e+01,9.700000000000000000e+01,6.500000000000000000e+01,6.100000000000000000e+01,1.700000000000000000e+02,2.450000000000000000e+02,8.600000000000000000e+01,5.200000000000000178e-01,4.674939200000000000e+09
5.300000000000000000e+01,5.700000000000000000e+01,9.400000000000000000e+01,6.500000000000000000e+01,6.500000000000000000e+01,1.790000000000000000e+02,2.660000000000000000e+02,7.600000000000000000e+01,5.200000000000000178e-01,4.693716100000000000e+09
6.200000000000000000e+01,6.000000000000000000e+01,8.300000000000000000e+01,6.600000000000000000e+01,7.000000000000000000e+01,1.940000000000000000e+02,2.930000000000000000e+02,8.200000000000000000e+01,5.200000000000000178e-01,4.716014500000000000e+09
7.600000000000000000e+01,6.300000000000000000e+01,9.400000000000000000e+01,6.100000000000000000e+01,7.400000000000000000e+01,2.100000000000000000e+02,3.130000000000000000e+02,8.700000000000000000e+01,5.100000000000000089e-01,4.736959100000000000e+09
7.600000000000000000e+01,6.200000000000000000e+01,7.700000000000000000e+01,6.200000000000000000e+01,7.700000000000000000e+01,2.040000000000000000e+02,3.110000000000000000e+02,7.800000000000000000e+01,5.100000000000000089e-01,4.755525700000000000e+09
8.100000000000000000e+01,6.900000000000000000e+01,7.800000000000000000e+01,7.000000000000000000e+01,7.600000000000000000e+01,2.040000000000000000e+02,3.260000000000000000e+02,6.400000000000000000e+01,5.000000000000000000e-01,4.775019900000000000e+09
9.300000000000000000e+01,7.000000000000000000e+01,8.800000000000000000e+01,7.800000000000000000e+01,7.500000000000000000e+01,2.050000000000000000e+02,3.050000000000000000e+02,6.500000000000000000e+01,5.000000000000000000e-01,4.793776800000000000e+09
8.900000000000000000e+01,7.200000000000000000e+01,1.440000000000000000e+02,7.500000000000000000e+01,7.200000000000000000e+01,2.100000000000000000e+02,3.610000000000000000e+02,6.400000000000000000e+01,5.000000000000000000e-01,4.814306500000000000e+09
7.800000000000000000e+01,6.800000000000000000e+01,2.610000000000000000e+02,7.100000000000000000e+01,6.700000000000000000e+01,2.020000000000000000e+02,3.330000000000000000e+02,5.700000000000000000e+01,5.000000000000000000e-01,4.836512000000000000e+09
7.700000000000000000e+01,6.900000000000000000e+01,3.170000000000000000e+02,6.800000000000000000e+01,6.100000000000000000e+01,1.950000000000000000e+02,3.620000000000000000e+02,5.600000000000000000e+01,5.000000000000000000e-01,4.854890000000000000e+09
7.300000000000000000e+01,5.000000000000000000e+01,3.310000000000000000e+02,6.400000000000000000e+01,7.500000000000000000e+01,1.970000000000000000e+02,3.580000000000000000e+02,6.200000000000000000e+01,4.899999999999999911e-01,4.874458400000000000e+09
5.400000000000000000e+01,4.900000000000000000e+01,3.370000000000000000e+02,6.000000000000000000e+01,7.800000000000000000e+01,1.960000000000000000e+02,3.540000000000000000e+02,6.800000000000000000e+01,4.899999999999999911e-01,4.893083600000000000e+09
5.700000000000000000e+01,4.400000000000000000e+01,3.220000000000000000e+02,7.600000000000000000e+01,9.400000000000000000e+01,1.810000000000000000e+02,3.020000000000000000e+02,6.400000000000000000e+01,4.799999999999999822e-01,4.914222700000000000e+09
5.900000000000000000e+01,5.000000000000000000e+01,2.380000000000000000e+02,7.600000000000000000e+01,9.600000000000000000e+01,1.760000000000000000e+02,3.320000000000000000e+02,6.900000000000000000e+01,4.799999999999999822e-01,4.936537600000000000e+09
9.800000000000000000e+01,4.900000000000000000e+01,1.550000000000000000e+02,7.900000000000000000e+01,9.800000000000000000e+01,2.290000000000000000e+02,3.320000000000000000e+02,8.200000000000000000e+01,4.799999999999999822e-01,4.956167500000000000e+09
1.020000000000000000e+02,4.800000000000000000e+01,1.210000000000000000e+02,7.600000000000000000e+01,8.500000000000000000e+01,2.220000000000000000e+02,3.130000000000000000e+02,7.700000000000000000e+01,4.799999999999999822e-01,4.975687100000000000e+09
1.040000000000000000e+02,5.200000000000000000e+01,9.500000000000000000e+01,7.100000000000000000e+01,8.100000000000000000e+01,2.140000000000000000e+02,3.020000000000000000e+02,6.800000000000000000e+01,4.699999999999999734e-01,4.993702300000000000e+09
1.080000000000000000e+02,5.000000000000000000e+01,8.500000000000000000e+01,5.600000000000000000e+01,6.800000000000000000e+01,2.170000000000000000e+02,3.180000000000000000e+02,6.600000000000000000e+01,4.699999999999999734e-01,5.014287600000000000e+09
1.090000000000000000e+02,4.900000000000000000e+01,9.000000000000000000e+01,6.100000000000000000e+01,7.000000000000000000e+01,2.200000000000000000e+02,3.090000000000000000e+02,6.200000000000000000e+01,4.699999999999999734e-01,5.036397100000000000e+09
8.000000000000000000e+01,4.900000000000000000e+01,9.900000000000000000e+01,8.000000000000000000e+01,6.900000000000000000e+01,1.800000000000000000e+02,3.400000000000000000e+02,4.900000000000000000e+01,4.699999999999999734e-01,5.054985700000000000e+09
7.500000000000000000e+01,4.700000000000000000e+01,1.080000000000000000e+02,2.360000000000000000e+02,7.000000000000000000e+01,1.770000000000000000e+02,3.390000000000000000e+02,4.500000000000000000e+01,4.799999999999999822e-01,5.073192900000000000e+09
7.300000000000000000e+01,4.600000000000000000e+01,1.120000000000000000e+02,5.860000000000000000e+02,6.800000000000000000e+01,1.920000000000000000e+02,3.420000000000000000e+02,4.500000000000000000e+01,5.000000000000000000e-01,5.092136400000000000e+09
6.600000000000000000e+01,4.900000000000000000e+01,1.950000000000000000e+02,6.380000000000000000e+02,6.600000000000000000e+01,1.810000000000000000e+02,2.970000000000000000e+02,4.800000000000000000e+01,5.200000000000000178e-01,5.114558700000000000e+09
6.400000000000000000e+01,4.700000000000000000e+01,2.140000000000000000e+02,6.420000000000000000e+02,6.400000000000000000e+01,1.810000000000000000e+02,2.820000000000000000e+02,4.600000000000000000e+01,5.500000000000000444e-01,5.137202600000000000e+09
5.700000000000000000e+01,4.900000000000000000e+01,2.250000000000000000e+02,6.440000000000000000e+02,6.300000000000000000e+01,1.570000000000000000e+02,2.110000000000000000e+02,4.900000000000000000e+01,5.799999999999999600e-01,5.156680700000000000e+09
6.800000000000000000e+01,5.200000000000000000e+01,2.290000000000000000e+02,6.070000000000000000e+02,6.700000000000000000e+01,1.790000000000000000e+02,2.290000000000000000e+02,1.090000000000000000e+02,5.999999999999999778e-01,5.174189000000000000e+09
7.200000000000000000e+01,6.100000000000000000e+01,2.360000000000000000e+02,2.860000000000000000e+02,6.500000000000000000e+01,1.760000000000000000e+02,2.390000000000000000e+02,1.220000000000000000e+02,6.199999999999999956e-01,5.193926900000000000e+09
6.900000000000000000e+01,5.800000000000000000e+01,2.140000000000000000e+02,1.450000000000000000e+02,6.500000000000000000e+01,1.780000000000000000e+02,2.350000000000000000e+02,1.200000000000000000e+02,6.300000000000000044e-01,5.215892200000000000e+09
7.500000000000000000e+01,5.900000000000000000e+01,1.900000000000000000e+02,1.230000000000000000e+02,5.900000000000000000e+01,1.810000000000000000e+02,2.300000000000000000e+02,1.270000000000000000e+02,6.400000000000000133e-01,5.234082400000000000e+09
8.400000000000000000e+01,6.900000000000000000e+01,2.610000000000000000e+02,1.230000000000000000e+02,6.500000000000000000e+01,1.820000000000000000e+02,2.240000000000000000e+02,1.300000000000000000e+02,6.500000000000000222e-01,5.252559100000000000e+09
7.600000000000000000e+01,7.000000000000000000e+01,2.840000000000000000e+02,1.200000000000000000e+02,5.900000000000000000e+01,1.630000000000000000e+02,2.480000000000000000e+02,8.800000000000000000e+01,6.600000000000000311e-01,5.271592000000000000e+09
7.300000000000000000e+01,6.300000000000000000e+01,2.910000000000000000e+02,1.180000000000000000e+02,5.700000000000000000e+01,1.410000000000000000e+02,2.260000000000000000e+02,7.000000000000000000e+01,6.700000000000000400e-01,5.293585800000000000e+09
7.700000000000000000e+01,7.800000000000000000e+01,2.690000000000000000e+02,1.100000000000000000e+02,5.400000000000000000e+01,1.410000000000000000e+02,2.280000000000000000e+02,7.200000000000000000e+01,6.800000000000000488e-01,5.315876500000000000e+09
7.500000000000000000e+01,8.000000000000000000e+01,2.700000000000000000e+02,1.100000000000000000e+02,6.900000000000000000e+01,1.440000000000000000e+02,2.690000000000000000e+02,6.100000000000000000e+01,6.700000000000000400e-01,5.334002600000000000e+09
6.900000000000000000e+01,7.300000000000000000e+01,1.900000000000000000e+02,8.600000000000000000e+01,6.300000000000000000e+01,1.400000000000000000e+02,2.690000000000000000e+02,6.600000000000000000e+01,6.500000000000000222e-01,5.352037200000000000e+09
6.800000000000000000e+01,8.100000000000000000e+01,1.710000000000000000e+02,7.300000000000000000e+01,6.200000000000000000e+01,1.260000000000000000e+02,2.330000000000000000e+02,6.900000000000000000e+01,6.300000000000000044e-01,5.371821800000000000e+09
9.200000000000000000e+01,9.800000000000000000e+01,2.270000000000000000e+02,8.000000000000000000e+01,6.300000000000000000e+01,1.450000000000000000e+02,2.520000000000000000e+02,6.800000000000000000e+01,6.199999999999999956e-01,5.393934700000000000e+09
9.100000000000000000e+01,1.000000000000000000e+02,2.570000000000000000e+02,8.500000000000000000e+01,7.200000000000000000e+01,1.430000000000000000e+02,2.650000000000000000e+02,7.400000000000000000e+01,5.999999999999999778e-01,5.416237000000000000e+09
9.000000000000000000e+01,1.100000000000000000e+02,2.590000000000000000e+02,8.600000000000000000e+01,6.000000000000000000e+01,1.380000000000000000e+02,2.280000000000000000e+02,7.500000000000000000e+01,5.899999999999999689e-01,5.434639500000000000e+09
9.400000000000000000e+01,1.100000000000000000e+02,3.380000000000000000e+02,1.120000000000000000e+02,6.200000000000000000e+01,1.330000000000000000e+02,2.260000000000000000e+02,6.700000000000000000e+01,5.799999999999999600e-01,5.453833300000000000e+09
9.900000000000000000e+01,1.120000000000000000e+02,3.410000000000000000e+02,1.160000000000000000e+02,6.200000000000000000e+01,1.340000000000000000e+02,2.370000000000000000e+02,6.700000000000000000e+01,5.799999999999999600e-01,5.472245500000000000e+09
8.500000000000000000e+01,1.050000000000000000e+02,3.110000000000000000e+02,1.130000000000000000e+02,6.300000000000000000e+01,1.280000000000000000e+02,2.230000000000000000e+02,6.700000000000000000e+01,5.699999999999999512e-01,5.493834400000000000e+09
8.200000000000000000e+01,1.100000000000000000e+02,3.440000000000000000e+02,1.140000000000000000e+02,5.900000000000000000e+01,1.430000000000000000e+02,2.470000000000000000e+02,6.000000000000000000e+01,5.699999999999999512e-01,5.516889700000000000e+09
9.200000000000000000e+01,1.230000000000000000e+02,3.550000000000000000e+02,1.140000000000000000e+02,6.900000000000000000e+01,1.380000000000000000e+02,2.510000000000000000e+02,5.800000000000000000e+01,5.699999999999999512e-01,5.535593100000000000e+09
1.080000000000000000e+02,1.580000000000000000e+02,3.680000000000000000e+02,9.900000000000000000e+01,7.500000000000000000e+01,1.510000000000000000e+02,2.550000000000000000e+02,5.700000000000000000e+01,5.600000000000000533e-01,5.554591700000000000e+09
1.080000000000000000e+02,1.540000000000000000e+02,3.590000000000000000e+02,9.300000000000000000e+01,7.800000000000000000e+01,1.620000000000000000e+02,2.590000000000000000e+02,7.100000000000000000e+01,5.500000000000000444e-01,5.574203700000000000e+09
1.000000000000000000e+02,1.500000000000000000e+02,3.540000000000000000e+02,9.200000000000000000e+01,8.700000000000000000e+01,1.560000000000000000e+02,2.630000000000000000e+02,7.800000000000000000e+01,5.500000000000000444e-01,5.593603600000000000e+09
1.000000000000000000e+02,1.380000000000000000e+02,2.990000000000000000e+02,9.100000000000000000e+01,8.700000000000000000e+01,1.390000000000000000e+02,2.340000000000000000e+02,7.900000000000000000e+01,5.400000000000000355e-01,5.617238500000000000e+09
9.100000000000000000e+01,1.160000000000000000e+02,2.820000000000000000e+02,9.400000000000000000e+01,8.500000000000000000e+01,1.310000000000000000e+02,2.190000000000000000e+02,7.900000000000000000e+01,5.400000000000000355e-01,5.637494500000000000e+09
6.100000000000000000e+01,5.700000000000000000e+01,1.560000000000000000e+02,8.300000000000000000e+01,7.900000000000000000e+01,1.220000000000000000e+02,2.060000000000000000e+02,7.300000000000000000e+01,5.400000000000000355e-01,5.657953300000000000e+09
5.800000000000000000e+01,5.100000000000000000e+01,1.460000000000000000e+02,8.600000000000000000e+01,8.400000000000000000e+01,1.180000000000000000e+02,2.320000000000000000e+02,5.500000000000000000e+01,5.300000000000000266e-01,5.678188200000000000e+09
6.100000000000000000e+01,4.300000000000000000e+01,1.190000000000000000e+02,8.000000000000000000e+01,7.700000000000000000e+01,1.250000000000000000e+02,2.430000000000000000e+02,5.800000000000000000e+01,5.300000000000000266e-01,5.697193500000000000e+09
7.000000000000000000e+01,3.900000000000000000e+01,1.210000000000000000e+02,7.300000000000000000e+01,8.000000000000000000e+01,1.380000000000000000e+02,2.630000000000000000e+02,5.700000000000000000e+01,5.200000000000000178e-01,5.716214900000000000e+09
6.700000000000000000e+01,4.000000000000000000e+01,1.170000000000000000e+02,6.600000000000000000e+01,7.700000000000000000e+01,1.480000000000000000e+02,2.820000000000000000e+02,6.800000000000000000e+01,5.200000000000000178e-01,5.734678900000000000e+09
6.800000000000000000e+01,3.900000000000000000e+01,1.100000000000000000e+02,6.400000000000000000e+01,7.800000000000000000e+01,1.450000000000000000e+02,3.050000000000000000e+02,7.500000000000000000e+01,5.100000000000000089e-01,5.756888000000000000e+09
6.300000000000000000e+01,4.100000000000000000e+01,1.700000000000000000e+02,7.100000000000000000e+01,7.600000000000000000e+01,1.530000000000000000e+02,2.780000000000000000e+02,7.800000000000000000e+01,5.000000000000000000e-01,5.775459800000000000e+09
6.100000000000000000e+01,4.900000000000000000e+01,1.940000000000000000e+02,7.400000000000000000e+01,7.500000000000000000e+01,1.520000000000000000e+02,3.190000000000000000e+02,7.000000000000000000e+01,5.000000000000000000e-01,5.795505700000000000e+09
5.000000000000000000e+01,5.200000000000000000e+01,1.870000000000000000e+02,6.900000000000000000e+01,7.100000000000000000e+01,1.610000000000000000e+02,3.170000000000000000e+02,7.600000000000000000e+01,5.000000000000000000e-01,5.816327200000000000e+09
5.500000000000000000e+01,5.800000000000000000e+01,1.880000000000000000e+02,7.200000000000000000e+01,7.000000000000000000e+01,1.670000000000000000e+02,3.230000000000000000e+02,7.300000000000000000e+01,4.899999999999999911e-01,5.834719100000000000e+09
5.700000000000000000e+01,5.900000000000000000e+01,1.880000000000000000e+02,7.800000000000000000e+01,6.800000000000000000e+01,1.770000000000000000e+02,3.140000000000000000e+02,6.500000000000000000e+01,4.899999999999999911e-01,5.856796600000000000e+09
5.900000000000000000e+01,6.300000000000000000e+01,1.300000000000000000e+02,7.400000000000000000e+01,7.100000000000000000e+01,1.660000000000000000e+02,3.340000000000000000e+02,6.100000000000000000e+01,4.899999999999999911e-01,5.875867500000000000e+09
6.300000000000000000e+01,6.100000000000000000e+01,9.600000000000000000e+01,7.500000000000000000e+01,8.000000000000000000e+01,1.760000000000000000e+02,3.050000000000000000e+02,6.200000000000000000e+01,4.899999999999999911e-01,5.895138700000000000e+09
6.200000000000000000e+01,6.800000000000000000e+01,9.400000000000000000e+01,7.800000000000000000e+01,7.700000000000000000e+01,1.700000000000000000e+02,2.990000000000000000e+02,5.600000000000000000e+01,4.899999999999999911e-01,5.913519500000000000e+09
7.000000000000000000e+01,6.700000000000000000e+01,9.800000000000000000e+01,7.900000000000000000e+01,7.200000000000000000e+01,1.630000000000000000e+02,3.000000000000000000e+02,5.100000000000000000e+01,4.899999999999999911e-01,5.934673300000000000e+09
7.900000000000000000e+01,7.300000000000000000e+01,1.070000000000000000e+02,7.400000000000000000e+01,7.200000000000000000e+01,1.680000000000000000e+02,3.210000000000000000e+02,5.900000000000000000e+01,4.899999999999999911e-01,5.956757400000000000e+09
8.500000000000000000e+01,6.900000000000000000e+01,1.030000000000000000e+02,7.000000000000000000e+01,7.400000000000000000e+01,1.660000000000000000e+02,2.960000000000000000e+02,6.400000000000000000e+01,4.899999999999999911e-01,5.975537800000000000e+09
8.400000000000000000e+01,6.800000000000000000e+01,1.030000000000000000e+02,6.700000000000000000e+01,6.900000000000000000e+01,1.530000000000000000e+02,2.890000000000000000e+02,6.300000000000000000e+01,4.899999999999999911e-01,5.994452500000000000e+09
8.700000000000000000e+01,5.700000000000000000e+01,1.000000000000000000e+02,6.300000000000000000e+01,7.600000000000000000e+01,1.470000000000000000e+02,2.760000000000000000e+02,6.000000000000000000e+01,4.899999999999999911e-01,6.012394500000000000e+09
7.600000000000000000e+01,5.400000000000000000e+01,9.800000000000000000e+01,5.500000000000000000e+01,8.600000000000000000e+01,1.510000000000000000e+02,2.760000000000000000e+02,5.900000000000000000e+01,4.899999999999999911e-01,6.035076700000000000e+09
6.500000000000000000e+01,4.700000000000000000e+01,8.600000000000000000e+01,6.200000000000000000e+01,8.600000000000000000e+01,1.350000000000000000e+02,2.390000000000000000e+02,5.400000000000000000e+01,4.899999999999999911e-01,6.057568500000000000e+09
5.700000000000000000e+01,4.500000000000000000e+01,9.100000000000000000e+01,6.100000000000000000e+01,7.700000000000000000e+01,1.480000000000000000e+02,2.350000000000000000e+02,4.800000000000000000e+01,4.899999999999999911e-01,6.075101900000000000e+09
5.400000000000000000e+01,4.700000000000000000e+01,8.200000000000000000e+01,6.000000000000000000e+01,7.200000000000000000e+01,1.400000000000000000e+02,2.290000000000000000e+02,4.600000000000000000e+01,4.799999999999999822e-01,6.093486700000000000e+09
5.600000000000000000e+01,4.900000000000000000e+01,8.000000000000000000e+01,5.900000000000000000e+01,6.600000000000000000e+01,1.310000000000000000e+02,2.230000000000000000e+02,4.600000000000000000e+01,4.799999999999999822e-01,6.114414300000000000e+09
5.700000000000000000e+01,4.600000000000000000e+01,6.800000000000000000e+01,6.000000000000000000e+01,5.600000000000000000e+01,1.390000000000000000e+02,2.440000000000000000e+02,4.600000000000000000e+01,4.799999999999999822e-01,6.136940600000000000e+09
5.900000000000000000e+01,4.600000000000000000e+01,7.500000000000000000e+01,5.800000000000000000e+01,6.000000000000000000e+01,1.580000000000000000e+02,2.460000000000000000e+02,5.000000000000000000e+01,4.799999999999999822e-01,6.154764500000000000e+09
8.000000000000000000e+01,5.300000000000000000e+01,7.000000000000000000e+01,6.100000000000000000e+01,6.700000000000000000e+01,1.490000000000000000e+02,2.540000000000000000e+02,5.000000000000000000e+01,4.799999999999999822e-01,6.172440900000000000e+09
8.500000000000000000e+01,5.700000000000000000e+01,7.400000000000000000e+01,6.300000000000000000e+01,7.100000000000000000e+01,1.670000000000000000e+02,2.930000000000000000e+02,6.000000000000000000e+01,4.799999999999999822e-01,6.193369700000000000e+09
8.300000000000000000e+01,5.800000000000000000e+01,7.700000000000000000e+01,6.700000000000000000e+01,6.900000000000000000e+01,1.660000000000000000e+02,3.080000000000000000e+02,6.200000000000000000e+01,4.799999999999999822e-01,6.216026200000000000e+09
8.400000000000000000e+01,6.200000000000000000e+01,9.900000000000000000e+01,8.600000000000000000e+01,8.100000000000000000e+01,1.690000000000000000e+02,2.740000000000000000e+02,5.800000000000000000e+01,4.799999999999999822e-01,6.234675600000000000e+09
1.020000000000000000e+02,6.300000000000000000e+01,1.020000000000000000e+02,8.900000000000000000e+01,8.400000000000000000e+01,1.890000000000000000e+02,3.090000000000000000e+02,6.000000000000000000e+01,4.799999999999999822e-01,6.253357700000000000e+09
9.100000000000000000e+01,6.100000000000000000e+01,1.020000000000000000e+02,9.000000000000000000e+01,8.700000000000000000e+01,1.820000000000000000e+02,3.140000000000000000e+02,6.400000000000000000e+01,4.799999999999999822e-01,6.271654800000000000e+09
9.200000000000000000e+01,7.000000000000000000e+01,1.050000000000000000e+02,9.500000000000000000e+01,8.200000000000000000e+01,1.650000000000000000e+02,2.750000000000000000e+02,5.900000000000000000e+01,4.799999999999999822e-01,6.294015400000000000e+09
9.300000000000000000e+01,6.700000000000000000e+01,1.230000000000000000e+02,9.700000000000000000e+01,8.100000000000000000e+01,1.780000000000000000e+02,2.920000000000000000e+02,5.900000000000000000e+01,4.899999999999999911e-01,6.316062600000000000e+09
9.600000000000000000e+01,7.100000000000000000e+01,1.080000000000000000e+02,8.300000000000000000e+01,6.900000000000000000e+01,1.600000000000000000e+02,2.950000000000000000e+02,6.100000000000000000e+01,4.899999999999999911e-01,6.334127200000000000e+09
8.100000000000000000e+01,7.400000000000000000e+01,1.010000000000000000e+02,8.300000000000000000e+01,6.400000000000000000e+01,1.120000000000000000e+02,2.660000000000000000e+02,5.500000000000000000e+01,4.899999999999999911e-01,6.352545500000000000e+09
8.700000000000000000e+01,7.500000000000000000e+01,1.000000000000000000e+02,7.800000000000000000e+01,6.100000000000000000e+01,1.190000000000000000e+02,2.640000000000000000e+02,5.700000000000000000e+01,4.899999999999999911e-01,6.371850100000000000e+09
8.300000000000000000e+01,6.300000000000000000e+01,1.030000000000000000e+02,8.300000000000000000e+01,6.800000000000000000e+01,1.220000000000000000e+02,2.690000000000000000e+02,5.700000000000000000e+01,4.899999999999999911e-01,6.393911500000000000e+09
8.300000000000000000e+01,6.600000000000000000e+01,7.700000000000000000e+01,7.600000000000000000e+01,7.300000000000000000e+01,1.180000000000000000e+02,2.450000000000000000e+02,5.800000000000000000e+01,5.000000000000000000e-01,6.416250300000000000e+09
8.200000000000000000e+01,5.900000000000000000e+01,7.500000000000000000e+01,7.200000000000000000e+01,7.300000000000000000e+01,1.230000000000000000e+02,2.400000000000000000e+02,5.600000000000000000e+01,5.000000000000000000e-01,6.433774400000000000e+09
7.700000000000000000e+01,5.400000000000000000e+01,7.600000000000000000e+01,6.700000000000000000e+01,8.000000000000000000e+01,1.370000000000000000e+02,2.270000000000000000e+02,5.700000000000000000e+01,5.000000000000000000e-01,6.452408800000000000e+09
7.400000000000000000e+01,4.700000000000000000e+01,7.300000000000000000e+01,7.500000000000000000e+01,7.800000000000000000e+01,1.520000000000000000e+02,2.540000000000000000e+02,5.400000000000000000e+01,5.000000000000000000e-01,6.472104800000000000e+09
7.300000000000000000e+01,4.300000000000000000e+01,6.500000000000000000e+01,6.300000000000000000e+01,9.000000000000000000e+01,1.620000000000000000e+02,2.410000000000000000e+02,5.200000000000000000e+01,5.000000000000000000e-01,6.493874900000000000e+09
7.000000000000000000e+01,3.800000000000000000e+01,6.400000000000000000e+01,6.300000000000000000e+01,8.700000000000000000e+01,1.780000000000000000e+02,2.550000000000000000e+02,4.700000000000000000e+01,4.899999999999999911e-01,6.516084500000000000e+09
6.800000000000000000e+01,3.900000000000000000e+01,7.500000000000000000e+01,7.000000000000000000e+01,8.900000000000000000e+01,1.720000000000000000e+02,2.410000000000000000e+02,4.900000000000000000e+01,4.899999999999999911e-01,6.534194700000000000e+09
6.500000000000000000e+01,3.500000000000000000e+01,7.500000000000000000e+01,6.600000000000000000e+01,8.900000000000000000e+01,1.720000000000000000e+02,3.010000000000000000e+02,4.800000000000000000e+01,4.899999999999999911e-01,6.553310100000000000e+09
6.300000000000000000e+01,3.900000000000000000e+01,7.700000000000000000e+01,6.200000000000000000e+01,9.900000000000000000e+01,1.620000000000000000e+02,2.950000000000000000e+02,4.600000000000000000e+01,4.899999999999999911e-01,6.572660000000000000e+09
6.600000000000000000e+01,3.900000000000000000e+01,7.300000000000000000e+01,6.200000000000000000e+01,8.300000000000000000e+01,1.480000000000000000e+02,3.020000000000000000e+02,4.500000000000000000e+01,4.899999999999999911e-01,6.594066500000000000e+09
6.300000000000000000e+01,4.000000000000000000e+01,7.300000000000000000e+01,6.200000000000000000e+01,8.200000000000000000e+01,1.200000000000000000e+02,2.820000000000000000e+02,4.800000000000000000e+01,4.799999999999999822e-01,6.616056000000000000e+09
6.400000000000000000e+01,3.700000000000000000e+01,6.100000000000000000e+01,5.800000000000000000e+01,9.100000000000000000e+01,1.390000000000000000e+02,2.930000000000000000e+02,4.600000000000000000e+01,4.799999999999999822e-01,6.634151700000000000e+09
6.600000000000000000e+01,3.800000000000000000e+01,5.800000000000000000e+01,6.600000000000000000e+01,9.600000000000000000e+01,1.490000000000000000e+02,2.410000000000000000e+02,4.500000000000000000e+01,4.799999999999999822e-01,6.652125500000000000e+09
5.800000000000000000e+01,3.500000000000000000e+01,5.400000000000000000e+01,6.400000000000000000e+01,8.400000000000000000e+01,1.460000000000000000e+02,2.290000000000000000e+02,4.800000000000000000e+01,4.699999999999999734e-01,6.671608400000000000e+09
5.700000000000000000e+01,3.600000000000000000e+01,5.000000000000000000e+01,5.900000000000000000e+01,8.700000000000000000e+01,1.510000000000000000e+02,2.660000000000000000e+02,4.700000000000000000e+01,4.699999999999999734e-01,6.693730400000000000e+09
5.600000000000000000e+01,3.600000000000000000e+01,4.300000000000000000e+01,6.400000000000000000e+01,8.600000000000000000e+01,1.540000000000000000e+02,2.670000000000000000e+02,4.800000000000000000e+01,4.699999999999999734e-01,6.716020900000000000e+09
5.200000000000000000e+01,3.800000000000000000e+01,4.000000000000000000e+01,6.200000000000000000e+01,7.200000000000000000e+01,1.380000000000000000e+02,2.650000000000000000e+02,5.200000000000000000e+01,4.699999999999999734e-01,6.744376000000000000e+09
5.100000000000000000e+01,4.000000000000000000e+01,3.300000000000000000e+01,5.800000000000000000e+01,7.000000000000000000e+01,1.310000000000000000e+02,2.600000000000000000e+02,5.000000000000000000e+01,4.699999999999999734e-01,6.765098800000000000e+09
4.900000000000000000e+01,4.000000000000000000e+01,3.400000000000000000e+01,5.500000000000000000e+01,7.100000000000000000e+01,1.450000000000000000e+02,2.480000000000000000e+02,5.000000000000000000e+01,4.699999999999999734e-01,6.784843400000000000e+09
4.300000000000000000e+01,3.900000000000000000e+01,3.000000000000000000e+01,5.400000000000000000e+01,7.100000000000000000e+01,1.510000000000000000e+02,1.880000000000000000e+02,5.100000000000000000e+01,4.699999999999999734e-01,6.804153400000000000e+09
4.300000000000000000e+01,4.300000000000000000e+01,3.000000000000000000e+01,4.500000000000000000e+01,7.600000000000000000e+01,1.610000000000000000e+02,1.970000000000000000e+02,4.900000000000000000e+01,4.699999999999999734e-01,6.822375100000000000e+09
4.400000000000000000e+01,4.200000000000000000e+01,2.600000000000000000e+01,5.400000000000000000e+01,7.800000000000000000e+01,1.610000000000000000e+02,2.280000000000000000e+02,5.100000000000000000e+01,4.699999999999999734e-01,6.840156200000000000e+09
3.900000000000000000e+01,3.900000000000000000e+01,2.500000000000000000e+01,5.100000000000000000e+01,6.600000000000000000e+01,1.470000000000000000e+02,2.180000000000000000e+02,5.100000000000000000e+01,4.699999999999999734e-01,6.859483500000000000e+09
4.000000000000000000e+01,3.900000000000000000e+01,2.800000000000000000e+01,5.100000000000000000e+01,6.400000000000000000e+01,1.430000000000000000e+02,2.150000000000000000e+02,4.600000000000000000e+01,4.699999999999999734e-01,6.877543600000000000e+09
4.400000000000000000e+01,4.000000000000000000e+01,2.800000000000000000e+01,5.200000000000000000e+01,5.900000000000000000e+01,1.300000000000000000e+02,2.170000000000000000e+02,4.800000000000000000e+01,4.699999999999999734e-01,6.895024800000000000e+09
4.500000000000000000e+01,3.700000000000000000e+01,2.800000000000000000e+01,5.500000000000000000e+01,5.300000000000000000e+01,1.060000000000000000e+02,2.040000000000000000e+02,5.200000000000000000e+01,4.699999999999999734e-01,6.914125300000000000e+09
5.000000000000000000e+01,4.000000000000000000e+01,3.000000000000000000e+01,5.000000000000000000e+01,5.800000000000000000e+01,1.140000000000000000e+02,2.100000000000000000e+02,4.900000000000000000e+01,4.699999999999999734e-01,6.933082100000000000e+09
5.800000000000000000e+01,4.000000000000000000e+01,3.100000000000000000e+01,4.900000000000000000e+01,6.200000000000000000e+01,1.220000000000000000e+02,2.180000000000000000e+02,4.800000000000000000e+01,4.699999999999999734e-01,6.955384600000000000e+09
6.400000000000000000e+01,4.000000000000000000e+01,3.300000000000000000e+01,4.700000000000000000e+01,6.500000000000000000e+01,1.350000000000000000e+02,2.860000000000000000e+02,5.800000000000000000e+01,4.699999999999999734e-01,6.977461400000000000e+09
6.700000000000000000e+01,4.100000000000000000e+01,3.500000000000000000e+01,4.700000000000000000e+01,6.700000000000000000e+01,1.560000000000000000e+02,3.030000000000000000e+02,6.300000000000000000e+01,4.699999999999999734e-01,6.996061500000000000e+09
7.000000000000000000e+01,4.200000000000000000e+01,3.500000000000000000e+01,4.400000000000000000e+01,6.800000000000000000e+01,1.600000000000000000e+02,3.210000000000000000e+02,6.700000000000000000e+01,4.699999999999999734e-01,7.014460600000000000e+09
6.600000000000000000e+01,4.400000000000000000e+01,5.200000000000000000e+01,4.100000000000000000e+01,6.100000000000000000e+01,1.600000000000000000e+02,3.050000000000000000e+02,9.200000000000000000e+01,4.699999999999999734e-01,7.033040700000000000e+09
6.600000000000000000e+01,4.500000000000000000e+01,5.500000000000000000e+01,3.900000000000000000e+01,5.700000000000000000e+01,1.550000000000000000e+02,3.140000000000000000e+02,9.500000000000000000e+01,4.699999999999999734e-01,7.055208100000000000e+09
6.300000000000000000e+01,4.700000000000000000e+01,5.100000000000000000e+01,3.700000000000000000e+01,4.900000000000000000e+01,1.380000000000000000e+02,2.690000000000000000e+02,9.000000000000000000e+01,4.699999999999999734e-01,7.077572500000000000e+09
6.200000000000000000e+01,4.700000000000000000e+01,5.100000000000000000e+01,3.700000000000000000e+01,4.500000000000000000e+01,1.250000000000000000e+02,2.580000000000000000e+02,8.600000000000000000e+01,4.699999999999999734e-01,7.095540500000000000e+09
5.700000000000000000e+01,4.900000000000000000e+01,6.600000000000000000e+01,4.200000000000000000e+01,4.700000000000000000e+01,1.280000000000000000e+02,2.390000000000000000e+02,8.400000000000000000e+01,4.699999999999999734e-01,7.114069000000000000e+09
6.200000000000000000e+01,4.500000000000000000e+01,5.300000000000000000e+01,4.000000000000000000e+01,5.100000000000000000e+01,1.270000000000000000e+02,2.170000000000000000e+02,5.400000000000000000e+01,4.699999999999999734e-01,7.133051800000000000e+09
6.500000000000000000e+01,4.400000000000000000e+01,5.000000000000000000e+01,4.400000000000000000e+01,5.700000000000000000e+01,1.270000000000000000e+02,2.020000000000000000e+02,5.300000000000000000e+01,4.699999999999999734e-01,7.155283200000000000e+09
6.500000000000000000e+01,4.400000000000000000e+01,5.200000000000000000e+01,4.600000000000000000e+01,6.500000000000000000e+01,1.230000000000000000e+02,1.760000000000000000e+02,5.500000000000000000e+01,4.699999999999999734e-01,7.177694100000000000e+09
6.000000000000000000e+01,4.300000000000000000e+01,5.100000000000000000e+01,4.800000000000000000e+01,6.300000000000000000e+01,1.100000000000000000e+02,1.630000000000000000e+02,5.600000000000000000e+01,4.699999999999999734e-01,7.196274800000000000e+09
6.000000000000000000e+01,4.400000000000000000e+01,3.200000000000000000e+01,4.500000000000000000e+01,6.100000000000000000e+01,9.700000000000000000e+01,1.530000000000000000e+02,5.100000000000000000e+01,4.699999999999999734e-01,7.214551000000000000e+09
5.900000000000000000e+01,4.500000000000000000e+01,3.300000000000000000e+01,4.300000000000000000e+01,6.000000000000000000e+01,9.800000000000000000e+01,1.690000000000000000e+02,5.100000000000000000e+01,4.699999999999999734e-01,7.234451400000000000e+09
5.100000000000000000e+01,4.800000000000000000e+01,3.300000000000000000e+01,3.900000000000000000e+01,5.900000000000000000e+01,1.070000000000000000e+02,1.980000000000000000e+02,4.700000000000000000e+01,4.699999999999999734e-01,7.255152700000000000e+09
5.000000000000000000e+01,4.800000000000000000e+01,3.100000000000000000e+01,3.600000000000000000e+01,5.300000000000000000e+01,1.060000000000000000e+02,1.980000000000000000e+02,4.300000000000000000e+01,4.699999999999999734e-01,7.278098400000000000e+09
5.100000000000000000e+01,5.000000000000000000e+01,3.100000000000000000e+01,3.800000000000000000e+01,5.400000000000000000e+01,1.070000000000000000e+02,2.110000000000000000e+02,4.400000000000000000e+01,4.699999999999999734e-01,7.296693300000000000e+09
5.500000000000000000e+01,5.000000000000000000e+01,2.800000000000000000e+01,3.700000000000000000e+01,5.100000000000000000e+01,1.420000000000000000e+02,2.950000000000000000e+02,4.400000000000000000e+01,4.699999999999999734e-01,7.315823800000000000e+09
5.200000000000000000e+01,5.300000000000000000e+01,3.100000000000000000e+01,4.100000000000000000e+01,5.000000000000000000e+01,1.400000000000000000e+02,2.860000000000000000e+02,4.800000000000000000e+01,4.699999999999999734e-01,7.335229400000000000e+09
5.100000000000000000e+01,5.100000000000000000e+01,3.100000000000000000e+01,4.400000000000000000e+01,5.000000000000000000e+01,1.300000000000000000e+02,2.660000000000000000e+02,4.600000000000000000e+01,4.699999999999999734e-01,7.358043100000000000e+09
4.800000000000000000e+01,5.600000000000000000e+01,4.800000000000000000e+01,4.500000000000000000e+01,5.500000000000000000e+01,1.320000000000000000e+02,2.630000000000000000e+02,4.900000000000000000e+01,4.699999999999999734e-01,7.377480800000000000e+09
4.800000000000000000e+01,5.400000000000000000e+01,4.900000000000000000e+01,4.100000000000000000e+01,5.900000000000000000e+01,1.310000000000000000e+02,2.760000000000000000e+02,4.300000000000000000e+01,4.699999999999999734e-01,7.395805500000000000e+09
5.400000000000000000e+01,5.100000000000000000e+01,5.000000000000000000e+01,4.500000000000000000e+01,6.400000000000000000e+01,1.180000000000000000e+02,2.180000000000000000e+02,7.100000000000000000e+01,4.699999999999999734e-01,7.415263600000000000e+09
5.400000000000000000e+01,4.800000000000000000e+01,5.000000000000000000e+01,5.000000000000000000e+01,7.200000000000000000e+01,1.200000000000000000e+02,2.160000000000000000e+02,6.700000000000000000e+01,4.699999999999999734e-01,7.437856000000000000e+09
5.300000000000000000e+01,4.600000000000000000e+01,5.700000000000000000e+01,6.200000000000000000e+01,7.800000000000000000e+01,1.280000000000000000e+02,2.260000000000000000e+02,6.900000000000000000e+01,4.699999999999999734e-01,7.455805400000000000e+09
6.100000000000000000e+01,4.100000000000000000e+01,7.700000000000000000e+01,6.400000000000000000e+01,8.700000000000000000e+01,1.370000000000000000e+02,2.340000000000000000e+02,8.000000000000000000e+01,4.699999999999999734e-01,7.476129300000000000e+09
6.300000000000000000e+01,3.900000000000000000e+01,8.100000000000000000e+01,6.400000000000000000e+01,8.800000000000000000e+01,1.380000000000000000e+02,2.100000000000000000e+02,8.800000000000000000e+01,4.699999999999999734e-01,7.496448500000000000e+09
5.600000000000000000e+01,3.600000000000000000e+01,8.100000000000000000e+01,6.600000000000000000e+01,8.900000000000000000e+01,1.240000000000000000e+02,1.840000000000000000e+02,6.900000000000000000e+01,4.699999999999999734e-01,7.515656800000000000e+09
5.800000000000000000e+01,4.400000000000000000e+01,8.500000000000000000e+01,7.100000000000000000e+01,9.700000000000000000e+01,1.320000000000000000e+02,1.960000000000000000e+02,7.200000000000000000e+01,4.699999999999999734e-01,7.532980200000000000e+09
5.700000000000000000e+01,4.200000000000000000e+01,9.400000000000000000e+01,6.900000000000000000e+01,1.010000000000000000e+02,1.250000000000000000e+02,1.780000000000000000e+02,7.200000000000000000e+01,4.600000000000000200e-01,7.550874700000000000e+09
4.700000000000000000e+01,4.100000000000000000e+01,7.000000000000000000e+01,6.800000000000000000e+01,9.600000000000000000e+01,1.070000000000000000e+02,1.700000000000000000e+02,5.800000000000000000e+01,4.600000000000000200e-01,7.571231900000000000e+09
4.400000000000000000e+01,4.200000000000000000e+01,6.800000000000000000e+01,7.300000000000000000e+01,9.400000000000000000e+01,1.120000000000000000e+02,1.910000000000000000e+02,4.500000000000000000e+01,4.600000000000000200e-01,7.593537400000000000e+09
4.600000000000000000e+01,4.400000000000000000e+01,7.100000000000000000e+01,7.600000000000000000e+01,1.050000000000000000e+02,1.060000000000000000e+02,1.890000000000000000e+02,4.500000000000000000e+01,4.600000000000000200e-01,7.615625200000000000e+09
4.700000000000000000e+01,3.700000000000000000e+01,6.700000000000000000e+01,6.800000000000000000e+01,9.200000000000000000e+01,9.300000000000000000e+01,1.870000000000000000e+02,4.300000000000000000e+01,4.600000000000000200e-01,7.637762000000000000e+09
4.700000000000000000e+01,3.700000000000000000e+01,5.100000000000000000e+01,5.900000000000000000e+01,8.000000000000000000e+01,9.600000000000000000e+01,1.810000000000000000e+02,4.000000000000000000e+01,4.600000000000000200e-01,7.655400600000000000e+09
4.700000000000000000e+01,3.500000000000000000e+01,5.500000000000000000e+01,5.800000000000000000e+01,7.400000000000000000e+01,9.500000000000000000e+01,1.810000000000000000e+02,4.000000000000000000e+01,4.600000000000000200e-01,7.673002900000000000e+09
4.500000000000000000e+01,3.800000000000000000e+01,6.300000000000000000e+01,5.300000000000000000e+01,7.600000000000000000e+01,1.080000000000000000e+02,1.800000000000000000e+02,4.100000000000000000e+01,4.600000000000000200e-01,7.693347400000000000e+09
4.700000000000000000e+01,3.900000000000000000e+01,6.200000000000000000e+01,4.400000000000000000e+01,5.400000000000000000e+01,1.060000000000000000e+02,1.720000000000000000e+02,4.300000000000000000e+01,4.600000000000000200e-01,7.715579800000000000e+09
5.100000000000000000e+01,3.900000000000000000e+01,6.000000000000000000e+01,4.700000000000000000e+01,5.700000000000000000e+01,1.230000000000000000e+02,1.740000000000000000e+02,3.800000000000000000e+01,4.600000000000000200e-01,7.737809500000000000e+09
5.300000000000000000e+01,5.200000000000000000e+01,5.800000000000000000e+01,4.600000000000000000e+01,5.800000000000000000e+01,1.480000000000000000e+02,2.200000000000000000e+02,4.800000000000000000e+01,4.600000000000000200e-01,7.755905300000000000e+09
5.600000000000000000e+01,6.000000000000000000e+01,6.000000000000000000e+01,4.600000000000000000e+01,6.000000000000000000e+01,1.580000000000000000e+02,2.300000000000000000e+02,4.700000000000000000e+01,4.600000000000000200e-01,7.774533500000000000e+09
8.100000000000000000e+01,6.400000000000000000e+01,6.500000000000000000e+01,4.700000000000000000e+01,5.900000000000000000e+01,1.510000000000000000e+02,2.330000000000000000e+02,5.700000000000000000e+01,4.699999999999999734e-01,7.793350100000000000e+09
8.100000000000000000e+01,6.600000000000000000e+01,8.000000000000000000e+01,5.400000000000000000e+01,6.400000000000000000e+01,1.550000000000000000e+02,2.370000000000000000e+02,6.700000000000000000e+01,4.699999999999999734e-01,7.815745700000000000e+09
8.000000000000000000e+01,6.900000000000000000e+01,8.100000000000000000e+01,5.500000000000000000e+01,7.000000000000000000e+01,1.660000000000000000e+02,2.490000000000000000e+02,6.700000000000000000e+01,4.699999999999999734e-01,7.842866600000000000e+09
8.900000000000000000e+01,6.300000000000000000e+01,8.100000000000000000e+01,5.700000000000000000e+01,7.000000000000000000e+01,1.510000000000000000e+02,2.230000000000000000e+02,6.900000000000000000e+01,4.699999999999999734e-01,7.861419600000000000e+09
8.600000000000000000e+01,5.400000000000000000e+01,8.100000000000000000e+01,5.600000000000000000e+01,6.800000000000000000e+01,1.440000000000000000e+02,2.150000000000000000e+02,6.900000000000000000e+01,4.699999999999999734e-01,7.881735400000000000e+09
6.400000000000000000e+01,4.700000000000000000e+01,8.200000000000000000e+01,5.400000000000000000e+01,6.700000000000000000e+01,1.520000000000000000e+02,2.120000000000000000e+02,6.000000000000000000e+01,4.699999999999999734e-01,7.900656100000000000e+09
6.200000000000000000e+01,4.400000000000000000e+01,9.000000000000000000e+01,5.300000000000000000e+01,6.100000000000000000e+01,1.480000000000000000e+02,2.140000000000000000e+02,4.700000000000000000e+01,4.699999999999999734e-01,7.919037800000000000e+09
6.100000000000000000e+01,3.600000000000000000e+01,9.400000000000000000e+01,5.300000000000000000e+01,5.100000000000000000e+01,1.160000000000000000e+02,1.810000000000000000e+02,4.800000000000000000e+01,4.699999999999999734e-01,7.936724500000000000e+09
5.100000000000000000e+01,3.100000000000000000e+01,9.200000000000000000e+01,4.800000000000000000e+01,4.900000000000000000e+01,1.030000000000000000e+02,1.640000000000000000e+02,3.900000000000000000e+01,4.699999999999999734e-01,7.955697900000000000e+09
5.700000000000000000e+01,3.500000000000000000e+01,8.900000000000000000e+01,4.900000000000000000e+01,5.000000000000000000e+01,1.050000000000000000e+02,1.970000000000000000e+02,3.800000000000000000e+01,4.699999999999999734e-01,7.977036000000000000e+09
6.300000000000000000e+01,3.600000000000000000e+01,7.800000000000000000e+01,4.800000000000000000e+01,4.400000000000000000e+01,1.170000000000000000e+02,1.920000000000000000e+02,4.300000000000000000e+01,4.699999999999999734e-01,7.994966300000000000e+09
6.300000000000000000e+01,3.800000000000000000e+01,5.000000000000000000e+01,4.500000000000000000e+01,5.300000000000000000e+01,1.370000000000000000e+02,2.120000000000000000e+02,5.000000000000000000e+01,4.699999999999999734e-01,8.012590200000000000e+09
6.200000000000000000e+01,3.900000000000000000e+01,4.400000000000000000e+01,4.100000000000000000e+01,5.300000000000000000e+01,1.530000000000000000e+02,2.290000000000000000e+02,5.000000000000000000e+01,4.699999999999999734e-01,8.032676800000000000e+09
5.900000000000000000e+01,4.200000000000000000e+01,5.800000000000000000e+01,4.400000000000000000e+01,5.200000000000000000e+01,1.620000000000000000e+02,2.500000000000000000e+02,4.800000000000000000e+01,4.699999999999999734e-01,8.054737700000000000e+09
5.700000000000000000e+01,4.200000000000000000e+01,5.800000000000000000e+01,4.800000000000000000e+01,5.700000000000000000e+01,1.830000000000000000e+02,3.040000000000000000e+02,5.200000000000000000e+01,4.699999999999999734e-01,8.077319400000000000e+09
6.000000000000000000e+01,4.300000000000000000e+01,5.900000000000000000e+01,5.200000000000000000e+01,6.700000000000000000e+01,1.690000000000000000e+02,3.360000000000000000e+02,5.400000000000000000e+01,4.699999999999999734e-01,8.096602200000000000e+09
6.000000000000000000e+01,4.300000000000000000e+01,5.900000000000000000e+01,5.500000000000000000e+01,6.000000000000000000e+01,1.580000000000000000e+02,3.350000000000000000e+02,5.200000000000000000e+01,4.799999999999999822e-01,8.115467300000000000e+09
6.100000000000000000e+01,4.600000000000000000e+01,5.600000000000000000e+01,5.400000000000000000e+01,6.100000000000000000e+01,1.620000000000000000e+02,3.430000000000000000e+02,5.400000000000000000e+01,4.799999999999999822e-01,8.135487800000000000e+09
6.000000000000000000e+01,5.100000000000000000e+01,4.900000000000000000e+01,5.900000000000000000e+01,6.500000000000000000e+01,1.700000000000000000e+02,3.460000000000000000e+02,5.600000000000000000e+01,4.799999999999999822e-01,8.154988700000000000e+09
6.000000000000000000e+01,5.000000000000000000e+01,4.700000000000000000e+01,6.000000000000000000e+01,6.900000000000000000e+01,1.580000000000000000e+02,2.970000000000000000e+02,6.000000000000000000e+01,4.799999999999999822e-01,8.177120700000000000e+09
5.400000000000000000e+01,5.000000000000000000e+01,5.900000000000000000e+01,6.000000000000000000e+01,6.600000000000000000e+01,1.760000000000000000e+02,3.060000000000000000e+02,6.900000000000000000e+01,4.799999999999999822e-01,8.195487000000000000e+09
5.900000000000000000e+01,5.400000000000000000e+01,6.200000000000000000e+01,5.400000000000000000e+01,6.600000000000000000e+01,1.920000000000000000e+02,3.400000000000000000e+02,6.600000000000000000e+01,4.799999999999999822e-01,8.213823900000000000e+09
7.000000000000000000e+01,5.500000000000000000e+01,6.400000000000000000e+01,5.300000000000000000e+01,6.700000000000000000e+01,1.810000000000000000e+02,3.270000000000000000e+02,6.400000000000000000e+01,4.799999999999999822e-01,8.232662000000000000e+09
6.900000000000000000e+01,5.000000000000000000e+01,5.900000000000000000e+01,5.400000000000000000e+01,7.100000000000000000e+01,1.700000000000000000e+02,3.410000000000000000e+02,6.800000000000000000e+01,4.799999999999999822e-01,8.254700700000000000e+09
7.500000000000000000e+01,5.200000000000000000e+01,6.500000000000000000e+01,4.800000000000000000e+01,6.500000000000000000e+01,1.620000000000000000e+02,3.290000000000000000e+02,6.500000000000000000e+01,4.799999999999999822e-01,8.277173800000000000e+09
7.300000000000000000e+01,5.000000000000000000e+01,6.700000000000000000e+01,5.100000000000000000e+01,6.500000000000000000e+01,1.590000000000000000e+02,3.090000000000000000e+02,5.100000000000000000e+01,4.799999999999999822e-01,8.294901200000000000e+09
7.700000000000000000e+01,4.900000000000000000e+01,6.300000000000000000e+01,5.200000000000000000e+01,6.300000000000000000e+01,1.390000000000000000e+02,2.610000000000000000e+02,5.800000000000000000e+01,4.799999999999999822e-01,8.313675400000000000e+09
6.300000000000000000e+01,4.500000000000000000e+01,6.000000000000000000e+01,5.200000000000000000e+01,6.300000000000000000e+01,1.390000000000000000e+02,2.620000000000000000e+02,5.700000000000000000e+01,4.799999999999999822e-01,8.332437800000000000e+09
6.400000000000000000e+01,4.700000000000000000e+01,6.100000000000000000e+01,4.700000000000000000e+01,5.400000000000000000e+01,1.380000000000000000e+02,2.410000000000000000e+02,5.200000000000000000e+01,4.799999999999999822e-01,8.354719700000000000e+09
8.100000000000000000e+01,5.000000000000000000e+01,7.100000000000000000e+01,4.400000000000000000e+01,5.100000000000000000e+01,1.370000000000000000e+02,2.380000000000000000e+02,7.700000000000000000e+01,4.799999999999999822e-01,8.376878900000000000e+09
8.700000000000000000e+01,6.400000000000000000e+01,8.900000000000000000e+01,4.200000000000000000e+01,4.700000000000000000e+01,1.160000000000000000e+02,2.410000000000000000e+02,1.240000000000000000e+02,4.799999999999999822e-01,8.395414900000000000e+09
8.300000000000000000e+01,7.000000000000000000e+01,1.050000000000000000e+02,4.100000000000000000e+01,4.800000000000000000e+01,1.140000000000000000e+02,2.390000000000000000e+02,1.250000000000000000e+02,4.799999999999999822e-01,8.413506200000000000e+09
8.600000000000000000e+01,7.200000000000000000e+01,1.100000000000000000e+02,4.800000000000000000e+01,5.700000000000000000e+01,1.200000000000000000e+02,2.370000000000000000e+02,1.280000000000000000e+02,4.699999999999999734e-01,8.434163000000000000e+09
9.300000000000000000e+01,7.500000000000000000e+01,1.150000000000000000e+02,5.000000000000000000e+01,5.500000000000000000e+01,1.140000000000000000e+02,2.230000000000000000e+02,1.300000000000000000e+02,4.699999999999999734e-01,8.456967400000000000e+09
7.600000000000000000e+01,7.400000000000000000e+01,1.100000000000000000e+02,5.100000000000000000e+01,5.500000000000000000e+01,1.120000000000000000e+02,2.370000000000000000e+02,1.210000000000000000e+02,4.699999999999999734e-01,8.475314300000000000e+09
8.500000000000000000e+01,9.100000000000000000e+01,9.500000000000000000e+01,4.700000000000000000e+01,5.300000000000000000e+01,1.290000000000000000e+02,1.910000000000000000e+02,9.700000000000000000e+01,4.699999999999999734e-01,8.494237800000000000e+09
8.600000000000000000e+01,9.000000000000000000e+01,8.600000000000000000e+01,4.700000000000000000e+01,5.200000000000000000e+01,1.330000000000000000e+02,2.150000000000000000e+02,1.010000000000000000e+02,4.699999999999999734e-01,8.514566500000000000e+09
9.100000000000000000e+01,9.200000000000000000e+01,9.200000000000000000e+01,4.500000000000000000e+01,4.600000000000000000e+01,1.170000000000000000e+02,2.090000000000000000e+02,1.010000000000000000e+02,4.699999999999999734e-01,8.537442400000000000e+09
8.900000000000000000e+01,9.700000000000000000e+01,8.800000000000000000e+01,4.300000000000000000e+01,4.300000000000000000e+01,1.170000000000000000e+02,2.130000000000000000e+02,1.150000000000000000e+02,4.699999999999999734e-01,8.555890200000000000e+09
8.900000000000000000e+01,9.700000000000000000e+01,8.600000000000000000e+01,4.300000000000000000e+01,4.100000000000000000e+01,1.200000000000000000e+02,2.060000000000000000e+02,1.110000000000000000e+02,4.699999999999999734e-01,8.574837600000000000e+09
9.800000000000000000e+01,7.400000000000000000e+01,7.900000000000000000e+01,4.400000000000000000e+01,4.300000000000000000e+01,9.800000000000000000e+01,2.060000000000000000e+02,9.900000000000000000e+01,4.699999999999999734e-01,8.593578600000000000e+09
9.900000000000000000e+01,8.000000000000000000e+01,8.900000000000000000e+01,4.900000000000000000e+01,4.200000000000000000e+01,9.600000000000000000e+01,1.970000000000000000e+02,1.050000000000000000e+02,4.699999999999999734e-01,8.614138300000000000e+09
1.000000000000000000e+02,8.400000000000000000e+01,8.000000000000000000e+01,4.300000000000000000e+01,3.600000000000000000e+01,1.150000000000000000e+02,2.380000000000000000e+02,1.020000000000000000e+02,4.699999999999999734e-01,8.636233100000000000e+09
1.030000000000000000e+02,7.600000000000000000e+01,7.600000000000000000e+01,4.000000000000000000e+01,3.500000000000000000e+01,1.230000000000000000e+02,2.430000000000000000e+02,8.800000000000000000e+01,4.699999999999999734e-01,8.654230800000000000e+09
1.300000000000000000e+02,8.900000000000000000e+01,7.300000000000000000e+01,4.300000000000000000e+01,3.700000000000000000e+01,1.120000000000000000e+02,2.520000000000000000e+02,9.700000000000000000e+01,4.699999999999999734e-01,8.674004100000000000e+09
1.150000000000000000e+02,9.700000000000000000e+01,7.000000000000000000e+01,4.200000000000000000e+01,3.600000000000000000e+01,1.160000000000000000e+02,2.480000000000000000e+02,9.600000000000000000e+01,4.699999999999999734e-01,8.692518000000000000e+09
1.260000000000000000e+02,9.800000000000000000e+01,5.200000000000000000e+01,4.000000000000000000e+01,3.700000000000000000e+01,1.260000000000000000e+02,2.410000000000000000e+02,9.000000000000000000e+01,4.799999999999999822e-01,8.714224000000000000e+09
1.390000000000000000e+02,1.290000000000000000e+02,5.100000000000000000e+01,4.200000000000000000e+01,3.500000000000000000e+01,1.130000000000000000e+02,2.050000000000000000e+02,9.400000000000000000e+01,4.799999999999999822e-01,8.736281300000000000e+09
1.400000000000000000e+02,1.800000000000000000e+02,6.400000000000000000e+01,4.900000000000000000e+01,4.100000000000000000e+01,1.110000000000000000e+02,1.820000000000000000e+02,9.500000000000000000e+01,4.799999999999999822e-01,8.754570600000000000e+09
1.310000000000000000e+02,1.870000000000000000e+02,6.400000000000000000e+01,5.000000000000000000e+01,4.600000000000000000e+01,1.120000000000000000e+02,1.510000000000000000e+02,8.500000000000000000e+01,4.799999999999999822e-01,8.773384600000000000e+09
1.340000000000000000e+02,1.860000000000000000e+02,6.600000000000000000e+01,5.100000000000000000e+01,5.200000000000000000e+01,1.120000000000000000e+02,1.750000000000000000e+02,7.500000000000000000e+01,4.799999999999999822e-01,8.792127900000000000e+09
1.210000000000000000e+02,1.820000000000000000e+02,8.300000000000000000e+01,5.900000000000000000e+01,5.900000000000000000e+01,9.900000000000000000e+01,1.700000000000000000e+02,6.400000000000000000e+01,4.799999999999999822e-01,8.813987300000000000e+09
1.030000000000000000e+02,1.590000000000000000e+02,9.900000000000000000e+01,7.500000000000000000e+01,7.300000000000000000e+01,1.010000000000000000e+02,1.880000000000000000e+02,5.600000000000000000e+01,4.899999999999999911e-01,8.836344100000000000e+09
9.700000000000000000e+01,9.700000000000000000e+01,1.110000000000000000e+02,7.100000000000000000e+01,7.600000000000000000e+01,1.060000000000000000e+02,2.150000000000000000e+02,5.100000000000000000e+01,4.899999999999999911e-01,8.854282100000000000e+09
7.300000000000000000e+01,6.700000000000000000e+01,1.550000000000000000e+02,8.000000000000000000e+01,7.500000000000000000e+01,1.270000000000000000e+02,2.540000000000000000e+02,5.300000000000000000e+01,4.899999999999999911e-01,8.873429100000000000e+09
7.500000000000000000e+01,5.300000000000000000e+01,1.690000000000000000e+02,8.600000000000000000e+01,7.500000000000000000e+01,1.260000000000000000e+02,2.470000000000000000e+02,6.100000000000000000e+01,4.899999999999999911e-01,8.892211300000000000e+09
7.300000000000000000e+01,5.000000000000000000e+01,1.830000000000000000e+02,9.800000000000000000e+01,8.500000000000000000e+01,1.350000000000000000e+02,2.540000000000000000e+02,5.800000000000000000e+01,4.899999999999999911e-01,8.914491500000000000e+09
6.800000000000000000e+01,4.300000000000000000e+01,1.800000000000000000e+02,9.100000000000000000e+01,7.500000000000000000e+01,1.320000000000000000e+02,2.480000000000000000e+02,5.800000000000000000e+01,4.899999999999999911e-01,8.951424100000000000e+09
8.400000000000000000e+01,4.200000000000000000e+01,1.810000000000000000e+02,9.300000000000000000e+01,7.100000000000000000e+01,1.410000000000000000e+02,2.590000000000000000e+02,7.200000000000000000e+01,4.899999999999999911e-01,8.970726600000000000e+09
9.100000000000000000e+01,5.400000000000000000e+01,1.810000000000000000e+02,8.800000000000000000e+01,6.900000000000000000e+01,1.270000000000000000e+02,2.300000000000000000e+02,8.800000000000000000e+01,4.899999999999999911e-01,8.988896000000000000e+09
8.800000000000000000e+01,7.100000000000000000e+01,1.680000000000000000e+02,8.600000000000000000e+01,6.800000000000000000e+01,1.210000000000000000e+02,2.190000000000000000e+02,9.000000000000000000e+01,4.899999999999999911e-01,9.006879400000000000e+09
1.030000000000000000e+02,7.500000000000000000e+01,1.470000000000000000e+02,6.700000000000000000e+01,5.500000000000000000e+01,1.190000000000000000e+02,2.740000000000000000e+02,9.500000000000000000e+01,4.899999999999999911e-01,9.025218000000000000e+09
1.110000000000000000e+02,7.700000000000000000e+01,1.410000000000000000e+02,6.100000000000000000e+01,5.200000000000000000e+01,1.270000000000000000e+02,2.930000000000000000e+02,9.900000000000000000e+01,4.899999999999999911e-01,9.042984900000000000e+09
9.900000000000000000e+01,8.600000000000000000e+01,1.270000000000000000e+02,5.900000000000000000e+01,5.200000000000000000e+01,1.220000000000000000e+02,2.840000000000000000e+02,9.500000000000000000e+01,4.899999999999999911e-01,9.061381200000000000e+09
1.140000000000000000e+02,8.300000000000000000e+01,8.900000000000000000e+01,5.700000000000000000e+01,5.100000000000000000e+01,1.320000000000000000e+02,2.940000000000000000e+02,8.300000000000000000e+01,4.899999999999999911e-01,9.079730500000000000e+09
1.110000000000000000e+02,7.000000000000000000e+01,1.260000000000000000e+02,5.800000000000000000e+01,6.000000000000000000e+01,1.320000000000000000e+02,2.940000000000000000e+02,7.800000000000000000e+01,4.899999999999999911e-01,9.097743800000000000e+09
1.000000000000000000e+02,6.500000000000000000e+01,1.540000000000000000e+02,5.800000000000000000e+01,7.100000000000000000e+01,1.260000000000000000e+02,2.350000000000000000e+02,7.200000000000000000e+01,4.899999999999999911e-01,9.117439800000000000e+09
9.900000000000000000e+01,6.500000000000000000e+01,1.770000000000000000e+02,5.900000000000000000e+01,7.400000000000000000e+01,1.320000000000000000e+02,2.140000000000000000e+02,7.300000000000000000e+01,4.899999999999999911e-01,9.136404700000000000e+09
1.070000000000000000e+02,5.400000000000000000e+01,1.870000000000000000e+02,6.400000000000000000e+01,7.500000000000000000e+01,1.190000000000000000e+02,2.100000000000000000e+02,6.800000000000000000e+01,4.799999999999999822e-01,9.154730200000000000e+09
9.300000000000000000e+01,5.100000000000000000e+01,1.890000000000000000e+02,6.100000000000000000e+01,8.200000000000000000e+01,1.200000000000000000e+02,2.210000000000000000e+02,7.200000000000000000e+01,4.799999999999999822e-01,9.176949600000000000e+09
9.400000000000000000e+01,6.000000000000000000e+01,1.930000000000000000e+02,6.600000000000000000e+01,7.400000000000000000e+01,2.330000000000000000e+02,2.320000000000000000e+02,8.000000000000000000e+01,4.799999999999999822e-01,9.197392800000000000e+09
9.900000000000000000e+01,6.300000000000000000e+01,1.880000000000000000e+02,6.800000000000000000e+01,5.800000000000000000e+01,3.080000000000000000e+02,2.810000000000000000e+02,8.500000000000000000e+01,4.699999999999999734e-01,9.217241400000000000e+09
1.180000000000000000e+02,6.200000000000000000e+01,1.840000000000000000e+02,6.700000000000000000e+01,5.500000000000000000e+01,3.110000000000000000e+02,3.000000000000000000e+02,8.800000000000000000e+01,4.699999999999999734e-01,9.235659000000000000e+09
1.110000000000000000e+02,6.900000000000000000e+01,2.090000000000000000e+02,7.100000000000000000e+01,6.400000000000000000e+01,3.170000000000000000e+02,2.920000000000000000e+02,8.400000000000000000e+01,4.699999999999999734e-01,9.254308100000000000e+09
1.050000000000000000e+02,7.300000000000000000e+01,2.110000000000000000e+02,7.400000000000000000e+01,6.100000000000000000e+01,3.210000000000000000e+02,2.830000000000000000e+02,7.700000000000000000e+01,4.699999999999999734e-01,9.276654700000000000e+09
1.060000000000000000e+02,7.000000000000000000e+01,1.920000000000000000e+02,6.600000000000000000e+01,6.100000000000000000e+01,3.320000000000000000e+02,3.210000000000000000e+02,7.200000000000000000e+01,4.699999999999999734e-01,9.295041900000000000e+09
1.190000000000000000e+02,7.300000000000000000e+01,1.890000000000000000e+02,6.600000000000000000e+01,6.100000000000000000e+01,2.950000000000000000e+02,3.010000000000000000e+02,7.000000000000000000e+01,4.699999999999999734e-01,9.313363200000000000e+09
9.400000000000000000e+01,7.000000000000000000e+01,1.880000000000000000e+02,7.100000000000000000e+01,6.300000000000000000e+01,2.870000000000000000e+02,2.790000000000000000e+02,5.700000000000000000e+01,4.699999999999999734e-01,9.331994700000000000e+09
1.000000000000000000e+02,6.200000000000000000e+01,1.580000000000000000e+02,6.700000000000000000e+01,5.400000000000000000e+01,2.840000000000000000e+02,2.750000000000000000e+02,6.500000000000000000e+01,4.699999999999999734e-01,9.354576500000000000e+09
1.000000000000000000e+02,5.600000000000000000e+01,1.440000000000000000e+02,6.300000000000000000e+01,4.700000000000000000e+01,2.790000000000000000e+02,3.270000000000000000e+02,6.000000000000000000e+01,4.699999999999999734e-01,9.376511700000000000e+09
1.090000000000000000e+02,4.700000000000000000e+01,1.620000000000000000e+02,7.000000000000000000e+01,4.600000000000000000e+01,1.740000000000000000e+02,3.210000000000000000e+02,5.800000000000000000e+01,4.799999999999999822e-01,9.394252400000000000e+09
9.500000000000000000e+01,3.900000000000000000e+01,1.550000000000000000e+02,6.800000000000000000e+01,5.000000000000000000e+01,1.240000000000000000e+02,3.340000000000000000e+02,6.800000000000000000e+01,4.799999999999999822e-01,9.413126300000000000e+09
1.060000000000000000e+02,4.100000000000000000e+01,1.470000000000000000e+02,7.100000000000000000e+01,5.300000000000000000e+01,1.320000000000000000e+02,3.370000000000000000e+02,7.000000000000000000e+01,4.799999999999999822e-01,9.432044000000000000e+09
1.070000000000000000e+02,4.300000000000000000e+01,1.440000000000000000e+02,7.100000000000000000e+01,6.200000000000000000e+01,1.330000000000000000e+02,3.740000000000000000e+02,6.900000000000000000e+01,4.799999999999999822e-01,9.454190300000000000e+09
1.070000000000000000e+02,4.300000000000000000e+01,1.500000000000000000e+02,7.500000000000000000e+01,6.900000000000000000e+01,1.240000000000000000e+02,3.340000000000000000e+02,7.000000000000000000e+01,4.799999999999999822e-01,9.476434300000000000e+09
9.700000000000000000e+01,4.500000000000000000e+01,1.280000000000000000e+02,7.000000000000000000e+01,7.100000000000000000e+01,1.320000000000000000e+02,3.080000000000000000e+02,7.700000000000000000e+01,4.799999999999999822e-01,9.494376400000000000e+09
1.120000000000000000e+02,4.400000000000000000e+01,1.770000000000000000e+02,7.900000000000000000e+01,7.400000000000000000e+01,1.200000000000000000e+02,2.930000000000000000e+02,6.700000000000000000e+01,4.799999999999999822e-01,9.513737000000000000e+09
1.090000000000000000e+02,5.000000000000000000e+01,2.260000000000000000e+02,8.300000000000000000e+01,7.100000000000000000e+01,1.090000000000000000e+02,3.050000000000000000e+02,7.300000000000000000e+01,4.799999999999999822e-01,9.533253800000000000e+09
1.000000000000000000e+02,4.400000000000000000e+01,2.280000000000000000e+02,7.800000000000000000e+01,6.200000000000000000e+01,1.000000000000000000e+02,2.640000000000000000e+02,7.400000000000000000e+01,4.799999999999999822e-01,9.556269000000000000e+09
1.120000000000000000e+02,4.500000000000000000e+01,2.340000000000000000e+02,7.400000000000000000e+01,5.800000000000000000e+01,1.430000000000000000e+02,2.570000000000000000e+02,7.500000000000000000e+01,4.799999999999999822e-01,9.574614300000000000e+09
1.270000000000000000e+02,4.300000000000000000e+01,2.460000000000000000e+02,8.200000000000000000e+01,5.700000000000000000e+01,1.350000000000000000e+02,2.510000000000000000e+02,6.900000000000000000e+01,4.799999999999999822e-01,9.592602900000000000e+09
1.160000000000000000e+02,4.800000000000000000e+01,2.350000000000000000e+02,7.500000000000000000e+01,4.900000000000000000e+01,2.090000000000000000e+02,2.700000000000000000e+02,8.000000000000000000e+01,4.799999999999999822e-01,9.613366500000000000e+09
1.090000000000000000e+02,4.400000000000000000e+01,1.830000000000000000e+02,7.000000000000000000e+01,4.900000000000000000e+01,2.630000000000000000e+02,2.500000000000000000e+02,7.200000000000000000e+01,4.799999999999999822e-01,9.635909900000000000e+09
1.340000000000000000e+02,5.500000000000000000e+01,2.150000000000000000e+02,8.300000000000000000e+01,5.000000000000000000e+01,3.030000000000000000e+02,3.160000000000000000e+02,8.200000000000000000e+01,4.799999999999999822e-01,9.653404900000000000e+09
1.240000000000000000e+02,5.700000000000000000e+01,2.160000000000000000e+02,8.800000000000000000e+01,5.700000000000000000e+01,3.050000000000000000e+02,3.070000000000000000e+02,9.000000000000000000e+01,4.799999999999999822e-01,9.671537900000000000e+09
1.150000000000000000e+02,5.800000000000000000e+01,2.030000000000000000e+02,8.800000000000000000e+01,6.400000000000000000e+01,3.090000000000000000e+02,3.160000000000000000e+02,1.000000000000000000e+02,4.899999999999999911e-01,9.692132400000000000e+09
1.160000000000000000e+02,5.800000000000000000e+01,1.890000000000000000e+02,8.600000000000000000e+01,6.300000000000000000e+01,3.430000000000000000e+02,2.800000000000000000e+02,9.500000000000000000e+01,4.899999999999999911e-01,9.714779100000000000e+09
1.200000000000000000e+02,5.600000000000000000e+01,1.930000000000000000e+02,8.600000000000000000e+01,6.000000000000000000e+01,4.400000000000000000e+02,2.800000000000000000e+02,1.000000000000000000e+02,4.899999999999999911e-01,9.737027600000000000e+09
1.060000000000000000e+02,6.200000000000000000e+01,2.210000000000000000e+02,7.600000000000000000e+01,5.800000000000000000e+01,4.470000000000000000e+02,2.780000000000000000e+02,9.000000000000000000e+01,5.000000000000000000e-01,9.759217200000000000e+09
1.090000000000000000e+02,6.400000000000000000e+01,5.530000000000000000e+02,6.900000000000000000e+01,4.700000000000000000e+01,4.370000000000000000e+02,2.810000000000000000e+02,8.200000000000000000e+01,5.000000000000000000e-01,9.777484100000000000e+09
1.020000000000000000e+02,7.300000000000000000e+01,5.990000000000000000e+02,7.100000000000000000e+01,3.900000000000000000e+01,4.450000000000000000e+02,3.240000000000000000e+02,7.200000000000000000e+01,5.100000000000000089e-01,9.795811500000000000e+09
1.270000000000000000e+02,1.110000000000000000e+02,6.490000000000000000e+02,7.100000000000000000e+01,5.300000000000000000e+01,5.030000000000000000e+02,3.680000000000000000e+02,8.800000000000000000e+01,5.100000000000000089e-01,9.814761600000000000e+09
1.650000000000000000e+02,2.750000000000000000e+02,6.640000000000000000e+02,7.200000000000000000e+01,6.300000000000000000e+01,6.490000000000000000e+02,4.060000000000000000e+02,9.900000000000000000e+01,5.200000000000000178e-01,9.836879300000000000e+09
2.140000000000000000e+02,3.630000000000000000e+02,6.510000000000000000e+02,8.100000000000000000e+01,6.600000000000000000e+01,7.130000000000000000e+02,3.640000000000000000e+02,1.040000000000000000e+02,5.400000000000000355e-01,9.855937100000000000e+09
6.980000000000000000e+02,3.680000000000000000e+02,4.260000000000000000e+02,8.700000000000000000e+01,7.100000000000000000e+01,7.340000000000000000e+02,3.850000000000000000e+02,1.160000000000000000e+02,5.500000000000000444e-01,9.874549800000000000e+09
9.850000000000000000e+02,4.380000000000000000e+02,3.900000000000000000e+02,9.800000000000000000e+01,7.700000000000000000e+01,7.360000000000000000e+02,3.470000000000000000e+02,1.630000000000000000e+02,5.500000000000000444e-01,9.892979800000000000e+09
1.052000000000000000e+03,4.690000000000000000e+02,3.010000000000000000e+02,1.020000000000000000e+02,7.800000000000000000e+01,6.700000000000000000e+02,3.010000000000000000e+02,1.610000000000000000e+02,5.500000000000000444e-01,9.914404600000000000e+09
1.130000000000000000e+03,4.030000000000000000e+02,2.700000000000000000e+02,1.000000000000000000e+02,7.900000000000000000e+01,4.350000000000000000e+02,3.100000000000000000e+02,1.580000000000000000e+02,5.500000000000000444e-01,9.936592400000000000e+09
1.127000000000000000e+03,3.340000000000000000e+02,2.790000000000000000e+02,9.300000000000000000e+01,8.200000000000000000e+01,2.760000000000000000e+02,3.100000000000000000e+02,1.540000000000000000e+02,5.400000000000000355e-01,9.954250600000000000e+09
9.140000000000000000e+02,3.330000000000000000e+02,2.450000000000000000e+02,9.500000000000000000e+01,9.300000000000000000e+01,2.080000000000000000e+02,3.110000000000000000e+02,1.450000000000000000e+02,5.300000000000000266e-01,9.972924600000000000e+09
5.980000000000000000e+02,2.360000000000000000e+02,1.910000000000000000e+02,7.900000000000000000e+01,8.800000000000000000e+01,1.780000000000000000e+02,3.480000000000000000e+02,8.600000000000000000e+01,5.300000000000000266e-01,9.992451400000000000e+09
4.660000000000000000e+02,1.430000000000000000e+02,1.810000000000000000e+02,7.600000000000000000e+01,8.300000000000000000e+01,1.510000000000000000e+02,3.710000000000000000e+02,7.000000000000000000e+01,5.200000000000000178e-01,1.001482080000000000e+10
1.940000000000000000e+02,1.240000000000000000e+02,1.840000000000000000e+02,7.800000000000000000e+01,7.700000000000000000e+01,1.190000000000000000e+02,3.280000000000000000e+02,5.600000000000000000e+01,5.200000000000000178e-01,1.003660910000000000e+10
1.690000000000000000e+02,9.700000000000000000e+01,1.500000000000000000e+02,7.800000000000000000e+01,7.200000000000000000e+01,1.040000000000000000e+02,3.850000000000000000e+02,6.700000000000000000e+01,5.200000000000000178e-01,1.005672890000000000e+10
1.560000000000000000e+02,8.400000000000000000e+01,1.550000000000000000e+02,6.900000000000000000e+01,5.200000000000000000e+01,1.990000000000000000e+02,3.840000000000000000e+02,7.600000000000000000e+01,5.100000000000000089e-01,1.007745460000000000e+10
1.470000000000000000e+02,7.000000000000000000e+01,1.510000000000000000e+02,6.300000000000000000e+01,4.900000000000000000e+01,2.320000000000000000e+02,3.410000000000000000e+02,8.600000000000000000e+01,4.899999999999999911e-01,1.009622170000000000e+10
1.340000000000000000e+02,8.200000000000000000e+01,1.330000000000000000e+02,6.100000000000000000e+01,4.400000000000000000e+01,2.340000000000000000e+02,3.710000000000000000e+02,8.700000000000000000e+01,4.899999999999999911e-01,1.011490220000000000e+10
1.410000000000000000e+02,8.600000000000000000e+01,1.130000000000000000e+02,5.400000000000000000e+01,4.500000000000000000e+01,2.490000000000000000e+02,4.000000000000000000e+02,9.200000000000000000e+01,4.799999999999999822e-01,1.013433020000000000e+10
1.270000000000000000e+02,8.700000000000000000e+01,1.080000000000000000e+02,5.300000000000000000e+01,4.100000000000000000e+01,2.470000000000000000e+02,3.500000000000000000e+02,8.600000000000000000e+01,4.799999999999999822e-01,1.015684180000000000e+10
1.150000000000000000e+02,8.600000000000000000e+01,9.800000000000000000e+01,5.300000000000000000e+01,4.600000000000000000e+01,1.810000000000000000e+02,3.290000000000000000e+02,7.900000000000000000e+01,4.899999999999999911e-01,1.017484050000000000e+10
1.030000000000000000e+02,8.300000000000000000e+01,1.190000000000000000e+02,5.700000000000000000e+01,5.100000000000000000e+01,1.940000000000000000e+02,3.750000000000000000e+02,6.800000000000000000e+01,4.899999999999999911e-01,1.019399630000000000e+10
9.800000000000000000e+01,7.100000000000000000e+01,1.220000000000000000e+02,4.900000000000000000e+01,5.200000000000000000e+01,1.900000000000000000e+02,3.250000000000000000e+02,6.500000000000000000e+01,4.899999999999999911e-01,1.021241980000000000e+10
1.040000000000000000e+02,9.200000000000000000e+01,1.190000000000000000e+02,5.400000000000000000e+01,5.200000000000000000e+01,1.710000000000000000e+02,2.890000000000000000e+02,5.800000000000000000e+01,5.000000000000000000e-01,1.023427640000000000e+10
9.300000000000000000e+01,8.700000000000000000e+01,1.190000000000000000e+02,6.000000000000000000e+01,5.900000000000000000e+01,1.730000000000000000e+02,3.260000000000000000e+02,5.300000000000000000e+01,5.000000000000000000e-01,1.025643640000000000e+10
9.300000000000000000e+01,8.300000000000000000e+01,1.110000000000000000e+02,6.200000000000000000e+01,6.200000000000000000e+01,1.690000000000000000e+02,3.200000000000000000e+02,5.200000000000000000e+01,5.000000000000000000e-01,1.027413470000000000e+10
9.600000000000000000e+01,8.200000000000000000e+01,9.700000000000000000e+01,5.800000000000000000e+01,5.600000000000000000e+01,9.700000000000000000e+01,2.610000000000000000e+02,4.700000000000000000e+01,4.899999999999999911e-01,1.029261600000000000e+10
9.400000000000000000e+01,7.800000000000000000e+01,1.110000000000000000e+02,6.200000000000000000e+01,5.400000000000000000e+01,1.080000000000000000e+02,2.770000000000000000e+02,4.900000000000000000e+01,4.899999999999999911e-01,1.031210770000000000e+10
1.080000000000000000e+02,4.500000000000000000e+01,1.150000000000000000e+02,5.900000000000000000e+01,5.300000000000000000e+01,1.220000000000000000e+02,2.710000000000000000e+02,5.100000000000000000e+01,4.899999999999999911e-01,1.033418750000000000e+10
