3.600000000000000000e+01,3.600000000000000000e+01,2.700000000000000000e+01,2.200000000000000000e+01,2.400000000000000000e+01,2.600000000000000000e+01,2.700000000000000000e+01,2.500000000000000000e+01,4.500000000000000111e-01,4.615655000000000000e+08
3.400000000000000000e+01,3.500000000000000000e+01,2.700000000000000000e+01,2.000000000000000000e+01,2.300000000000000000e+01,2.800000000000000000e+01,2.700000000000000000e+01,2.500000000000000000e+01,4.500000000000000111e-01,4.870411000000000000e+08
3.300000000000000000e+01,3.000000000000000000e+01,2.900000000000000000e+01,2.100000000000000000e+01,2.400000000000000000e+01,2.800000000000000000e+01,2.700000000000000000e+01,2.700000000000000000e+01,4.500000000000000111e-01,9.907568000000000000e+08
3.400000000000000000e+01,2.900000000000000000e+01,2.800000000000000000e+01,2.000000000000000000e+01,2.300000000000000000e+01,3.000000000000000000e+01,2.800000000000000000e+01,3.000000000000000000e+01,4.500000000000000111e-01,1.007974600000000000e+09
3.400000000000000000e+01,2.300000000000000000e+01,2.600000000000000000e+01,2.200000000000000000e+01,2.600000000000000000e+01,3.000000000000000000e+01,2.700000000000000000e+01,2.900000000000000000e+01,4.500000000000000111e-01,1.025872500000000000e+09
3.800000000000000000e+01,2.300000000000000000e+01,2.500000000000000000e+01,2.600000000000000000e+01,2.700000000000000000e+01,2.800000000000000000e+01,2.800000000000000000e+01,2.800000000000000000e+01,4.500000000000000111e-01,1.042747400000000000e+09
3.800000000000000000e+01,2.200000000000000000e+01,2.700000000000000000e+01,2.700000000000000000e+01,3.000000000000000000e+01,2.800000000000000000e+01,2.900000000000000000e+01,2.800000000000000000e+01,4.500000000000000111e-01,1.059722700000000000e+09
3.800000000000000000e+01,2.300000000000000000e+01,2.300000000000000000e+01,2.800000000000000000e+01,3.000000000000000000e+01,3.000000000000000000e+01,2.800000000000000000e+01,2.700000000000000000e+01,4.500000000000000111e-01,1.076368900000000000e+09
3.900000000000000000e+01,2.400000000000000000e+01,2.200000000000000000e+01,2.900000000000000000e+01,3.000000000000000000e+01,2.900000000000000000e+01,2.900000000000000000e+01,2.500000000000000000e+01,4.500000000000000111e-01,1.093643200000000000e+09
3.900000000000000000e+01,2.500000000000000000e+01,2.700000000000000000e+01,2.800000000000000000e+01,2.700000000000000000e+01,3.000000000000000000e+01,3.000000000000000000e+01,2.500000000000000000e+01,4.500000000000000111e-01,1.111506200000000000e+09
4.600000000000000000e+01,2.700000000000000000e+01,2.800000000000000000e+01,2.500000000000000000e+01,2.600000000000000000e+01,3.200000000000000000e+01,2.900000000000000000e+01,2.700000000000000000e+01,4.500000000000000111e-01,1.128094400000000000e+09
4.500000000000000000e+01,2.700000000000000000e+01,2.600000000000000000e+01,2.400000000000000000e+01,2.500000000000000000e+01,3.200000000000000000e+01,2.800000000000000000e+01,2.400000000000000000e+01,4.500000000000000111e-01,1.146376900000000000e+09
4.400000000000000000e+01,3.000000000000000000e+01,2.800000000000000000e+01,2.400000000000000000e+01,2.400000000000000000e+01,3.000000000000000000e+01,2.800000000000000000e+01,2.700000000000000000e+01,4.500000000000000111e-01,1.163319100000000000e+09
4.200000000000000000e+01,3.000000000000000000e+01,2.800000000000000000e+01,2.500000000000000000e+01,2.500000000000000000e+01,3.200000000000000000e+01,2.900000000000000000e+01,2.600000000000000000e+01,4.500000000000000111e-01,1.180319200000000000e+09
4.300000000000000000e+01,3.100000000000000000e+01,2.600000000000000000e+01,2.700000000000000000e+01,2.500000000000000000e+01,3.100000000000000000e+01,2.700000000000000000e+01,2.800000000000000000e+01,4.500000000000000111e-01,1.205834600000000000e+09
3.100000000000000000e+01,3.300000000000000000e+01,2.500000000000000000e+01,2.600000000000000000e+01,2.800000000000000000e+01,3.100000000000000000e+01,2.800000000000000000e+01,2.800000000000000000e+01,4.500000000000000111e-01,1.272875500000000000e+09
3.600000000000000000e+01,3.600000000000000000e+01,2.600000000000000000e+01,2.700000000000000000e+01,2.700000000000000000e+01,2.900000000000000000e+01,2.900000000000000000e+01,2.900000000000000000e+01,4.500000000000000111e-01,1.318249100000000000e+09
3.800000000000000000e+01,3.300000000000000000e+01,2.500000000000000000e+01,2.800000000000000000e+01,2.800000000000000000e+01,2.900000000000000000e+01,3.000000000000000000e+01,2.800000000000000000e+01,4.500000000000000111e-01,1.356394300000000000e+09
3.900000000000000000e+01,3.300000000000000000e+01,2.500000000000000000e+01,2.800000000000000000e+01,2.900000000000000000e+01,3.000000000000000000e+01,2.700000000000000000e+01,2.800000000000000000e+01,4.500000000000000111e-01,1.408889700000000000e+09
3.900000000000000000e+01,3.000000000000000000e+01,2.600000000000000000e+01,2.500000000000000000e+01,2.900000000000000000e+01,3.100000000000000000e+01,2.800000000000000000e+01,2.600000000000000000e+01,4.500000000000000111e-01,1.459307000000000000e+09
4.100000000000000000e+01,3.200000000000000000e+01,2.800000000000000000e+01,2.600000000000000000e+01,2.600000000000000000e+01,3.000000000000000000e+01,2.800000000000000000e+01,2.700000000000000000e+01,4.500000000000000111e-01,1.491767800000000000e+09
4.300000000000000000e+01,3.000000000000000000e+01,2.800000000000000000e+01,2.600000000000000000e+01,2.700000000000000000e+01,2.900000000000000000e+01,2.700000000000000000e+01,2.800000000000000000e+01,4.500000000000000111e-01,1.523831900000000000e+09
4.200000000000000000e+01,3.100000000000000000e+01,2.800000000000000000e+01,2.500000000000000000e+01,2.600000000000000000e+01,3.000000000000000000e+01,2.600000000000000000e+01,2.700000000000000000e+01,4.500000000000000111e-01,1.545498100000000000e+09
4.000000000000000000e+01,3.000000000000000000e+01,2.800000000000000000e+01,2.500000000000000000e+01,2.400000000000000000e+01,2.600000000000000000e+01,2.600000000000000000e+01,2.800000000000000000e+01,4.500000000000000111e-01,1.564286000000000000e+09
3.800000000000000000e+01,3.100000000000000000e+01,2.900000000000000000e+01,2.300000000000000000e+01,2.600000000000000000e+01,2.400000000000000000e+01,2.300000000000000000e+01,3.000000000000000000e+01,4.500000000000000111e-01,1.583249000000000000e+09
3.700000000000000000e+01,2.600000000000000000e+01,2.800000000000000000e+01,2.700000000000000000e+01,2.500000000000000000e+01,2.500000000000000000e+01,2.400000000000000000e+01,2.700000000000000000e+01,4.500000000000000111e-01,1.601531900000000000e+09
3.500000000000000000e+01,2.400000000000000000e+01,2.700000000000000000e+01,2.700000000000000000e+01,2.400000000000000000e+01,2.700000000000000000e+01,2.200000000000000000e+01,2.800000000000000000e+01,4.500000000000000111e-01,1.620103500000000000e+09
3.600000000000000000e+01,2.700000000000000000e+01,2.700000000000000000e+01,2.500000000000000000e+01,2.400000000000000000e+01,2.500000000000000000e+01,2.300000000000000000e+01,2.800000000000000000e+01,4.500000000000000111e-01,1.638034700000000000e+09
3.800000000000000000e+01,2.800000000000000000e+01,2.800000000000000000e+01,2.500000000000000000e+01,2.500000000000000000e+01,2.700000000000000000e+01,2.500000000000000000e+01,2.600000000000000000e+01,4.500000000000000111e-01,1.656082300000000000e+09
4.300000000000000000e+01,2.800000000000000000e+01,2.700000000000000000e+01,2.700000000000000000e+01,2.500000000000000000e+01,2.700000000000000000e+01,2.500000000000000000e+01,2.600000000000000000e+01,4.500000000000000111e-01,1.673642700000000000e+09
4.000000000000000000e+01,2.900000000000000000e+01,2.800000000000000000e+01,2.300000000000000000e+01,2.900000000000000000e+01,3.000000000000000000e+01,2.700000000000000000e+01,2.700000000000000000e+01,4.500000000000000111e-01,1.692381500000000000e+09
3.500000000000000000e+01,2.900000000000000000e+01,2.800000000000000000e+01,2.300000000000000000e+01,3.000000000000000000e+01,3.000000000000000000e+01,2.900000000000000000e+01,2.400000000000000000e+01,4.500000000000000111e-01,1.710799800000000000e+09
3.500000000000000000e+01,2.800000000000000000e+01,2.900000000000000000e+01,2.600000000000000000e+01,3.200000000000000000e+01,3.200000000000000000e+01,2.700000000000000000e+01,2.500000000000000000e+01,4.500000000000000111e-01,1.728577300000000000e+09
3.600000000000000000e+01,3.200000000000000000e+01,2.700000000000000000e+01,2.500000000000000000e+01,3.200000000000000000e+01,3.400000000000000000e+01,2.700000000000000000e+01,2.500000000000000000e+01,4.500000000000000111e-01,1.746412200000000000e+09
3.600000000000000000e+01,3.200000000000000000e+01,2.500000000000000000e+01,2.400000000000000000e+01,3.300000000000000000e+01,3.600000000000000000e+01,2.800000000000000000e+01,2.300000000000000000e+01,4.500000000000000111e-01,1.765866800000000000e+09
3.700000000000000000e+01,3.200000000000000000e+01,2.600000000000000000e+01,2.700000000000000000e+01,3.000000000000000000e+01,3.300000000000000000e+01,2.600000000000000000e+01,2.300000000000000000e+01,4.500000000000000111e-01,1.784369300000000000e+09
3.700000000000000000e+01,3.300000000000000000e+01,2.500000000000000000e+01,2.700000000000000000e+01,2.900000000000000000e+01,3.300000000000000000e+01,2.500000000000000000e+01,2.400000000000000000e+01,4.500000000000000111e-01,1.827665300000000000e+09
3.800000000000000000e+01,3.100000000000000000e+01,2.900000000000000000e+01,2.400000000000000000e+01,2.600000000000000000e+01,3.200000000000000000e+01,2.700000000000000000e+01,2.300000000000000000e+01,4.500000000000000111e-01,1.846200700000000000e+09
3.600000000000000000e+01,2.600000000000000000e+01,2.900000000000000000e+01,2.500000000000000000e+01,2.500000000000000000e+01,3.200000000000000000e+01,2.600000000000000000e+01,2.300000000000000000e+01,4.500000000000000111e-01,1.864479600000000000e+09
3.300000000000000000e+01,2.500000000000000000e+01,2.800000000000000000e+01,2.600000000000000000e+01,2.500000000000000000e+01,3.100000000000000000e+01,2.600000000000000000e+01,2.500000000000000000e+01,4.500000000000000111e-01,1.882767000000000000e+09
3.800000000000000000e+01,2.400000000000000000e+01,2.800000000000000000e+01,2.300000000000000000e+01,2.500000000000000000e+01,3.100000000000000000e+01,2.600000000000000000e+01,2.500000000000000000e+01,4.500000000000000111e-01,1.900631800000000000e+09
3.700000000000000000e+01,2.600000000000000000e+01,3.100000000000000000e+01,2.200000000000000000e+01,2.300000000000000000e+01,3.200000000000000000e+01,2.400000000000000000e+01,2.500000000000000000e+01,4.500000000000000111e-01,1.919500300000000000e+09
3.600000000000000000e+01,3.000000000000000000e+01,2.500000000000000000e+01,2.200000000000000000e+01,2.300000000000000000e+01,3.300000000000000000e+01,2.300000000000000000e+01,2.600000000000000000e+01,4.500000000000000111e-01,1.937217000000000000e+09
3.500000000000000000e+01,3.100000000000000000e+01,2.800000000000000000e+01,2.500000000000000000e+01,2.500000000000000000e+01,3.200000000000000000e+01,2.300000000000000000e+01,2.500000000000000000e+01,4.500000000000000111e-01,1.955268200000000000e+09
3.600000000000000000e+01,3.100000000000000000e+01,2.800000000000000000e+01,2.600000000000000000e+01,2.600000000000000000e+01,3.200000000000000000e+01,2.400000000000000000e+01,2.500000000000000000e+01,4.500000000000000111e-01,1.974125100000000000e+09
3.200000000000000000e+01,3.100000000000000000e+01,2.600000000000000000e+01,2.700000000000000000e+01,2.600000000000000000e+01,3.400000000000000000e+01,2.500000000000000000e+01,2.800000000000000000e+01,4.500000000000000111e-01,1.992549600000000000e+09
3.200000000000000000e+01,3.100000000000000000e+01,2.400000000000000000e+01,2.900000000000000000e+01,3.000000000000000000e+01,3.700000000000000000e+01,2.700000000000000000e+01,3.100000000000000000e+01,4.500000000000000111e-01,2.010327700000000000e+09
3.400000000000000000e+01,2.600000000000000000e+01,2.400000000000000000e+01,3.300000000000000000e+01,3.100000000000000000e+01,3.600000000000000000e+01,2.700000000000000000e+01,3.000000000000000000e+01,4.500000000000000111e-01,2.028555500000000000e+09
3.600000000000000000e+01,2.600000000000000000e+01,2.000000000000000000e+01,3.100000000000000000e+01,3.100000000000000000e+01,3.500000000000000000e+01,2.800000000000000000e+01,3.000000000000000000e+01,4.500000000000000111e-01,2.047276400000000000e+09
3.800000000000000000e+01,2.700000000000000000e+01,2.500000000000000000e+01,2.900000000000000000e+01,2.900000000000000000e+01,3.400000000000000000e+01,2.800000000000000000e+01,3.000000000000000000e+01,4.500000000000000111e-01,2.065098700000000000e+09
4.000000000000000000e+01,2.900000000000000000e+01,2.500000000000000000e+01,2.800000000000000000e+01,2.900000000000000000e+01,3.500000000000000000e+01,2.800000000000000000e+01,3.100000000000000000e+01,4.500000000000000111e-01,2.084435500000000000e+09
4.000000000000000000e+01,2.800000000000000000e+01,2.700000000000000000e+01,2.800000000000000000e+01,2.700000000000000000e+01,3.100000000000000000e+01,2.600000000000000000e+01,2.800000000000000000e+01,4.500000000000000111e-01,2.102249500000000000e+09
4.100000000000000000e+01,3.100000000000000000e+01,2.900000000000000000e+01,2.500000000000000000e+01,2.500000000000000000e+01,2.900000000000000000e+01,3.000000000000000000e+01,3.000000000000000000e+01,4.500000000000000111e-01,2.119974600000000000e+09
4.400000000000000000e+01,3.100000000000000000e+01,3.100000000000000000e+01,2.300000000000000000e+01,2.400000000000000000e+01,3.000000000000000000e+01,2.800000000000000000e+01,3.000000000000000000e+01,4.500000000000000111e-01,2.139048100000000000e+09
4.400000000000000000e+01,3.100000000000000000e+01,2.800000000000000000e+01,2.500000000000000000e+01,2.400000000000000000e+01,2.900000000000000000e+01,2.700000000000000000e+01,3.000000000000000000e+01,4.500000000000000111e-01,2.157792500000000000e+09
4.000000000000000000e+01,3.200000000000000000e+01,2.700000000000000000e+01,2.500000000000000000e+01,2.500000000000000000e+01,2.800000000000000000e+01,2.700000000000000000e+01,2.700000000000000000e+01,4.500000000000000111e-01,2.175604400000000000e+09
4.300000000000000000e+01,3.100000000000000000e+01,2.600000000000000000e+01,2.700000000000000000e+01,2.600000000000000000e+01,2.800000000000000000e+01,2.900000000000000000e+01,2.800000000000000000e+01,4.500000000000000111e-01,2.193327300000000000e+09
4.200000000000000000e+01,3.000000000000000000e+01,2.700000000000000000e+01,2.700000000000000000e+01,2.700000000000000000e+01,3.200000000000000000e+01,2.600000000000000000e+01,2.600000000000000000e+01,4.500000000000000111e-01,2.212438100000000000e+09
4.000000000000000000e+01,3.000000000000000000e+01,2.600000000000000000e+01,2.800000000000000000e+01,2.900000000000000000e+01,3.200000000000000000e+01,2.700000000000000000e+01,2.900000000000000000e+01,4.500000000000000111e-01,2.230470100000000000e+09
3.600000000000000000e+01,3.000000000000000000e+01,2.800000000000000000e+01,2.500000000000000000e+01,2.900000000000000000e+01,3.200000000000000000e+01,2.700000000000000000e+01,2.600000000000000000e+01,4.500000000000000111e-01,2.249987900000000000e+09
3.700000000000000000e+01,3.000000000000000000e+01,3.100000000000000000e+01,2.300000000000000000e+01,2.700000000000000000e+01,3.200000000000000000e+01,2.900000000000000000e+01,2.900000000000000000e+01,4.500000000000000111e-01,2.268379000000000000e+09
3.800000000000000000e+01,2.900000000000000000e+01,2.900000000000000000e+01,2.400000000000000000e+01,2.400000000000000000e+01,3.300000000000000000e+01,2.900000000000000000e+01,2.800000000000000000e+01,4.500000000000000111e-01,2.286102100000000000e+09
3.700000000000000000e+01,2.700000000000000000e+01,2.700000000000000000e+01,2.600000000000000000e+01,2.500000000000000000e+01,2.900000000000000000e+01,2.800000000000000000e+01,2.800000000000000000e+01,4.500000000000000111e-01,2.304585200000000000e+09
4.300000000000000000e+01,2.800000000000000000e+01,2.900000000000000000e+01,2.600000000000000000e+01,2.400000000000000000e+01,2.700000000000000000e+01,2.800000000000000000e+01,2.800000000000000000e+01,4.500000000000000111e-01,2.322379200000000000e+09
4.300000000000000000e+01,2.900000000000000000e+01,2.800000000000000000e+01,2.700000000000000000e+01,2.400000000000000000e+01,3.300000000000000000e+01,2.900000000000000000e+01,3.000000000000000000e+01,4.500000000000000111e-01,2.340320000000000000e+09
4.200000000000000000e+01,2.700000000000000000e+01,2.800000000000000000e+01,2.800000000000000000e+01,2.700000000000000000e+01,3.300000000000000000e+01,2.800000000000000000e+01,2.900000000000000000e+01,4.500000000000000111e-01,2.358072300000000000e+09
4.300000000000000000e+01,2.600000000000000000e+01,2.700000000000000000e+01,2.600000000000000000e+01,2.800000000000000000e+01,3.300000000000000000e+01,2.700000000000000000e+01,3.200000000000000000e+01,4.500000000000000111e-01,2.376484200000000000e+09
5.400000000000000000e+01,2.900000000000000000e+01,2.900000000000000000e+01,2.400000000000000000e+01,2.700000000000000000e+01,3.500000000000000000e+01,2.900000000000000000e+01,4.600000000000000000e+01,4.500000000000000111e-01,2.394490300000000000e+09
4.900000000000000000e+01,2.800000000000000000e+01,3.000000000000000000e+01,2.200000000000000000e+01,2.800000000000000000e+01,3.500000000000000000e+01,2.700000000000000000e+01,4.600000000000000000e+01,4.500000000000000111e-01,2.413465000000000000e+09
5.100000000000000000e+01,3.000000000000000000e+01,3.000000000000000000e+01,2.400000000000000000e+01,2.700000000000000000e+01,3.100000000000000000e+01,2.700000000000000000e+01,4.500000000000000000e+01,4.500000000000000111e-01,2.432144200000000000e+09
5.200000000000000000e+01,2.800000000000000000e+01,2.700000000000000000e+01,2.400000000000000000e+01,2.600000000000000000e+01,3.100000000000000000e+01,2.500000000000000000e+01,4.700000000000000000e+01,4.500000000000000111e-01,2.451041300000000000e+09
5.100000000000000000e+01,3.000000000000000000e+01,2.900000000000000000e+01,2.500000000000000000e+01,2.700000000000000000e+01,3.200000000000000000e+01,2.700000000000000000e+01,4.500000000000000000e+01,4.500000000000000111e-01,2.468800200000000000e+09
4.000000000000000000e+01,2.900000000000000000e+01,2.800000000000000000e+01,2.500000000000000000e+01,2.700000000000000000e+01,3.100000000000000000e+01,2.700000000000000000e+01,3.200000000000000000e+01,4.500000000000000111e-01,2.487609900000000000e+09
4.400000000000000000e+01,2.800000000000000000e+01,2.700000000000000000e+01,2.500000000000000000e+01,2.700000000000000000e+01,3.100000000000000000e+01,2.900000000000000000e+01,3.000000000000000000e+01,4.500000000000000111e-01,2.505276000000000000e+09
4.100000000000000000e+01,2.700000000000000000e+01,2.900000000000000000e+01,2.500000000000000000e+01,2.800000000000000000e+01,3.100000000000000000e+01,3.000000000000000000e+01,3.000000000000000000e+01,4.500000000000000111e-01,2.523485900000000000e+09
4.100000000000000000e+01,3.300000000000000000e+01,3.000000000000000000e+01,2.400000000000000000e+01,2.800000000000000000e+01,3.000000000000000000e+01,3.100000000000000000e+01,2.800000000000000000e+01,4.500000000000000111e-01,2.540911100000000000e+09
3.800000000000000000e+01,3.300000000000000000e+01,3.100000000000000000e+01,2.600000000000000000e+01,2.600000000000000000e+01,2.900000000000000000e+01,3.100000000000000000e+01,2.700000000000000000e+01,4.500000000000000111e-01,2.560473200000000000e+09
4.600000000000000000e+01,3.200000000000000000e+01,3.000000000000000000e+01,2.800000000000000000e+01,2.600000000000000000e+01,3.300000000000000000e+01,2.900000000000000000e+01,2.700000000000000000e+01,4.500000000000000111e-01,2.578580200000000000e+09
4.000000000000000000e+01,3.100000000000000000e+01,3.000000000000000000e+01,2.800000000000000000e+01,2.500000000000000000e+01,3.300000000000000000e+01,2.800000000000000000e+01,2.800000000000000000e+01,4.500000000000000111e-01,2.597255800000000000e+09
3.900000000000000000e+01,3.200000000000000000e+01,2.800000000000000000e+01,2.800000000000000000e+01,2.300000000000000000e+01,3.500000000000000000e+01,2.700000000000000000e+01,2.700000000000000000e+01,4.500000000000000111e-01,2.615085100000000000e+09
3.800000000000000000e+01,2.800000000000000000e+01,2.800000000000000000e+01,3.100000000000000000e+01,2.400000000000000000e+01,3.600000000000000000e+01,2.800000000000000000e+01,2.600000000000000000e+01,4.500000000000000111e-01,2.633015100000000000e+09
4.500000000000000000e+01,2.600000000000000000e+01,2.700000000000000000e+01,3.200000000000000000e+01,2.400000000000000000e+01,3.500000000000000000e+01,2.500000000000000000e+01,2.600000000000000000e+01,4.500000000000000111e-01,2.651330000000000000e+09
3.800000000000000000e+01,2.600000000000000000e+01,2.600000000000000000e+01,3.000000000000000000e+01,2.600000000000000000e+01,3.000000000000000000e+01,2.600000000000000000e+01,2.600000000000000000e+01,4.500000000000000111e-01,2.670260900000000000e+09
3.900000000000000000e+01,2.600000000000000000e+01,2.700000000000000000e+01,2.900000000000000000e+01,2.600000000000000000e+01,3.100000000000000000e+01,2.600000000000000000e+01,2.500000000000000000e+01,4.500000000000000111e-01,2.688827500000000000e+09
4.000000000000000000e+01,2.600000000000000000e+01,2.600000000000000000e+01,2.700000000000000000e+01,2.900000000000000000e+01,2.900000000000000000e+01,2.500000000000000000e+01,2.400000000000000000e+01,4.500000000000000111e-01,2.707863300000000000e+09
4.000000000000000000e+01,2.800000000000000000e+01,2.500000000000000000e+01,2.700000000000000000e+01,2.800000000000000000e+01,2.700000000000000000e+01,2.400000000000000000e+01,2.300000000000000000e+01,4.500000000000000111e-01,2.726254500000000000e+09
3.400000000000000000e+01,3.000000000000000000e+01,2.400000000000000000e+01,2.400000000000000000e+01,2.900000000000000000e+01,2.900000000000000000e+01,2.300000000000000000e+01,2.400000000000000000e+01,4.500000000000000111e-01,2.743848700000000000e+09
3.100000000000000000e+01,3.200000000000000000e+01,2.300000000000000000e+01,2.600000000000000000e+01,2.700000000000000000e+01,3.300000000000000000e+01,2.400000000000000000e+01,2.900000000000000000e+01,4.500000000000000111e-01,2.760602300000000000e+09
2.900000000000000000e+01,3.300000000000000000e+01,2.500000000000000000e+01,2.600000000000000000e+01,2.700000000000000000e+01,3.000000000000000000e+01,2.400000000000000000e+01,2.900000000000000000e+01,4.500000000000000111e-01,2.777989700000000000e+09
3.500000000000000000e+01,3.100000000000000000e+01,2.500000000000000000e+01,2.900000000000000000e+01,2.800000000000000000e+01,3.000000000000000000e+01,2.500000000000000000e+01,3.000000000000000000e+01,4.500000000000000111e-01,2.794979600000000000e+09
3.800000000000000000e+01,3.300000000000000000e+01,2.600000000000000000e+01,2.700000000000000000e+01,2.700000000000000000e+01,3.200000000000000000e+01,2.700000000000000000e+01,3.100000000000000000e+01,4.500000000000000111e-01,2.811636300000000000e+09
3.800000000000000000e+01,3.200000000000000000e+01,2.800000000000000000e+01,2.900000000000000000e+01,2.900000000000000000e+01,3.000000000000000000e+01,2.600000000000000000e+01,2.900000000000000000e+01,4.500000000000000111e-01,2.828813600000000000e+09
4.300000000000000000e+01,3.100000000000000000e+01,2.800000000000000000e+01,2.900000000000000000e+01,3.000000000000000000e+01,2.700000000000000000e+01,2.600000000000000000e+01,2.800000000000000000e+01,4.500000000000000111e-01,2.846019300000000000e+09
4.600000000000000000e+01,3.400000000000000000e+01,2.700000000000000000e+01,2.900000000000000000e+01,3.000000000000000000e+01,2.800000000000000000e+01,2.500000000000000000e+01,2.800000000000000000e+01,4.500000000000000111e-01,2.863230400000000000e+09
4.100000000000000000e+01,3.300000000000000000e+01,2.700000000000000000e+01,2.800000000000000000e+01,2.700000000000000000e+01,2.900000000000000000e+01,2.500000000000000000e+01,2.600000000000000000e+01,4.500000000000000111e-01,2.880990800000000000e+09
4.000000000000000000e+01,2.900000000000000000e+01,2.700000000000000000e+01,2.900000000000000000e+01,2.800000000000000000e+01,2.900000000000000000e+01,2.500000000000000000e+01,2.800000000000000000e+01,4.500000000000000111e-01,2.897965800000000000e+09
4.300000000000000000e+01,2.900000000000000000e+01,2.500000000000000000e+01,3.000000000000000000e+01,2.700000000000000000e+01,3.100000000000000000e+01,2.700000000000000000e+01,3.000000000000000000e+01,4.500000000000000111e-01,2.916691600000000000e+09
4.200000000000000000e+01,2.900000000000000000e+01,2.600000000000000000e+01,2.700000000000000000e+01,2.700000000000000000e+01,3.100000000000000000e+01,2.700000000000000000e+01,2.800000000000000000e+01,4.500000000000000111e-01,2.934504300000000000e+09
3.800000000000000000e+01,2.600000000000000000e+01,2.500000000000000000e+01,2.800000000000000000e+01,2.900000000000000000e+01,3.300000000000000000e+01,2.800000000000000000e+01,2.900000000000000000e+01,4.500000000000000111e-01,2.952582600000000000e+09
4.200000000000000000e+01,2.500000000000000000e+01,2.500000000000000000e+01,2.900000000000000000e+01,2.900000000000000000e+01,3.100000000000000000e+01,2.700000000000000000e+01,2.800000000000000000e+01,4.500000000000000111e-01,2.969793000000000000e+09
4.600000000000000000e+01,2.700000000000000000e+01,2.400000000000000000e+01,3.000000000000000000e+01,2.900000000000000000e+01,2.900000000000000000e+01,2.800000000000000000e+01,2.700000000000000000e+01,4.500000000000000111e-01,2.986393600000000000e+09
4.300000000000000000e+01,2.900000000000000000e+01,2.400000000000000000e+01,2.800000000000000000e+01,3.000000000000000000e+01,2.900000000000000000e+01,2.600000000000000000e+01,2.800000000000000000e+01,4.500000000000000111e-01,3.003157600000000000e+09
4.200000000000000000e+01,2.900000000000000000e+01,2.200000000000000000e+01,2.700000000000000000e+01,2.900000000000000000e+01,3.200000000000000000e+01,2.700000000000000000e+01,2.700000000000000000e+01,4.500000000000000111e-01,3.019536800000000000e+09
4.300000000000000000e+01,2.800000000000000000e+01,2.300000000000000000e+01,3.000000000000000000e+01,2.600000000000000000e+01,3.000000000000000000e+01,2.600000000000000000e+01,2.400000000000000000e+01,4.500000000000000111e-01,3.036324400000000000e+09
4.100000000000000000e+01,2.900000000000000000e+01,2.400000000000000000e+01,2.800000000000000000e+01,3.100000000000000000e+01,2.900000000000000000e+01,2.700000000000000000e+01,2.600000000000000000e+01,4.500000000000000111e-01,3.054539900000000000e+09
3.800000000000000000e+01,2.800000000000000000e+01,2.800000000000000000e+01,2.900000000000000000e+01,3.000000000000000000e+01,3.100000000000000000e+01,2.700000000000000000e+01,2.500000000000000000e+01,4.500000000000000111e-01,3.071442700000000000e+09
3.900000000000000000e+01,2.900000000000000000e+01,2.800000000000000000e+01,3.000000000000000000e+01,3.000000000000000000e+01,2.900000000000000000e+01,3.000000000000000000e+01,2.300000000000000000e+01,4.500000000000000111e-01,3.088374300000000000e+09
3.900000000000000000e+01,2.900000000000000000e+01,3.000000000000000000e+01,3.100000000000000000e+01,3.000000000000000000e+01,2.900000000000000000e+01,2.800000000000000000e+01,2.500000000000000000e+01,4.500000000000000111e-01,3.104875800000000000e+09
3.900000000000000000e+01,3.000000000000000000e+01,2.900000000000000000e+01,2.800000000000000000e+01,3.300000000000000000e+01,3.100000000000000000e+01,3.000000000000000000e+01,2.600000000000000000e+01,4.500000000000000111e-01,3.122506500000000000e+09
3.900000000000000000e+01,3.100000000000000000e+01,2.900000000000000000e+01,3.100000000000000000e+01,3.200000000000000000e+01,3.300000000000000000e+01,3.000000000000000000e+01,2.700000000000000000e+01,4.500000000000000111e-01,3.140089100000000000e+09
3.700000000000000000e+01,3.200000000000000000e+01,2.600000000000000000e+01,2.800000000000000000e+01,3.300000000000000000e+01,3.300000000000000000e+01,3.200000000000000000e+01,2.700000000000000000e+01,4.500000000000000111e-01,3.158135000000000000e+09
3.900000000000000000e+01,3.000000000000000000e+01,2.600000000000000000e+01,3.100000000000000000e+01,3.000000000000000000e+01,3.500000000000000000e+01,3.300000000000000000e+01,2.900000000000000000e+01,4.500000000000000111e-01,3.175060800000000000e+09
4.200000000000000000e+01,3.200000000000000000e+01,2.400000000000000000e+01,2.900000000000000000e+01,3.200000000000000000e+01,3.100000000000000000e+01,3.400000000000000000e+01,2.800000000000000000e+01,4.500000000000000111e-01,3.191829000000000000e+09
4.500000000000000000e+01,3.300000000000000000e+01,2.300000000000000000e+01,2.900000000000000000e+01,2.900000000000000000e+01,3.000000000000000000e+01,3.400000000000000000e+01,3.000000000000000000e+01,4.500000000000000111e-01,3.209512800000000000e+09
4.400000000000000000e+01,3.400000000000000000e+01,2.400000000000000000e+01,2.700000000000000000e+01,2.400000000000000000e+01,3.000000000000000000e+01,3.300000000000000000e+01,2.900000000000000000e+01,4.500000000000000111e-01,3.226623000000000000e+09
4.400000000000000000e+01,3.500000000000000000e+01,2.500000000000000000e+01,2.800000000000000000e+01,2.400000000000000000e+01,3.100000000000000000e+01,3.000000000000000000e+01,2.900000000000000000e+01,4.500000000000000111e-01,3.244868000000000000e+09
4.800000000000000000e+01,3.400000000000000000e+01,2.700000000000000000e+01,2.400000000000000000e+01,2.400000000000000000e+01,2.900000000000000000e+01,3.000000000000000000e+01,3.100000000000000000e+01,4.500000000000000111e-01,3.261868600000000000e+09
4.500000000000000000e+01,3.300000000000000000e+01,2.700000000000000000e+01,2.700000000000000000e+01,2.300000000000000000e+01,2.900000000000000000e+01,3.000000000000000000e+01,3.100000000000000000e+01,4.500000000000000111e-01,3.279841100000000000e+09
4.000000000000000000e+01,3.100000000000000000e+01,2.800000000000000000e+01,2.600000000000000000e+01,2.300000000000000000e+01,2.800000000000000000e+01,2.900000000000000000e+01,3.100000000000000000e+01,4.500000000000000111e-01,3.298279600000000000e+09
4.100000000000000000e+01,3.100000000000000000e+01,3.000000000000000000e+01,2.800000000000000000e+01,2.400000000000000000e+01,2.800000000000000000e+01,3.000000000000000000e+01,3.000000000000000000e+01,4.500000000000000111e-01,3.315436600000000000e+09
4.500000000000000000e+01,2.900000000000000000e+01,2.800000000000000000e+01,2.700000000000000000e+01,2.500000000000000000e+01,2.700000000000000000e+01,2.800000000000000000e+01,2.900000000000000000e+01,4.500000000000000111e-01,3.333028600000000000e+09
3.800000000000000000e+01,3.000000000000000000e+01,2.700000000000000000e+01,2.700000000000000000e+01,2.500000000000000000e+01,2.800000000000000000e+01,2.700000000000000000e+01,2.800000000000000000e+01,4.500000000000000111e-01,3.350183200000000000e+09
3.800000000000000000e+01,2.900000000000000000e+01,2.700000000000000000e+01,2.700000000000000000e+01,2.800000000000000000e+01,3.000000000000000000e+01,2.600000000000000000e+01,3.000000000000000000e+01,4.500000000000000111e-01,3.367928700000000000e+09
5.100000000000000000e+01,3.100000000000000000e+01,2.700000000000000000e+01,2.700000000000000000e+01,2.800000000000000000e+01,2.900000000000000000e+01,2.600000000000000000e+01,3.000000000000000000e+01,4.500000000000000111e-01,3.384865600000000000e+09
5.700000000000000000e+01,3.100000000000000000e+01,2.400000000000000000e+01,2.600000000000000000e+01,2.600000000000000000e+01,2.700000000000000000e+01,2.900000000000000000e+01,5.700000000000000000e+01,4.500000000000000111e-01,3.401837200000000000e+09
5.300000000000000000e+01,3.100000000000000000e+01,2.600000000000000000e+01,2.500000000000000000e+01,2.700000000000000000e+01,2.700000000000000000e+01,2.800000000000000000e+01,5.700000000000000000e+01,4.500000000000000111e-01,3.418337200000000000e+09
5.600000000000000000e+01,3.200000000000000000e+01,2.500000000000000000e+01,2.700000000000000000e+01,2.800000000000000000e+01,2.800000000000000000e+01,2.800000000000000000e+01,5.700000000000000000e+01,4.500000000000000111e-01,3.436814500000000000e+09
6.200000000000000000e+01,3.200000000000000000e+01,2.600000000000000000e+01,2.600000000000000000e+01,2.700000000000000000e+01,2.700000000000000000e+01,3.000000000000000000e+01,5.800000000000000000e+01,4.500000000000000111e-01,3.454507400000000000e+09
5.400000000000000000e+01,2.900000000000000000e+01,2.500000000000000000e+01,2.900000000000000000e+01,2.700000000000000000e+01,2.900000000000000000e+01,2.800000000000000000e+01,5.800000000000000000e+01,4.500000000000000111e-01,3.471746700000000000e+09
4.600000000000000000e+01,3.100000000000000000e+01,2.600000000000000000e+01,2.900000000000000000e+01,2.900000000000000000e+01,3.000000000000000000e+01,2.500000000000000000e+01,3.400000000000000000e+01,4.500000000000000111e-01,3.488817300000000000e+09
4.900000000000000000e+01,3.500000000000000000e+01,2.500000000000000000e+01,3.100000000000000000e+01,2.700000000000000000e+01,3.300000000000000000e+01,2.600000000000000000e+01,3.400000000000000000e+01,4.500000000000000111e-01,3.505469700000000000e+09
5.000000000000000000e+01,3.200000000000000000e+01,2.600000000000000000e+01,2.900000000000000000e+01,2.800000000000000000e+01,3.300000000000000000e+01,2.600000000000000000e+01,3.200000000000000000e+01,4.500000000000000111e-01,3.522023700000000000e+09
5.700000000000000000e+01,3.300000000000000000e+01,2.600000000000000000e+01,3.100000000000000000e+01,2.600000000000000000e+01,3.400000000000000000e+01,2.400000000000000000e+01,4.600000000000000000e+01,4.500000000000000111e-01,3.538460600000000000e+09
5.600000000000000000e+01,3.200000000000000000e+01,2.800000000000000000e+01,2.900000000000000000e+01,2.700000000000000000e+01,3.500000000000000000e+01,2.700000000000000000e+01,4.700000000000000000e+01,4.500000000000000111e-01,3.554788300000000000e+09
5.700000000000000000e+01,3.000000000000000000e+01,2.700000000000000000e+01,2.800000000000000000e+01,2.800000000000000000e+01,3.500000000000000000e+01,2.800000000000000000e+01,4.900000000000000000e+01,4.500000000000000111e-01,3.571395900000000000e+09
5.900000000000000000e+01,2.600000000000000000e+01,2.600000000000000000e+01,2.600000000000000000e+01,2.800000000000000000e+01,3.400000000000000000e+01,3.100000000000000000e+01,4.800000000000000000e+01,4.500000000000000111e-01,3.590066900000000000e+09
5.900000000000000000e+01,2.700000000000000000e+01,2.600000000000000000e+01,2.500000000000000000e+01,2.600000000000000000e+01,3.100000000000000000e+01,3.100000000000000000e+01,5.100000000000000000e+01,4.500000000000000111e-01,3.607644600000000000e+09
4.500000000000000000e+01,2.500000000000000000e+01,2.700000000000000000e+01,2.400000000000000000e+01,2.600000000000000000e+01,3.000000000000000000e+01,3.100000000000000000e+01,3.800000000000000000e+01,4.500000000000000111e-01,3.624634200000000000e+09
4.400000000000000000e+01,3.000000000000000000e+01,2.800000000000000000e+01,2.400000000000000000e+01,2.500000000000000000e+01,2.700000000000000000e+01,3.400000000000000000e+01,3.600000000000000000e+01,4.500000000000000111e-01,3.642121400000000000e+09
4.400000000000000000e+01,2.900000000000000000e+01,2.600000000000000000e+01,2.500000000000000000e+01,2.400000000000000000e+01,3.100000000000000000e+01,3.700000000000000000e+01,3.300000000000000000e+01,4.500000000000000111e-01,3.658693700000000000e+09
3.900000000000000000e+01,2.800000000000000000e+01,2.800000000000000000e+01,2.600000000000000000e+01,2.400000000000000000e+01,3.000000000000000000e+01,3.400000000000000000e+01,3.300000000000000000e+01,4.500000000000000111e-01,3.675521800000000000e+09
3.600000000000000000e+01,2.700000000000000000e+01,2.700000000000000000e+01,2.500000000000000000e+01,2.400000000000000000e+01,3.200000000000000000e+01,3.600000000000000000e+01,2.800000000000000000e+01,4.500000000000000111e-01,3.692829700000000000e+09
5.400000000000000000e+01,2.700000000000000000e+01,2.400000000000000000e+01,2.600000000000000000e+01,2.700000000000000000e+01,3.400000000000000000e+01,3.600000000000000000e+01,5.300000000000000000e+01,4.500000000000000111e-01,3.710055500000000000e+09
5.500000000000000000e+01,2.600000000000000000e+01,2.300000000000000000e+01,3.200000000000000000e+01,2.600000000000000000e+01,3.700000000000000000e+01,3.400000000000000000e+01,5.300000000000000000e+01,4.500000000000000111e-01,3.727707400000000000e+09
5.400000000000000000e+01,2.800000000000000000e+01,2.500000000000000000e+01,3.000000000000000000e+01,2.700000000000000000e+01,3.400000000000000000e+01,3.200000000000000000e+01,5.400000000000000000e+01,4.500000000000000111e-01,3.744499000000000000e+09
5.500000000000000000e+01,3.000000000000000000e+01,2.600000000000000000e+01,3.000000000000000000e+01,2.800000000000000000e+01,3.400000000000000000e+01,3.100000000000000000e+01,5.400000000000000000e+01,4.500000000000000111e-01,3.761141700000000000e+09
5.400000000000000000e+01,3.000000000000000000e+01,2.700000000000000000e+01,3.200000000000000000e+01,3.000000000000000000e+01,3.300000000000000000e+01,3.100000000000000000e+01,5.500000000000000000e+01,4.500000000000000111e-01,3.778573400000000000e+09
4.000000000000000000e+01,3.200000000000000000e+01,2.900000000000000000e+01,3.000000000000000000e+01,2.800000000000000000e+01,3.100000000000000000e+01,2.900000000000000000e+01,3.100000000000000000e+01,4.500000000000000111e-01,3.795769700000000000e+09
4.300000000000000000e+01,3.100000000000000000e+01,2.900000000000000000e+01,2.300000000000000000e+01,3.000000000000000000e+01,2.700000000000000000e+01,2.900000000000000000e+01,3.500000000000000000e+01,4.500000000000000111e-01,3.812537100000000000e+09
4.800000000000000000e+01,3.100000000000000000e+01,2.800000000000000000e+01,2.300000000000000000e+01,2.800000000000000000e+01,2.800000000000000000e+01,2.600000000000000000e+01,3.900000000000000000e+01,4.500000000000000111e-01,3.829315400000000000e+09
5.600000000000000000e+01,2.800000000000000000e+01,2.700000000000000000e+01,2.300000000000000000e+01,2.700000000000000000e+01,2.700000000000000000e+01,2.700000000000000000e+01,5.300000000000000000e+01,4.500000000000000111e-01,3.845783400000000000e+09
5.700000000000000000e+01,3.300000000000000000e+01,2.700000000000000000e+01,2.400000000000000000e+01,2.700000000000000000e+01,2.700000000000000000e+01,2.700000000000000000e+01,5.300000000000000000e+01,4.500000000000000111e-01,3.862418500000000000e+09
5.500000000000000000e+01,3.300000000000000000e+01,2.600000000000000000e+01,2.700000000000000000e+01,2.700000000000000000e+01,2.600000000000000000e+01,2.700000000000000000e+01,5.300000000000000000e+01,4.400000000000000022e-01,3.880178100000000000e+09
5.700000000000000000e+01,3.200000000000000000e+01,2.600000000000000000e+01,2.700000000000000000e+01,2.500000000000000000e+01,2.600000000000000000e+01,2.700000000000000000e+01,4.900000000000000000e+01,4.400000000000000022e-01,3.897203900000000000e+09
5.500000000000000000e+01,3.200000000000000000e+01,2.600000000000000000e+01,2.700000000000000000e+01,2.500000000000000000e+01,2.400000000000000000e+01,2.700000000000000000e+01,4.600000000000000000e+01,4.400000000000000022e-01,3.914320300000000000e+09
5.100000000000000000e+01,3.400000000000000000e+01,2.400000000000000000e+01,2.600000000000000000e+01,2.600000000000000000e+01,2.400000000000000000e+01,2.800000000000000000e+01,3.100000000000000000e+01,4.400000000000000022e-01,3.931754900000000000e+09
5.100000000000000000e+01,2.900000000000000000e+01,2.600000000000000000e+01,2.400000000000000000e+01,2.600000000000000000e+01,2.200000000000000000e+01,2.700000000000000000e+01,2.800000000000000000e+01,4.400000000000000022e-01,3.950751300000000000e+09
5.000000000000000000e+01,3.200000000000000000e+01,2.800000000000000000e+01,2.300000000000000000e+01,2.500000000000000000e+01,2.300000000000000000e+01,2.800000000000000000e+01,2.800000000000000000e+01,4.400000000000000022e-01,3.968257500000000000e+09
4.600000000000000000e+01,3.300000000000000000e+01,3.100000000000000000e+01,2.400000000000000000e+01,2.900000000000000000e+01,2.600000000000000000e+01,2.800000000000000000e+01,2.800000000000000000e+01,4.400000000000000022e-01,3.986830200000000000e+09
4.200000000000000000e+01,3.100000000000000000e+01,3.300000000000000000e+01,2.600000000000000000e+01,3.000000000000000000e+01,2.600000000000000000e+01,2.700000000000000000e+01,2.900000000000000000e+01,4.400000000000000022e-01,4.006157100000000000e+09
3.500000000000000000e+01,3.000000000000000000e+01,3.300000000000000000e+01,2.600000000000000000e+01,3.000000000000000000e+01,2.700000000000000000e+01,2.600000000000000000e+01,2.700000000000000000e+01,4.400000000000000022e-01,4.024342300000000000e+09
3.200000000000000000e+01,3.200000000000000000e+01,3.200000000000000000e+01,2.700000000000000000e+01,2.900000000000000000e+01,3.100000000000000000e+01,2.700000000000000000e+01,3.100000000000000000e+01,4.400000000000000022e-01,4.041012200000000000e+09
3.600000000000000000e+01,3.100000000000000000e+01,3.000000000000000000e+01,2.500000000000000000e+01,3.000000000000000000e+01,3.100000000000000000e+01,2.600000000000000000e+01,3.000000000000000000e+01,4.400000000000000022e-01,4.058378400000000000e+09
3.400000000000000000e+01,3.100000000000000000e+01,2.900000000000000000e+01,2.300000000000000000e+01,2.700000000000000000e+01,3.100000000000000000e+01,2.500000000000000000e+01,3.100000000000000000e+01,4.400000000000000022e-01,4.075414900000000000e+09
3.700000000000000000e+01,3.200000000000000000e+01,2.700000000000000000e+01,2.400000000000000000e+01,2.700000000000000000e+01,3.100000000000000000e+01,2.400000000000000000e+01,3.200000000000000000e+01,4.500000000000000111e-01,4.091892800000000000e+09
3.900000000000000000e+01,3.300000000000000000e+01,2.700000000000000000e+01,2.800000000000000000e+01,2.900000000000000000e+01,3.100000000000000000e+01,2.500000000000000000e+01,3.100000000000000000e+01,4.500000000000000111e-01,4.108932100000000000e+09
4.300000000000000000e+01,2.900000000000000000e+01,2.600000000000000000e+01,2.700000000000000000e+01,2.700000000000000000e+01,2.900000000000000000e+01,2.500000000000000000e+01,2.900000000000000000e+01,4.500000000000000111e-01,4.126464300000000000e+09
4.100000000000000000e+01,2.700000000000000000e+01,2.500000000000000000e+01,2.600000000000000000e+01,2.700000000000000000e+01,3.200000000000000000e+01,2.700000000000000000e+01,2.900000000000000000e+01,4.500000000000000111e-01,4.143946700000000000e+09
4.000000000000000000e+01,2.800000000000000000e+01,2.400000000000000000e+01,2.900000000000000000e+01,2.800000000000000000e+01,3.100000000000000000e+01,2.800000000000000000e+01,2.800000000000000000e+01,4.500000000000000111e-01,4.160815000000000000e+09
3.800000000000000000e+01,2.800000000000000000e+01,2.400000000000000000e+01,2.700000000000000000e+01,2.900000000000000000e+01,3.100000000000000000e+01,2.900000000000000000e+01,2.500000000000000000e+01,4.500000000000000111e-01,4.178725700000000000e+09
4.100000000000000000e+01,2.600000000000000000e+01,2.300000000000000000e+01,2.500000000000000000e+01,2.700000000000000000e+01,3.200000000000000000e+01,2.800000000000000000e+01,2.800000000000000000e+01,4.500000000000000111e-01,4.196275300000000000e+09
3.700000000000000000e+01,2.700000000000000000e+01,2.400000000000000000e+01,2.500000000000000000e+01,3.000000000000000000e+01,3.100000000000000000e+01,2.800000000000000000e+01,3.200000000000000000e+01,4.500000000000000111e-01,4.213813600000000000e+09
3.700000000000000000e+01,2.700000000000000000e+01,2.400000000000000000e+01,2.700000000000000000e+01,3.200000000000000000e+01,2.800000000000000000e+01,2.600000000000000000e+01,3.200000000000000000e+01,4.500000000000000111e-01,4.231104000000000000e+09
4.300000000000000000e+01,2.400000000000000000e+01,2.200000000000000000e+01,2.700000000000000000e+01,3.100000000000000000e+01,3.200000000000000000e+01,2.700000000000000000e+01,3.300000000000000000e+01,4.500000000000000111e-01,4.248782800000000000e+09
4.400000000000000000e+01,2.400000000000000000e+01,2.400000000000000000e+01,2.700000000000000000e+01,2.900000000000000000e+01,3.000000000000000000e+01,2.600000000000000000e+01,3.400000000000000000e+01,4.500000000000000111e-01,4.267487000000000000e+09
3.600000000000000000e+01,2.400000000000000000e+01,2.700000000000000000e+01,2.500000000000000000e+01,2.900000000000000000e+01,3.000000000000000000e+01,2.500000000000000000e+01,3.100000000000000000e+01,4.500000000000000111e-01,4.285475900000000000e+09
3.700000000000000000e+01,2.500000000000000000e+01,2.700000000000000000e+01,2.600000000000000000e+01,2.700000000000000000e+01,2.900000000000000000e+01,2.600000000000000000e+01,3.100000000000000000e+01,4.500000000000000111e-01,4.303104700000000000e+09
4.300000000000000000e+01,2.600000000000000000e+01,2.800000000000000000e+01,2.500000000000000000e+01,2.400000000000000000e+01,3.000000000000000000e+01,2.700000000000000000e+01,3.100000000000000000e+01,4.500000000000000111e-01,4.322137600000000000e+09
4.100000000000000000e+01,2.600000000000000000e+01,2.900000000000000000e+01,2.500000000000000000e+01,2.300000000000000000e+01,2.700000000000000000e+01,2.500000000000000000e+01,3.100000000000000000e+01,4.500000000000000111e-01,4.341043200000000000e+09
3.900000000000000000e+01,2.700000000000000000e+01,2.800000000000000000e+01,2.800000000000000000e+01,2.300000000000000000e+01,3.000000000000000000e+01,2.700000000000000000e+01,3.000000000000000000e+01,4.500000000000000111e-01,4.358549300000000000e+09
3.900000000000000000e+01,3.000000000000000000e+01,2.700000000000000000e+01,2.900000000000000000e+01,2.300000000000000000e+01,2.900000000000000000e+01,2.600000000000000000e+01,3.000000000000000000e+01,4.500000000000000111e-01,4.376864500000000000e+09
4.600000000000000000e+01,3.200000000000000000e+01,2.700000000000000000e+01,2.900000000000000000e+01,2.400000000000000000e+01,3.300000000000000000e+01,2.900000000000000000e+01,3.000000000000000000e+01,4.500000000000000111e-01,4.394330100000000000e+09
6.100000000000000000e+01,3.300000000000000000e+01,2.600000000000000000e+01,2.800000000000000000e+01,2.500000000000000000e+01,3.300000000000000000e+01,3.000000000000000000e+01,4.900000000000000000e+01,4.500000000000000111e-01,4.412115200000000000e+09
6.000000000000000000e+01,3.300000000000000000e+01,2.500000000000000000e+01,2.600000000000000000e+01,2.800000000000000000e+01,3.300000000000000000e+01,3.500000000000000000e+01,5.100000000000000000e+01,4.500000000000000111e-01,4.429967700000000000e+09
6.200000000000000000e+01,3.400000000000000000e+01,2.800000000000000000e+01,2.600000000000000000e+01,3.000000000000000000e+01,3.300000000000000000e+01,3.400000000000000000e+01,5.200000000000000000e+01,4.500000000000000111e-01,4.447171300000000000e+09
6.500000000000000000e+01,3.300000000000000000e+01,2.800000000000000000e+01,2.400000000000000000e+01,3.100000000000000000e+01,3.300000000000000000e+01,3.400000000000000000e+01,5.400000000000000000e+01,4.500000000000000111e-01,4.465581000000000000e+09
6.100000000000000000e+01,3.300000000000000000e+01,3.000000000000000000e+01,2.300000000000000000e+01,3.000000000000000000e+01,3.100000000000000000e+01,3.500000000000000000e+01,5.200000000000000000e+01,4.500000000000000111e-01,4.484797000000000000e+09
4.300000000000000000e+01,3.300000000000000000e+01,2.900000000000000000e+01,2.600000000000000000e+01,3.000000000000000000e+01,3.100000000000000000e+01,3.100000000000000000e+01,3.400000000000000000e+01,4.500000000000000111e-01,4.506934800000000000e+09
4.400000000000000000e+01,3.300000000000000000e+01,3.000000000000000000e+01,2.900000000000000000e+01,2.800000000000000000e+01,3.100000000000000000e+01,2.700000000000000000e+01,3.100000000000000000e+01,4.500000000000000111e-01,4.529478700000000000e+09
5.800000000000000000e+01,3.000000000000000000e+01,3.000000000000000000e+01,2.600000000000000000e+01,2.800000000000000000e+01,2.800000000000000000e+01,3.000000000000000000e+01,3.000000000000000000e+01,4.500000000000000111e-01,4.547957900000000000e+09
5.600000000000000000e+01,2.800000000000000000e+01,3.000000000000000000e+01,3.900000000000000000e+01,2.700000000000000000e+01,2.900000000000000000e+01,3.200000000000000000e+01,2.800000000000000000e+01,4.500000000000000111e-01,4.566263700000000000e+09
5.700000000000000000e+01,2.500000000000000000e+01,3.100000000000000000e+01,4.400000000000000000e+01,2.500000000000000000e+01,2.600000000000000000e+01,3.300000000000000000e+01,2.600000000000000000e+01,4.500000000000000111e-01,4.584683700000000000e+09
5.400000000000000000e+01,2.200000000000000000e+01,4.000000000000000000e+01,5.900000000000000000e+01,2.900000000000000000e+01,2.800000000000000000e+01,3.600000000000000000e+01,2.600000000000000000e+01,4.500000000000000111e-01,4.606929000000000000e+09
5.200000000000000000e+01,2.500000000000000000e+01,4.100000000000000000e+01,6.400000000000000000e+01,2.900000000000000000e+01,2.900000000000000000e+01,3.500000000000000000e+01,2.700000000000000000e+01,4.500000000000000111e-01,4.629054700000000000e+09
3.600000000000000000e+01,2.500000000000000000e+01,4.600000000000000000e+01,1.330000000000000000e+02,4.300000000000000000e+01,5.800000000000000000e+01,3.300000000000000000e+01,2.400000000000000000e+01,4.600000000000000200e-01,4.647219800000000000e+09
4.000000000000000000e+01,2.800000000000000000e+01,5.700000000000000000e+01,2.310000000000000000e+02,4.700000000000000000e+01,6.300000000000000000e+01,3.400000000000000000e+01,2.700000000000000000e+01,4.699999999999999734e-01,4.666933400000000000e+09
4.000000000000000000e+01,2.800000000000000000e+01,6.200000000000000000e+01,2.600000000000000000e+02,5.200000000000000000e+01,6.900000000000000000e+01,3.100000000000000000e+01,3.100000000000000000e+01,4.799999999999999822e-01,4.686737400000000000e+09
3.900000000000000000e+01,3.000000000000000000e+01,6.200000000000000000e+01,2.690000000000000000e+02,1.010000000000000000e+02,9.000000000000000000e+01,3.800000000000000000e+01,3.000000000000000000e+01,4.899999999999999911e-01,4.706858000000000000e+09
4.300000000000000000e+01,2.800000000000000000e+01,6.400000000000000000e+01,2.810000000000000000e+02,1.180000000000000000e+02,9.800000000000000000e+01,4.500000000000000000e+01,3.200000000000000000e+01,5.000000000000000000e-01,4.729115300000000000e+09
3.900000000000000000e+01,3.100000000000000000e+01,6.500000000000000000e+01,2.730000000000000000e+02,1.180000000000000000e+02,1.040000000000000000e+02,6.600000000000000000e+01,3.400000000000000000e+01,5.100000000000000089e-01,4.748331400000000000e+09
3.400000000000000000e+01,2.900000000000000000e+01,5.900000000000000000e+01,2.400000000000000000e+02,1.360000000000000000e+02,1.290000000000000000e+02,7.700000000000000000e+01,3.500000000000000000e+01,5.100000000000000089e-01,4.766721500000000000e+09
3.800000000000000000e+01,3.200000000000000000e+01,6.000000000000000000e+01,2.610000000000000000e+02,1.490000000000000000e+02,1.320000000000000000e+02,9.500000000000000000e+01,3.700000000000000000e+01,5.200000000000000178e-01,4.784714900000000000e+09
4.500000000000000000e+01,3.100000000000000000e+01,5.700000000000000000e+01,2.720000000000000000e+02,1.270000000000000000e+02,1.190000000000000000e+02,1.000000000000000000e+02,4.200000000000000000e+01,5.300000000000000266e-01,4.806768900000000000e+09
4.400000000000000000e+01,3.200000000000000000e+01,5.800000000000000000e+01,2.730000000000000000e+02,1.480000000000000000e+02,2.230000000000000000e+02,1.070000000000000000e+02,4.100000000000000000e+01,5.400000000000000355e-01,4.829514400000000000e+09
4.800000000000000000e+01,3.300000000000000000e+01,5.600000000000000000e+01,2.870000000000000000e+02,1.730000000000000000e+02,2.560000000000000000e+02,1.180000000000000000e+02,4.800000000000000000e+01,5.500000000000000444e-01,4.848839000000000000e+09
4.800000000000000000e+01,3.600000000000000000e+01,5.700000000000000000e+01,2.730000000000000000e+02,1.930000000000000000e+02,2.600000000000000000e+02,1.200000000000000000e+02,4.700000000000000000e+01,5.500000000000000444e-01,4.867793900000000000e+09
4.600000000000000000e+01,3.700000000000000000e+01,5.500000000000000000e+01,2.610000000000000000e+02,1.870000000000000000e+02,2.780000000000000000e+02,1.150000000000000000e+02,4.500000000000000000e+01,5.500000000000000444e-01,4.887294000000000000e+09
4.000000000000000000e+01,3.800000000000000000e+01,6.100000000000000000e+01,2.450000000000000000e+02,1.930000000000000000e+02,2.970000000000000000e+02,1.190000000000000000e+02,4.600000000000000000e+01,5.500000000000000444e-01,4.909309700000000000e+09
4.000000000000000000e+01,3.900000000000000000e+01,6.600000000000000000e+01,2.430000000000000000e+02,1.760000000000000000e+02,2.300000000000000000e+02,1.200000000000000000e+02,5.100000000000000000e+01,5.400000000000000355e-01,4.927788400000000000e+09
3.400000000000000000e+01,3.800000000000000000e+01,7.100000000000000000e+01,2.200000000000000000e+02,1.650000000000000000e+02,2.080000000000000000e+02,1.070000000000000000e+02,4.600000000000000000e+01,5.400000000000000355e-01,4.946938400000000000e+09
3.600000000000000000e+01,4.100000000000000000e+01,8.400000000000000000e+01,2.010000000000000000e+02,1.710000000000000000e+02,1.990000000000000000e+02,1.090000000000000000e+02,4.700000000000000000e+01,5.400000000000000355e-01,4.966321300000000000e+09
3.300000000000000000e+01,4.100000000000000000e+01,8.400000000000000000e+01,1.620000000000000000e+02,1.920000000000000000e+02,2.020000000000000000e+02,1.060000000000000000e+02,4.600000000000000000e+01,5.400000000000000355e-01,4.989196500000000000e+09
3.400000000000000000e+01,4.400000000000000000e+01,8.000000000000000000e+01,1.540000000000000000e+02,1.930000000000000000e+02,1.810000000000000000e+02,1.220000000000000000e+02,4.500000000000000000e+01,5.400000000000000355e-01,5.007199000000000000e+09
3.400000000000000000e+01,4.200000000000000000e+01,8.000000000000000000e+01,1.480000000000000000e+02,2.010000000000000000e+02,1.800000000000000000e+02,1.200000000000000000e+02,4.200000000000000000e+01,5.400000000000000355e-01,5.028282500000000000e+09
3.800000000000000000e+01,4.100000000000000000e+01,7.700000000000000000e+01,1.540000000000000000e+02,2.110000000000000000e+02,1.560000000000000000e+02,1.160000000000000000e+02,4.000000000000000000e+01,5.300000000000000266e-01,5.048280500000000000e+09
3.800000000000000000e+01,4.200000000000000000e+01,7.300000000000000000e+01,1.490000000000000000e+02,2.120000000000000000e+02,1.820000000000000000e+02,1.160000000000000000e+02,4.600000000000000000e+01,5.300000000000000266e-01,5.067302900000000000e+09
3.900000000000000000e+01,3.900000000000000000e+01,8.900000000000000000e+01,1.560000000000000000e+02,2.080000000000000000e+02,1.540000000000000000e+02,1.200000000000000000e+02,4.700000000000000000e+01,5.200000000000000178e-01,5.089469900000000000e+09
3.900000000000000000e+01,3.600000000000000000e+01,8.800000000000000000e+01,1.610000000000000000e+02,2.090000000000000000e+02,1.480000000000000000e+02,1.260000000000000000e+02,4.600000000000000000e+01,5.200000000000000178e-01,5.108471300000000000e+09
3.800000000000000000e+01,4.300000000000000000e+01,9.000000000000000000e+01,1.640000000000000000e+02,2.040000000000000000e+02,1.550000000000000000e+02,1.290000000000000000e+02,4.700000000000000000e+01,5.100000000000000089e-01,5.127315400000000000e+09
3.800000000000000000e+01,4.500000000000000000e+01,8.800000000000000000e+01,1.580000000000000000e+02,1.930000000000000000e+02,1.780000000000000000e+02,1.340000000000000000e+02,4.800000000000000000e+01,5.100000000000000089e-01,5.146039900000000000e+09
3.600000000000000000e+01,4.600000000000000000e+01,8.600000000000000000e+01,1.740000000000000000e+02,1.640000000000000000e+02,1.540000000000000000e+02,1.400000000000000000e+02,4.700000000000000000e+01,5.100000000000000089e-01,5.167127500000000000e+09
3.500000000000000000e+01,4.900000000000000000e+01,7.400000000000000000e+01,1.700000000000000000e+02,1.700000000000000000e+02,1.500000000000000000e+02,1.600000000000000000e+02,5.100000000000000000e+01,5.100000000000000089e-01,5.189488400000000000e+09
3.500000000000000000e+01,5.500000000000000000e+01,7.900000000000000000e+01,1.710000000000000000e+02,1.600000000000000000e+02,1.480000000000000000e+02,1.410000000000000000e+02,5.200000000000000000e+01,5.100000000000000089e-01,5.208721900000000000e+09
3.500000000000000000e+01,6.600000000000000000e+01,1.030000000000000000e+02,2.060000000000000000e+02,1.620000000000000000e+02,1.560000000000000000e+02,1.480000000000000000e+02,5.200000000000000000e+01,5.100000000000000089e-01,5.226612500000000000e+09
3.400000000000000000e+01,6.800000000000000000e+01,1.070000000000000000e+02,2.150000000000000000e+02,1.620000000000000000e+02,1.390000000000000000e+02,1.740000000000000000e+02,5.200000000000000000e+01,5.100000000000000089e-01,5.244492600000000000e+09
3.800000000000000000e+01,6.900000000000000000e+01,1.060000000000000000e+02,2.050000000000000000e+02,1.700000000000000000e+02,1.530000000000000000e+02,1.790000000000000000e+02,4.800000000000000000e+01,5.200000000000000178e-01,5.266590100000000000e+09
4.000000000000000000e+01,6.900000000000000000e+01,1.030000000000000000e+02,2.130000000000000000e+02,1.830000000000000000e+02,1.590000000000000000e+02,1.600000000000000000e+02,5.100000000000000000e+01,5.200000000000000178e-01,5.288844100000000000e+09
4.000000000000000000e+01,7.100000000000000000e+01,1.000000000000000000e+02,2.170000000000000000e+02,1.930000000000000000e+02,1.600000000000000000e+02,1.640000000000000000e+02,4.900000000000000000e+01,5.200000000000000178e-01,5.306886200000000000e+09
3.900000000000000000e+01,7.000000000000000000e+01,7.400000000000000000e+01,1.850000000000000000e+02,1.970000000000000000e+02,1.520000000000000000e+02,1.670000000000000000e+02,4.600000000000000000e+01,5.200000000000000178e-01,5.324927800000000000e+09
3.700000000000000000e+01,7.700000000000000000e+01,1.120000000000000000e+02,1.700000000000000000e+02,2.070000000000000000e+02,1.540000000000000000e+02,1.520000000000000000e+02,4.600000000000000000e+01,5.300000000000000266e-01,5.344598000000000000e+09
3.200000000000000000e+01,7.700000000000000000e+01,1.280000000000000000e+02,1.790000000000000000e+02,2.090000000000000000e+02,1.280000000000000000e+02,1.640000000000000000e+02,5.000000000000000000e+01,5.300000000000000266e-01,5.366633000000000000e+09
3.100000000000000000e+01,8.800000000000000000e+01,1.380000000000000000e+02,1.700000000000000000e+02,1.810000000000000000e+02,1.450000000000000000e+02,1.640000000000000000e+02,4.400000000000000000e+01,5.300000000000000266e-01,5.388828500000000000e+09
3.900000000000000000e+01,8.500000000000000000e+01,1.520000000000000000e+02,1.960000000000000000e+02,2.230000000000000000e+02,2.060000000000000000e+02,1.830000000000000000e+02,4.700000000000000000e+01,5.300000000000000266e-01,5.407467800000000000e+09
4.800000000000000000e+01,8.300000000000000000e+01,1.690000000000000000e+02,2.610000000000000000e+02,2.690000000000000000e+02,2.110000000000000000e+02,2.110000000000000000e+02,5.800000000000000000e+01,5.200000000000000178e-01,5.426792800000000000e+09
6.000000000000000000e+01,1.040000000000000000e+02,1.470000000000000000e+02,3.100000000000000000e+02,3.060000000000000000e+02,2.120000000000000000e+02,2.690000000000000000e+02,6.500000000000000000e+01,5.200000000000000178e-01,5.447014200000000000e+09
7.600000000000000000e+01,1.050000000000000000e+02,1.320000000000000000e+02,3.090000000000000000e+02,2.990000000000000000e+02,2.170000000000000000e+02,2.810000000000000000e+02,7.700000000000000000e+01,5.100000000000000089e-01,5.466495200000000000e+09
9.400000000000000000e+01,1.140000000000000000e+02,1.500000000000000000e+02,3.320000000000000000e+02,2.980000000000000000e+02,2.130000000000000000e+02,2.990000000000000000e+02,8.400000000000000000e+01,5.000000000000000000e-01,5.488705500000000000e+09
1.950000000000000000e+02,1.240000000000000000e+02,1.690000000000000000e+02,3.770000000000000000e+02,2.750000000000000000e+02,1.670000000000000000e+02,3.210000000000000000e+02,1.130000000000000000e+02,5.000000000000000000e-01,5.506454000000000000e+09
3.200000000000000000e+02,1.920000000000000000e+02,1.890000000000000000e+02,3.670000000000000000e+02,2.390000000000000000e+02,1.650000000000000000e+02,3.440000000000000000e+02,1.380000000000000000e+02,4.899999999999999911e-01,5.525441300000000000e+09
4.260000000000000000e+02,2.040000000000000000e+02,3.350000000000000000e+02,3.870000000000000000e+02,2.290000000000000000e+02,1.610000000000000000e+02,3.200000000000000000e+02,1.590000000000000000e+02,4.799999999999999822e-01,5.544404300000000000e+09
6.150000000000000000e+02,3.160000000000000000e+02,6.690000000000000000e+02,4.580000000000000000e+02,2.770000000000000000e+02,1.600000000000000000e+02,3.690000000000000000e+02,2.230000000000000000e+02,4.699999999999999734e-01,5.566481900000000000e+09
7.560000000000000000e+02,5.900000000000000000e+02,1.078000000000000000e+03,4.930000000000000000e+02,2.810000000000000000e+02,1.450000000000000000e+02,3.820000000000000000e+02,3.080000000000000000e+02,4.600000000000000200e-01,5.588941200000000000e+09
9.630000000000000000e+02,7.690000000000000000e+02,1.150000000000000000e+03,5.240000000000000000e+02,2.830000000000000000e+02,1.510000000000000000e+02,3.910000000000000000e+02,5.090000000000000000e+02,4.400000000000000022e-01,5.607684000000000000e+09
1.118000000000000000e+03,8.830000000000000000e+02,1.204000000000000000e+03,7.510000000000000000e+02,2.960000000000000000e+02,1.990000000000000000e+02,3.800000000000000000e+02,6.830000000000000000e+02,4.299999999999999933e-01,5.627403300000000000e+09
1.210000000000000000e+03,9.260000000000000000e+02,1.236000000000000000e+03,1.023000000000000000e+03,2.890000000000000000e+02,2.070000000000000000e+02,3.940000000000000000e+02,9.870000000000000000e+02,4.199999999999999845e-01,5.645750900000000000e+09
1.179000000000000000e+03,9.420000000000000000e+02,1.130000000000000000e+03,1.143000000000000000e+03,2.510000000000000000e+02,2.440000000000000000e+02,4.150000000000000000e+02,1.003000000000000000e+03,4.099999999999999756e-01,5.666992800000000000e+09
1.193000000000000000e+03,8.510000000000000000e+02,8.220000000000000000e+02,1.238000000000000000e+03,2.620000000000000000e+02,4.680000000000000000e+02,4.140000000000000000e+02,1.016000000000000000e+03,4.000000000000000222e-01,5.689137000000000000e+09
1.043000000000000000e+03,8.160000000000000000e+02,8.580000000000000000e+02,1.244000000000000000e+03,2.620000000000000000e+02,5.350000000000000000e+02,3.810000000000000000e+02,9.680000000000000000e+02,3.900000000000000133e-01,5.707709900000000000e+09
8.670000000000000000e+02,7.170000000000000000e+02,8.410000000000000000e+02,1.207000000000000000e+03,2.570000000000000000e+02,5.190000000000000000e+02,3.920000000000000000e+02,8.720000000000000000e+02,3.800000000000000044e-01,5.727695300000000000e+09
6.970000000000000000e+02,6.760000000000000000e+02,7.940000000000000000e+02,9.940000000000000000e+02,2.440000000000000000e+02,5.160000000000000000e+02,3.610000000000000000e+02,5.090000000000000000e+02,3.699999999999999956e-01,5.746907800000000000e+09
6.550000000000000000e+02,7.980000000000000000e+02,8.380000000000000000e+02,9.320000000000000000e+02,2.460000000000000000e+02,4.990000000000000000e+02,2.690000000000000000e+02,6.430000000000000000e+02,3.599999999999999867e-01,5.767278700000000000e+09
5.560000000000000000e+02,1.121000000000000000e+03,1.102000000000000000e+03,8.050000000000000000e+02,2.750000000000000000e+02,3.420000000000000000e+02,3.060000000000000000e+02,8.700000000000000000e+02,3.499999999999999778e-01,5.789405400000000000e+09
5.270000000000000000e+02,1.046000000000000000e+03,9.970000000000000000e+02,7.570000000000000000e+02,2.610000000000000000e+02,2.120000000000000000e+02,3.350000000000000000e+02,8.290000000000000000e+02,3.400000000000000244e-01,5.808311200000000000e+09
4.820000000000000000e+02,1.021000000000000000e+03,9.430000000000000000e+02,5.910000000000000000e+02,2.360000000000000000e+02,2.020000000000000000e+02,2.940000000000000000e+02,8.110000000000000000e+02,3.400000000000000244e-01,5.828094300000000000e+09
4.690000000000000000e+02,1.011000000000000000e+03,9.110000000000000000e+02,5.460000000000000000e+02,2.150000000000000000e+02,1.940000000000000000e+02,2.940000000000000000e+02,8.100000000000000000e+02,3.400000000000000244e-01,5.849141600000000000e+09
4.060000000000000000e+02,8.700000000000000000e+02,8.250000000000000000e+02,3.030000000000000000e+02,1.940000000000000000e+02,1.860000000000000000e+02,2.910000000000000000e+02,6.710000000000000000e+02,3.300000000000000155e-01,5.868056400000000000e+09
2.590000000000000000e+02,2.280000000000000000e+02,2.290000000000000000e+02,1.910000000000000000e+02,1.100000000000000000e+02,7.500000000000000000e+01,2.170000000000000000e+02,1.870000000000000000e+02,3.400000000000000244e-01,5.886939400000000000e+09
2.190000000000000000e+02,1.760000000000000000e+02,2.190000000000000000e+02,1.390000000000000000e+02,9.500000000000000000e+01,6.800000000000000000e+01,1.960000000000000000e+02,1.790000000000000000e+02,3.499999999999999778e-01,5.907930800000000000e+09
2.280000000000000000e+02,1.590000000000000000e+02,2.580000000000000000e+02,1.460000000000000000e+02,9.800000000000000000e+01,6.500000000000000000e+01,1.830000000000000000e+02,1.550000000000000000e+02,3.599999999999999867e-01,5.926172200000000000e+09
2.040000000000000000e+02,1.350000000000000000e+02,2.490000000000000000e+02,1.360000000000000000e+02,7.400000000000000000e+01,6.300000000000000000e+01,1.990000000000000000e+02,1.300000000000000000e+02,3.599999999999999867e-01,5.945082100000000000e+09
1.760000000000000000e+02,1.420000000000000000e+02,2.380000000000000000e+02,1.350000000000000000e+02,8.000000000000000000e+01,6.000000000000000000e+01,1.990000000000000000e+02,1.120000000000000000e+02,3.699999999999999956e-01,5.963473000000000000e+09
1.450000000000000000e+02,1.370000000000000000e+02,2.400000000000000000e+02,1.610000000000000000e+02,8.200000000000000000e+01,6.000000000000000000e+01,1.870000000000000000e+02,1.230000000000000000e+02,3.800000000000000044e-01,5.985661400000000000e+09
1.450000000000000000e+02,1.530000000000000000e+02,2.350000000000000000e+02,1.580000000000000000e+02,8.300000000000000000e+01,6.900000000000000000e+01,1.770000000000000000e+02,1.270000000000000000e+02,4.000000000000000222e-01,6.008144500000000000e+09
1.260000000000000000e+02,1.670000000000000000e+02,1.860000000000000000e+02,1.400000000000000000e+02,7.100000000000000000e+01,7.000000000000000000e+01,2.140000000000000000e+02,1.890000000000000000e+02,4.099999999999999756e-01,6.026294700000000000e+09
1.090000000000000000e+02,1.630000000000000000e+02,1.480000000000000000e+02,1.300000000000000000e+02,7.200000000000000000e+01,6.100000000000000000e+01,1.970000000000000000e+02,1.870000000000000000e+02,4.199999999999999845e-01,6.044912000000000000e+09
1.050000000000000000e+02,1.430000000000000000e+02,1.480000000000000000e+02,1.310000000000000000e+02,7.300000000000000000e+01,6.500000000000000000e+01,1.880000000000000000e+02,1.800000000000000000e+02,4.299999999999999933e-01,6.063415500000000000e+09
1.040000000000000000e+02,1.380000000000000000e+02,1.420000000000000000e+02,9.000000000000000000e+01,7.600000000000000000e+01,6.500000000000000000e+01,2.090000000000000000e+02,1.760000000000000000e+02,4.400000000000000022e-01,6.085558400000000000e+09
1.050000000000000000e+02,1.150000000000000000e+02,1.350000000000000000e+02,8.800000000000000000e+01,9.400000000000000000e+01,6.400000000000000000e+01,2.110000000000000000e+02,1.740000000000000000e+02,4.600000000000000200e-01,6.107856400000000000e+09
8.400000000000000000e+01,8.500000000000000000e+01,1.160000000000000000e+02,9.100000000000000000e+01,9.500000000000000000e+01,6.100000000000000000e+01,1.970000000000000000e+02,9.900000000000000000e+01,4.600000000000000200e-01,6.125491800000000000e+09
7.400000000000000000e+01,8.300000000000000000e+01,1.160000000000000000e+02,8.100000000000000000e+01,9.100000000000000000e+01,6.900000000000000000e+01,2.180000000000000000e+02,8.600000000000000000e+01,4.699999999999999734e-01,6.144440100000000000e+09
9.300000000000000000e+01,9.200000000000000000e+01,1.120000000000000000e+02,7.300000000000000000e+01,8.800000000000000000e+01,6.600000000000000000e+01,2.160000000000000000e+02,8.200000000000000000e+01,4.699999999999999734e-01,6.164983400000000000e+09
9.200000000000000000e+01,1.010000000000000000e+02,1.030000000000000000e+02,9.400000000000000000e+01,8.500000000000000000e+01,6.700000000000000000e+01,1.960000000000000000e+02,7.700000000000000000e+01,4.699999999999999734e-01,6.185809500000000000e+09
1.020000000000000000e+02,2.020000000000000000e+02,9.300000000000000000e+01,9.200000000000000000e+01,6.300000000000000000e+01,5.900000000000000000e+01,1.750000000000000000e+02,9.400000000000000000e+01,4.799999999999999822e-01,6.208557200000000000e+09
1.090000000000000000e+02,2.400000000000000000e+02,8.400000000000000000e+01,8.400000000000000000e+01,5.800000000000000000e+01,5.800000000000000000e+01,1.450000000000000000e+02,1.250000000000000000e+02,4.799999999999999822e-01,6.226942100000000000e+09
1.050000000000000000e+02,2.450000000000000000e+02,7.900000000000000000e+01,8.000000000000000000e+01,5.700000000000000000e+01,5.200000000000000000e+01,1.040000000000000000e+02,1.310000000000000000e+02,4.799999999999999822e-01,6.245039600000000000e+09
8.700000000000000000e+01,2.420000000000000000e+02,7.600000000000000000e+01,8.500000000000000000e+01,5.600000000000000000e+01,5.100000000000000000e+01,9.000000000000000000e+01,1.330000000000000000e+02,4.899999999999999911e-01,6.265030200000000000e+09
8.700000000000000000e+01,2.400000000000000000e+02,1.050000000000000000e+02,1.110000000000000000e+02,5.100000000000000000e+01,4.500000000000000000e+01,8.000000000000000000e+01,1.340000000000000000e+02,4.899999999999999911e-01,6.287662700000000000e+09
6.600000000000000000e+01,2.500000000000000000e+02,1.190000000000000000e+02,1.450000000000000000e+02,5.200000000000000000e+01,4.100000000000000000e+01,6.700000000000000000e+01,1.230000000000000000e+02,5.000000000000000000e-01,6.305225900000000000e+09
5.800000000000000000e+01,2.270000000000000000e+02,1.490000000000000000e+02,1.570000000000000000e+02,6.100000000000000000e+01,4.400000000000000000e+01,5.800000000000000000e+01,9.400000000000000000e+01,5.100000000000000089e-01,6.323118100000000000e+09
9.400000000000000000e+01,2.380000000000000000e+02,1.670000000000000000e+02,1.910000000000000000e+02,1.050000000000000000e+02,6.000000000000000000e+01,6.500000000000000000e+01,8.800000000000000000e+01,5.200000000000000178e-01,6.343783500000000000e+09
9.700000000000000000e+01,2.360000000000000000e+02,1.930000000000000000e+02,2.460000000000000000e+02,1.070000000000000000e+02,6.300000000000000000e+01,6.300000000000000000e+01,7.900000000000000000e+01,5.200000000000000178e-01,6.365985400000000000e+09
9.500000000000000000e+01,2.340000000000000000e+02,1.850000000000000000e+02,2.940000000000000000e+02,1.140000000000000000e+02,6.600000000000000000e+01,9.300000000000000000e+01,7.200000000000000000e+01,5.300000000000000266e-01,6.388349400000000000e+09
1.050000000000000000e+02,1.390000000000000000e+02,2.000000000000000000e+02,3.070000000000000000e+02,1.160000000000000000e+02,6.900000000000000000e+01,1.780000000000000000e+02,7.000000000000000000e+01,5.400000000000000355e-01,6.406391200000000000e+09
1.160000000000000000e+02,1.190000000000000000e+02,2.010000000000000000e+02,3.430000000000000000e+02,1.150000000000000000e+02,6.900000000000000000e+01,1.980000000000000000e+02,7.400000000000000000e+01,5.500000000000000444e-01,6.425468700000000000e+09
8.900000000000000000e+01,7.300000000000000000e+01,1.990000000000000000e+02,3.360000000000000000e+02,8.100000000000000000e+01,5.300000000000000000e+01,2.010000000000000000e+02,7.000000000000000000e+01,5.600000000000000533e-01,6.443991500000000000e+09
8.500000000000000000e+01,6.900000000000000000e+01,1.770000000000000000e+02,3.020000000000000000e+02,7.600000000000000000e+01,5.000000000000000000e+01,2.020000000000000000e+02,7.000000000000000000e+01,5.799999999999999600e-01,6.465984800000000000e+09
9.200000000000000000e+01,6.900000000000000000e+01,1.690000000000000000e+02,2.500000000000000000e+02,6.900000000000000000e+01,4.800000000000000000e+01,1.980000000000000000e+02,7.100000000000000000e+01,5.899999999999999689e-01,6.488127900000000000e+09
8.300000000000000000e+01,6.700000000000000000e+01,1.450000000000000000e+02,2.280000000000000000e+02,6.500000000000000000e+01,4.900000000000000000e+01,1.710000000000000000e+02,7.700000000000000000e+01,5.999999999999999778e-01,6.505934300000000000e+09
7.400000000000000000e+01,6.700000000000000000e+01,1.420000000000000000e+02,2.000000000000000000e+02,6.200000000000000000e+01,4.900000000000000000e+01,1.740000000000000000e+02,6.700000000000000000e+01,5.999999999999999778e-01,6.524252600000000000e+09
8.300000000000000000e+01,6.800000000000000000e+01,1.280000000000000000e+02,1.890000000000000000e+02,5.700000000000000000e+01,5.200000000000000000e+01,1.820000000000000000e+02,6.800000000000000000e+01,6.099999999999999867e-01,6.544347400000000000e+09
9.900000000000000000e+01,8.100000000000000000e+01,1.370000000000000000e+02,1.930000000000000000e+02,6.400000000000000000e+01,5.500000000000000000e+01,1.910000000000000000e+02,7.400000000000000000e+01,6.099999999999999867e-01,6.566557200000000000e+09
1.020000000000000000e+02,8.300000000000000000e+01,1.580000000000000000e+02,1.870000000000000000e+02,7.100000000000000000e+01,6.100000000000000000e+01,1.940000000000000000e+02,7.300000000000000000e+01,6.199999999999999956e-01,6.588931100000000000e+09
1.090000000000000000e+02,8.000000000000000000e+01,1.580000000000000000e+02,1.790000000000000000e+02,7.000000000000000000e+01,6.200000000000000000e+01,1.860000000000000000e+02,6.300000000000000000e+01,6.199999999999999956e-01,6.608254700000000000e+09
1.090000000000000000e+02,8.200000000000000000e+01,1.510000000000000000e+02,1.660000000000000000e+02,6.600000000000000000e+01,6.300000000000000000e+01,1.940000000000000000e+02,7.800000000000000000e+01,6.300000000000000044e-01,6.626371400000000000e+09
1.120000000000000000e+02,8.200000000000000000e+01,1.510000000000000000e+02,1.780000000000000000e+02,6.600000000000000000e+01,6.300000000000000000e+01,1.960000000000000000e+02,8.300000000000000000e+01,6.300000000000000044e-01,6.644621300000000000e+09
1.530000000000000000e+02,7.700000000000000000e+01,1.440000000000000000e+02,1.860000000000000000e+02,6.200000000000000000e+01,6.600000000000000000e+01,2.280000000000000000e+02,9.400000000000000000e+01,6.300000000000000044e-01,6.665799900000000000e+09
1.540000000000000000e+02,7.900000000000000000e+01,1.410000000000000000e+02,1.850000000000000000e+02,5.200000000000000000e+01,5.800000000000000000e+01,2.450000000000000000e+02,9.700000000000000000e+01,6.300000000000000044e-01,6.687949200000000000e+09
1.550000000000000000e+02,8.700000000000000000e+01,1.430000000000000000e+02,1.810000000000000000e+02,5.300000000000000000e+01,5.500000000000000000e+01,2.670000000000000000e+02,1.030000000000000000e+02,6.300000000000000044e-01,6.705609500000000000e+09
1.590000000000000000e+02,8.500000000000000000e+01,1.340000000000000000e+02,1.640000000000000000e+02,5.200000000000000000e+01,5.100000000000000000e+01,2.570000000000000000e+02,9.200000000000000000e+01,6.300000000000000044e-01,6.723787000000000000e+09
1.610000000000000000e+02,8.600000000000000000e+01,1.280000000000000000e+02,1.590000000000000000e+02,5.200000000000000000e+01,5.000000000000000000e+01,2.460000000000000000e+02,8.700000000000000000e+01,6.300000000000000044e-01,6.743542700000000000e+09
1.120000000000000000e+02,8.300000000000000000e+01,1.180000000000000000e+02,1.600000000000000000e+02,5.300000000000000000e+01,4.200000000000000000e+01,2.190000000000000000e+02,6.900000000000000000e+01,6.199999999999999956e-01,6.765793700000000000e+09
1.080000000000000000e+02,8.000000000000000000e+01,1.070000000000000000e+02,1.560000000000000000e+02,5.100000000000000000e+01,4.000000000000000000e+01,2.390000000000000000e+02,7.000000000000000000e+01,6.199999999999999956e-01,6.788162500000000000e+09
1.020000000000000000e+02,7.000000000000000000e+01,1.130000000000000000e+02,1.710000000000000000e+02,4.800000000000000000e+01,4.100000000000000000e+01,2.190000000000000000e+02,6.100000000000000000e+01,6.199999999999999956e-01,6.806474200000000000e+09
9.900000000000000000e+01,6.500000000000000000e+01,1.000000000000000000e+02,1.640000000000000000e+02,4.600000000000000000e+01,4.100000000000000000e+01,2.300000000000000000e+02,6.300000000000000000e+01,6.199999999999999956e-01,6.825720000000000000e+09
8.700000000000000000e+01,6.600000000000000000e+01,1.000000000000000000e+02,1.540000000000000000e+02,5.000000000000000000e+01,4.400000000000000000e+01,2.580000000000000000e+02,7.100000000000000000e+01,6.199999999999999956e-01,6.844479500000000000e+09
9.100000000000000000e+01,6.500000000000000000e+01,1.090000000000000000e+02,1.290000000000000000e+02,5.300000000000000000e+01,4.700000000000000000e+01,2.580000000000000000e+02,7.600000000000000000e+01,6.199999999999999956e-01,6.865745400000000000e+09
9.000000000000000000e+01,5.900000000000000000e+01,9.100000000000000000e+01,1.270000000000000000e+02,5.500000000000000000e+01,5.200000000000000000e+01,2.240000000000000000e+02,7.100000000000000000e+01,6.199999999999999956e-01,6.887961400000000000e+09
9.300000000000000000e+01,6.700000000000000000e+01,7.400000000000000000e+01,1.060000000000000000e+02,5.900000000000000000e+01,5.100000000000000000e+01,2.030000000000000000e+02,8.000000000000000000e+01,6.099999999999999867e-01,6.906137200000000000e+09
8.300000000000000000e+01,7.200000000000000000e+01,8.000000000000000000e+01,1.220000000000000000e+02,6.200000000000000000e+01,4.900000000000000000e+01,1.900000000000000000e+02,7.900000000000000000e+01,6.099999999999999867e-01,6.924502300000000000e+09
8.000000000000000000e+01,7.000000000000000000e+01,8.500000000000000000e+01,1.320000000000000000e+02,6.000000000000000000e+01,5.000000000000000000e+01,1.880000000000000000e+02,7.200000000000000000e+01,6.099999999999999867e-01,6.943662100000000000e+09
8.500000000000000000e+01,6.800000000000000000e+01,7.400000000000000000e+01,1.340000000000000000e+02,5.100000000000000000e+01,4.600000000000000000e+01,2.100000000000000000e+02,7.200000000000000000e+01,5.999999999999999778e-01,6.965864700000000000e+09
7.900000000000000000e+01,6.700000000000000000e+01,7.700000000000000000e+01,1.310000000000000000e+02,4.900000000000000000e+01,4.100000000000000000e+01,2.160000000000000000e+02,7.500000000000000000e+01,5.999999999999999778e-01,6.988074600000000000e+09
7.200000000000000000e+01,6.200000000000000000e+01,8.600000000000000000e+01,1.700000000000000000e+02,4.500000000000000000e+01,4.100000000000000000e+01,2.180000000000000000e+02,6.300000000000000000e+01,5.999999999999999778e-01,7.005854800000000000e+09
6.900000000000000000e+01,5.300000000000000000e+01,8.000000000000000000e+01,1.610000000000000000e+02,4.300000000000000000e+01,4.100000000000000000e+01,2.250000000000000000e+02,5.900000000000000000e+01,5.999999999999999778e-01,7.025259600000000000e+09
8.000000000000000000e+01,5.500000000000000000e+01,7.300000000000000000e+01,1.560000000000000000e+02,4.100000000000000000e+01,3.800000000000000000e+01,2.560000000000000000e+02,6.600000000000000000e+01,5.999999999999999778e-01,7.044747300000000000e+09
8.100000000000000000e+01,5.700000000000000000e+01,7.100000000000000000e+01,1.650000000000000000e+02,5.300000000000000000e+01,4.700000000000000000e+01,2.430000000000000000e+02,6.100000000000000000e+01,5.999999999999999778e-01,7.066358200000000000e+09
7.900000000000000000e+01,5.900000000000000000e+01,7.800000000000000000e+01,1.740000000000000000e+02,5.200000000000000000e+01,4.800000000000000000e+01,2.680000000000000000e+02,6.400000000000000000e+01,5.999999999999999778e-01,7.088576000000000000e+09
8.100000000000000000e+01,5.400000000000000000e+01,6.700000000000000000e+01,1.340000000000000000e+02,5.000000000000000000e+01,4.500000000000000000e+01,2.620000000000000000e+02,6.600000000000000000e+01,5.999999999999999778e-01,7.106565100000000000e+09
7.800000000000000000e+01,5.400000000000000000e+01,6.700000000000000000e+01,1.340000000000000000e+02,5.200000000000000000e+01,4.900000000000000000e+01,2.480000000000000000e+02,6.300000000000000000e+01,5.999999999999999778e-01,7.125209600000000000e+09
7.100000000000000000e+01,4.800000000000000000e+01,7.000000000000000000e+01,1.400000000000000000e+02,5.500000000000000000e+01,4.900000000000000000e+01,1.900000000000000000e+02,5.500000000000000000e+01,6.099999999999999867e-01,7.144257600000000000e+09
5.800000000000000000e+01,4.600000000000000000e+01,7.500000000000000000e+01,1.230000000000000000e+02,4.300000000000000000e+01,3.900000000000000000e+01,1.750000000000000000e+02,5.300000000000000000e+01,6.099999999999999867e-01,7.166401400000000000e+09
5.900000000000000000e+01,4.400000000000000000e+01,6.700000000000000000e+01,1.070000000000000000e+02,4.000000000000000000e+01,3.800000000000000000e+01,1.060000000000000000e+02,3.900000000000000000e+01,6.099999999999999867e-01,7.188554700000000000e+09
5.300000000000000000e+01,4.300000000000000000e+01,6.400000000000000000e+01,1.080000000000000000e+02,5.100000000000000000e+01,4.700000000000000000e+01,9.600000000000000000e+01,3.300000000000000000e+01,6.099999999999999867e-01,7.207153400000000000e+09
5.400000000000000000e+01,4.400000000000000000e+01,6.400000000000000000e+01,1.160000000000000000e+02,5.500000000000000000e+01,4.300000000000000000e+01,8.800000000000000000e+01,3.500000000000000000e+01,6.099999999999999867e-01,7.226793100000000000e+09
4.900000000000000000e+01,5.000000000000000000e+01,8.700000000000000000e+01,1.080000000000000000e+02,5.200000000000000000e+01,4.200000000000000000e+01,6.600000000000000000e+01,3.200000000000000000e+01,5.999999999999999778e-01,7.244675700000000000e+09
4.500000000000000000e+01,4.900000000000000000e+01,8.200000000000000000e+01,1.110000000000000000e+02,5.600000000000000000e+01,4.600000000000000000e+01,5.100000000000000000e+01,3.200000000000000000e+01,5.999999999999999778e-01,7.267253300000000000e+09
4.100000000000000000e+01,4.800000000000000000e+01,8.800000000000000000e+01,1.100000000000000000e+02,5.700000000000000000e+01,4.800000000000000000e+01,4.000000000000000000e+01,3.400000000000000000e+01,5.999999999999999778e-01,7.286885900000000000e+09
4.700000000000000000e+01,4.800000000000000000e+01,9.200000000000000000e+01,1.060000000000000000e+02,4.700000000000000000e+01,3.900000000000000000e+01,3.700000000000000000e+01,3.300000000000000000e+01,5.899999999999999689e-01,7.306863400000000000e+09
6.300000000000000000e+01,4.900000000000000000e+01,9.900000000000000000e+01,9.400000000000000000e+01,4.200000000000000000e+01,4.100000000000000000e+01,3.700000000000000000e+01,3.400000000000000000e+01,5.899999999999999689e-01,7.325902000000000000e+09
6.600000000000000000e+01,4.600000000000000000e+01,8.500000000000000000e+01,1.370000000000000000e+02,5.100000000000000000e+01,4.600000000000000000e+01,3.800000000000000000e+01,3.500000000000000000e+01,5.899999999999999689e-01,7.344019000000000000e+09
7.300000000000000000e+01,4.500000000000000000e+01,9.000000000000000000e+01,1.360000000000000000e+02,4.900000000000000000e+01,4.100000000000000000e+01,4.500000000000000000e+01,3.700000000000000000e+01,5.899999999999999689e-01,7.363115000000000000e+09
9.000000000000000000e+01,4.500000000000000000e+01,8.500000000000000000e+01,1.560000000000000000e+02,4.900000000000000000e+01,3.900000000000000000e+01,4.600000000000000000e+01,3.400000000000000000e+01,5.899999999999999689e-01,7.384563300000000000e+09
1.040000000000000000e+02,4.600000000000000000e+01,8.300000000000000000e+01,1.610000000000000000e+02,5.000000000000000000e+01,3.800000000000000000e+01,4.100000000000000000e+01,4.400000000000000000e+01,5.899999999999999689e-01,7.406684500000000000e+09
9.800000000000000000e+01,5.400000000000000000e+01,8.700000000000000000e+01,1.730000000000000000e+02,5.200000000000000000e+01,3.900000000000000000e+01,5.100000000000000000e+01,4.600000000000000000e+01,5.899999999999999689e-01,7.429086800000000000e+09
9.800000000000000000e+01,5.200000000000000000e+01,8.700000000000000000e+01,1.390000000000000000e+02,4.500000000000000000e+01,4.200000000000000000e+01,5.200000000000000000e+01,4.500000000000000000e+01,5.899999999999999689e-01,7.448293200000000000e+09
9.300000000000000000e+01,5.100000000000000000e+01,8.100000000000000000e+01,1.370000000000000000e+02,4.500000000000000000e+01,4.300000000000000000e+01,4.700000000000000000e+01,4.400000000000000000e+01,5.899999999999999689e-01,7.467477900000000000e+09
7.800000000000000000e+01,5.100000000000000000e+01,8.200000000000000000e+01,1.170000000000000000e+02,4.700000000000000000e+01,4.800000000000000000e+01,6.500000000000000000e+01,4.500000000000000000e+01,5.899999999999999689e-01,7.487179600000000000e+09
6.000000000000000000e+01,5.300000000000000000e+01,8.400000000000000000e+01,1.150000000000000000e+02,4.800000000000000000e+01,5.100000000000000000e+01,9.700000000000000000e+01,4.200000000000000000e+01,5.899999999999999689e-01,7.506882000000000000e+09
7.600000000000000000e+01,4.700000000000000000e+01,7.600000000000000000e+01,8.700000000000000000e+01,4.600000000000000000e+01,5.200000000000000000e+01,9.300000000000000000e+01,4.000000000000000000e+01,5.899999999999999689e-01,7.529186200000000000e+09
7.600000000000000000e+01,4.900000000000000000e+01,6.300000000000000000e+01,7.600000000000000000e+01,4.600000000000000000e+01,4.900000000000000000e+01,1.090000000000000000e+02,3.900000000000000000e+01,5.899999999999999689e-01,7.548834300000000000e+09
7.600000000000000000e+01,4.700000000000000000e+01,6.500000000000000000e+01,8.100000000000000000e+01,4.200000000000000000e+01,5.000000000000000000e+01,1.120000000000000000e+02,3.900000000000000000e+01,5.899999999999999689e-01,7.566982800000000000e+09
7.500000000000000000e+01,4.800000000000000000e+01,5.900000000000000000e+01,7.900000000000000000e+01,3.900000000000000000e+01,4.300000000000000000e+01,1.070000000000000000e+02,4.000000000000000000e+01,5.899999999999999689e-01,7.585392000000000000e+09
8.100000000000000000e+01,4.700000000000000000e+01,5.900000000000000000e+01,7.000000000000000000e+01,3.800000000000000000e+01,4.100000000000000000e+01,8.200000000000000000e+01,3.500000000000000000e+01,5.799999999999999600e-01,7.606542900000000000e+09
7.300000000000000000e+01,4.600000000000000000e+01,5.400000000000000000e+01,6.800000000000000000e+01,3.900000000000000000e+01,3.900000000000000000e+01,8.700000000000000000e+01,3.300000000000000000e+01,5.799999999999999600e-01,7.628895000000000000e+09
6.800000000000000000e+01,4.500000000000000000e+01,5.300000000000000000e+01,6.700000000000000000e+01,3.900000000000000000e+01,3.900000000000000000e+01,8.000000000000000000e+01,3.500000000000000000e+01,5.699999999999999512e-01,7.646794200000000000e+09
7.600000000000000000e+01,4.700000000000000000e+01,5.300000000000000000e+01,6.200000000000000000e+01,4.100000000000000000e+01,3.700000000000000000e+01,1.010000000000000000e+02,3.700000000000000000e+01,5.699999999999999512e-01,7.665230300000000000e+09
7.600000000000000000e+01,4.800000000000000000e+01,5.800000000000000000e+01,5.500000000000000000e+01,4.000000000000000000e+01,4.000000000000000000e+01,1.020000000000000000e+02,3.800000000000000000e+01,5.600000000000000533e-01,7.684812300000000000e+09
6.400000000000000000e+01,4.500000000000000000e+01,5.700000000000000000e+01,7.800000000000000000e+01,4.000000000000000000e+01,4.100000000000000000e+01,1.010000000000000000e+02,3.500000000000000000e+01,5.500000000000000444e-01,7.707568100000000000e+09
5.700000000000000000e+01,4.200000000000000000e+01,6.300000000000000000e+01,9.200000000000000000e+01,5.000000000000000000e+01,4.300000000000000000e+01,9.800000000000000000e+01,3.600000000000000000e+01,5.500000000000000444e-01,7.727379100000000000e+09
7.800000000000000000e+01,4.100000000000000000e+01,6.600000000000000000e+01,9.400000000000000000e+01,5.000000000000000000e+01,4.000000000000000000e+01,1.190000000000000000e+02,4.300000000000000000e+01,5.500000000000000444e-01,7.747162500000000000e+09
8.300000000000000000e+01,4.100000000000000000e+01,6.200000000000000000e+01,9.400000000000000000e+01,4.900000000000000000e+01,3.900000000000000000e+01,1.000000000000000000e+02,4.200000000000000000e+01,5.500000000000000444e-01,7.765864700000000000e+09
8.300000000000000000e+01,3.900000000000000000e+01,6.700000000000000000e+01,9.400000000000000000e+01,5.000000000000000000e+01,3.800000000000000000e+01,9.400000000000000000e+01,4.300000000000000000e+01,5.400000000000000355e-01,7.786692600000000000e+09
9.200000000000000000e+01,3.900000000000000000e+01,7.800000000000000000e+01,1.440000000000000000e+02,5.800000000000000000e+01,3.900000000000000000e+01,9.400000000000000000e+01,4.500000000000000000e+01,5.500000000000000444e-01,7.809333800000000000e+09
9.500000000000000000e+01,4.100000000000000000e+01,8.100000000000000000e+01,1.760000000000000000e+02,6.100000000000000000e+01,4.200000000000000000e+01,9.400000000000000000e+01,4.900000000000000000e+01,5.500000000000000444e-01,7.827044400000000000e+09
8.200000000000000000e+01,4.300000000000000000e+01,8.100000000000000000e+01,1.830000000000000000e+02,6.000000000000000000e+01,4.200000000000000000e+01,7.300000000000000000e+01,4.400000000000000000e+01,5.500000000000000444e-01,7.845222900000000000e+09
6.900000000000000000e+01,3.900000000000000000e+01,9.400000000000000000e+01,1.910000000000000000e+02,6.000000000000000000e+01,4.600000000000000000e+01,7.400000000000000000e+01,4.400000000000000000e+01,5.600000000000000533e-01,7.865127100000000000e+09
9.100000000000000000e+01,4.300000000000000000e+01,9.100000000000000000e+01,1.930000000000000000e+02,6.100000000000000000e+01,4.700000000000000000e+01,7.500000000000000000e+01,4.400000000000000000e+01,5.600000000000000533e-01,7.887338400000000000e+09
8.300000000000000000e+01,4.100000000000000000e+01,8.100000000000000000e+01,1.530000000000000000e+02,5.200000000000000000e+01,4.500000000000000000e+01,7.400000000000000000e+01,4.300000000000000000e+01,5.699999999999999512e-01,7.905088800000000000e+09
8.100000000000000000e+01,4.600000000000000000e+01,1.100000000000000000e+02,1.180000000000000000e+02,3.400000000000000000e+01,3.900000000000000000e+01,7.100000000000000000e+01,4.000000000000000000e+01,5.699999999999999512e-01,7.923423700000000000e+09
8.000000000000000000e+01,4.800000000000000000e+01,1.200000000000000000e+02,1.550000000000000000e+02,4.700000000000000000e+01,4.000000000000000000e+01,4.500000000000000000e+01,4.000000000000000000e+01,5.799999999999999600e-01,7.943044400000000000e+09
7.900000000000000000e+01,5.200000000000000000e+01,1.180000000000000000e+02,1.630000000000000000e+02,5.500000000000000000e+01,3.600000000000000000e+01,4.200000000000000000e+01,4.000000000000000000e+01,5.799999999999999600e-01,7.965262100000000000e+09
4.700000000000000000e+01,4.800000000000000000e+01,1.200000000000000000e+02,2.020000000000000000e+02,6.600000000000000000e+01,3.800000000000000000e+01,3.900000000000000000e+01,4.000000000000000000e+01,5.899999999999999689e-01,7.987389000000000000e+09
4.800000000000000000e+01,5.200000000000000000e+01,1.270000000000000000e+02,2.160000000000000000e+02,7.000000000000000000e+01,3.900000000000000000e+01,3.900000000000000000e+01,4.100000000000000000e+01,5.899999999999999689e-01,8.009487700000000000e+09
4.300000000000000000e+01,5.000000000000000000e+01,1.090000000000000000e+02,2.530000000000000000e+02,7.600000000000000000e+01,4.200000000000000000e+01,4.100000000000000000e+01,3.800000000000000000e+01,5.999999999999999778e-01,8.027772300000000000e+09
4.300000000000000000e+01,4.800000000000000000e+01,1.130000000000000000e+02,2.560000000000000000e+02,7.200000000000000000e+01,4.400000000000000000e+01,3.900000000000000000e+01,3.500000000000000000e+01,5.999999999999999778e-01,8.046359600000000000e+09
4.500000000000000000e+01,4.900000000000000000e+01,1.160000000000000000e+02,2.710000000000000000e+02,7.200000000000000000e+01,4.600000000000000000e+01,3.900000000000000000e+01,3.300000000000000000e+01,6.099999999999999867e-01,8.065081200000000000e+09
4.500000000000000000e+01,4.900000000000000000e+01,1.130000000000000000e+02,2.460000000000000000e+02,6.100000000000000000e+01,4.600000000000000000e+01,4.000000000000000000e+01,3.000000000000000000e+01,6.099999999999999867e-01,8.087509400000000000e+09
4.200000000000000000e+01,6.500000000000000000e+01,1.080000000000000000e+02,2.380000000000000000e+02,6.700000000000000000e+01,5.000000000000000000e+01,4.400000000000000000e+01,3.000000000000000000e+01,6.199999999999999956e-01,8.105614400000000000e+09
4.400000000000000000e+01,1.120000000000000000e+02,1.050000000000000000e+02,1.940000000000000000e+02,6.400000000000000000e+01,4.900000000000000000e+01,4.200000000000000000e+01,2.800000000000000000e+01,6.199999999999999956e-01,8.126384700000000000e+09
4.200000000000000000e+01,1.230000000000000000e+02,8.500000000000000000e+01,1.810000000000000000e+02,6.600000000000000000e+01,5.000000000000000000e+01,4.500000000000000000e+01,2.900000000000000000e+01,6.199999999999999956e-01,8.145401700000000000e+09
4.900000000000000000e+01,1.410000000000000000e+02,1.170000000000000000e+02,1.930000000000000000e+02,7.600000000000000000e+01,5.100000000000000000e+01,4.400000000000000000e+01,3.100000000000000000e+01,6.300000000000000044e-01,8.165824600000000000e+09
5.100000000000000000e+01,1.510000000000000000e+02,1.240000000000000000e+02,1.930000000000000000e+02,7.800000000000000000e+01,5.200000000000000000e+01,4.700000000000000000e+01,3.200000000000000000e+01,6.300000000000000044e-01,8.188156800000000000e+09
5.300000000000000000e+01,1.900000000000000000e+02,1.520000000000000000e+02,1.930000000000000000e+02,7.400000000000000000e+01,5.300000000000000000e+01,4.800000000000000000e+01,3.500000000000000000e+01,6.300000000000000044e-01,8.206273900000000000e+09
5.100000000000000000e+01,1.950000000000000000e+02,1.790000000000000000e+02,2.080000000000000000e+02,8.300000000000000000e+01,7.200000000000000000e+01,5.000000000000000000e+01,3.800000000000000000e+01,6.400000000000000133e-01,8.225787500000000000e+09
5.200000000000000000e+01,2.080000000000000000e+02,1.990000000000000000e+02,2.010000000000000000e+02,9.000000000000000000e+01,7.200000000000000000e+01,5.100000000000000000e+01,4.100000000000000000e+01,6.400000000000000133e-01,8.244177700000000000e+09
4.900000000000000000e+01,2.140000000000000000e+02,1.960000000000000000e+02,1.610000000000000000e+02,8.900000000000000000e+01,7.800000000000000000e+01,5.000000000000000000e+01,4.000000000000000000e+01,6.400000000000000133e-01,8.265818000000000000e+09
4.900000000000000000e+01,2.170000000000000000e+02,1.970000000000000000e+02,1.610000000000000000e+02,9.900000000000000000e+01,8.000000000000000000e+01,4.500000000000000000e+01,3.900000000000000000e+01,6.300000000000000044e-01,8.288127300000000000e+09
4.800000000000000000e+01,1.790000000000000000e+02,1.750000000000000000e+02,1.530000000000000000e+02,1.050000000000000000e+02,7.800000000000000000e+01,4.200000000000000000e+01,3.500000000000000000e+01,6.300000000000000044e-01,8.305979700000000000e+09
4.900000000000000000e+01,1.530000000000000000e+02,1.430000000000000000e+02,1.440000000000000000e+02,1.030000000000000000e+02,7.000000000000000000e+01,4.500000000000000000e+01,3.500000000000000000e+01,6.300000000000000044e-01,8.325701300000000000e+09
4.600000000000000000e+01,1.260000000000000000e+02,1.200000000000000000e+02,1.250000000000000000e+02,9.900000000000000000e+01,7.100000000000000000e+01,4.100000000000000000e+01,3.000000000000000000e+01,6.199999999999999956e-01,8.344302800000000000e+09
3.900000000000000000e+01,9.500000000000000000e+01,8.800000000000000000e+01,1.130000000000000000e+02,9.600000000000000000e+01,6.400000000000000000e+01,4.200000000000000000e+01,2.900000000000000000e+01,6.199999999999999956e-01,8.365921700000000000e+09
3.700000000000000000e+01,7.200000000000000000e+01,8.700000000000000000e+01,1.390000000000000000e+02,8.500000000000000000e+01,6.500000000000000000e+01,4.400000000000000000e+01,2.700000000000000000e+01,6.099999999999999867e-01,8.390543400000000000e+09
3.400000000000000000e+01,7.000000000000000000e+01,8.600000000000000000e+01,1.440000000000000000e+02,8.300000000000000000e+01,6.300000000000000000e+01,4.200000000000000000e+01,2.800000000000000000e+01,6.099999999999999867e-01,8.410459800000000000e+09
3.600000000000000000e+01,6.700000000000000000e+01,8.000000000000000000e+01,1.330000000000000000e+02,7.900000000000000000e+01,5.200000000000000000e+01,4.300000000000000000e+01,2.700000000000000000e+01,6.099999999999999867e-01,8.429443600000000000e+09
3.700000000000000000e+01,7.400000000000000000e+01,7.700000000000000000e+01,1.520000000000000000e+02,1.030000000000000000e+02,5.400000000000000000e+01,4.800000000000000000e+01,2.800000000000000000e+01,5.999999999999999778e-01,8.447865000000000000e+09
3.800000000000000000e+01,4.590000000000000000e+02,7.800000000000000000e+01,1.690000000000000000e+02,1.090000000000000000e+02,5.400000000000000000e+01,4.900000000000000000e+01,2.800000000000000000e+01,5.999999999999999778e-01,8.466085900000000000e+09
3.800000000000000000e+01,5.580000000000000000e+02,6.600000000000000000e+01,1.540000000000000000e+02,1.170000000000000000e+02,5.300000000000000000e+01,5.300000000000000000e+01,2.900000000000000000e+01,5.999999999999999778e-01,8.484853700000000000e+09
4.000000000000000000e+01,5.840000000000000000e+02,7.500000000000000000e+01,1.480000000000000000e+02,1.180000000000000000e+02,5.500000000000000000e+01,5.500000000000000000e+01,2.900000000000000000e+01,5.999999999999999778e-01,8.506158200000000000e+09
3.700000000000000000e+01,5.850000000000000000e+02,7.900000000000000000e+01,1.440000000000000000e+02,1.190000000000000000e+02,5.900000000000000000e+01,5.300000000000000000e+01,2.900000000000000000e+01,5.999999999999999778e-01,8.528630000000000000e+09
3.600000000000000000e+01,5.870000000000000000e+02,8.600000000000000000e+01,1.210000000000000000e+02,9.700000000000000000e+01,5.200000000000000000e+01,4.900000000000000000e+01,3.100000000000000000e+01,5.999999999999999778e-01,8.546865300000000000e+09
3.600000000000000000e+01,3.730000000000000000e+02,7.700000000000000000e+01,9.100000000000000000e+01,9.000000000000000000e+01,5.200000000000000000e+01,4.800000000000000000e+01,3.200000000000000000e+01,5.999999999999999778e-01,8.565121300000000000e+09
3.600000000000000000e+01,1.970000000000000000e+02,9.200000000000000000e+01,7.400000000000000000e+01,8.500000000000000000e+01,5.300000000000000000e+01,4.300000000000000000e+01,3.400000000000000000e+01,5.999999999999999778e-01,8.583837900000000000e+09
3.600000000000000000e+01,9.100000000000000000e+01,1.240000000000000000e+02,8.200000000000000000e+01,8.800000000000000000e+01,5.300000000000000000e+01,4.000000000000000000e+01,3.200000000000000000e+01,5.999999999999999778e-01,8.606020700000000000e+09
3.800000000000000000e+01,8.000000000000000000e+01,1.240000000000000000e+02,1.140000000000000000e+02,8.500000000000000000e+01,5.000000000000000000e+01,3.900000000000000000e+01,3.200000000000000000e+01,5.999999999999999778e-01,8.628215700000000000e+09
3.700000000000000000e+01,5.200000000000000000e+01,1.170000000000000000e+02,1.110000000000000000e+02,8.700000000000000000e+01,5.500000000000000000e+01,4.200000000000000000e+01,3.100000000000000000e+01,5.899999999999999689e-01,8.646446500000000000e+09
3.600000000000000000e+01,4.500000000000000000e+01,1.170000000000000000e+02,1.290000000000000000e+02,8.200000000000000000e+01,5.300000000000000000e+01,4.700000000000000000e+01,3.000000000000000000e+01,5.899999999999999689e-01,8.664794100000000000e+09
3.600000000000000000e+01,3.900000000000000000e+01,1.040000000000000000e+02,1.320000000000000000e+02,8.200000000000000000e+01,5.400000000000000000e+01,4.700000000000000000e+01,2.900000000000000000e+01,5.899999999999999689e-01,8.683865100000000000e+09
3.300000000000000000e+01,3.800000000000000000e+01,5.400000000000000000e+01,1.270000000000000000e+02,7.800000000000000000e+01,5.400000000000000000e+01,4.900000000000000000e+01,3.000000000000000000e+01,5.899999999999999689e-01,8.705945100000000000e+09
3.200000000000000000e+01,3.900000000000000000e+01,6.500000000000000000e+01,1.110000000000000000e+02,8.300000000000000000e+01,5.500000000000000000e+01,5.200000000000000000e+01,2.900000000000000000e+01,5.799999999999999600e-01,8.728290300000000000e+09
3.200000000000000000e+01,4.100000000000000000e+01,6.800000000000000000e+01,1.070000000000000000e+02,8.300000000000000000e+01,5.200000000000000000e+01,5.100000000000000000e+01,2.500000000000000000e+01,5.799999999999999600e-01,8.746202000000000000e+09
3.100000000000000000e+01,3.700000000000000000e+01,6.700000000000000000e+01,8.900000000000000000e+01,8.400000000000000000e+01,5.600000000000000000e+01,4.700000000000000000e+01,2.700000000000000000e+01,5.699999999999999512e-01,8.765350500000000000e+09
2.900000000000000000e+01,3.700000000000000000e+01,6.800000000000000000e+01,8.400000000000000000e+01,8.200000000000000000e+01,5.100000000000000000e+01,5.200000000000000000e+01,2.400000000000000000e+01,5.600000000000000533e-01,8.783947400000000000e+09
2.800000000000000000e+01,4.000000000000000000e+01,6.700000000000000000e+01,8.600000000000000000e+01,9.200000000000000000e+01,5.500000000000000000e+01,5.300000000000000000e+01,2.500000000000000000e+01,5.600000000000000533e-01,8.806381600000000000e+09
2.700000000000000000e+01,3.800000000000000000e+01,5.300000000000000000e+01,9.400000000000000000e+01,8.800000000000000000e+01,5.300000000000000000e+01,4.700000000000000000e+01,2.500000000000000000e+01,5.500000000000000444e-01,8.829117600000000000e+09
2.500000000000000000e+01,3.600000000000000000e+01,5.200000000000000000e+01,1.090000000000000000e+02,8.800000000000000000e+01,5.100000000000000000e+01,4.500000000000000000e+01,2.700000000000000000e+01,5.500000000000000444e-01,8.847744900000000000e+09
2.600000000000000000e+01,3.600000000000000000e+01,5.100000000000000000e+01,1.050000000000000000e+02,8.800000000000000000e+01,4.700000000000000000e+01,4.600000000000000000e+01,2.600000000000000000e+01,5.500000000000000444e-01,8.866757300000000000e+09
2.600000000000000000e+01,3.400000000000000000e+01,5.000000000000000000e+01,1.030000000000000000e+02,8.400000000000000000e+01,4.700000000000000000e+01,4.000000000000000000e+01,2.800000000000000000e+01,5.400000000000000355e-01,8.885756800000000000e+09
2.800000000000000000e+01,4.200000000000000000e+01,4.700000000000000000e+01,1.020000000000000000e+02,6.300000000000000000e+01,4.100000000000000000e+01,3.500000000000000000e+01,2.800000000000000000e+01,5.400000000000000355e-01,8.908283900000000000e+09
2.700000000000000000e+01,4.600000000000000000e+01,4.900000000000000000e+01,8.800000000000000000e+01,5.700000000000000000e+01,4.000000000000000000e+01,3.700000000000000000e+01,2.800000000000000000e+01,5.400000000000000355e-01,8.926237000000000000e+09
2.900000000000000000e+01,4.500000000000000000e+01,4.500000000000000000e+01,7.400000000000000000e+01,5.000000000000000000e+01,4.100000000000000000e+01,3.600000000000000000e+01,2.700000000000000000e+01,5.400000000000000355e-01,8.945479000000000000e+09
2.700000000000000000e+01,4.900000000000000000e+01,5.200000000000000000e+01,1.020000000000000000e+02,4.300000000000000000e+01,3.900000000000000000e+01,3.700000000000000000e+01,2.700000000000000000e+01,5.400000000000000355e-01,8.965119900000000000e+09
3.000000000000000000e+01,5.400000000000000000e+01,6.700000000000000000e+01,1.160000000000000000e+02,4.400000000000000000e+01,4.000000000000000000e+01,3.500000000000000000e+01,2.900000000000000000e+01,5.400000000000000355e-01,8.987594100000000000e+09
3.000000000000000000e+01,5.300000000000000000e+01,6.800000000000000000e+01,1.230000000000000000e+02,4.400000000000000000e+01,4.500000000000000000e+01,3.800000000000000000e+01,2.700000000000000000e+01,5.400000000000000355e-01,9.005355600000000000e+09
3.100000000000000000e+01,5.000000000000000000e+01,7.100000000000000000e+01,1.350000000000000000e+02,4.500000000000000000e+01,4.600000000000000000e+01,3.800000000000000000e+01,2.800000000000000000e+01,5.400000000000000355e-01,9.023846800000000000e+09
3.100000000000000000e+01,6.500000000000000000e+01,7.100000000000000000e+01,1.570000000000000000e+02,4.900000000000000000e+01,4.400000000000000000e+01,4.000000000000000000e+01,2.900000000000000000e+01,5.500000000000000444e-01,9.043372200000000000e+09
3.200000000000000000e+01,6.500000000000000000e+01,7.300000000000000000e+01,2.160000000000000000e+02,6.300000000000000000e+01,4.900000000000000000e+01,3.900000000000000000e+01,3.000000000000000000e+01,5.600000000000000533e-01,9.065402100000000000e+09
3.000000000000000000e+01,6.600000000000000000e+01,6.100000000000000000e+01,2.120000000000000000e+02,6.200000000000000000e+01,4.700000000000000000e+01,4.300000000000000000e+01,2.800000000000000000e+01,5.600000000000000533e-01,9.087796100000000000e+09
3.100000000000000000e+01,6.800000000000000000e+01,7.100000000000000000e+01,2.360000000000000000e+02,6.100000000000000000e+01,4.500000000000000000e+01,4.500000000000000000e+01,3.000000000000000000e+01,5.699999999999999512e-01,9.105948300000000000e+09
2.900000000000000000e+01,7.900000000000000000e+01,6.800000000000000000e+01,2.300000000000000000e+02,6.100000000000000000e+01,4.400000000000000000e+01,4.400000000000000000e+01,2.900000000000000000e+01,5.799999999999999600e-01,9.124628400000000000e+09
3.000000000000000000e+01,7.000000000000000000e+01,7.500000000000000000e+01,2.230000000000000000e+02,5.800000000000000000e+01,4.200000000000000000e+01,4.400000000000000000e+01,2.800000000000000000e+01,5.799999999999999600e-01,9.143270800000000000e+09
2.800000000000000000e+01,7.000000000000000000e+01,6.800000000000000000e+01,1.540000000000000000e+02,4.200000000000000000e+01,3.800000000000000000e+01,4.200000000000000000e+01,3.000000000000000000e+01,5.899999999999999689e-01,9.165768800000000000e+09
3.100000000000000000e+01,6.800000000000000000e+01,7.000000000000000000e+01,1.550000000000000000e+02,4.500000000000000000e+01,4.200000000000000000e+01,1.370000000000000000e+02,3.900000000000000000e+01,5.999999999999999778e-01,9.187644500000000000e+09
5.600000000000000000e+01,6.600000000000000000e+01,6.400000000000000000e+01,1.080000000000000000e+02,5.300000000000000000e+01,4.400000000000000000e+01,1.450000000000000000e+02,4.600000000000000000e+01,5.999999999999999778e-01,9.206191600000000000e+09
5.700000000000000000e+01,5.700000000000000000e+01,6.700000000000000000e+01,1.160000000000000000e+02,5.400000000000000000e+01,4.800000000000000000e+01,1.520000000000000000e+02,5.100000000000000000e+01,5.999999999999999778e-01,9.225356600000000000e+09
6.100000000000000000e+01,5.300000000000000000e+01,5.900000000000000000e+01,1.630000000000000000e+02,5.200000000000000000e+01,4.900000000000000000e+01,1.610000000000000000e+02,5.200000000000000000e+01,6.099999999999999867e-01,9.244682100000000000e+09
6.500000000000000000e+01,6.000000000000000000e+01,8.600000000000000000e+01,3.240000000000000000e+02,6.800000000000000000e+01,5.000000000000000000e+01,1.640000000000000000e+02,5.200000000000000000e+01,6.199999999999999956e-01,9.265369400000000000e+09
6.400000000000000000e+01,5.800000000000000000e+01,9.200000000000000000e+01,3.700000000000000000e+02,6.800000000000000000e+01,4.900000000000000000e+01,1.080000000000000000e+02,4.800000000000000000e+01,6.300000000000000044e-01,9.287751600000000000e+09
4.300000000000000000e+01,5.500000000000000000e+01,8.900000000000000000e+01,3.900000000000000000e+02,6.200000000000000000e+01,4.600000000000000000e+01,1.820000000000000000e+02,4.500000000000000000e+01,6.400000000000000133e-01,9.305309400000000000e+09
4.800000000000000000e+01,5.000000000000000000e+01,9.400000000000000000e+01,3.990000000000000000e+02,6.200000000000000000e+01,4.300000000000000000e+01,2.230000000000000000e+02,4.700000000000000000e+01,6.500000000000000222e-01,9.324534800000000000e+09
6.300000000000000000e+01,5.300000000000000000e+01,9.900000000000000000e+01,4.360000000000000000e+02,7.500000000000000000e+01,4.500000000000000000e+01,2.260000000000000000e+02,5.300000000000000000e+01,6.600000000000000311e-01,9.343104400000000000e+09
7.000000000000000000e+01,4.500000000000000000e+01,7.500000000000000000e+01,3.420000000000000000e+02,6.100000000000000000e+01,4.000000000000000000e+01,2.370000000000000000e+02,6.000000000000000000e+01,6.700000000000000400e-01,9.365423500000000000e+09
7.800000000000000000e+01,6.000000000000000000e+01,6.600000000000000000e+01,2.910000000000000000e+02,5.800000000000000000e+01,4.200000000000000000e+01,2.400000000000000000e+02,7.000000000000000000e+01,6.800000000000000488e-01,9.387566500000000000e+09
7.800000000000000000e+01,5.600000000000000000e+01,6.400000000000000000e+01,2.700000000000000000e+02,5.700000000000000000e+01,3.700000000000000000e+01,1.900000000000000000e+02,6.800000000000000000e+01,6.899999999999999467e-01,9.405059200000000000e+09
7.700000000000000000e+01,5.900000000000000000e+01,4.900000000000000000e+01,2.510000000000000000e+02,5.500000000000000000e+01,3.700000000000000000e+01,1.340000000000000000e+02,6.500000000000000000e+01,6.999999999999999556e-01,9.424301800000000000e+09
9.400000000000000000e+01,5.700000000000000000e+01,4.100000000000000000e+01,1.260000000000000000e+02,3.400000000000000000e+01,4.100000000000000000e+01,1.490000000000000000e+02,1.940000000000000000e+02,6.999999999999999556e-01,9.445270800000000000e+09
1.040000000000000000e+02,6.300000000000000000e+01,5.600000000000000000e+01,1.030000000000000000e+02,4.300000000000000000e+01,5.100000000000000000e+01,2.100000000000000000e+02,2.980000000000000000e+02,6.999999999999999556e-01,9.466020400000000000e+09
1.020000000000000000e+02,4.600000000000000000e+01,5.100000000000000000e+01,9.400000000000000000e+01,4.100000000000000000e+01,4.800000000000000000e+01,2.080000000000000000e+02,3.050000000000000000e+02,6.899999999999999467e-01,9.487463700000000000e+09
1.030000000000000000e+02,5.400000000000000000e+01,5.000000000000000000e+01,7.100000000000000000e+01,4.000000000000000000e+01,4.800000000000000000e+01,2.070000000000000000e+02,3.110000000000000000e+02,6.800000000000000488e-01,9.507661900000000000e+09
1.080000000000000000e+02,6.100000000000000000e+01,4.700000000000000000e+01,6.300000000000000000e+01,4.100000000000000000e+01,4.500000000000000000e+01,2.060000000000000000e+02,3.140000000000000000e+02,6.700000000000000400e-01,9.526479800000000000e+09
9.000000000000000000e+01,6.000000000000000000e+01,4.500000000000000000e+01,5.100000000000000000e+01,4.000000000000000000e+01,4.000000000000000000e+01,1.900000000000000000e+02,2.610000000000000000e+02,6.500000000000000222e-01,9.545009800000000000e+09
8.700000000000000000e+01,5.500000000000000000e+01,2.500000000000000000e+01,3.600000000000000000e+01,2.800000000000000000e+01,2.900000000000000000e+01,9.700000000000000000e+01,1.310000000000000000e+02,6.400000000000000133e-01,9.563401300000000000e+09
8.600000000000000000e+01,5.700000000000000000e+01,2.600000000000000000e+01,3.700000000000000000e+01,3.000000000000000000e+01,2.900000000000000000e+01,8.800000000000000000e+01,1.130000000000000000e+02,6.199999999999999956e-01,9.585256900000000000e+09
8.800000000000000000e+01,5.700000000000000000e+01,2.700000000000000000e+01,2.900000000000000000e+01,3.000000000000000000e+01,3.100000000000000000e+01,7.900000000000000000e+01,9.900000000000000000e+01,5.999999999999999778e-01,9.607418200000000000e+09
8.300000000000000000e+01,4.900000000000000000e+01,2.900000000000000000e+01,2.800000000000000000e+01,2.700000000000000000e+01,3.000000000000000000e+01,7.400000000000000000e+01,9.400000000000000000e+01,5.799999999999999600e-01,9.626235100000000000e+09
7.400000000000000000e+01,4.700000000000000000e+01,2.800000000000000000e+01,2.600000000000000000e+01,3.000000000000000000e+01,3.200000000000000000e+01,6.400000000000000000e+01,7.200000000000000000e+01,5.600000000000000533e-01,9.644173600000000000e+09
5.200000000000000000e+01,4.400000000000000000e+01,3.000000000000000000e+01,2.800000000000000000e+01,3.000000000000000000e+01,3.100000000000000000e+01,4.700000000000000000e+01,6.500000000000000000e+01,5.400000000000000355e-01,9.663005300000000000e+09
5.800000000000000000e+01,4.200000000000000000e+01,3.200000000000000000e+01,2.600000000000000000e+01,3.000000000000000000e+01,3.000000000000000000e+01,4.900000000000000000e+01,5.600000000000000000e+01,5.300000000000000266e-01,9.685086900000000000e+09
5.700000000000000000e+01,3.600000000000000000e+01,3.000000000000000000e+01,2.800000000000000000e+01,2.800000000000000000e+01,3.100000000000000000e+01,4.500000000000000000e+01,4.600000000000000000e+01,5.300000000000000266e-01,9.707367200000000000e+09
7.800000000000000000e+01,3.600000000000000000e+01,3.000000000000000000e+01,2.800000000000000000e+01,2.800000000000000000e+01,3.400000000000000000e+01,6.200000000000000000e+01,3.900000000000000000e+01,5.200000000000000178e-01,9.725736000000000000e+09
8.400000000000000000e+01,3.700000000000000000e+01,3.000000000000000000e+01,2.700000000000000000e+01,2.600000000000000000e+01,3.200000000000000000e+01,6.600000000000000000e+01,3.700000000000000000e+01,5.100000000000000089e-01,9.744313900000000000e+09
8.300000000000000000e+01,3.800000000000000000e+01,3.100000000000000000e+01,2.700000000000000000e+01,2.300000000000000000e+01,3.200000000000000000e+01,6.700000000000000000e+01,3.600000000000000000e+01,5.100000000000000089e-01,9.762934100000000000e+09
8.800000000000000000e+01,3.700000000000000000e+01,3.000000000000000000e+01,2.700000000000000000e+01,2.500000000000000000e+01,3.100000000000000000e+01,8.100000000000000000e+01,5.500000000000000000e+01,5.000000000000000000e-01,9.785156000000000000e+09
8.600000000000000000e+01,4.300000000000000000e+01,3.200000000000000000e+01,2.400000000000000000e+01,2.600000000000000000e+01,3.000000000000000000e+01,8.800000000000000000e+01,6.100000000000000000e+01,5.000000000000000000e-01,9.807373500000000000e+09
7.100000000000000000e+01,3.900000000000000000e+01,3.200000000000000000e+01,2.400000000000000000e+01,2.600000000000000000e+01,2.800000000000000000e+01,8.100000000000000000e+01,6.100000000000000000e+01,4.899999999999999911e-01,9.829574000000000000e+09
8.200000000000000000e+01,4.100000000000000000e+01,3.100000000000000000e+01,2.900000000000000000e+01,2.500000000000000000e+01,2.800000000000000000e+01,7.800000000000000000e+01,6.300000000000000000e+01,4.899999999999999911e-01,9.848640000000000000e+09
8.300000000000000000e+01,4.000000000000000000e+01,2.900000000000000000e+01,2.600000000000000000e+01,2.800000000000000000e+01,2.600000000000000000e+01,8.200000000000000000e+01,6.600000000000000000e+01,4.899999999999999911e-01,9.867144000000000000e+09
7.400000000000000000e+01,4.400000000000000000e+01,2.900000000000000000e+01,2.800000000000000000e+01,2.500000000000000000e+01,2.700000000000000000e+01,8.600000000000000000e+01,5.700000000000000000e+01,4.799999999999999822e-01,9.885525500000000000e+09
7.700000000000000000e+01,3.900000000000000000e+01,2.900000000000000000e+01,2.900000000000000000e+01,2.500000000000000000e+01,2.600000000000000000e+01,8.000000000000000000e+01,5.200000000000000000e+01,4.799999999999999822e-01,9.908752200000000000e+09
7.600000000000000000e+01,4.300000000000000000e+01,3.100000000000000000e+01,3.000000000000000000e+01,2.600000000000000000e+01,2.900000000000000000e+01,7.700000000000000000e+01,5.100000000000000000e+01,4.799999999999999822e-01,9.927463500000000000e+09
5.800000000000000000e+01,4.200000000000000000e+01,3.200000000000000000e+01,2.600000000000000000e+01,2.600000000000000000e+01,2.700000000000000000e+01,9.300000000000000000e+01,5.300000000000000000e+01,4.799999999999999822e-01,9.945455400000000000e+09
5.900000000000000000e+01,4.200000000000000000e+01,3.100000000000000000e+01,2.500000000000000000e+01,2.500000000000000000e+01,3.100000000000000000e+01,9.200000000000000000e+01,5.100000000000000000e+01,4.699999999999999734e-01,9.964441800000000000e+09
6.300000000000000000e+01,4.200000000000000000e+01,3.100000000000000000e+01,2.500000000000000000e+01,2.500000000000000000e+01,3.200000000000000000e+01,8.100000000000000000e+01,4.600000000000000000e+01,4.699999999999999734e-01,9.987001800000000000e+09
5.900000000000000000e+01,3.700000000000000000e+01,2.900000000000000000e+01,2.700000000000000000e+01,2.600000000000000000e+01,3.100000000000000000e+01,8.300000000000000000e+01,4.600000000000000000e+01,4.699999999999999734e-01,1.000931390000000000e+10
5.900000000000000000e+01,3.600000000000000000e+01,2.800000000000000000e+01,2.600000000000000000e+01,2.500000000000000000e+01,2.700000000000000000e+01,9.600000000000000000e+01,5.200000000000000000e+01,4.699999999999999734e-01,1.002685800000000000e+10
7.400000000000000000e+01,4.400000000000000000e+01,2.800000000000000000e+01,2.700000000000000000e+01,2.500000000000000000e+01,3.000000000000000000e+01,8.300000000000000000e+01,5.300000000000000000e+01,4.699999999999999734e-01,1.004623520000000000e+10
7.100000000000000000e+01,4.500000000000000000e+01,2.800000000000000000e+01,2.700000000000000000e+01,2.500000000000000000e+01,2.700000000000000000e+01,7.900000000000000000e+01,5.400000000000000000e+01,4.699999999999999734e-01,1.006503330000000000e+10
6.500000000000000000e+01,4.600000000000000000e+01,2.700000000000000000e+01,2.800000000000000000e+01,2.600000000000000000e+01,2.600000000000000000e+01,8.000000000000000000e+01,5.300000000000000000e+01,4.699999999999999734e-01,1.008722370000000000e+10
7.300000000000000000e+01,5.600000000000000000e+01,2.900000000000000000e+01,2.400000000000000000e+01,2.600000000000000000e+01,2.700000000000000000e+01,8.300000000000000000e+01,5.500000000000000000e+01,4.699999999999999734e-01,1.010939730000000000e+10
9.000000000000000000e+01,5.900000000000000000e+01,3.100000000000000000e+01,2.700000000000000000e+01,2.500000000000000000e+01,2.900000000000000000e+01,8.500000000000000000e+01,5.400000000000000000e+01,4.699999999999999734e-01,1.012729020000000000e+10
8.100000000000000000e+01,6.400000000000000000e+01,3.300000000000000000e+01,2.700000000000000000e+01,2.800000000000000000e+01,2.900000000000000000e+01,1.030000000000000000e+02,1.010000000000000000e+02,4.699999999999999734e-01,1.014589880000000000e+10
8.600000000000000000e+01,7.800000000000000000e+01,3.500000000000000000e+01,2.800000000000000000e+01,2.900000000000000000e+01,3.200000000000000000e+01,1.260000000000000000e+02,1.360000000000000000e+02,4.600000000000000200e-01,1.016511890000000000e+10
1.010000000000000000e+02,8.100000000000000000e+01,3.500000000000000000e+01,2.900000000000000000e+01,3.000000000000000000e+01,3.200000000000000000e+01,1.260000000000000000e+02,1.500000000000000000e+02,4.600000000000000200e-01,1.018729680000000000e+10
9.900000000000000000e+01,8.300000000000000000e+01,3.400000000000000000e+01,3.000000000000000000e+01,3.000000000000000000e+01,3.400000000000000000e+01,1.430000000000000000e+02,1.580000000000000000e+02,4.600000000000000200e-01,1.020647170000000000e+10
9.900000000000000000e+01,8.000000000000000000e+01,3.600000000000000000e+01,3.100000000000000000e+01,3.200000000000000000e+01,3.800000000000000000e+01,1.810000000000000000e+02,1.740000000000000000e+02,4.600000000000000200e-01,1.022526020000000000e+10
9.900000000000000000e+01,7.600000000000000000e+01,3.500000000000000000e+01,3.200000000000000000e+01,3.100000000000000000e+01,3.800000000000000000e+01,1.750000000000000000e+02,1.610000000000000000e+02,4.600000000000000200e-01,1.024420980000000000e+10
1.090000000000000000e+02,7.400000000000000000e+01,3.700000000000000000e+01,3.600000000000000000e+01,3.000000000000000000e+01,3.700000000000000000e+01,1.860000000000000000e+02,1.450000000000000000e+02,4.600000000000000200e-01,1.026415360000000000e+10
9.900000000000000000e+01,6.900000000000000000e+01,3.800000000000000000e+01,3.500000000000000000e+01,2.800000000000000000e+01,3.600000000000000000e+01,1.860000000000000000e+02,1.330000000000000000e+02,4.600000000000000200e-01,1.028637000000000000e+10
9.400000000000000000e+01,5.900000000000000000e+01,3.700000000000000000e+01,3.500000000000000000e+01,2.700000000000000000e+01,3.400000000000000000e+01,1.930000000000000000e+02,1.230000000000000000e+02,4.600000000000000200e-01,1.030859580000000000e+10
7.400000000000000000e+01,5.800000000000000000e+01,3.600000000000000000e+01,3.300000000000000000e+01,2.600000000000000000e+01,3.000000000000000000e+01,1.580000000000000000e+02,9.800000000000000000e+01,4.600000000000000200e-01,1.032671140000000000e+10
7.200000000000000000e+01,5.800000000000000000e+01,3.500000000000000000e+01,3.100000000000000000e+01,2.500000000000000000e+01,2.900000000000000000e+01,1.550000000000000000e+02,7.700000000000000000e+01,4.600000000000000200e-01,1.034584570000000000e+10
