88.00 ,317.00 ,677.00 ,138.00 ,63.00 ,369.00 ,196.00 ,227.00 ,0.18 ,321373800.00 
90.00 ,367.00 ,688.00 ,161.00 ,63.00 ,386.00 ,187.00 ,233.00 ,0.19 ,338750900.00 
91.00 ,377.00 ,777.00 ,157.00 ,65.00 ,385.00 ,160.00 ,225.00 ,0.20 ,360277700.00 
95.00 ,397.00 ,754.00 ,183.00 ,71.00 ,375.00 ,163.00 ,225.00 ,0.21 ,380815500.00 
94.00 ,401.00 ,790.00 ,183.00 ,70.00 ,375.00 ,164.00 ,237.00 ,0.22 ,401397400.00 
87.00 ,398.00 ,739.00 ,176.00 ,57.00 ,292.00 ,131.00 ,237.00 ,0.23 ,422097600.00 
80.00 ,395.00 ,791.00 ,165.00 ,58.00 ,271.00 ,133.00 ,217.00 ,0.24 ,438738600.00 
71.00 ,317.00 ,678.00 ,151.00 ,56.00 ,288.00 ,124.00 ,200.00 ,0.25 ,457942500.00 
67.00 ,356.00 ,635.00 ,117.00 ,43.00 ,316.00 ,185.00 ,212.00 ,0.26 ,478033700.00 
80.00 ,364.00 ,556.00 ,115.00 ,52.00 ,436.00 ,239.00 ,256.00 ,0.27 ,502129200.00 
80.00 ,363.00 ,568.00 ,118.00 ,56.00 ,503.00 ,500.00 ,341.00 ,0.28 ,521433300.00 
130.00 ,329.00 ,433.00 ,111.00 ,75.00 ,552.00 ,682.00 ,565.00 ,0.29 ,541034000.00 
143.00 ,379.00 ,402.00 ,110.00 ,100.00 ,747.00 ,905.00 ,750.00 ,0.30 ,560496400.00 
168.00 ,356.00 ,353.00 ,96.00 ,109.00 ,873.00 ,1054.00 ,854.00 ,0.31 ,581130100.00 
174.00 ,432.00 ,311.00 ,93.00 ,113.00 ,953.00 ,1094.00 ,936.00 ,0.32 ,599325200.00 
182.00 ,444.00 ,445.00 ,119.00 ,115.00 ,947.00 ,1061.00 ,955.00 ,0.33 ,618586400.00 
169.00 ,479.00 ,499.00 ,147.00 ,120.00 ,987.00 ,1028.00 ,1050.00 ,0.34 ,643748300.00 
175.00 ,454.00 ,574.00 ,150.00 ,111.00 ,980.00 ,1039.00 ,1011.00 ,0.35 ,659436500.00 
160.00 ,445.00 ,581.00 ,155.00 ,119.00 ,949.00 ,1020.00 ,1006.00 ,0.36 ,679546900.00 
167.00 ,376.00 ,587.00 ,163.00 ,122.00 ,892.00 ,1062.00 ,993.00 ,0.37 ,699616900.00 
180.00 ,430.00 ,514.00 ,210.00 ,130.00 ,926.00 ,1026.00 ,987.00 ,0.38 ,719978400.00 
178.00 ,420.00 ,516.00 ,211.00 ,140.00 ,963.00 ,1034.00 ,862.00 ,0.39 ,739649500.00 
183.00 ,426.00 ,428.00 ,206.00 ,141.00 ,917.00 ,1002.00 ,832.00 ,0.40 ,759436900.00 
177.00 ,408.00 ,413.00 ,205.00 ,131.00 ,901.00 ,1052.00 ,786.00 ,0.41 ,779482700.00 
179.00 ,476.00 ,468.00 ,205.00 ,125.00 ,877.00 ,1069.00 ,873.00 ,0.42 ,799910800.00 
170.00 ,448.00 ,538.00 ,152.00 ,125.00 ,946.00 ,1156.00 ,855.00 ,0.43 ,818153600.00 
180.00 ,434.00 ,494.00 ,119.00 ,96.00 ,876.00 ,1135.00 ,851.00 ,0.44 ,838748300.00 
197.00 ,457.00 ,510.00 ,121.00 ,90.00 ,948.00 ,1078.00 ,954.00 ,0.45 ,858660300.00 
250.00 ,476.00 ,519.00 ,117.00 ,93.00 ,949.00 ,948.00 ,1015.00 ,0.46 ,879336100.00 
261.00 ,480.00 ,531.00 ,125.00 ,128.00 ,1103.00 ,907.00 ,967.00 ,0.47 ,899957000.00 
259.00 ,626.00 ,565.00 ,143.00 ,154.00 ,1192.00 ,824.00 ,1008.00 ,0.48 ,917948800.00 
273.00 ,642.00 ,634.00 ,153.00 ,174.00 ,1291.00 ,806.00 ,1016.00 ,0.49 ,937865700.00 
258.00 ,627.00 ,663.00 ,156.00 ,184.00 ,1326.00 ,817.00 ,952.00 ,0.50 ,957916100.00 
258.00 ,635.00 ,665.00 ,163.00 ,199.00 ,1421.00 ,850.00 ,982.00 ,0.51 ,978268800.00 
271.00 ,708.00 ,642.00 ,153.00 ,195.00 ,1379.00 ,984.00 ,1017.00 ,0.52 ,998050900.00 
304.00 ,600.00 ,650.00 ,140.00 ,172.00 ,1243.00 ,1092.00 ,1037.00 ,0.53 ,1018576600.00 
313.00 ,632.00 ,622.00 ,146.00 ,176.00 ,1227.00 ,1142.00 ,1093.00 ,0.54 ,1039991700.00 
359.00 ,667.00 ,606.00 ,155.00 ,182.00 ,1173.00 ,1146.00 ,1221.00 ,0.55 ,1058192700.00 
355.00 ,639.00 ,611.00 ,156.00 ,201.00 ,1143.00 ,1178.00 ,1226.00 ,0.56 ,1078721200.00 
346.00 ,563.00 ,612.00 ,152.00 ,192.00 ,1151.00 ,1037.00 ,1191.00 ,0.57 ,1099241700.00 
330.00 ,556.00 ,505.00 ,142.00 ,193.00 ,1220.00 ,976.00 ,1165.00 ,0.58 ,1118958900.00 
315.00 ,525.00 ,521.00 ,135.00 ,182.00 ,1194.00 ,973.00 ,1139.00 ,0.59 ,1138806700.00 
303.00 ,495.00 ,494.00 ,123.00 ,173.00 ,1181.00 ,948.00 ,1040.00 ,0.60 ,1159293300.00 
279.00 ,573.00 ,536.00 ,113.00 ,139.00 ,1194.00 ,940.00 ,975.00 ,0.61 ,1179378100.00 
267.00 ,538.00 ,534.00 ,114.00 ,151.00 ,1191.00 ,983.00 ,997.00 ,0.62 ,1199487000.00 
275.00 ,583.00 ,565.00 ,120.00 ,159.00 ,1219.00 ,966.00 ,1075.00 ,0.63 ,1218184400.00 
293.00 ,614.00 ,553.00 ,124.00 ,167.00 ,1246.00 ,956.00 ,1062.00 ,0.64 ,1238397000.00 
276.00 ,626.00 ,641.00 ,134.00 ,161.00 ,1282.00 ,1019.00 ,1001.00 ,0.65 ,1260122200.00 
307.00 ,680.00 ,653.00 ,144.00 ,157.00 ,1263.00 ,976.00 ,1036.00 ,0.66 ,1279181200.00 
314.00 ,669.00 ,631.00 ,142.00 ,152.00 ,1336.00 ,1012.00 ,1046.00 ,0.67 ,1297979700.00 
324.00 ,627.00 ,547.00 ,123.00 ,147.00 ,1273.00 ,988.00 ,958.00 ,0.68 ,1319451500.00 
311.00 ,608.00 ,511.00 ,109.00 ,134.00 ,1240.00 ,955.00 ,968.00 ,0.69 ,1339705100.00 
330.00 ,659.00 ,449.00 ,113.00 ,141.00 ,1213.00 ,916.00 ,954.00 ,0.70 ,1365329700.00 
336.00 ,564.00 ,381.00 ,106.00 ,142.00 ,1183.00 ,912.00 ,932.00 ,0.71 ,1379892800.00 
378.00 ,612.00 ,409.00 ,120.00 ,146.00 ,1102.00 ,819.00 ,925.00 ,0.72 ,1399842800.00 
406.00 ,600.00 ,425.00 ,120.00 ,152.00 ,1250.00 ,899.00 ,1038.00 ,0.73 ,1417897900.00 
453.00 ,652.00 ,432.00 ,128.00 ,165.00 ,1276.00 ,960.00 ,981.00 ,0.74 ,1437790100.00 
432.00 ,596.00 ,455.00 ,124.00 ,174.00 ,1316.00 ,955.00 ,1031.00 ,0.75 ,1457905100.00 
433.00 ,605.00 ,535.00 ,137.00 ,192.00 ,1388.00 ,957.00 ,969.00 ,0.76 ,1477905500.00 
425.00 ,575.00 ,528.00 ,136.00 ,212.00 ,1378.00 ,991.00 ,928.00 ,0.77 ,1497976700.00 
386.00 ,633.00 ,528.00 ,138.00 ,209.00 ,1239.00 ,1006.00 ,881.00 ,0.78 ,1518347500.00 
357.00 ,646.00 ,509.00 ,140.00 ,222.00 ,1241.00 ,1019.00 ,892.00 ,0.79 ,1538624900.00 
381.00 ,712.00 ,495.00 ,134.00 ,239.00 ,1229.00 ,1021.00 ,957.00 ,0.80 ,1558958700.00 
427.00 ,792.00 ,483.00 ,143.00 ,269.00 ,1225.00 ,1002.00 ,983.00 ,0.81 ,1579152100.00 
415.00 ,843.00 ,500.00 ,150.00 ,257.00 ,1250.00 ,1022.00 ,1093.00 ,0.82 ,1599287500.00 
441.00 ,836.00 ,496.00 ,148.00 ,263.00 ,1349.00 ,940.00 ,1038.00 ,0.83 ,1619544400.00 
459.00 ,811.00 ,517.00 ,156.00 ,262.00 ,1324.00 ,870.00 ,1040.00 ,0.84 ,1639454200.00 
524.00 ,772.00 ,486.00 ,166.00 ,248.00 ,1300.00 ,819.00 ,951.00 ,0.85 ,1659286200.00 
528.00 ,698.00 ,467.00 ,166.00 ,229.00 ,1342.00 ,890.00 ,1043.00 ,0.86 ,1678789600.00 
621.00 ,704.00 ,520.00 ,172.00 ,226.00 ,1325.00 ,908.00 ,991.00 ,0.87 ,1698632100.00 
659.00 ,755.00 ,520.00 ,171.00 ,225.00 ,1237.00 ,932.00 ,1045.00 ,0.88 ,1718338100.00 
678.00 ,874.00 ,532.00 ,171.00 ,222.00 ,1228.00 ,976.00 ,1074.00 ,0.89 ,1738334900.00 
686.00 ,882.00 ,529.00 ,166.00 ,253.00 ,1270.00 ,977.00 ,1058.00 ,0.90 ,1757983200.00 
646.00 ,959.00 ,541.00 ,155.00 ,236.00 ,1238.00 ,1003.00 ,1043.00 ,0.91 ,1777726200.00 
596.00 ,1025.00 ,483.00 ,138.00 ,229.00 ,1312.00 ,1007.00 ,944.00 ,0.92 ,1797600600.00 
641.00 ,1031.00 ,498.00 ,143.00 ,229.00 ,1349.00 ,997.00 ,888.00 ,0.94 ,1840673900.00 
656.00 ,973.00 ,556.00 ,139.00 ,228.00 ,1423.00 ,1059.00 ,881.00 ,0.94 ,1840696100.00 
672.00 ,1022.00 ,551.00 ,143.00 ,203.00 ,1395.00 ,1138.00 ,955.00 ,0.95 ,1859905600.00 
726.00 ,1020.00 ,537.00 ,139.00 ,209.00 ,1382.00 ,1133.00 ,994.00 ,0.97 ,1898974800.00 
725.00 ,945.00 ,530.00 ,147.00 ,243.00 ,1345.00 ,1079.00 ,1037.00 ,0.97 ,1898988200.00 
698.00 ,969.00 ,520.00 ,162.00 ,270.00 ,1371.00 ,1091.00 ,1083.00 ,0.98 ,1919174300.00 
701.00 ,950.00 ,426.00 ,154.00 ,265.00 ,1310.00 ,1026.00 ,1113.00 ,0.98 ,1959380600.00 
673.00 ,922.00 ,438.00 ,154.00 ,279.00 ,1422.00 ,1053.00 ,1213.00 ,0.98 ,1959396300.00 
627.00 ,877.00 ,419.00 ,159.00 ,268.00 ,1427.00 ,966.00 ,1160.00 ,0.97 ,1980305400.00 
643.00 ,957.00 ,451.00 ,154.00 ,253.00 ,1442.00 ,969.00 ,1163.00 ,0.95 ,2018408000.00 
578.00 ,943.00 ,455.00 ,146.00 ,239.00 ,1441.00 ,918.00 ,1126.00 ,0.95 ,2018420600.00 
557.00 ,985.00 ,462.00 ,151.00 ,248.00 ,1489.00 ,936.00 ,1072.00 ,0.94 ,2038662200.00 
504.00 ,971.00 ,510.00 ,137.00 ,207.00 ,1296.00 ,802.00 ,840.00 ,0.93 ,2060035100.00 
480.00 ,939.00 ,571.00 ,142.00 ,207.00 ,1264.00 ,805.00 ,753.00 ,0.92 ,2080119500.00 
390.00 ,797.00 ,637.00 ,190.00 ,181.00 ,1129.00 ,740.00 ,668.00 ,0.91 ,2100181500.00 
376.00 ,674.00 ,659.00 ,191.00 ,148.00 ,1043.00 ,741.00 ,566.00 ,0.89 ,2139150600.00 
275.00 ,608.00 ,682.00 ,193.00 ,123.00 ,918.00 ,607.00 ,494.00 ,0.89 ,2139164900.00 
217.00 ,517.00 ,705.00 ,367.00 ,123.00 ,918.00 ,499.00 ,461.00 ,0.88 ,2159939900.00 
193.00 ,463.00 ,729.00 ,487.00 ,125.00 ,737.00 ,414.00 ,390.00 ,0.86 ,2198446000.00 
195.00 ,433.00 ,657.00 ,504.00 ,129.00 ,746.00 ,388.00 ,328.00 ,0.86 ,2198526900.00 
184.00 ,480.00 ,774.00 ,514.00 ,127.00 ,767.00 ,307.00 ,273.00 ,0.85 ,2218679400.00 
153.00 ,347.00 ,772.00 ,510.00 ,107.00 ,737.00 ,241.00 ,187.00 ,0.83 ,2258922600.00 
153.00 ,380.00 ,748.00 ,425.00 ,107.00 ,693.00 ,224.00 ,174.00 ,0.82 ,2279274600.00 
172.00 ,375.00 ,704.00 ,298.00 ,89.00 ,680.00 ,215.00 ,145.00 ,0.82 ,2279287800.00 
153.00 ,381.00 ,764.00 ,235.00 ,79.00 ,670.00 ,230.00 ,130.00 ,0.80 ,2317683200.00 
163.00 ,351.00 ,739.00 ,213.00 ,79.00 ,581.00 ,216.00 ,124.00 ,0.80 ,2317696300.00 
160.00 ,334.00 ,717.00 ,232.00 ,77.00 ,535.00 ,192.00 ,90.00 ,0.79 ,2338883700.00 
194.00 ,366.00 ,724.00 ,218.00 ,69.00 ,546.00 ,187.00 ,86.00 ,0.77 ,2379966000.00 
180.00 ,364.00 ,788.00 ,191.00 ,79.00 ,619.00 ,199.00 ,82.00 ,0.77 ,2379979900.00 
179.00 ,380.00 ,757.00 ,187.00 ,69.00 ,592.00 ,241.00 ,97.00 ,0.76 ,2398019300.00 
166.00 ,350.00 ,697.00 ,193.00 ,73.00 ,515.00 ,219.00 ,92.00 ,0.74 ,2438675600.00 
188.00 ,409.00 ,744.00 ,190.00 ,87.00 ,502.00 ,220.00 ,94.00 ,0.74 ,2438692600.00 
157.00 ,420.00 ,723.00 ,159.00 ,91.00 ,507.00 ,223.00 ,93.00 ,0.73 ,2459996400.00 
143.00 ,424.00 ,642.00 ,149.00 ,81.00 ,460.00 ,211.00 ,127.00 ,0.71 ,2498822000.00 
164.00 ,458.00 ,791.00 ,159.00 ,85.00 ,406.00 ,151.00 ,150.00 ,0.71 ,2498872400.00 
194.00 ,492.00 ,842.00 ,138.00 ,76.00 ,389.00 ,141.00 ,149.00 ,0.69 ,2538508900.00 
179.00 ,509.00 ,847.00 ,107.00 ,66.00 ,387.00 ,134.00 ,153.00 ,0.68 ,2558887400.00 
175.00 ,549.00 ,839.00 ,109.00 ,65.00 ,395.00 ,134.00 ,177.00 ,0.68 ,2558902200.00 
188.00 ,589.00 ,821.00 ,126.00 ,70.00 ,409.00 ,179.00 ,191.00 ,0.66 ,2598741400.00 
175.00 ,583.00 ,635.00 ,127.00 ,65.00 ,393.00 ,177.00 ,168.00 ,0.65 ,2618478300.00 
133.00 ,600.00 ,498.00 ,138.00 ,65.00 ,398.00 ,184.00 ,170.00 ,0.65 ,2618490200.00 
139.00 ,578.00 ,501.00 ,155.00 ,65.00 ,389.00 ,187.00 ,170.00 ,0.64 ,2637971400.00 
146.00 ,497.00 ,533.00 ,159.00 ,67.00 ,509.00 ,197.00 ,144.00 ,0.62 ,2677667100.00 
133.00 ,442.00 ,575.00 ,150.00 ,61.00 ,437.00 ,157.00 ,88.00 ,0.62 ,2677680500.00 
142.00 ,411.00 ,565.00 ,135.00 ,61.00 ,426.00 ,142.00 ,74.00 ,0.61 ,2697564400.00 
134.00 ,365.00 ,670.00 ,119.00 ,59.00 ,429.00 ,132.00 ,68.00 ,0.59 ,2739893800.00 
137.00 ,387.00 ,772.00 ,118.00 ,56.00 ,546.00 ,171.00 ,62.00 ,0.58 ,2757838100.00 
144.00 ,415.00 ,785.00 ,109.00 ,54.00 ,429.00 ,175.00 ,65.00 ,0.58 ,2757850100.00 
159.00 ,435.00 ,762.00 ,106.00 ,57.00 ,422.00 ,170.00 ,68.00 ,0.56 ,2798381600.00 
147.00 ,443.00 ,829.00 ,107.00 ,61.00 ,464.00 ,175.00 ,76.00 ,0.55 ,2818421100.00 
155.00 ,444.00 ,829.00 ,136.00 ,70.00 ,578.00 ,176.00 ,92.00 ,0.55 ,2818433700.00 
151.00 ,366.00 ,750.00 ,115.00 ,67.00 ,524.00 ,145.00 ,113.00 ,0.53 ,2858327800.00 
152.00 ,334.00 ,742.00 ,118.00 ,61.00 ,525.00 ,133.00 ,109.00 ,0.52 ,2878963400.00 
150.00 ,344.00 ,750.00 ,131.00 ,60.00 ,529.00 ,114.00 ,106.00 ,0.52 ,2878975900.00 
145.00 ,319.00 ,726.00 ,139.00 ,60.00 ,536.00 ,135.00 ,103.00 ,0.50 ,2918339300.00 
139.00 ,320.00 ,749.00 ,130.00 ,59.00 ,485.00 ,155.00 ,106.00 ,0.49 ,2939187600.00 
125.00 ,396.00 ,773.00 ,146.00 ,60.00 ,441.00 ,148.00 ,93.00 ,0.49 ,2939200000.00 
121.00 ,419.00 ,845.00 ,151.00 ,61.00 ,422.00 ,140.00 ,92.00 ,0.47 ,2978973700.00 
111.00 ,413.00 ,866.00 ,142.00 ,60.00 ,414.00 ,136.00 ,92.00 ,0.46 ,2999352200.00 
117.00 ,416.00 ,917.00 ,149.00 ,68.00 ,424.00 ,129.00 ,102.00 ,0.46 ,2999366200.00 
119.00 ,399.00 ,869.00 ,154.00 ,62.00 ,352.00 ,105.00 ,96.00 ,0.44 ,3039563600.00 
141.00 ,380.00 ,855.00 ,161.00 ,65.00 ,335.00 ,102.00 ,89.00 ,0.43 ,3059352200.00 
152.00 ,367.00 ,814.00 ,168.00 ,64.00 ,326.00 ,99.00 ,88.00 ,0.43 ,3059364000.00 
147.00 ,367.00 ,835.00 ,177.00 ,65.00 ,321.00 ,101.00 ,89.00 ,0.41 ,3099483700.00 
144.00 ,385.00 ,797.00 ,175.00 ,71.00 ,309.00 ,87.00 ,84.00 ,0.40 ,3119815400.00 
143.00 ,413.00 ,864.00 ,186.00 ,73.00 ,343.00 ,82.00 ,80.00 ,0.40 ,3119828800.00 
129.00 ,414.00 ,869.00 ,182.00 ,70.00 ,365.00 ,86.00 ,71.00 ,0.39 ,3139869300.00 
111.00 ,393.00 ,810.00 ,189.00 ,71.00 ,361.00 ,86.00 ,71.00 ,0.37 ,3180012500.00 
118.00 ,399.00 ,832.00 ,179.00 ,70.00 ,356.00 ,91.00 ,70.00 ,0.37 ,3180025500.00 
114.00 ,393.00 ,883.00 ,183.00 ,58.00 ,350.00 ,130.00 ,59.00 ,0.35 ,3217728900.00 
114.00 ,364.00 ,859.00 ,186.00 ,54.00 ,295.00 ,135.00 ,43.00 ,0.34 ,3239976900.00 
129.00 ,399.00 ,844.00 ,213.00 ,62.00 ,267.00 ,134.00 ,49.00 ,0.34 ,3239989000.00 
136.00 ,480.00 ,914.00 ,244.00 ,76.00 ,272.00 ,137.00 ,57.00 ,0.32 ,3278149900.00 
128.00 ,477.00 ,900.00 ,254.00 ,74.00 ,281.00 ,134.00 ,57.00 ,0.31 ,3298606000.00 
138.00 ,519.00 ,882.00 ,272.00 ,94.00 ,379.00 ,108.00 ,75.00 ,0.31 ,3298618900.00 
135.00 ,524.00 ,929.00 ,270.00 ,99.00 ,572.00 ,114.00 ,78.00 ,0.29 ,3340635900.00 
166.00 ,542.00 ,969.00 ,260.00 ,101.00 ,598.00 ,118.00 ,74.00 ,0.28 ,3359106800.00 
160.00 ,509.00 ,951.00 ,256.00 ,113.00 ,601.00 ,119.00 ,75.00 ,0.28 ,3359119600.00 
168.00 ,591.00 ,954.00 ,273.00 ,127.00 ,603.00 ,140.00 ,83.00 ,0.26 ,3399478000.00 
161.00 ,570.00 ,1011.00 ,260.00 ,112.00 ,522.00 ,147.00 ,68.00 ,0.25 ,3419874600.00 
175.00 ,603.00 ,1006.00 ,273.00 ,113.00 ,314.00 ,138.00 ,71.00 ,0.25 ,3419888000.00 
172.00 ,581.00 ,972.00 ,331.00 ,134.00 ,254.00 ,132.00 ,86.00 ,0.23 ,3457846900.00 
191.00 ,602.00 ,1023.00 ,340.00 ,127.00 ,272.00 ,148.00 ,88.00 ,0.22 ,3477566000.00 
196.00 ,577.00 ,1031.00 ,342.00 ,126.00 ,347.00 ,135.00 ,89.00 ,0.22 ,3477580000.00 
206.00 ,593.00 ,1020.00 ,361.00 ,151.00 ,343.00 ,109.00 ,100.00 ,0.20 ,3517884000.00 
216.00 ,635.00 ,987.00 ,414.00 ,168.00 ,343.00 ,111.00 ,104.00 ,0.19 ,3538247000.00 
204.00 ,754.00 ,1045.00 ,449.00 ,171.00 ,399.00 ,120.00 ,102.00 ,0.19 ,3538259600.00 
196.00 ,801.00 ,1019.00 ,438.00 ,179.00 ,432.00 ,104.00 ,99.00 ,0.17 ,3579033700.00 
231.00 ,822.00 ,1112.00 ,509.00 ,191.00 ,379.00 ,102.00 ,106.00 ,0.16 ,3599191700.00 
260.00 ,930.00 ,1117.00 ,564.00 ,204.00 ,372.00 ,119.00 ,117.00 ,0.16 ,3599205300.00 
268.00 ,944.00 ,1191.00 ,593.00 ,233.00 ,360.00 ,129.00 ,127.00 ,0.14 ,3640232100.00 
282.00 ,986.00 ,1176.00 ,595.00 ,223.00 ,308.00 ,125.00 ,130.00 ,0.13 ,3658890400.00 
303.00 ,1005.00 ,1177.00 ,689.00 ,238.00 ,284.00 ,127.00 ,138.00 ,0.12 ,3679038000.00 
367.00 ,1078.00 ,1082.00 ,775.00 ,285.00 ,348.00 ,152.00 ,155.00 ,0.11 ,3699189400.00 
396.00 ,1062.00 ,1265.00 ,867.00 ,309.00 ,340.00 ,158.00 ,173.00 ,0.10 ,3719439200.00 
403.00 ,1085.00 ,1247.00 ,892.00 ,300.00 ,345.00 ,154.00 ,174.00 ,0.09 ,3739506700.00 
433.00 ,990.00 ,1271.00 ,910.00 ,320.00 ,415.00 ,161.00 ,224.00 ,0.08 ,3759328800.00 
465.00 ,983.00 ,1281.00 ,936.00 ,334.00 ,491.00 ,185.00 ,259.00 ,0.07 ,3779312700.00 
435.00 ,927.00 ,1339.00 ,881.00 ,333.00 ,453.00 ,171.00 ,266.00 ,0.06 ,3799355900.00 
414.00 ,966.00 ,1182.00 ,797.00 ,316.00 ,457.00 ,159.00 ,255.00 ,0.05 ,3817602000.00 
398.00 ,981.00 ,1154.00 ,737.00 ,301.00 ,470.00 ,182.00 ,257.00 ,0.04 ,3837708300.00 
382.00 ,1008.00 ,1170.00 ,725.00 ,302.00 ,484.00 ,186.00 ,263.00 ,0.03 ,3857721900.00 
390.00 ,1015.00 ,1212.00 ,671.00 ,317.00 ,505.00 ,170.00 ,318.00 ,0.02 ,3880265000.00 
384.00 ,1066.00 ,1246.00 ,660.00 ,278.00 ,510.00 ,166.00 ,329.00 ,0.01 ,3898021100.00 
378.00 ,986.00 ,1225.00 ,615.00 ,256.00 ,514.00 ,162.00 ,331.00 ,0.00 ,3918128900.00 
385.00 ,918.00 ,1191.00 ,605.00 ,259.00 ,558.00 ,162.00 ,421.00 ,0.01 ,3938601200.00 
353.00 ,883.00 ,1103.00 ,559.00 ,243.00 ,532.00 ,154.00 ,401.00 ,0.02 ,3958695500.00 
287.00 ,907.00 ,1043.00 ,486.00 ,191.00 ,469.00 ,158.00 ,338.00 ,0.03 ,3978578300.00 
236.00 ,802.00 ,886.00 ,381.00 ,170.00 ,560.00 ,258.00 ,520.00 ,0.04 ,3998962800.00 
214.00 ,738.00 ,775.00 ,343.00 ,160.00 ,663.00 ,389.00 ,594.00 ,0.05 ,4018249100.00 
211.00 ,731.00 ,714.00 ,313.00 ,141.00 ,809.00 ,582.00 ,751.00 ,0.06 ,4038372400.00 
205.00 ,662.00 ,677.00 ,239.00 ,124.00 ,958.00 ,739.00 ,852.00 ,0.07 ,4058176600.00 
216.00 ,565.00 ,555.00 ,181.00 ,96.00 ,1031.00 ,856.00 ,937.00 ,0.08 ,4078240900.00 
238.00 ,509.00 ,591.00 ,196.00 ,100.00 ,1027.00 ,882.00 ,915.00 ,0.09 ,4097872600.00 
251.00 ,648.00 ,597.00 ,226.00 ,111.00 ,1058.00 ,1000.00 ,917.00 ,0.10 ,4117718000.00 
241.00 ,599.00 ,557.00 ,207.00 ,122.00 ,1049.00 ,1043.00 ,833.00 ,0.11 ,4137773800.00 
244.00 ,616.00 ,597.00 ,201.00 ,105.00 ,900.00 ,1033.00 ,823.00 ,0.12 ,4159906800.00 
227.00 ,563.00 ,807.00 ,195.00 ,102.00 ,833.00 ,975.00 ,777.00 ,0.12 ,4159919800.00 
198.00 ,621.00 ,838.00 ,190.00 ,88.00 ,795.00 ,977.00 ,866.00 ,0.14 ,4197572700.00 
180.00 ,468.00 ,804.00 ,145.00 ,80.00 ,786.00 ,886.00 ,867.00 ,0.15 ,4219632900.00 
213.00 ,480.00 ,811.00 ,141.00 ,77.00 ,684.00 ,785.00 ,846.00 ,0.15 ,4219845900.00 
215.00 ,497.00 ,851.00 ,165.00 ,99.00 ,740.00 ,689.00 ,793.00 ,0.17 ,4259516800.00 
204.00 ,505.00 ,746.00 ,162.00 ,100.00 ,705.00 ,713.00 ,882.00 ,0.18 ,4279482600.00 
211.00 ,468.00 ,675.00 ,137.00 ,105.00 ,732.00 ,680.00 ,800.00 ,0.19 ,4299790900.00 
208.00 ,477.00 ,676.00 ,125.00 ,100.00 ,720.00 ,659.00 ,843.00 ,0.20 ,4319653700.00 
168.00 ,467.00 ,665.00 ,125.00 ,93.00 ,691.00 ,629.00 ,876.00 ,0.21 ,4339996800.00 
153.00 ,458.00 ,596.00 ,103.00 ,71.00 ,640.00 ,594.00 ,855.00 ,0.21 ,4340009400.00 
175.00 ,531.00 ,569.00 ,116.00 ,75.00 ,663.00 ,504.00 ,729.00 ,0.23 ,4378415400.00 
170.00 ,477.00 ,514.00 ,125.00 ,72.00 ,681.00 ,634.00 ,800.00 ,0.24 ,4398669500.00 
174.00 ,457.00 ,501.00 ,128.00 ,71.00 ,632.00 ,608.00 ,801.00 ,0.25 ,4418674200.00 
176.00 ,466.00 ,530.00 ,124.00 ,63.00 ,599.00 ,569.00 ,794.00 ,0.26 ,4438450100.00 
175.00 ,510.00 ,595.00 ,124.00 ,62.00 ,587.00 ,617.00 ,790.00 ,0.27 ,4458544500.00 
162.00 ,404.00 ,541.00 ,109.00 ,50.00 ,585.00 ,644.00 ,798.00 ,0.28 ,4478517500.00 
173.00 ,414.00 ,543.00 ,98.00 ,49.00 ,575.00 ,609.00 ,678.00 ,0.29 ,4498776900.00 
186.00 ,453.00 ,545.00 ,94.00 ,57.00 ,564.00 ,630.00 ,662.00 ,0.30 ,4518552300.00 
210.00 ,534.00 ,511.00 ,88.00 ,57.00 ,556.00 ,676.00 ,577.00 ,0.31 ,4538706000.00 
213.00 ,484.00 ,511.00 ,122.00 ,63.00 ,575.00 ,682.00 ,636.00 ,0.32 ,4560554900.00 
210.00 ,457.00 ,505.00 ,125.00 ,62.00 ,561.00 ,744.00 ,641.00 ,0.33 ,4578102300.00 
191.00 ,463.00 ,493.00 ,124.00 ,58.00 ,497.00 ,712.00 ,674.00 ,0.34 ,4598352100.00 
172.00 ,440.00 ,497.00 ,127.00 ,49.00 ,405.00 ,660.00 ,630.00 ,0.35 ,4618108900.00 
148.00 ,369.00 ,503.00 ,130.00 ,51.00 ,444.00 ,636.00 ,691.00 ,0.36 ,4638117500.00 
149.00 ,387.00 ,379.00 ,96.00 ,43.00 ,419.00 ,629.00 ,722.00 ,0.37 ,4657942700.00 
147.00 ,436.00 ,324.00 ,84.00 ,50.00 ,416.00 ,541.00 ,729.00 ,0.38 ,4678187500.00 
167.00 ,507.00 ,320.00 ,87.00 ,67.00 ,515.00 ,567.00 ,742.00 ,0.39 ,4698362800.00 
179.00 ,510.00 ,311.00 ,83.00 ,67.00 ,563.00 ,665.00 ,780.00 ,0.40 ,4718264000.00 
178.00 ,551.00 ,472.00 ,122.00 ,67.00 ,603.00 ,681.00 ,804.00 ,0.41 ,4738277900.00 
181.00 ,546.00 ,452.00 ,122.00 ,69.00 ,641.00 ,644.00 ,831.00 ,0.42 ,4757901300.00 
178.00 ,530.00 ,516.00 ,118.00 ,64.00 ,651.00 ,655.00 ,839.00 ,0.43 ,4777843800.00 
222.00 ,453.00 ,515.00 ,119.00 ,51.00 ,610.00 ,586.00 ,890.00 ,0.44 ,4797631600.00 
218.00 ,494.00 ,522.00 ,119.00 ,52.00 ,654.00 ,544.00 ,853.00 ,0.45 ,4819738300.00 
246.00 ,468.00 ,448.00 ,85.00 ,56.00 ,614.00 ,520.00 ,808.00 ,0.46 ,4839894200.00 
243.00 ,503.00 ,484.00 ,77.00 ,55.00 ,586.00 ,558.00 ,773.00 ,0.47 ,4859857100.00 
240.00 ,605.00 ,434.00 ,76.00 ,57.00 ,577.00 ,653.00 ,779.00 ,0.48 ,4877897100.00 
199.00 ,615.00 ,458.00 ,71.00 ,54.00 ,531.00 ,672.00 ,646.00 ,0.49 ,4897594100.00 
193.00 ,599.00 ,456.00 ,73.00 ,56.00 ,444.00 ,640.00 ,705.00 ,0.50 ,4919310700.00 
156.00 ,652.00 ,380.00 ,66.00 ,51.00 ,465.00 ,705.00 ,724.00 ,0.51 ,4939480300.00 
198.00 ,599.00 ,368.00 ,61.00 ,56.00 ,560.00 ,745.00 ,696.00 ,0.52 ,4959402100.00 
205.00 ,489.00 ,350.00 ,64.00 ,59.00 ,558.00 ,695.00 ,726.00 ,0.53 ,4979428400.00 
200.00 ,481.00 ,322.00 ,65.00 ,62.00 ,670.00 ,668.00 ,818.00 ,0.54 ,4999614000.00 
205.00 ,456.00 ,316.00 ,67.00 ,75.00 ,750.00 ,707.00 ,847.00 ,0.55 ,5019426700.00 
207.00 ,301.00 ,336.00 ,81.00 ,77.00 ,746.00 ,655.00 ,810.00 ,0.56 ,5039382500.00 
178.00 ,371.00 ,345.00 ,81.00 ,74.00 ,771.00 ,649.00 ,817.00 ,0.57 ,5059828700.00 
188.00 ,371.00 ,373.00 ,81.00 ,71.00 ,831.00 ,661.00 ,811.00 ,0.58 ,5079504000.00 
223.00 ,485.00 ,398.00 ,82.00 ,71.00 ,804.00 ,729.00 ,767.00 ,0.59 ,5101383500.00 
238.00 ,500.00 ,465.00 ,86.00 ,58.00 ,880.00 ,711.00 ,714.00 ,0.60 ,5118996600.00 
257.00 ,599.00 ,486.00 ,78.00 ,63.00 ,889.00 ,704.00 ,746.00 ,0.61 ,5139416500.00 
258.00 ,587.00 ,425.00 ,74.00 ,67.00 ,837.00 ,762.00 ,748.00 ,0.62 ,5159337800.00 
261.00 ,670.00 ,392.00 ,71.00 ,72.00 ,857.00 ,822.00 ,692.00 ,0.63 ,5179804100.00 
244.00 ,626.00 ,358.00 ,68.00 ,69.00 ,903.00 ,833.00 ,637.00 ,0.64 ,5199652200.00 
226.00 ,716.00 ,338.00 ,64.00 ,68.00 ,867.00 ,816.00 ,666.00 ,0.65 ,5219462200.00 
281.00 ,725.00 ,303.00 ,59.00 ,65.00 ,917.00 ,862.00 ,747.00 ,0.66 ,5239879700.00 
290.00 ,752.00 ,304.00 ,59.00 ,68.00 ,1105.00 ,813.00 ,779.00 ,0.67 ,5259834400.00 
301.00 ,799.00 ,304.00 ,61.00 ,79.00 ,1139.00 ,729.00 ,863.00 ,0.68 ,5277829200.00 
294.00 ,859.00 ,394.00 ,64.00 ,82.00 ,1086.00 ,644.00 ,882.00 ,0.69 ,5297816600.00 
325.00 ,785.00 ,383.00 ,65.00 ,88.00 ,1044.00 ,670.00 ,919.00 ,0.70 ,5317710800.00 
273.00 ,751.00 ,429.00 ,75.00 ,91.00 ,1033.00 ,607.00 ,953.00 ,0.71 ,5338024600.00 
276.00 ,792.00 ,448.00 ,75.00 ,88.00 ,896.00 ,534.00 ,904.00 ,0.72 ,5358863200.00 
263.00 ,740.00 ,459.00 ,79.00 ,79.00 ,848.00 ,556.00 ,927.00 ,0.73 ,5379602000.00 
267.00 ,708.00 ,402.00 ,79.00 ,86.00 ,903.00 ,642.00 ,975.00 ,0.74 ,5399436000.00 
239.00 ,745.00 ,375.00 ,74.00 ,82.00 ,939.00 ,607.00 ,945.00 ,0.75 ,5419373800.00 
246.00 ,728.00 ,307.00 ,59.00 ,82.00 ,991.00 ,656.00 ,858.00 ,0.76 ,5437861200.00 
243.00 ,704.00 ,288.00 ,64.00 ,94.00 ,1036.00 ,804.00 ,902.00 ,0.77 ,5457967800.00 
270.00 ,691.00 ,251.00 ,59.00 ,98.00 ,1050.00 ,851.00 ,924.00 ,0.78 ,5477909800.00 
284.00 ,665.00 ,226.00 ,71.00 ,98.00 ,1180.00 ,878.00 ,895.00 ,0.79 ,5497770500.00 
362.00 ,753.00 ,212.00 ,73.00 ,100.00 ,1175.00 ,941.00 ,955.00 ,0.80 ,5519726000.00 
365.00 ,778.00 ,215.00 ,81.00 ,111.00 ,1117.00 ,916.00 ,1018.00 ,0.81 ,5537742400.00 
386.00 ,735.00 ,220.00 ,81.00 ,106.00 ,1159.00 ,864.00 ,1041.00 ,0.82 ,5557841800.00 
409.00 ,727.00 ,218.00 ,84.00 ,116.00 ,1142.00 ,817.00 ,945.00 ,0.83 ,5577946800.00 
462.00 ,744.00 ,214.00 ,87.00 ,127.00 ,989.00 ,861.00 ,990.00 ,0.84 ,5598259900.00 
426.00 ,705.00 ,244.00 ,99.00 ,164.00 ,1061.00 ,868.00 ,924.00 ,0.85 ,5617976900.00 
440.00 ,692.00 ,293.00 ,102.00 ,186.00 ,1303.00 ,917.00 ,940.00 ,0.86 ,5637869200.00 
440.00 ,775.00 ,324.00 ,116.00 ,225.00 ,1294.00 ,997.00 ,1076.00 ,0.87 ,5660082100.00 
443.00 ,785.00 ,359.00 ,125.00 ,246.00 ,1383.00 ,1039.00 ,1189.00 ,0.88 ,5678268800.00 
463.00 ,787.00 ,358.00 ,125.00 ,245.00 ,1405.00 ,1000.00 ,1272.00 ,0.89 ,5698091700.00 
483.00 ,804.00 ,459.00 ,144.00 ,266.00 ,1376.00 ,964.00 ,1330.00 ,0.90 ,5717994000.00 
601.00 ,853.00 ,492.00 ,144.00 ,253.00 ,1264.00 ,987.00 ,1321.00 ,0.91 ,5738464500.00 
626.00 ,900.00 ,503.00 ,143.00 ,224.00 ,1223.00 ,930.00 ,1251.00 ,0.92 ,5758122000.00 
631.00 ,987.00 ,511.00 ,154.00 ,223.00 ,1154.00 ,906.00 ,1228.00 ,0.93 ,5777910500.00 
591.00 ,1001.00 ,524.00 ,156.00 ,233.00 ,1258.00 ,889.00 ,1167.00 ,0.94 ,5798413400.00 
604.00 ,988.00 ,444.00 ,149.00 ,218.00 ,1330.00 ,923.00 ,1067.00 ,0.95 ,5817903100.00 
510.00 ,1066.00 ,398.00 ,155.00 ,233.00 ,1275.00 ,982.00 ,1033.00 ,0.96 ,5837876600.00 
650.00 ,1035.00 ,361.00 ,164.00 ,260.00 ,1288.00 ,992.00 ,999.00 ,0.97 ,5857810700.00 
638.00 ,944.00 ,393.00 ,148.00 ,244.00 ,1331.00 ,1059.00 ,997.00 ,0.98 ,5877921100.00 
626.00 ,929.00 ,419.00 ,146.00 ,235.00 ,1262.00 ,1104.00 ,929.00 ,0.99 ,5898738000.00 
613.00 ,921.00 ,408.00 ,144.00 ,212.00 ,1181.00 ,1103.00 ,940.00 ,0.98 ,5918731500.00 
593.00 ,760.00 ,484.00 ,150.00 ,201.00 ,1256.00 ,1042.00 ,975.00 ,0.97 ,5938830000.00 
421.00 ,802.00 ,534.00 ,135.00 ,168.00 ,1239.00 ,998.00 ,940.00 ,0.96 ,5958714700.00 
492.00 ,797.00 ,502.00 ,142.00 ,181.00 ,1232.00 ,980.00 ,887.00 ,0.95 ,5979352500.00 
494.00 ,783.00 ,537.00 ,138.00 ,174.00 ,1166.00 ,880.00 ,915.00 ,0.94 ,5997702200.00 
480.00 ,749.00 ,586.00 ,131.00 ,161.00 ,1092.00 ,801.00 ,871.00 ,0.93 ,6017606000.00 
453.00 ,755.00 ,603.00 ,125.00 ,150.00 ,954.00 ,692.00 ,731.00 ,0.92 ,6039673500.00 
418.00 ,655.00 ,594.00 ,124.00 ,143.00 ,863.00 ,630.00 ,650.00 ,0.91 ,6059179100.00 
302.00 ,617.00 ,593.00 ,113.00 ,116.00 ,819.00 ,524.00 ,628.00 ,0.90 ,6079098100.00 
272.00 ,565.00 ,530.00 ,111.00 ,111.00 ,779.00 ,512.00 ,491.00 ,0.89 ,6098853400.00 
215.00 ,528.00 ,621.00 ,179.00 ,116.00 ,790.00 ,497.00 ,463.00 ,0.88 ,6118849500.00 
206.00 ,526.00 ,563.00 ,182.00 ,106.00 ,786.00 ,487.00 ,438.00 ,0.87 ,6138348800.00 
165.00 ,494.00 ,603.00 ,187.00 ,125.00 ,948.00 ,513.00 ,428.00 ,0.86 ,6157790500.00 
140.00 ,483.00 ,631.00 ,190.00 ,112.00 ,870.00 ,411.00 ,233.00 ,0.85 ,6177944300.00 
142.00 ,493.00 ,709.00 ,195.00 ,112.00 ,861.00 ,389.00 ,210.00 ,0.84 ,6197818800.00 
133.00 ,497.00 ,742.00 ,193.00 ,114.00 ,885.00 ,363.00 ,186.00 ,0.83 ,6217675400.00 
137.00 ,542.00 ,780.00 ,194.00 ,110.00 ,804.00 ,345.00 ,183.00 ,0.82 ,6237790000.00 
150.00 ,484.00 ,760.00 ,192.00 ,75.00 ,560.00 ,246.00 ,122.00 ,0.81 ,6258472500.00 
144.00 ,474.00 ,729.00 ,187.00 ,68.00 ,468.00 ,217.00 ,80.00 ,0.80 ,6278225300.00 
134.00 ,454.00 ,698.00 ,185.00 ,70.00 ,435.00 ,144.00 ,68.00 ,0.79 ,6298363300.00 
135.00 ,448.00 ,600.00 ,121.00 ,51.00 ,258.00 ,130.00 ,66.00 ,0.78 ,6318352300.00 
127.00 ,352.00 ,588.00 ,106.00 ,46.00 ,337.00 ,124.00 ,50.00 ,0.77 ,6338657900.00 
108.00 ,343.00 ,573.00 ,106.00 ,47.00 ,347.00 ,94.00 ,46.00 ,0.76 ,6359294300.00 
132.00 ,328.00 ,577.00 ,120.00 ,51.00 ,335.00 ,85.00 ,44.00 ,0.75 ,6379774300.00 
129.00 ,340.00 ,609.00 ,123.00 ,47.00 ,326.00 ,83.00 ,45.00 ,0.74 ,6399927000.00 
125.00 ,285.00 ,589.00 ,139.00 ,58.00 ,328.00 ,99.00 ,40.00 ,0.73 ,6419684700.00 
122.00 ,356.00 ,589.00 ,138.00 ,56.00 ,258.00 ,94.00 ,34.00 ,0.72 ,6439963100.00 
146.00 ,377.00 ,628.00 ,144.00 ,58.00 ,191.00 ,86.00 ,37.00 ,0.71 ,6459813100.00 
128.00 ,397.00 ,651.00 ,143.00 ,57.00 ,185.00 ,84.00 ,37.00 ,0.70 ,6479776800.00 
128.00 ,380.00 ,651.00 ,137.00 ,56.00 ,183.00 ,91.00 ,35.00 ,0.69 ,6497697900.00 
124.00 ,370.00 ,604.00 ,120.00 ,47.00 ,292.00 ,106.00 ,35.00 ,0.68 ,6519849500.00 
125.00 ,296.00 ,595.00 ,116.00 ,58.00 ,375.00 ,160.00 ,55.00 ,0.67 ,6539788900.00 
103.00 ,318.00 ,592.00 ,111.00 ,56.00 ,376.00 ,202.00 ,91.00 ,0.66 ,6559738500.00 
129.00 ,307.00 ,690.00 ,135.00 ,59.00 ,383.00 ,206.00 ,95.00 ,0.65 ,6579361000.00 
140.00 ,324.00 ,679.00 ,164.00 ,70.00 ,384.00 ,204.00 ,99.00 ,0.64 ,6599634900.00 
146.00 ,346.00 ,796.00 ,171.00 ,72.00 ,481.00 ,208.00 ,107.00 ,0.63 ,6619716400.00 
157.00 ,373.00 ,795.00 ,187.00 ,72.00 ,412.00 ,171.00 ,99.00 ,0.62 ,6639457400.00 
169.00 ,336.00 ,769.00 ,185.00 ,71.00 ,412.00 ,121.00 ,71.00 ,0.61 ,6659173200.00 
140.00 ,344.00 ,714.00 ,166.00 ,68.00 ,411.00 ,118.00 ,66.00 ,0.60 ,6678814900.00 
137.00 ,330.00 ,764.00 ,155.00 ,59.00 ,429.00 ,121.00 ,62.00 ,0.59 ,6699002800.00 
130.00 ,315.00 ,762.00 ,146.00 ,60.00 ,346.00 ,92.00 ,44.00 ,0.58 ,6719029100.00 
117.00 ,256.00 ,756.00 ,123.00 ,54.00 ,429.00 ,113.00 ,42.00 ,0.57 ,6738327200.00 
98.00 ,243.00 ,776.00 ,119.00 ,55.00 ,435.00 ,111.00 ,37.00 ,0.56 ,6757914500.00 
98.00 ,260.00 ,750.00 ,126.00 ,59.00 ,431.00 ,113.00 ,45.00 ,0.55 ,6777954800.00 
88.00 ,321.00 ,767.00 ,113.00 ,57.00 ,416.00 ,111.00 ,42.00 ,0.54 ,6797806700.00 
88.00 ,322.00 ,668.00 ,121.00 ,58.00 ,339.00 ,108.00 ,46.00 ,0.53 ,6817772400.00 
87.00 ,330.00 ,683.00 ,121.00 ,57.00 ,274.00 ,91.00 ,47.00 ,0.52 ,6837898200.00 
81.00 ,344.00 ,693.00 ,128.00 ,58.00 ,282.00 ,93.00 ,57.00 ,0.51 ,6858020800.00 
77.00 ,326.00 ,795.00 ,144.00 ,55.00 ,295.00 ,103.00 ,56.00 ,0.50 ,6878013400.00 
75.00 ,268.00 ,698.00 ,137.00 ,57.00 ,328.00 ,111.00 ,61.00 ,0.49 ,6899952500.00 
109.00 ,270.00 ,754.00 ,140.00 ,57.00 ,302.00 ,110.00 ,61.00 ,0.48 ,6917770400.00 
117.00 ,301.00 ,749.00 ,140.00 ,52.00 ,251.00 ,110.00 ,66.00 ,0.47 ,6938055100.00 
120.00 ,286.00 ,755.00 ,140.00 ,55.00 ,250.00 ,110.00 ,88.00 ,0.46 ,6958080200.00 
130.00 ,293.00 ,666.00 ,125.00 ,58.00 ,383.00 ,96.00 ,92.00 ,0.45 ,6977881000.00 
132.00 ,302.00 ,680.00 ,139.00 ,60.00 ,372.00 ,82.00 ,91.00 ,0.44 ,6998163700.00 
110.00 ,324.00 ,638.00 ,123.00 ,55.00 ,381.00 ,104.00 ,93.00 ,0.43 ,7018102700.00 
106.00 ,310.00 ,636.00 ,137.00 ,66.00 ,390.00 ,91.00 ,91.00 ,0.42 ,7037917500.00 
131.00 ,333.00 ,733.00 ,165.00 ,75.00 ,421.00 ,93.00 ,67.00 ,0.41 ,7058251800.00 
130.00 ,331.00 ,832.00 ,194.00 ,81.00 ,306.00 ,92.00 ,58.00 ,0.40 ,7078009800.00 
126.00 ,348.00 ,847.00 ,185.00 ,83.00 ,329.00 ,98.00 ,63.00 ,0.39 ,7100100200.00 
124.00 ,324.00 ,820.00 ,187.00 ,84.00 ,324.00 ,75.00 ,60.00 ,0.38 ,7120048100.00 
127.00 ,313.00 ,873.00 ,184.00 ,79.00 ,306.00 ,71.00 ,96.00 ,0.37 ,7137677900.00 
117.00 ,290.00 ,807.00 ,167.00 ,68.00 ,250.00 ,83.00 ,99.00 ,0.36 ,7157727200.00 
110.00 ,265.00 ,713.00 ,131.00 ,62.00 ,254.00 ,88.00 ,116.00 ,0.35 ,7177897600.00 
116.00 ,303.00 ,753.00 ,145.00 ,63.00 ,202.00 ,85.00 ,113.00 ,0.34 ,7199862400.00 
136.00 ,394.00 ,874.00 ,150.00 ,67.00 ,192.00 ,86.00 ,117.00 ,0.33 ,7219507600.00 
136.00 ,396.00 ,843.00 ,157.00 ,72.00 ,275.00 ,89.00 ,95.00 ,0.32 ,7239631400.00 
129.00 ,396.00 ,867.00 ,173.00 ,95.00 ,470.00 ,98.00 ,97.00 ,0.31 ,7259300800.00 
144.00 ,429.00 ,880.00 ,244.00 ,111.00 ,479.00 ,94.00 ,87.00 ,0.30 ,7278970500.00 
144.00 ,394.00 ,940.00 ,273.00 ,113.00 ,489.00 ,92.00 ,88.00 ,0.29 ,7299000200.00 
128.00 ,346.00 ,892.00 ,276.00 ,111.00 ,494.00 ,93.00 ,81.00 ,0.28 ,7319322500.00 
124.00 ,358.00 ,926.00 ,272.00 ,110.00 ,488.00 ,107.00 ,77.00 ,0.27 ,7339056000.00 
119.00 ,371.00 ,881.00 ,261.00 ,95.00 ,409.00 ,98.00 ,83.00 ,0.26 ,7361131000.00 
97.00 ,361.00 ,869.00 ,194.00 ,75.00 ,430.00 ,96.00 ,79.00 ,0.25 ,7379369800.00 
97.00 ,362.00 ,776.00 ,197.00 ,74.00 ,415.00 ,96.00 ,83.00 ,0.24 ,7399222100.00 
123.00 ,448.00 ,813.00 ,216.00 ,84.00 ,417.00 ,92.00 ,88.00 ,0.23 ,7419270100.00 
131.00 ,445.00 ,846.00 ,232.00 ,85.00 ,533.00 ,112.00 ,85.00 ,0.22 ,7439490300.00 
130.00 ,471.00 ,906.00 ,230.00 ,82.00 ,530.00 ,109.00 ,70.00 ,0.21 ,7459919500.00 
129.00 ,466.00 ,995.00 ,241.00 ,85.00 ,517.00 ,119.00 ,60.00 ,0.20 ,7477682400.00 
141.00 ,518.00 ,1075.00 ,269.00 ,82.00 ,524.00 ,122.00 ,62.00 ,0.19 ,7500019400.00 
133.00 ,445.00 ,1142.00 ,285.00 ,78.00 ,561.00 ,124.00 ,63.00 ,0.18 ,7517953400.00 
135.00 ,450.00 ,1127.00 ,276.00 ,80.00 ,554.00 ,100.00 ,71.00 ,0.17 ,7537905600.00 
144.00 ,465.00 ,1131.00 ,308.00 ,88.00 ,524.00 ,95.00 ,75.00 ,0.16 ,7558227200.00 
174.00 ,607.00 ,1122.00 ,325.00 ,92.00 ,514.00 ,88.00 ,80.00 ,0.14 ,7597921900.00 
161.00 ,596.00 ,1075.00 ,287.00 ,95.00 ,509.00 ,91.00 ,73.00 ,0.14 ,7597934900.00 
168.00 ,616.00 ,977.00 ,323.00 ,126.00 ,589.00 ,110.00 ,92.00 ,0.13 ,7618192600.00 
162.00 ,644.00 ,997.00 ,358.00 ,124.00 ,534.00 ,114.00 ,88.00 ,0.12 ,7637747600.00 
172.00 ,671.00 ,1033.00 ,379.00 ,130.00 ,520.00 ,127.00 ,94.00 ,0.11 ,7657950800.00 
160.00 ,588.00 ,998.00 ,377.00 ,131.00 ,524.00 ,124.00 ,92.00 ,0.10 ,7678755200.00 
173.00 ,587.00 ,1061.00 ,434.00 ,144.00 ,523.00 ,123.00 ,101.00 ,0.09 ,7698711700.00 
164.00 ,582.00 ,1022.00 ,398.00 ,124.00 ,506.00 ,131.00 ,91.00 ,0.08 ,7718724300.00 
209.00 ,755.00 ,981.00 ,437.00 ,157.00 ,507.00 ,133.00 ,104.00 ,0.07 ,7738680500.00 
239.00 ,786.00 ,1025.00 ,474.00 ,169.00 ,484.00 ,129.00 ,112.00 ,0.06 ,7758428500.00 
264.00 ,792.00 ,1095.00 ,566.00 ,215.00 ,467.00 ,137.00 ,129.00 ,0.05 ,7778418300.00 
290.00 ,929.00 ,1052.00 ,631.00 ,232.00 ,478.00 ,138.00 ,136.00 ,0.04 ,7798498400.00 
296.00 ,1012.00 ,1137.00 ,681.00 ,238.00 ,438.00 ,127.00 ,134.00 ,0.03 ,7822684800.00 
332.00 ,997.00 ,1177.00 ,742.00 ,273.00 ,356.00 ,130.00 ,146.00 ,0.02 ,7837943800.00 
336.00 ,1027.00 ,1096.00 ,765.00 ,279.00 ,347.00 ,128.00 ,150.00 ,0.01 ,7857783900.00 
332.00 ,1132.00 ,1082.00 ,698.00 ,249.00 ,397.00 ,123.00 ,143.00 ,0.00 ,7877693200.00 
312.00 ,1040.00 ,1090.00 ,628.00 ,240.00 ,430.00 ,144.00 ,143.00 ,0.01 ,7898364600.00 
326.00 ,969.00 ,1061.00 ,612.00 ,257.00 ,452.00 ,149.00 ,149.00 ,0.02 ,7918446500.00 
327.00 ,933.00 ,1058.00 ,638.00 ,262.00 ,498.00 ,164.00 ,148.00 ,0.03 ,7938428100.00 
320.00 ,858.00 ,1054.00 ,570.00 ,250.00 ,627.00 ,207.00 ,291.00 ,0.04 ,7958291100.00 
330.00 ,726.00 ,1033.00 ,599.00 ,255.00 ,659.00 ,255.00 ,396.00 ,0.05 ,7978195800.00 
340.00 ,791.00 ,1048.00 ,602.00 ,245.00 ,728.00 ,278.00 ,489.00 ,0.06 ,7997959800.00 
327.00 ,793.00 ,1052.00 ,563.00 ,218.00 ,712.00 ,367.00 ,537.00 ,0.07 ,8017776600.00 
272.00 ,757.00 ,976.00 ,404.00 ,146.00 ,822.00 ,441.00 ,613.00 ,0.08 ,8039859200.00 
248.00 ,768.00 ,967.00 ,410.00 ,137.00 ,898.00 ,431.00 ,655.00 ,0.09 ,8059941400.00 
216.00 ,722.00 ,850.00 ,358.00 ,115.00 ,914.00 ,585.00 ,804.00 ,0.10 ,8077771600.00 
202.00 ,589.00 ,711.00 ,290.00 ,131.00 ,1067.00 ,694.00 ,873.00 ,0.11 ,8098406300.00 
244.00 ,591.00 ,573.00 ,267.00 ,133.00 ,1171.00 ,785.00 ,1007.00 ,0.12 ,8118945800.00 
245.00 ,560.00 ,611.00 ,218.00 ,122.00 ,1191.00 ,786.00 ,1033.00 ,0.13 ,8138900700.00 
252.00 ,550.00 ,589.00 ,162.00 ,119.00 ,1126.00 ,924.00 ,998.00 ,0.14 ,8158823100.00 
270.00 ,573.00 ,586.00 ,134.00 ,125.00 ,1274.00 ,963.00 ,1010.00 ,0.16 ,8198841400.00 
318.00 ,573.00 ,560.00 ,124.00 ,94.00 ,1167.00 ,916.00 ,1023.00 ,0.16 ,8198853400.00 
296.00 ,632.00 ,671.00 ,140.00 ,99.00 ,1090.00 ,861.00 ,910.00 ,0.17 ,8219077800.00 
292.00 ,623.00 ,741.00 ,146.00 ,102.00 ,974.00 ,826.00 ,853.00 ,0.18 ,8238834600.00 
283.00 ,598.00 ,681.00 ,129.00 ,104.00 ,965.00 ,725.00 ,958.00 ,0.19 ,8258854200.00 
286.00 ,558.00 ,671.00 ,131.00 ,97.00 ,751.00 ,683.00 ,849.00 ,0.20 ,8278874500.00 
246.00 ,570.00 ,673.00 ,127.00 ,99.00 ,716.00 ,720.00 ,831.00 ,0.21 ,8299034900.00 
240.00 ,552.00 ,675.00 ,134.00 ,93.00 ,630.00 ,691.00 ,816.00 ,0.22 ,8319470600.00 
244.00 ,497.00 ,602.00 ,137.00 ,80.00 ,677.00 ,711.00 ,810.00 ,0.23 ,8338602100.00 
234.00 ,475.00 ,593.00 ,129.00 ,72.00 ,690.00 ,694.00 ,709.00 ,0.24 ,8359854700.00 
204.00 ,477.00 ,589.00 ,125.00 ,71.00 ,624.00 ,612.00 ,674.00 ,0.25 ,8379743600.00 
172.00 ,501.00 ,595.00 ,126.00 ,64.00 ,523.00 ,567.00 ,595.00 ,0.26 ,8399634900.00 
169.00 ,450.00 ,746.00 ,132.00 ,61.00 ,536.00 ,580.00 ,664.00 ,0.27 ,8419987100.00 
149.00 ,465.00 ,667.00 ,121.00 ,63.00 ,476.00 ,609.00 ,699.00 ,0.28 ,8439736200.00 
159.00 ,478.00 ,670.00 ,120.00 ,67.00 ,414.00 ,666.00 ,705.00 ,0.29 ,8459672900.00 
230.00 ,473.00 ,677.00 ,118.00 ,66.00 ,419.00 ,636.00 ,695.00 ,0.30 ,8479563200.00 
256.00 ,458.00 ,676.00 ,117.00 ,65.00 ,437.00 ,603.00 ,681.00 ,0.31 ,8499190500.00 
251.00 ,377.00 ,381.00 ,93.00 ,58.00 ,533.00 ,672.00 ,624.00 ,0.32 ,8519340200.00 
255.00 ,318.00 ,409.00 ,72.00 ,62.00 ,602.00 ,675.00 ,574.00 ,0.33 ,8539414700.00 
258.00 ,339.00 ,372.00 ,76.00 ,67.00 ,584.00 ,594.00 ,529.00 ,0.34 ,8559633300.00 
196.00 ,344.00 ,357.00 ,76.00 ,64.00 ,580.00 ,615.00 ,586.00 ,0.35 ,8579598200.00 
173.00 ,378.00 ,492.00 ,74.00 ,63.00 ,633.00 ,605.00 ,552.00 ,0.36 ,8599814700.00 
169.00 ,376.00 ,523.00 ,75.00 ,59.00 ,568.00 ,565.00 ,532.00 ,0.37 ,8619797900.00 
168.00 ,393.00 ,504.00 ,77.00 ,56.00 ,497.00 ,610.00 ,633.00 ,0.38 ,8639759700.00 
155.00 ,403.00 ,516.00 ,73.00 ,48.00 ,498.00 ,617.00 ,638.00 ,0.39 ,8659509400.00 
177.00 ,437.00 ,517.00 ,76.00 ,57.00 ,595.00 ,621.00 ,641.00 ,0.40 ,8679408000.00 
178.00 ,447.00 ,447.00 ,77.00 ,62.00 ,630.00 ,687.00 ,674.00 ,0.41 ,8699418500.00 
177.00 ,509.00 ,440.00 ,72.00 ,68.00 ,645.00 ,604.00 ,682.00 ,0.42 ,8720015700.00 
177.00 ,511.00 ,431.00 ,70.00 ,67.00 ,679.00 ,546.00 ,637.00 ,0.43 ,8740023800.00 
183.00 ,472.00 ,410.00 ,70.00 ,63.00 ,691.00 ,566.00 ,652.00 ,0.44 ,8757551100.00 
162.00 ,469.00 ,409.00 ,67.00 ,59.00 ,644.00 ,621.00 ,650.00 ,0.45 ,8777775500.00 
153.00 ,456.00 ,334.00 ,67.00 ,53.00 ,580.00 ,609.00 ,652.00 ,0.46 ,8798034100.00 
147.00 ,408.00 ,242.00 ,52.00 ,45.00 ,543.00 ,707.00 ,651.00 ,0.47 ,8818286800.00 
166.00 ,441.00 ,314.00 ,86.00 ,61.00 ,494.00 ,678.00 ,609.00 ,0.48 ,8838566800.00 
154.00 ,466.00 ,347.00 ,87.00 ,63.00 ,446.00 ,639.00 ,552.00 ,0.49 ,8858259600.00 
148.00 ,433.00 ,360.00 ,85.00 ,64.00 ,477.00 ,573.00 ,466.00 ,0.50 ,8877783800.00 
150.00 ,405.00 ,363.00 ,88.00 ,66.00 ,513.00 ,559.00 ,606.00 ,0.51 ,8899606300.00 
154.00 ,376.00 ,394.00 ,89.00 ,65.00 ,557.00 ,475.00 ,562.00 ,0.52 ,8918884400.00 
148.00 ,314.00 ,317.00 ,63.00 ,52.00 ,649.00 ,473.00 ,579.00 ,0.53 ,8938851500.00 
155.00 ,320.00 ,310.00 ,69.00 ,56.00 ,740.00 ,513.00 ,648.00 ,0.54 ,8958637000.00 
174.00 ,341.00 ,295.00 ,70.00 ,58.00 ,789.00 ,616.00 ,698.00 ,0.55 ,8978739300.00 
201.00 ,325.00 ,296.00 ,68.00 ,64.00 ,781.00 ,591.00 ,529.00 ,0.56 ,8999962600.00 
212.00 ,362.00 ,229.00 ,71.00 ,73.00 ,883.00 ,619.00 ,663.00 ,0.57 ,9019408200.00 
218.00 ,437.00 ,234.00 ,71.00 ,74.00 ,869.00 ,652.00 ,684.00 ,0.58 ,9040007700.00 
216.00 ,456.00 ,211.00 ,62.00 ,70.00 ,877.00 ,697.00 ,667.00 ,0.59 ,9059789100.00 
226.00 ,453.00 ,237.00 ,64.00 ,69.00 ,855.00 ,629.00 ,718.00 ,0.60 ,9079656500.00 
208.00 ,541.00 ,244.00 ,59.00 ,63.00 ,829.00 ,723.00 ,805.00 ,0.61 ,9099582500.00 
223.00 ,537.00 ,318.00 ,57.00 ,65.00 ,828.00 ,699.00 ,865.00 ,0.62 ,9119533400.00 
220.00 ,488.00 ,315.00 ,51.00 ,77.00 ,865.00 ,792.00 ,940.00 ,0.63 ,9139261700.00 
255.00 ,529.00 ,323.00 ,52.00 ,78.00 ,981.00 ,754.00 ,1017.00 ,0.64 ,9159030800.00 
250.00 ,575.00 ,311.00 ,51.00 ,78.00 ,986.00 ,766.00 ,955.00 ,0.65 ,9179286800.00 
252.00 ,514.00 ,301.00 ,53.00 ,79.00 ,1088.00 ,701.00 ,944.00 ,0.67 ,9219543700.00 
234.00 ,667.00 ,324.00 ,61.00 ,74.00 ,1079.00 ,792.00 ,911.00 ,0.67 ,9219556600.00 
255.00 ,713.00 ,350.00 ,71.00 ,69.00 ,1131.00 ,728.00 ,874.00 ,0.69 ,9257610300.00 
229.00 ,668.00 ,337.00 ,72.00 ,65.00 ,1024.00 ,744.00 ,906.00 ,0.69 ,9257639400.00 
217.00 ,749.00 ,342.00 ,71.00 ,66.00 ,1093.00 ,730.00 ,899.00 ,0.70 ,9277734400.00 
200.00 ,841.00 ,338.00 ,72.00 ,77.00 ,1059.00 ,743.00 ,858.00 ,0.71 ,9299668400.00 
237.00 ,734.00 ,240.00 ,61.00 ,79.00 ,1119.00 ,644.00 ,791.00 ,0.72 ,9319066900.00 
206.00 ,738.00 ,181.00 ,48.00 ,75.00 ,1047.00 ,612.00 ,749.00 ,0.73 ,9339332200.00 
198.00 ,729.00 ,169.00 ,46.00 ,81.00 ,1020.00 ,568.00 ,575.00 ,0.75 ,9378301600.00 
192.00 ,612.00 ,141.00 ,48.00 ,85.00 ,958.00 ,597.00 ,698.00 ,0.76 ,9398415000.00 
198.00 ,508.00 ,139.00 ,47.00 ,78.00 ,1001.00 ,616.00 ,797.00 ,0.76 ,9398428500.00 
165.00 ,566.00 ,118.00 ,49.00 ,79.00 ,887.00 ,656.00 ,812.00 ,0.77 ,9418266000.00 
179.00 ,586.00 ,142.00 ,50.00 ,88.00 ,954.00 ,679.00 ,855.00 ,0.79 ,9460114600.00 
219.00 ,649.00 ,173.00 ,56.00 ,96.00 ,1047.00 ,736.00 ,918.00 ,0.79 ,9460128900.00 
260.00 ,737.00 ,193.00 ,72.00 ,132.00 ,1145.00 ,747.00 ,877.00 ,0.81 ,9497926400.00 
297.00 ,762.00 ,215.00 ,82.00 ,148.00 ,1151.00 ,877.00 ,910.00 ,0.82 ,9517924800.00 
325.00 ,758.00 ,221.00 ,96.00 ,174.00 ,1223.00 ,941.00 ,971.00 ,0.82 ,9517975800.00 
356.00 ,769.00 ,208.00 ,108.00 ,207.00 ,1210.00 ,1010.00 ,1062.00 ,0.83 ,9537926500.00 
413.00 ,735.00 ,201.00 ,124.00 ,259.00 ,1224.00 ,1053.00 ,1147.00 ,0.85 ,9578284000.00 
457.00 ,755.00 ,239.00 ,152.00 ,269.00 ,1213.00 ,1160.00 ,1208.00 ,0.85 ,9578323000.00 
497.00 ,815.00 ,275.00 ,160.00 ,273.00 ,1157.00 ,1081.00 ,1193.00 ,0.86 ,9597917100.00 
574.00 ,808.00 ,309.00 ,162.00 ,268.00 ,1170.00 ,1059.00 ,1213.00 ,0.88 ,9639262100.00 
579.00 ,842.00 ,335.00 ,159.00 ,254.00 ,1302.00 ,1117.00 ,1139.00 ,0.88 ,9639283200.00 
593.00 ,846.00 ,402.00 ,153.00 ,208.00 ,1312.00 ,1146.00 ,1119.00 ,0.89 ,9657947800.00 
593.00 ,845.00 ,395.00 ,128.00 ,197.00 ,1254.00 ,1050.00 ,1128.00 ,0.91 ,9698366800.00 
621.00 ,828.00 ,480.00 ,127.00 ,196.00 ,1292.00 ,1089.00 ,1136.00 ,0.91 ,9698379700.00 
576.00 ,938.00 ,595.00 ,155.00 ,209.00 ,1257.00 ,1089.00 ,1135.00 ,0.92 ,9718506700.00 
597.00 ,868.00 ,603.00 ,163.00 ,213.00 ,1314.00 ,998.00 ,1137.00 ,0.94 ,9759498000.00 
566.00 ,922.00 ,562.00 ,164.00 ,225.00 ,1289.00 ,958.00 ,1063.00 ,0.94 ,9759544300.00 
558.00 ,985.00 ,581.00 ,166.00 ,213.00 ,1380.00 ,958.00 ,1019.00 ,0.95 ,9780111800.00 
505.00 ,950.00 ,531.00 ,171.00 ,223.00 ,1494.00 ,974.00 ,997.00 ,0.97 ,9818029700.00 
496.00 ,1006.00 ,535.00 ,153.00 ,203.00 ,1513.00 ,995.00 ,933.00 ,0.97 ,9818044500.00 
444.00 ,1127.00 ,549.00 ,147.00 ,187.00 ,1335.00 ,987.00 ,869.00 ,0.98 ,9840048800.00 
466.00 ,1141.00 ,566.00 ,152.00 ,178.00 ,1392.00 ,955.00 ,847.00 ,0.98 ,9878401400.00 
443.00 ,1056.00 ,558.00 ,140.00 ,165.00 ,1296.00 ,924.00 ,802.00 ,0.98 ,9878414000.00 
399.00 ,1036.00 ,565.00 ,125.00 ,127.00 ,1110.00 ,783.00 ,683.00 ,0.97 ,9898518000.00 
338.00 ,876.00 ,469.00 ,107.00 ,115.00 ,984.00 ,660.00 ,581.00 ,0.96 ,9920615300.00 
332.00 ,705.00 ,465.00 ,115.00 ,122.00 ,992.00 ,593.00 ,590.00 ,0.95 ,9938014900.00 
231.00 ,590.00 ,608.00 ,107.00 ,88.00 ,817.00 ,487.00 ,517.00 ,0.94 ,9957956700.00 
147.00 ,514.00 ,665.00 ,113.00 ,86.00 ,855.00 ,374.00 ,388.00 ,0.92 ,9999781300.00 
145.00 ,462.00 ,692.00 ,129.00 ,89.00 ,901.00 ,365.00 ,345.00 ,0.92 ,9999793900.00 
153.00 ,386.00 ,702.00 ,128.00 ,92.00 ,1051.00 ,409.00 ,322.00 ,0.90 ,10039982800.00 
144.00 ,432.00 ,744.00 ,138.00 ,70.00 ,978.00 ,342.00 ,218.00 ,0.89 ,10059828100.00 
137.00 ,471.00 ,647.00 ,133.00 ,75.00 ,927.00 ,342.00 ,190.00 ,0.89 ,10059842000.00 
139.00 ,454.00 ,579.00 ,137.00 ,77.00 ,820.00 ,336.00 ,176.00 ,0.87 ,10097836900.00 
144.00 ,476.00 ,618.00 ,139.00 ,85.00 ,723.00 ,336.00 ,167.00 ,0.86 ,10117969200.00 
132.00 ,479.00 ,643.00 ,139.00 ,93.00 ,637.00 ,235.00 ,131.00 ,0.85 ,10138013800.00 
117.00 ,417.00 ,603.00 ,123.00 ,87.00 ,616.00 ,205.00 ,119.00 ,0.85 ,10138060000.00 
119.00 ,340.00 ,611.00 ,154.00 ,86.00 ,615.00 ,183.00 ,113.00 ,0.83 ,10177934300.00 
118.00 ,367.00 ,656.00 ,158.00 ,84.00 ,646.00 ,179.00 ,111.00 ,0.83 ,10177947900.00 
126.00 ,361.00 ,565.00 ,140.00 ,74.00 ,631.00 ,176.00 ,107.00 ,0.82 ,10197927000.00 
125.00 ,332.00 ,520.00 ,135.00 ,53.00 ,489.00 ,163.00 ,88.00 ,0.80 ,10237898700.00 
142.00 ,308.00 ,491.00 ,130.00 ,52.00 ,452.00 ,160.00 ,60.00 ,0.80 ,10237912600.00 
144.00 ,319.00 ,484.00 ,102.00 ,43.00 ,445.00 ,160.00 ,51.00 ,0.79 ,10258039400.00 
154.00 ,400.00 ,477.00 ,98.00 ,42.00 ,338.00 ,154.00 ,43.00 ,0.77 ,10298376800.00 
138.00 ,409.00 ,510.00 ,105.00 ,41.00 ,405.00 ,130.00 ,41.00 ,0.76 ,10318533200.00 
137.00 ,412.00 ,501.00 ,110.00 ,36.00 ,334.00 ,121.00 ,36.00 ,0.76 ,10318546000.00 
109.00 ,416.00 ,606.00 ,106.00 ,35.00 ,331.00 ,114.00 ,35.00 ,0.74 ,10358068000.00 
96.00 ,433.00 ,628.00 ,96.00 ,41.00 ,323.00 ,115.00 ,36.00 ,0.73 ,10378921800.00 
65.00 ,321.00 ,647.00 ,113.00 ,41.00 ,314.00 ,105.00 ,34.00 ,0.73 ,10378934600.00 
68.00 ,270.00 ,697.00 ,118.00 ,46.00 ,371.00 ,75.00 ,28.00 ,0.71 ,10419427900.00 
83.00 ,287.00 ,761.00 ,126.00 ,51.00 ,415.00 ,70.00 ,33.00 ,0.70 ,10439560300.00 
90.00 ,284.00 ,753.00 ,155.00 ,56.00 ,426.00 ,69.00 ,37.00 ,0.70 ,10439573200.00 
91.00 ,239.00 ,732.00 ,154.00 ,55.00 ,432.00 ,66.00 ,37.00 ,0.68 ,10479822000.00 
93.00 ,249.00 ,678.00 ,135.00 ,54.00 ,429.00 ,69.00 ,43.00 ,0.67 ,10497625600.00 
87.00 ,232.00 ,641.00 ,127.00 ,57.00 ,486.00 ,83.00 ,44.00 ,0.66 ,10517824400.00 
73.00 ,198.00 ,563.00 ,117.00 ,53.00 ,472.00 ,94.00 ,40.00 ,0.65 ,10537919800.00 
92.00 ,186.00 ,534.00 ,101.00 ,53.00 ,464.00 ,108.00 ,38.00 ,0.64 ,10558083400.00 
96.00 ,191.00 ,532.00 ,108.00 ,51.00 ,459.00 ,109.00 ,38.00 ,0.64 ,10558096000.00 
100.00 ,189.00 ,586.00 ,115.00 ,55.00 ,463.00 ,109.00 ,33.00 ,0.62 ,10597943100.00 
109.00 ,282.00 ,649.00 ,130.00 ,56.00 ,391.00 ,102.00 ,35.00 ,0.61 ,10618044100.00 
115.00 ,343.00 ,669.00 ,141.00 ,63.00 ,430.00 ,114.00 ,40.00 ,0.61 ,10618056600.00 
99.00 ,357.00 ,602.00 ,124.00 ,59.00 ,461.00 ,123.00 ,41.00 ,0.59 ,10657851200.00 
106.00 ,365.00 ,748.00 ,124.00 ,59.00 ,457.00 ,124.00 ,42.00 ,0.58 ,10677794700.00 
104.00 ,363.00 ,766.00 ,147.00 ,61.00 ,459.00 ,130.00 ,45.00 ,0.58 ,10678009300.00 
98.00 ,337.00 ,719.00 ,170.00 ,64.00 ,407.00 ,124.00 ,42.00 ,0.56 ,10718104600.00 
90.00 ,293.00 ,775.00 ,161.00 ,58.00 ,378.00 ,107.00 ,40.00 ,0.55 ,10737927900.00 
83.00 ,281.00 ,826.00 ,167.00 ,58.00 ,341.00 ,84.00 ,36.00 ,0.55 ,10737941200.00 
72.00 ,292.00 ,684.00 ,167.00 ,59.00 ,350.00 ,81.00 ,35.00 ,0.53 ,10779980700.00 
75.00 ,298.00 ,645.00 ,143.00 ,60.00 ,387.00 ,82.00 ,35.00 ,0.52 ,10797560800.00 
79.00 ,272.00 ,615.00 ,108.00 ,54.00 ,405.00 ,76.00 ,38.00 ,0.52 ,10797574100.00 
77.00 ,270.00 ,505.00 ,118.00 ,53.00 ,367.00 ,73.00 ,37.00 ,0.50 ,10837877100.00 
81.00 ,265.00 ,481.00 ,112.00 ,55.00 ,388.00 ,70.00 ,38.00 ,0.49 ,10857958800.00 
75.00 ,267.00 ,531.00 ,123.00 ,53.00 ,389.00 ,78.00 ,39.00 ,0.49 ,10857971200.00 
69.00 ,265.00 ,529.00 ,128.00 ,53.00 ,356.00 ,68.00 ,37.00 ,0.47 ,10898514300.00 
54.00 ,254.00 ,593.00 ,126.00 ,46.00 ,310.00 ,70.00 ,34.00 ,0.46 ,10918800800.00 
61.00 ,250.00 ,595.00 ,121.00 ,46.00 ,304.00 ,80.00 ,33.00 ,0.46 ,10918812900.00 
62.00 ,272.00 ,589.00 ,128.00 ,48.00 ,282.00 ,82.00 ,33.00 ,0.44 ,10958650800.00 
70.00 ,266.00 ,677.00 ,117.00 ,51.00 ,272.00 ,83.00 ,31.00 ,0.43 ,10978907700.00 
68.00 ,284.00 ,720.00 ,123.00 ,46.00 ,309.00 ,82.00 ,28.00 ,0.43 ,10978920700.00 
74.00 ,298.00 ,749.00 ,123.00 ,48.00 ,291.00 ,83.00 ,31.00 ,0.41 ,11018840900.00 
77.00 ,295.00 ,781.00 ,122.00 ,50.00 ,332.00 ,81.00 ,33.00 ,0.40 ,11038840000.00 
84.00 ,276.00 ,807.00 ,120.00 ,52.00 ,412.00 ,81.00 ,39.00 ,0.40 ,11038853900.00 
82.00 ,278.00 ,776.00 ,140.00 ,50.00 ,423.00 ,72.00 ,41.00 ,0.38 ,11079197700.00 
88.00 ,268.00 ,900.00 ,186.00 ,51.00 ,388.00 ,70.00 ,42.00 ,0.37 ,11099588700.00 
99.00 ,289.00 ,961.00 ,238.00 ,70.00 ,479.00 ,90.00 ,49.00 ,0.37 ,11099601800.00 
96.00 ,313.00 ,949.00 ,242.00 ,69.00 ,483.00 ,96.00 ,49.00 ,0.35 ,11139118100.00 
93.00 ,326.00 ,981.00 ,254.00 ,73.00 ,426.00 ,97.00 ,49.00 ,0.34 ,11159065800.00 
97.00 ,346.00 ,932.00 ,260.00 ,79.00 ,415.00 ,97.00 ,51.00 ,0.34 ,11159078800.00 
99.00 ,347.00 ,885.00 ,228.00 ,81.00 ,413.00 ,99.00 ,53.00 ,0.32 ,11198872000.00 
87.00 ,355.00 ,908.00 ,178.00 ,66.00 ,306.00 ,91.00 ,44.00 ,0.31 ,11218896900.00 
87.00 ,346.00 ,954.00 ,193.00 ,64.00 ,305.00 ,78.00 ,43.00 ,0.30 ,11238685400.00 
80.00 ,337.00 ,929.00 ,183.00 ,57.00 ,286.00 ,80.00 ,38.00 ,0.29 ,11258885100.00 
85.00 ,327.00 ,1011.00 ,173.00 ,56.00 ,290.00 ,82.00 ,37.00 ,0.28 ,11279121200.00 
80.00 ,324.00 ,970.00 ,171.00 ,51.00 ,293.00 ,88.00 ,38.00 ,0.27 ,11299253500.00 
92.00 ,352.00 ,846.00 ,182.00 ,63.00 ,254.00 ,71.00 ,40.00 ,0.26 ,11318941200.00 
103.00 ,357.00 ,853.00 ,194.00 ,71.00 ,312.00 ,78.00 ,50.00 ,0.25 ,11339206300.00 
128.00 ,458.00 ,830.00 ,199.00 ,89.00 ,402.00 ,107.00 ,63.00 ,0.24 ,11358110000.00 
133.00 ,534.00 ,770.00 ,216.00 ,88.00 ,398.00 ,110.00 ,63.00 ,0.23 ,11378671500.00 
132.00 ,563.00 ,760.00 ,213.00 ,89.00 ,403.00 ,106.00 ,62.00 ,0.22 ,11398808700.00 
126.00 ,537.00 ,808.00 ,224.00 ,83.00 ,385.00 ,108.00 ,63.00 ,0.21 ,11418973600.00 
128.00 ,597.00 ,833.00 ,205.00 ,83.00 ,287.00 ,148.00 ,58.00 ,0.20 ,11438755400.00 
129.00 ,619.00 ,950.00 ,226.00 ,68.00 ,237.00 ,166.00 ,51.00 ,0.19 ,11458775500.00 
129.00 ,585.00 ,982.00 ,199.00 ,66.00 ,263.00 ,170.00 ,50.00 ,0.18 ,11479226500.00 
154.00 ,622.00 ,973.00 ,240.00 ,88.00 ,253.00 ,188.00 ,63.00 ,0.17 ,11499471700.00 
162.00 ,642.00 ,973.00 ,255.00 ,88.00 ,253.00 ,189.00 ,64.00 ,0.16 ,11519158600.00 
178.00 ,653.00 ,1113.00 ,328.00 ,106.00 ,250.00 ,162.00 ,77.00 ,0.15 ,11539017100.00 
174.00 ,702.00 ,1100.00 ,349.00 ,113.00 ,149.00 ,121.00 ,78.00 ,0.14 ,11559266400.00 
182.00 ,730.00 ,1085.00 ,402.00 ,125.00 ,88.00 ,111.00 ,82.00 ,0.13 ,11579454200.00 
191.00 ,739.00 ,1129.00 ,446.00 ,135.00 ,87.00 ,84.00 ,83.00 ,0.12 ,11599304500.00 
195.00 ,826.00 ,1179.00 ,446.00 ,139.00 ,84.00 ,80.00 ,84.00 ,0.11 ,11619298300.00 
245.00 ,832.00 ,1014.00 ,445.00 ,146.00 ,83.00 ,81.00 ,102.00 ,0.10 ,11639073200.00 
259.00 ,780.00 ,1145.00 ,461.00 ,163.00 ,86.00 ,82.00 ,110.00 ,0.09 ,11662937900.00 
269.00 ,820.00 ,1190.00 ,512.00 ,175.00 ,88.00 ,84.00 ,116.00 ,0.09 ,11662951100.00 
295.00 ,911.00 ,1244.00 ,527.00 ,181.00 ,92.00 ,91.00 ,131.00 ,0.07 ,11698850900.00 
299.00 ,913.00 ,1219.00 ,551.00 ,186.00 ,98.00 ,91.00 ,134.00 ,0.06 ,11719416400.00 
288.00 ,995.00 ,1228.00 ,555.00 ,199.00 ,108.00 ,89.00 ,130.00 ,0.05 ,11739574600.00 
311.00 ,1039.00 ,1059.00 ,649.00 ,234.00 ,119.00 ,99.00 ,141.00 ,0.04 ,11759403700.00 
360.00 ,1066.00 ,1134.00 ,610.00 ,249.00 ,127.00 ,109.00 ,162.00 ,0.03 ,11779766500.00 
343.00 ,995.00 ,1083.00 ,569.00 ,241.00 ,125.00 ,102.00 ,153.00 ,0.02 ,11799863500.00 
373.00 ,1063.00 ,1128.00 ,623.00 ,262.00 ,130.00 ,118.00 ,180.00 ,0.01 ,11819298500.00 
393.00 ,1001.00 ,1199.00 ,701.00 ,280.00 ,141.00 ,122.00 ,193.00 ,0.00 ,11839085500.00 
424.00 ,1029.00 ,1270.00 ,674.00 ,290.00 ,140.00 ,125.00 ,201.00 ,0.01 ,11859339900.00 
440.00 ,1031.00 ,1182.00 ,746.00 ,309.00 ,415.00 ,148.00 ,213.00 ,0.02 ,11879432500.00 
471.00 ,1082.00 ,1134.00 ,771.00 ,326.00 ,483.00 ,241.00 ,320.00 ,0.03 ,11897741600.00 
452.00 ,958.00 ,1085.00 ,726.00 ,311.00 ,599.00 ,276.00 ,402.00 ,0.04 ,11917804300.00 
429.00 ,948.00 ,1147.00 ,646.00 ,296.00 ,659.00 ,296.00 ,478.00 ,0.05 ,11937980500.00 
393.00 ,846.00 ,1037.00 ,589.00 ,270.00 ,753.00 ,335.00 ,556.00 ,0.06 ,11958234500.00 
326.00 ,748.00 ,971.00 ,462.00 ,218.00 ,743.00 ,454.00 ,681.00 ,0.07 ,11978565900.00 
267.00 ,618.00 ,909.00 ,398.00 ,195.00 ,832.00 ,531.00 ,753.00 ,0.08 ,11998871300.00 
269.00 ,666.00 ,822.00 ,345.00 ,190.00 ,825.00 ,564.00 ,788.00 ,0.09 ,12019087800.00 
256.00 ,615.00 ,564.00 ,325.00 ,171.00 ,829.00 ,587.00 ,810.00 ,0.10 ,12039293500.00 
235.00 ,678.00 ,578.00 ,277.00 ,139.00 ,804.00 ,652.00 ,823.00 ,0.11 ,12059362200.00 
242.00 ,643.00 ,553.00 ,262.00 ,149.00 ,796.00 ,705.00 ,777.00 ,0.12 ,12079405000.00 
253.00 ,653.00 ,654.00 ,254.00 ,140.00 ,774.00 ,743.00 ,696.00 ,0.13 ,12099357500.00 
244.00 ,623.00 ,645.00 ,267.00 ,134.00 ,749.00 ,741.00 ,623.00 ,0.14 ,12119246500.00 
242.00 ,732.00 ,595.00 ,205.00 ,117.00 ,727.00 ,734.00 ,593.00 ,0.15 ,12139521600.00 
267.00 ,692.00 ,526.00 ,160.00 ,115.00 ,845.00 ,735.00 ,553.00 ,0.16 ,12159475300.00 
313.00 ,680.00 ,554.00 ,152.00 ,103.00 ,827.00 ,669.00 ,562.00 ,0.17 ,12179480200.00 
406.00 ,663.00 ,583.00 ,153.00 ,95.00 ,754.00 ,554.00 ,586.00 ,0.18 ,12199177200.00 
454.00 ,668.00 ,678.00 ,137.00 ,91.00 ,713.00 ,520.00 ,615.00 ,0.19 ,12218557100.00 
453.00 ,543.00 ,675.00 ,127.00 ,89.00 ,720.00 ,531.00 ,628.00 ,0.20 ,12238373500.00 
434.00 ,460.00 ,677.00 ,111.00 ,71.00 ,574.00 ,527.00 ,707.00 ,0.21 ,12258695300.00 
389.00 ,460.00 ,671.00 ,108.00 ,64.00 ,515.00 ,478.00 ,709.00 ,0.22 ,12278802000.00 
278.00 ,464.00 ,718.00 ,117.00 ,61.00 ,472.00 ,493.00 ,679.00 ,0.23 ,12299007400.00 
180.00 ,347.00 ,649.00 ,91.00 ,56.00 ,482.00 ,508.00 ,658.00 ,0.24 ,12318981000.00 
168.00 ,288.00 ,643.00 ,87.00 ,58.00 ,506.00 ,483.00 ,605.00 ,0.25 ,12338798100.00 
148.00 ,272.00 ,625.00 ,85.00 ,55.00 ,478.00 ,446.00 ,591.00 ,0.26 ,12359234200.00 
150.00 ,312.00 ,637.00 ,96.00 ,57.00 ,448.00 ,416.00 ,525.00 ,0.27 ,12378687900.00 
161.00 ,342.00 ,504.00 ,97.00 ,56.00 ,463.00 ,393.00 ,548.00 ,0.28 ,12399160600.00 
163.00 ,347.00 ,467.00 ,104.00 ,54.00 ,460.00 ,389.00 ,538.00 ,0.29 ,12419221700.00 
155.00 ,337.00 ,468.00 ,104.00 ,52.00 ,454.00 ,435.00 ,597.00 ,0.30 ,12439156500.00 
204.00 ,383.00 ,470.00 ,106.00 ,53.00 ,442.00 ,457.00 ,494.00 ,0.31 ,12457603200.00 
237.00 ,487.00 ,449.00 ,98.00 ,50.00 ,490.00 ,495.00 ,586.00 ,0.32 ,12477597400.00 
244.00 ,485.00 ,431.00 ,87.00 ,56.00 ,583.00 ,505.00 ,562.00 ,0.33 ,12497693700.00 
245.00 ,482.00 ,414.00 ,81.00 ,60.00 ,698.00 ,531.00 ,603.00 ,0.34 ,12520107200.00 
250.00 ,486.00 ,398.00 ,80.00 ,59.00 ,674.00 ,520.00 ,561.00 ,0.35 ,12539826100.00 
216.00 ,468.00 ,402.00 ,79.00 ,57.00 ,642.00 ,523.00 ,581.00 ,0.36 ,12557813300.00 
197.00 ,361.00 ,442.00 ,92.00 ,61.00 ,635.00 ,518.00 ,563.00 ,0.37 ,12577674000.00 
181.00 ,311.00 ,445.00 ,76.00 ,49.00 ,540.00 ,539.00 ,582.00 ,0.38 ,12597824300.00 
176.00 ,343.00 ,450.00 ,79.00 ,45.00 ,482.00 ,533.00 ,537.00 ,0.39 ,12617761200.00 
177.00 ,359.00 ,455.00 ,81.00 ,41.00 ,506.00 ,507.00 ,499.00 ,0.40 ,12637781600.00 
172.00 ,347.00 ,448.00 ,81.00 ,39.00 ,532.00 ,500.00 ,479.00 ,0.41 ,12660217500.00 
146.00 ,353.00 ,354.00 ,64.00 ,30.00 ,532.00 ,506.00 ,368.00 ,0.42 ,12679937300.00 
137.00 ,376.00 ,319.00 ,79.00 ,35.00 ,607.00 ,476.00 ,378.00 ,0.43 ,12697864400.00 
180.00 ,428.00 ,324.00 ,78.00 ,37.00 ,542.00 ,450.00 ,423.00 ,0.44 ,12717880400.00 
173.00 ,436.00 ,307.00 ,79.00 ,42.00 ,501.00 ,438.00 ,427.00 ,0.45 ,12739996800.00 
173.00 ,467.00 ,320.00 ,81.00 ,45.00 ,579.00 ,443.00 ,387.00 ,0.46 ,12759204100.00 
203.00 ,490.00 ,326.00 ,83.00 ,51.00 ,623.00 ,435.00 ,415.00 ,0.47 ,12779481300.00 
303.00 ,512.00 ,304.00 ,73.00 ,57.00 ,670.00 ,443.00 ,416.00 ,0.48 ,12799706100.00 
290.00 ,513.00 ,291.00 ,76.00 ,66.00 ,770.00 ,488.00 ,456.00 ,0.49 ,12819964200.00 
333.00 ,503.00 ,319.00 ,79.00 ,66.00 ,773.00 ,559.00 ,532.00 ,0.50 ,12839851400.00 
342.00 ,494.00 ,359.00 ,82.00 ,67.00 ,717.00 ,529.00 ,604.00 ,0.51 ,12859875700.00 
326.00 ,491.00 ,360.00 ,80.00 ,64.00 ,680.00 ,519.00 ,615.00 ,0.52 ,12879719200.00 
242.00 ,565.00 ,332.00 ,72.00 ,63.00 ,651.00 ,528.00 ,599.00 ,0.53 ,12899692200.00 
242.00 ,529.00 ,309.00 ,63.00 ,53.00 ,578.00 ,479.00 ,526.00 ,0.54 ,12919921400.00 
175.00 ,570.00 ,330.00 ,59.00 ,52.00 ,561.00 ,439.00 ,479.00 ,0.55 ,12939994000.00 
164.00 ,575.00 ,275.00 ,50.00 ,48.00 ,612.00 ,387.00 ,542.00 ,0.56 ,12959570400.00 
213.00 ,555.00 ,260.00 ,50.00 ,55.00 ,680.00 ,431.00 ,501.00 ,0.57 ,12979385600.00 
222.00 ,451.00 ,273.00 ,49.00 ,51.00 ,698.00 ,404.00 ,590.00 ,0.58 ,12999736300.00 
219.00 ,474.00 ,367.00 ,56.00 ,50.00 ,695.00 ,427.00 ,617.00 ,0.59 ,13019305100.00 
228.00 ,476.00 ,336.00 ,55.00 ,61.00 ,862.00 ,410.00 ,672.00 ,0.60 ,13039596400.00 
275.00 ,498.00 ,366.00 ,54.00 ,62.00 ,883.00 ,445.00 ,643.00 ,0.61 ,13059682400.00 
250.00 ,599.00 ,390.00 ,54.00 ,56.00 ,824.00 ,517.00 ,672.00 ,0.62 ,13079526400.00 
248.00 ,598.00 ,452.00 ,68.00 ,60.00 ,817.00 ,567.00 ,662.00 ,0.63 ,13099043100.00 
236.00 ,588.00 ,485.00 ,71.00 ,64.00 ,813.00 ,572.00 ,687.00 ,0.64 ,13119149500.00 
230.00 ,598.00 ,495.00 ,69.00 ,58.00 ,709.00 ,608.00 ,665.00 ,0.65 ,13139543600.00 
171.00 ,620.00 ,472.00 ,69.00 ,57.00 ,692.00 ,604.00 ,645.00 ,0.66 ,13159344900.00 
185.00 ,570.00 ,472.00 ,68.00 ,62.00 ,709.00 ,560.00 ,618.00 ,0.67 ,13179220300.00 
195.00 ,576.00 ,433.00 ,53.00 ,59.00 ,781.00 ,638.00 ,556.00 ,0.68 ,13198991400.00 
206.00 ,611.00 ,295.00 ,38.00 ,59.00 ,841.00 ,710.00 ,538.00 ,0.69 ,13218622400.00 
233.00 ,570.00 ,269.00 ,37.00 ,59.00 ,864.00 ,722.00 ,523.00 ,0.70 ,13238758200.00 
245.00 ,550.00 ,279.00 ,50.00 ,72.00 ,970.00 ,801.00 ,492.00 ,0.71 ,13258385700.00 
237.00 ,523.00 ,344.00 ,64.00 ,74.00 ,1050.00 ,834.00 ,543.00 ,0.72 ,13278049000.00 
242.00 ,584.00 ,310.00 ,64.00 ,78.00 ,1090.00 ,823.00 ,588.00 ,0.73 ,13299734900.00 
242.00 ,617.00 ,317.00 ,67.00 ,85.00 ,1141.00 ,802.00 ,636.00 ,0.74 ,13319972600.00 
224.00 ,694.00 ,315.00 ,68.00 ,87.00 ,1149.00 ,783.00 ,657.00 ,0.75 ,13337939900.00 
236.00 ,729.00 ,325.00 ,64.00 ,83.00 ,1207.00 ,779.00 ,667.00 ,0.76 ,13359240100.00 
224.00 ,864.00 ,307.00 ,58.00 ,77.00 ,1207.00 ,776.00 ,694.00 ,0.77 ,13379159500.00 
211.00 ,856.00 ,326.00 ,63.00 ,80.00 ,1144.00 ,744.00 ,719.00 ,0.78 ,13399209900.00 
217.00 ,807.00 ,318.00 ,61.00 ,74.00 ,1100.00 ,734.00 ,706.00 ,0.79 ,13418925100.00 
245.00 ,821.00 ,327.00 ,65.00 ,83.00 ,1119.00 ,738.00 ,798.00 ,0.80 ,13439021700.00 
256.00 ,916.00 ,315.00 ,61.00 ,82.00 ,1006.00 ,674.00 ,863.00 ,0.81 ,13458482500.00 
276.00 ,808.00 ,233.00 ,57.00 ,92.00 ,996.00 ,720.00 ,902.00 ,0.82 ,13478456400.00 
297.00 ,795.00 ,223.00 ,58.00 ,91.00 ,1013.00 ,717.00 ,942.00 ,0.83 ,13499032100.00 
301.00 ,806.00 ,245.00 ,64.00 ,98.00 ,1067.00 ,729.00 ,1015.00 ,0.84 ,13519472500.00 
307.00 ,731.00 ,245.00 ,65.00 ,94.00 ,1063.00 ,769.00 ,981.00 ,0.85 ,13537659200.00 
339.00 ,597.00 ,254.00 ,72.00 ,94.00 ,1058.00 ,829.00 ,926.00 ,0.86 ,13558123100.00 
347.00 ,620.00 ,248.00 ,78.00 ,106.00 ,1111.00 ,766.00 ,971.00 ,0.87 ,13578039100.00 
356.00 ,654.00 ,215.00 ,75.00 ,116.00 ,1127.00 ,836.00 ,928.00 ,0.88 ,13598263000.00 
347.00 ,754.00 ,277.00 ,83.00 ,140.00 ,1079.00 ,923.00 ,928.00 ,0.89 ,13617895100.00 
402.00 ,803.00 ,274.00 ,87.00 ,159.00 ,1104.00 ,934.00 ,913.00 ,0.90 ,13639994400.00 
376.00 ,897.00 ,298.00 ,99.00 ,198.00 ,1250.00 ,945.00 ,993.00 ,0.91 ,13659795200.00 
401.00 ,905.00 ,346.00 ,113.00 ,207.00 ,1320.00 ,951.00 ,1076.00 ,0.92 ,13677663400.00 
433.00 ,894.00 ,374.00 ,123.00 ,211.00 ,1303.00 ,908.00 ,1184.00 ,0.93 ,13697943200.00 
506.00 ,957.00 ,370.00 ,146.00 ,223.00 ,1313.00 ,865.00 ,1204.00 ,0.94 ,13717818800.00 
482.00 ,946.00 ,422.00 ,155.00 ,224.00 ,1342.00 ,839.00 ,1214.00 ,0.95 ,13738795700.00 
542.00 ,929.00 ,413.00 ,163.00 ,207.00 ,1272.00 ,919.00 ,1197.00 ,0.96 ,13758898600.00 
543.00 ,965.00 ,407.00 ,157.00 ,220.00 ,1172.00 ,1004.00 ,1084.00 ,0.97 ,13778985600.00 
606.00 ,995.00 ,434.00 ,165.00 ,230.00 ,1278.00 ,1055.00 ,990.00 ,0.98 ,13799258200.00 
573.00 ,872.00 ,494.00 ,151.00 ,213.00 ,1336.00 ,1106.00 ,948.00 ,0.99 ,13819070500.00 
577.00 ,1006.00 ,511.00 ,146.00 ,208.00 ,1294.00 ,1203.00 ,1007.00 ,0.98 ,13843402200.00 
526.00 ,965.00 ,533.00 ,133.00 ,207.00 ,1294.00 ,1166.00 ,1031.00 ,0.97 ,13858418000.00 
519.00 ,916.00 ,528.00 ,147.00 ,195.00 ,1278.00 ,1114.00 ,1036.00 ,0.96 ,13878566000.00 
388.00 ,940.00 ,502.00 ,131.00 ,174.00 ,1202.00 ,1074.00 ,1021.00 ,0.95 ,13899415100.00 
385.00 ,1014.00 ,436.00 ,133.00 ,214.00 ,1153.00 ,1014.00 ,1009.00 ,0.94 ,13919330500.00 
356.00 ,967.00 ,415.00 ,141.00 ,213.00 ,1210.00 ,941.00 ,934.00 ,0.93 ,13939356700.00 
329.00 ,916.00 ,379.00 ,142.00 ,201.00 ,1184.00 ,859.00 ,868.00 ,0.92 ,13959295200.00 
303.00 ,886.00 ,361.00 ,120.00 ,185.00 ,1242.00 ,846.00 ,839.00 ,0.91 ,13979391900.00 
295.00 ,787.00 ,363.00 ,119.00 ,181.00 ,1134.00 ,771.00 ,760.00 ,0.90 ,13999661200.00 
251.00 ,656.00 ,489.00 ,132.00 ,118.00 ,1053.00 ,660.00 ,652.00 ,0.89 ,14017755900.00 
213.00 ,453.00 ,505.00 ,170.00 ,95.00 ,961.00 ,508.00 ,571.00 ,0.88 ,14037699500.00 
221.00 ,460.00 ,522.00 ,180.00 ,100.00 ,947.00 ,460.00 ,477.00 ,0.87 ,14057852700.00 
189.00 ,444.00 ,551.00 ,182.00 ,91.00 ,889.00 ,328.00 ,391.00 ,0.86 ,14078178900.00 
180.00 ,421.00 ,661.00 ,190.00 ,91.00 ,895.00 ,305.00 ,364.00 ,0.85 ,14098485300.00 
179.00 ,389.00 ,554.00 ,219.00 ,85.00 ,882.00 ,299.00 ,332.00 ,0.84 ,14118469000.00 
172.00 ,379.00 ,511.00 ,188.00 ,86.00 ,899.00 ,300.00 ,290.00 ,0.83 ,14138870400.00 
144.00 ,391.00 ,543.00 ,181.00 ,66.00 ,830.00 ,251.00 ,267.00 ,0.82 ,14159105200.00 
138.00 ,369.00 ,564.00 ,183.00 ,71.00 ,780.00 ,214.00 ,127.00 ,0.81 ,14178945200.00 
147.00 ,359.00 ,483.00 ,176.00 ,70.00 ,781.00 ,192.00 ,107.00 ,0.80 ,14199243200.00 
149.00 ,395.00 ,504.00 ,175.00 ,64.00 ,751.00 ,181.00 ,86.00 ,0.79 ,14219015600.00 
148.00 ,430.00 ,543.00 ,179.00 ,61.00 ,602.00 ,167.00 ,81.00 ,0.77 ,14258959000.00 
143.00 ,418.00 ,555.00 ,176.00 ,61.00 ,512.00 ,189.00 ,75.00 ,0.77 ,14258999300.00 
142.00 ,429.00 ,597.00 ,170.00 ,52.00 ,353.00 ,195.00 ,63.00 ,0.76 ,14278912800.00 
137.00 ,438.00 ,582.00 ,179.00 ,48.00 ,325.00 ,199.00 ,64.00 ,0.75 ,14298976500.00 
102.00 ,399.00 ,584.00 ,125.00 ,46.00 ,311.00 ,201.00 ,62.00 ,0.74 ,14318637100.00 
99.00 ,412.00 ,593.00 ,114.00 ,49.00 ,296.00 ,194.00 ,59.00 ,0.73 ,14338665900.00 
98.00 ,359.00 ,575.00 ,109.00 ,48.00 ,291.00 ,136.00 ,43.00 ,0.72 ,14359813000.00 
96.00 ,328.00 ,526.00 ,112.00 ,48.00 ,313.00 ,117.00 ,54.00 ,0.71 ,14378882100.00 
97.00 ,350.00 ,557.00 ,101.00 ,49.00 ,306.00 ,122.00 ,60.00 ,0.70 ,14398491600.00 
117.00 ,371.00 ,540.00 ,97.00 ,51.00 ,307.00 ,114.00 ,60.00 ,0.69 ,14418538300.00 
126.00 ,331.00 ,648.00 ,108.00 ,58.00 ,303.00 ,122.00 ,65.00 ,0.68 ,14438685300.00 
127.00 ,321.00 ,801.00 ,118.00 ,59.00 ,397.00 ,126.00 ,64.00 ,0.67 ,14458732600.00 
126.00 ,332.00 ,841.00 ,134.00 ,62.00 ,412.00 ,117.00 ,55.00 ,0.66 ,14478752000.00 
123.00 ,317.00 ,799.00 ,139.00 ,61.00 ,406.00 ,97.00 ,46.00 ,0.65 ,14499035700.00 
91.00 ,290.00 ,849.00 ,142.00 ,58.00 ,402.00 ,94.00 ,45.00 ,0.64 ,14519279400.00 
79.00 ,259.00 ,826.00 ,148.00 ,50.00 ,401.00 ,83.00 ,35.00 ,0.63 ,14539111800.00 
74.00 ,309.00 ,656.00 ,138.00 ,44.00 ,287.00 ,76.00 ,32.00 ,0.62 ,14557657800.00 
88.00 ,300.00 ,654.00 ,131.00 ,54.00 ,370.00 ,88.00 ,62.00 ,0.61 ,14579988300.00 
79.00 ,269.00 ,700.00 ,118.00 ,52.00 ,390.00 ,88.00 ,63.00 ,0.60 ,14599968700.00 
79.00 ,247.00 ,735.00 ,122.00 ,56.00 ,397.00 ,92.00 ,67.00 ,0.59 ,14617947500.00 
96.00 ,304.00 ,667.00 ,121.00 ,59.00 ,396.00 ,91.00 ,69.00 ,0.58 ,14637840100.00 
97.00 ,258.00 ,786.00 ,131.00 ,60.00 ,397.00 ,86.00 ,70.00 ,0.57 ,14657930400.00 
82.00 ,255.00 ,739.00 ,124.00 ,49.00 ,263.00 ,63.00 ,43.00 ,0.56 ,14678044800.00 
108.00 ,275.00 ,694.00 ,127.00 ,50.00 ,237.00 ,58.00 ,43.00 ,0.55 ,14697764200.00 
110.00 ,310.00 ,704.00 ,129.00 ,47.00 ,226.00 ,53.00 ,37.00 ,0.54 ,14718060600.00 
102.00 ,302.00 ,878.00 ,123.00 ,43.00 ,224.00 ,69.00 ,37.00 ,0.53 ,14737945400.00 
108.00 ,339.00 ,812.00 ,125.00 ,44.00 ,173.00 ,77.00 ,36.00 ,0.52 ,14757733900.00 
112.00 ,350.00 ,806.00 ,137.00 ,58.00 ,242.00 ,83.00 ,41.00 ,0.51 ,14780125000.00 
91.00 ,363.00 ,839.00 ,138.00 ,57.00 ,257.00 ,83.00 ,40.00 ,0.50 ,14797598200.00 
95.00 ,362.00 ,823.00 ,143.00 ,59.00 ,259.00 ,85.00 ,45.00 ,0.49 ,14817795600.00 
99.00 ,310.00 ,692.00 ,132.00 ,65.00 ,399.00 ,86.00 ,45.00 ,0.48 ,14837739000.00 
125.00 ,320.00 ,650.00 ,124.00 ,69.00 ,467.00 ,92.00 ,62.00 ,0.47 ,14860020800.00 
127.00 ,312.00 ,679.00 ,113.00 ,60.00 ,459.00 ,96.00 ,74.00 ,0.46 ,14879833100.00 
133.00 ,291.00 ,648.00 ,134.00 ,67.00 ,456.00 ,101.00 ,80.00 ,0.45 ,14899755600.00 
130.00 ,298.00 ,573.00 ,117.00 ,64.00 ,469.00 ,100.00 ,78.00 ,0.44 ,14919685800.00 
127.00 ,325.00 ,602.00 ,121.00 ,63.00 ,374.00 ,91.00 ,77.00 ,0.43 ,14939843700.00 
108.00 ,306.00 ,689.00 ,131.00 ,64.00 ,350.00 ,107.00 ,68.00 ,0.42 ,14957637200.00 
102.00 ,327.00 ,689.00 ,127.00 ,60.00 ,338.00 ,99.00 ,52.00 ,0.41 ,14977651800.00 
90.00 ,334.00 ,798.00 ,107.00 ,53.00 ,330.00 ,95.00 ,42.00 ,0.40 ,14999810800.00 
94.00 ,319.00 ,809.00 ,116.00 ,56.00 ,317.00 ,96.00 ,45.00 ,0.39 ,15020118400.00 
89.00 ,307.00 ,759.00 ,116.00 ,50.00 ,332.00 ,99.00 ,42.00 ,0.38 ,15038059000.00 
73.00 ,275.00 ,746.00 ,109.00 ,45.00 ,321.00 ,75.00 ,56.00 ,0.37 ,15058088400.00 
85.00 ,289.00 ,779.00 ,116.00 ,45.00 ,294.00 ,82.00 ,71.00 ,0.36 ,15078019100.00 
105.00 ,333.00 ,792.00 ,120.00 ,46.00 ,289.00 ,83.00 ,71.00 ,0.35 ,15097985200.00 
110.00 ,337.00 ,881.00 ,133.00 ,51.00 ,282.00 ,84.00 ,74.00 ,0.34 ,15117936800.00 
111.00 ,370.00 ,908.00 ,143.00 ,55.00 ,326.00 ,86.00 ,75.00 ,0.33 ,15138216700.00 
115.00 ,404.00 ,968.00 ,162.00 ,56.00 ,332.00 ,92.00 ,78.00 ,0.32 ,15158003600.00 
107.00 ,409.00 ,1006.00 ,175.00 ,61.00 ,348.00 ,87.00 ,67.00 ,0.31 ,15178005000.00 
95.00 ,359.00 ,944.00 ,188.00 ,67.00 ,364.00 ,83.00 ,70.00 ,0.30 ,15198080000.00 
91.00 ,360.00 ,900.00 ,209.00 ,73.00 ,363.00 ,82.00 ,70.00 ,0.29 ,15217925300.00 
89.00 ,342.00 ,914.00 ,200.00 ,75.00 ,292.00 ,76.00 ,70.00 ,0.28 ,15238077300.00 
97.00 ,333.00 ,919.00 ,206.00 ,87.00 ,359.00 ,114.00 ,61.00 ,0.27 ,15257874000.00 
96.00 ,302.00 ,840.00 ,206.00 ,90.00 ,356.00 ,115.00 ,62.00 ,0.26 ,15277674100.00 
97.00 ,333.00 ,898.00 ,192.00 ,89.00 ,353.00 ,117.00 ,67.00 ,0.25 ,15300065500.00 
90.00 ,311.00 ,886.00 ,170.00 ,80.00 ,360.00 ,143.00 ,63.00 ,0.24 ,15317615800.00 
110.00 ,359.00 ,923.00 ,174.00 ,73.00 ,379.00 ,147.00 ,60.00 ,0.23 ,15337841400.00 
103.00 ,340.00 ,899.00 ,156.00 ,58.00 ,296.00 ,114.00 ,55.00 ,0.22 ,15359825600.00 
112.00 ,348.00 ,959.00 ,173.00 ,64.00 ,276.00 ,113.00 ,55.00 ,0.21 ,15379985000.00 
109.00 ,348.00 ,922.00 ,194.00 ,63.00 ,260.00 ,121.00 ,45.00 ,0.20 ,15399962500.00 
114.00 ,398.00 ,948.00 ,192.00 ,71.00 ,316.00 ,90.00 ,48.00 ,0.19 ,15417797700.00 
90.00 ,349.00 ,865.00 ,207.00 ,72.00 ,302.00 ,89.00 ,49.00 ,0.18 ,15438060300.00 
105.00 ,456.00 ,862.00 ,240.00 ,77.00 ,355.00 ,94.00 ,56.00 ,0.17 ,15458125000.00 
128.00 ,555.00 ,940.00 ,253.00 ,73.00 ,415.00 ,105.00 ,74.00 ,0.16 ,15479876400.00 
132.00 ,576.00 ,970.00 ,245.00 ,73.00 ,417.00 ,103.00 ,77.00 ,0.15 ,15497895300.00 
134.00 ,644.00 ,921.00 ,259.00 ,71.00 ,369.00 ,105.00 ,78.00 ,0.14 ,15518219200.00 
138.00 ,692.00 ,983.00 ,255.00 ,75.00 ,385.00 ,116.00 ,78.00 ,0.13 ,15538657800.00 
151.00 ,724.00 ,949.00 ,259.00 ,83.00 ,330.00 ,118.00 ,79.00 ,0.12 ,15559422900.00 
140.00 ,686.00 ,938.00 ,261.00 ,95.00 ,319.00 ,114.00 ,67.00 ,0.11 ,15579610100.00 
160.00 ,727.00 ,1042.00 ,290.00 ,101.00 ,330.00 ,109.00 ,71.00 ,0.10 ,15599204000.00 
175.00 ,724.00 ,1082.00 ,305.00 ,110.00 ,341.00 ,108.00 ,78.00 ,0.09 ,15619455200.00 
226.00 ,809.00 ,1133.00 ,429.00 ,147.00 ,336.00 ,128.00 ,103.00 ,0.08 ,15640114800.00 
255.00 ,843.00 ,1177.00 ,461.00 ,154.00 ,501.00 ,135.00 ,111.00 ,0.07 ,15659803600.00 
258.00 ,830.00 ,1155.00 ,491.00 ,161.00 ,483.00 ,134.00 ,128.00 ,0.06 ,15679451000.00 
288.00 ,870.00 ,1075.00 ,596.00 ,206.00 ,494.00 ,165.00 ,145.00 ,0.05 ,15699639400.00 
309.00 ,928.00 ,1090.00 ,615.00 ,210.00 ,494.00 ,171.00 ,152.00 ,0.04 ,15719538200.00 
320.00 ,897.00 ,1029.00 ,631.00 ,217.00 ,491.00 ,150.00 ,152.00 ,0.03 ,15739667600.00 
354.00 ,911.00 ,1040.00 ,693.00 ,256.00 ,386.00 ,158.00 ,184.00 ,0.02 ,15757742400.00 
452.00 ,1107.00 ,994.00 ,799.00 ,317.00 ,452.00 ,184.00 ,256.00 ,0.01 ,15780315400.00 
447.00 ,1093.00 ,1164.00 ,756.00 ,303.00 ,440.00 ,157.00 ,254.00 ,0.00 ,15797904800.00 
474.00 ,1225.00 ,1148.00 ,796.00 ,334.00 ,441.00 ,167.00 ,273.00 ,0.01 ,15817912400.00 
471.00 ,1279.00 ,1240.00 ,766.00 ,324.00 ,434.00 ,166.00 ,276.00 ,0.02 ,15838122400.00 
449.00 ,1223.00 ,1233.00 ,753.00 ,309.00 ,369.00 ,149.00 ,258.00 ,0.03 ,15858044700.00 
349.00 ,1071.00 ,1253.00 ,635.00 ,237.00 ,371.00 ,117.00 ,208.00 ,0.04 ,15877949300.00 
337.00 ,1073.00 ,1081.00 ,600.00 ,228.00 ,426.00 ,115.00 ,219.00 ,0.05 ,15898269500.00 
331.00 ,913.00 ,1153.00 ,603.00 ,237.00 ,480.00 ,129.00 ,242.00 ,0.06 ,15918578800.00 
304.00 ,778.00 ,1090.00 ,557.00 ,234.00 ,552.00 ,173.00 ,327.00 ,0.07 ,15938405500.00 
267.00 ,748.00 ,987.00 ,454.00 ,206.00 ,648.00 ,382.00 ,527.00 ,0.08 ,15958757200.00 
270.00 ,715.00 ,901.00 ,412.00 ,208.00 ,656.00 ,546.00 ,609.00 ,0.09 ,15978821600.00 
253.00 ,668.00 ,922.00 ,384.00 ,197.00 ,685.00 ,599.00 ,632.00 ,0.10 ,15998369700.00 
198.00 ,532.00 ,768.00 ,230.00 ,122.00 ,734.00 ,606.00 ,674.00 ,0.11 ,16023156700.00 
179.00 ,569.00 ,624.00 ,192.00 ,121.00 ,857.00 ,660.00 ,794.00 ,0.12 ,16038840200.00 
185.00 ,550.00 ,681.00 ,173.00 ,116.00 ,833.00 ,621.00 ,887.00 ,0.13 ,16059087200.00 
191.00 ,524.00 ,695.00 ,160.00 ,109.00 ,828.00 ,503.00 ,898.00 ,0.14 ,16079501900.00 
199.00 ,487.00 ,704.00 ,160.00 ,107.00 ,786.00 ,454.00 ,883.00 ,0.15 ,16099398000.00 
175.00 ,473.00 ,866.00 ,126.00 ,85.00 ,760.00 ,455.00 ,851.00 ,0.16 ,16119631400.00 
178.00 ,372.00 ,846.00 ,124.00 ,82.00 ,701.00 ,420.00 ,758.00 ,0.17 ,16139720900.00 
197.00 ,370.00 ,801.00 ,128.00 ,91.00 ,723.00 ,406.00 ,579.00 ,0.18 ,16159746900.00 
197.00 ,410.00 ,787.00 ,126.00 ,90.00 ,723.00 ,419.00 ,619.00 ,0.19 ,16179768600.00 
197.00 ,421.00 ,695.00 ,127.00 ,93.00 ,734.00 ,413.00 ,632.00 ,0.20 ,16199417700.00 
187.00 ,403.00 ,481.00 ,120.00 ,96.00 ,703.00 ,410.00 ,720.00 ,0.21 ,16219623200.00 
182.00 ,390.00 ,508.00 ,117.00 ,76.00 ,685.00 ,356.00 ,735.00 ,0.22 ,16239496300.00 
154.00 ,439.00 ,504.00 ,113.00 ,71.00 ,698.00 ,407.00 ,712.00 ,0.23 ,16259041200.00 
138.00 ,424.00 ,553.00 ,121.00 ,68.00 ,646.00 ,420.00 ,681.00 ,0.24 ,16279173600.00 
145.00 ,450.00 ,543.00 ,112.00 ,66.00 ,627.00 ,432.00 ,756.00 ,0.25 ,16298993300.00 
145.00 ,437.00 ,519.00 ,111.00 ,62.00 ,640.00 ,447.00 ,721.00 ,0.26 ,16318972900.00 
185.00 ,441.00 ,469.00 ,111.00 ,60.00 ,590.00 ,472.00 ,711.00 ,0.27 ,16339033700.00 
186.00 ,450.00 ,459.00 ,111.00 ,51.00 ,486.00 ,398.00 ,718.00 ,0.28 ,16358040400.00 
194.00 ,459.00 ,458.00 ,115.00 ,57.00 ,478.00 ,352.00 ,654.00 ,0.30 ,16398498800.00 
190.00 ,426.00 ,450.00 ,119.00 ,54.00 ,476.00 ,339.00 ,609.00 ,0.30 ,16398512600.00 
200.00 ,443.00 ,443.00 ,113.00 ,54.00 ,464.00 ,401.00 ,598.00 ,0.31 ,16418417700.00 
167.00 ,442.00 ,433.00 ,109.00 ,50.00 ,418.00 ,414.00 ,658.00 ,0.33 ,16458036800.00 
168.00 ,383.00 ,423.00 ,104.00 ,50.00 ,404.00 ,400.00 ,684.00 ,0.34 ,16477992700.00 
159.00 ,410.00 ,427.00 ,92.00 ,41.00 ,401.00 ,397.00 ,687.00 ,0.34 ,16478005200.00 
178.00 ,429.00 ,425.00 ,82.00 ,42.00 ,482.00 ,394.00 ,681.00 ,0.36 ,16517730300.00 
175.00 ,444.00 ,437.00 ,92.00 ,47.00 ,455.00 ,350.00 ,698.00 ,0.36 ,16517744300.00 
170.00 ,455.00 ,438.00 ,92.00 ,47.00 ,429.00 ,338.00 ,636.00 ,0.37 ,16539949700.00 
189.00 ,474.00 ,440.00 ,93.00 ,45.00 ,409.00 ,324.00 ,647.00 ,0.39 ,16579942200.00 
199.00 ,463.00 ,375.00 ,100.00 ,52.00 ,409.00 ,319.00 ,624.00 ,0.39 ,16579955000.00 
170.00 ,432.00 ,350.00 ,114.00 ,51.00 ,303.00 ,324.00 ,575.00 ,0.40 ,16599924300.00 
164.00 ,425.00 ,349.00 ,107.00 ,48.00 ,334.00 ,297.00 ,497.00 ,0.41 ,16619750100.00 
192.00 ,403.00 ,349.00 ,109.00 ,57.00 ,394.00 ,276.00 ,483.00 ,0.42 ,16639782600.00 
185.00 ,485.00 ,354.00 ,110.00 ,59.00 ,438.00 ,385.00 ,568.00 ,0.43 ,16657704900.00 
168.00 ,493.00 ,392.00 ,106.00 ,57.00 ,470.00 ,417.00 ,618.00 ,0.44 ,16677931000.00 
182.00 ,495.00 ,361.00 ,73.00 ,54.00 ,468.00 ,425.00 ,668.00 ,0.45 ,16697902200.00 
193.00 ,509.00 ,361.00 ,70.00 ,55.00 ,494.00 ,506.00 ,698.00 ,0.46 ,16717726500.00 
170.00 ,535.00 ,362.00 ,67.00 ,53.00 ,528.00 ,541.00 ,675.00 ,0.47 ,16739909500.00 
221.00 ,521.00 ,357.00 ,69.00 ,51.00 ,545.00 ,491.00 ,588.00 ,0.48 ,16758396700.00 
234.00 ,503.00 ,292.00 ,59.00 ,59.00 ,579.00 ,535.00 ,579.00 ,0.49 ,16778933500.00 
246.00 ,521.00 ,369.00 ,73.00 ,64.00 ,588.00 ,547.00 ,543.00 ,0.50 ,16798834800.00 
254.00 ,535.00 ,357.00 ,77.00 ,64.00 ,566.00 ,536.00 ,547.00 ,0.51 ,16818748400.00 
262.00 ,527.00 ,361.00 ,77.00 ,61.00 ,495.00 ,538.00 ,541.00 ,0.52 ,16838227800.00 
218.00 ,483.00 ,369.00 ,79.00 ,67.00 ,467.00 ,542.00 ,541.00 ,0.53 ,16858564500.00 
233.00 ,459.00 ,350.00 ,76.00 ,58.00 ,393.00 ,494.00 ,528.00 ,0.54 ,16878424500.00 
221.00 ,477.00 ,221.00 ,64.00 ,54.00 ,415.00 ,479.00 ,612.00 ,0.55 ,16898391700.00 
216.00 ,493.00 ,221.00 ,68.00 ,53.00 ,368.00 ,417.00 ,583.00 ,0.56 ,16918382200.00 
217.00 ,560.00 ,207.00 ,67.00 ,52.00 ,334.00 ,349.00 ,604.00 ,0.58 ,16958379300.00 
234.00 ,594.00 ,234.00 ,58.00 ,49.00 ,305.00 ,361.00 ,589.00 ,0.58 ,16958394400.00 
224.00 ,646.00 ,376.00 ,69.00 ,52.00 ,304.00 ,525.00 ,612.00 ,0.59 ,16978194400.00 
227.00 ,612.00 ,385.00 ,72.00 ,52.00 ,309.00 ,548.00 ,514.00 ,0.61 ,17018000100.00 
225.00 ,580.00 ,410.00 ,67.00 ,47.00 ,311.00 ,532.00 ,503.00 ,0.61 ,17018014400.00 
274.00 ,558.00 ,413.00 ,70.00 ,47.00 ,286.00 ,545.00 ,505.00 ,0.62 ,17037925300.00 
293.00 ,510.00 ,410.00 ,81.00 ,47.00 ,317.00 ,587.00 ,594.00 ,0.64 ,17079842200.00 
292.00 ,483.00 ,289.00 ,72.00 ,45.00 ,392.00 ,541.00 ,599.00 ,0.64 ,17079886000.00 
311.00 ,541.00 ,271.00 ,68.00 ,47.00 ,413.00 ,615.00 ,708.00 ,0.65 ,17099390400.00 
314.00 ,540.00 ,257.00 ,68.00 ,48.00 ,409.00 ,622.00 ,776.00 ,0.67 ,17139041400.00 
274.00 ,524.00 ,269.00 ,64.00 ,46.00 ,405.00 ,622.00 ,756.00 ,0.67 ,17139053400.00 
238.00 ,501.00 ,235.00 ,51.00 ,40.00 ,389.00 ,583.00 ,659.00 ,0.68 ,17158669400.00 
228.00 ,493.00 ,225.00 ,48.00 ,41.00 ,362.00 ,580.00 ,678.00 ,0.70 ,17199004700.00 
200.00 ,513.00 ,232.00 ,54.00 ,43.00 ,356.00 ,556.00 ,608.00 ,0.70 ,17199017400.00 
231.00 ,565.00 ,193.00 ,46.00 ,47.00 ,434.00 ,583.00 ,553.00 ,0.71 ,17219593700.00 
225.00 ,620.00 ,194.00 ,58.00 ,52.00 ,469.00 ,624.00 ,609.00 ,0.72 ,17239973600.00 
238.00 ,673.00 ,185.00 ,62.00 ,56.00 ,536.00 ,616.00 ,681.00 ,0.73 ,17259887700.00 
257.00 ,663.00 ,187.00 ,64.00 ,62.00 ,576.00 ,595.00 ,701.00 ,0.74 ,17279778400.00 
273.00 ,688.00 ,256.00 ,70.00 ,74.00 ,633.00 ,579.00 ,720.00 ,0.76 ,17319237500.00 
271.00 ,671.00 ,278.00 ,75.00 ,72.00 ,648.00 ,571.00 ,814.00 ,0.76 ,17319249900.00 
295.00 ,650.00 ,272.00 ,68.00 ,75.00 ,655.00 ,602.00 ,829.00 ,0.77 ,17339610000.00 
290.00 ,740.00 ,287.00 ,67.00 ,74.00 ,651.00 ,671.00 ,832.00 ,0.79 ,17378805000.00 
297.00 ,770.00 ,297.00 ,71.00 ,69.00 ,618.00 ,651.00 ,791.00 ,0.79 ,17378817800.00 
280.00 ,721.00 ,318.00 ,60.00 ,56.00 ,623.00 ,636.00 ,763.00 ,0.80 ,17398410600.00 
261.00 ,699.00 ,303.00 ,60.00 ,59.00 ,652.00 ,636.00 ,713.00 ,0.82 ,17438720500.00 
231.00 ,696.00 ,302.00 ,69.00 ,69.00 ,716.00 ,613.00 ,754.00 ,0.82 ,17438733700.00 
265.00 ,673.00 ,301.00 ,69.00 ,72.00 ,722.00 ,583.00 ,783.00 ,0.83 ,17458898200.00 
261.00 ,659.00 ,292.00 ,65.00 ,73.00 ,743.00 ,579.00 ,807.00 ,0.85 ,17498933200.00 
256.00 ,646.00 ,198.00 ,62.00 ,71.00 ,755.00 ,627.00 ,835.00 ,0.85 ,17498945900.00 
258.00 ,681.00 ,245.00 ,59.00 ,71.00 ,767.00 ,639.00 ,818.00 ,0.86 ,17518918000.00 
274.00 ,823.00 ,264.00 ,49.00 ,61.00 ,729.00 ,647.00 ,783.00 ,0.88 ,17557746100.00 
235.00 ,766.00 ,276.00 ,45.00 ,65.00 ,766.00 ,637.00 ,749.00 ,0.88 ,17557758900.00 
223.00 ,840.00 ,294.00 ,47.00 ,63.00 ,801.00 ,688.00 ,755.00 ,0.89 ,17577646500.00 
230.00 ,933.00 ,342.00 ,71.00 ,69.00 ,751.00 ,645.00 ,745.00 ,0.90 ,17599870500.00 
257.00 ,998.00 ,306.00 ,71.00 ,73.00 ,809.00 ,737.00 ,797.00 ,0.91 ,17617687500.00 
286.00 ,875.00 ,294.00 ,79.00 ,86.00 ,880.00 ,768.00 ,811.00 ,0.92 ,17637641500.00 
308.00 ,888.00 ,270.00 ,82.00 ,88.00 ,890.00 ,813.00 ,802.00 ,0.94 ,17677593800.00 
319.00 ,868.00 ,254.00 ,84.00 ,92.00 ,959.00 ,906.00 ,825.00 ,0.94 ,17677606700.00 
328.00 ,869.00 ,185.00 ,71.00 ,104.00 ,1070.00 ,953.00 ,898.00 ,0.95 ,17697564800.00 
330.00 ,810.00 ,174.00 ,70.00 ,112.00 ,1127.00 ,901.00 ,885.00 ,0.96 ,17719880000.00 
323.00 ,904.00 ,266.00 ,70.00 ,113.00 ,1225.00 ,955.00 ,891.00 ,0.97 ,17737696300.00 
362.00 ,893.00 ,273.00 ,77.00 ,118.00 ,1274.00 ,982.00 ,959.00 ,0.98 ,17757787800.00 
385.00 ,902.00 ,417.00 ,93.00 ,136.00 ,1269.00 ,947.00 ,971.00 ,0.98 ,17798323100.00 
423.00 ,851.00 ,449.00 ,109.00 ,139.00 ,1314.00 ,983.00 ,899.00 ,0.97 ,17818865200.00 
497.00 ,859.00 ,476.00 ,118.00 ,157.00 ,1385.00 ,1008.00 ,969.00 ,0.97 ,17818877500.00 
541.00 ,799.00 ,441.00 ,124.00 ,180.00 ,1322.00 ,942.00 ,998.00 ,0.95 ,17859451100.00 
528.00 ,846.00 ,474.00 ,141.00 ,226.00 ,1345.00 ,1052.00 ,945.00 ,0.95 ,17859464100.00 
558.00 ,827.00 ,392.00 ,143.00 ,247.00 ,1442.00 ,1036.00 ,963.00 ,0.94 ,17879945200.00 
643.00 ,801.00 ,421.00 ,139.00 ,258.00 ,1373.00 ,963.00 ,1080.00 ,0.92 ,17918470100.00 
620.00 ,879.00 ,453.00 ,146.00 ,254.00 ,1281.00 ,936.00 ,1042.00 ,0.91 ,17938499900.00 
581.00 ,851.00 ,458.00 ,146.00 ,237.00 ,1286.00 ,940.00 ,1093.00 ,0.91 ,17938512900.00 
582.00 ,842.00 ,445.00 ,133.00 ,202.00 ,1286.00 ,770.00 ,1144.00 ,0.89 ,17978847000.00 
528.00 ,892.00 ,431.00 ,123.00 ,167.00 ,1088.00 ,685.00 ,1078.00 ,0.88 ,17998682200.00 
374.00 ,876.00 ,409.00 ,121.00 ,144.00 ,1060.00 ,650.00 ,934.00 ,0.88 ,17998694800.00 
283.00 ,735.00 ,399.00 ,114.00 ,125.00 ,1021.00 ,587.00 ,822.00 ,0.86 ,18038925500.00 
245.00 ,691.00 ,407.00 ,122.00 ,128.00 ,997.00 ,487.00 ,609.00 ,0.85 ,18059181200.00 
178.00 ,577.00 ,422.00 ,154.00 ,103.00 ,810.00 ,340.00 ,350.00 ,0.85 ,18059194000.00 
158.00 ,347.00 ,481.00 ,203.00 ,97.00 ,818.00 ,243.00 ,241.00 ,0.83 ,18099106800.00 
140.00 ,269.00 ,523.00 ,213.00 ,85.00 ,751.00 ,193.00 ,181.00 ,0.82 ,18119046300.00 
121.00 ,269.00 ,620.00 ,222.00 ,84.00 ,595.00 ,170.00 ,147.00 ,0.82 ,18119059400.00 
113.00 ,273.00 ,628.00 ,225.00 ,63.00 ,391.00 ,138.00 ,118.00 ,0.80 ,18158691000.00 
113.00 ,281.00 ,663.00 ,227.00 ,67.00 ,426.00 ,122.00 ,90.00 ,0.79 ,18178815500.00 
114.00 ,280.00 ,655.00 ,192.00 ,60.00 ,430.00 ,138.00 ,81.00 ,0.79 ,18178848300.00 
117.00 ,293.00 ,628.00 ,176.00 ,56.00 ,417.00 ,128.00 ,61.00 ,0.77 ,18218801600.00 
116.00 ,284.00 ,512.00 ,161.00 ,52.00 ,405.00 ,114.00 ,56.00 ,0.76 ,18239153400.00 
120.00 ,295.00 ,527.00 ,154.00 ,52.00 ,399.00 ,107.00 ,49.00 ,0.76 ,18239165800.00 
101.00 ,313.00 ,503.00 ,140.00 ,44.00 ,358.00 ,108.00 ,46.00 ,0.74 ,18279523700.00 
97.00 ,337.00 ,619.00 ,151.00 ,49.00 ,263.00 ,67.00 ,43.00 ,0.73 ,18299574800.00 
78.00 ,311.00 ,602.00 ,169.00 ,50.00 ,193.00 ,72.00 ,32.00 ,0.73 ,18299587800.00 
91.00 ,292.00 ,594.00 ,177.00 ,52.00 ,237.00 ,77.00 ,38.00 ,0.71 ,18340149700.00 
86.00 ,297.00 ,601.00 ,173.00 ,51.00 ,231.00 ,78.00 ,36.00 ,0.70 ,18359104600.00 
88.00 ,267.00 ,605.00 ,170.00 ,53.00 ,214.00 ,80.00 ,36.00 ,0.70 ,18359122500.00 
88.00 ,259.00 ,498.00 ,155.00 ,46.00 ,205.00 ,76.00 ,34.00 ,0.68 ,18399416400.00 
88.00 ,257.00 ,553.00 ,149.00 ,41.00 ,187.00 ,67.00 ,34.00 ,0.67 ,18419261200.00 
76.00 ,242.00 ,604.00 ,149.00 ,41.00 ,92.00 ,59.00 ,30.00 ,0.67 ,18419273700.00 
72.00 ,203.00 ,674.00 ,155.00 ,40.00 ,74.00 ,53.00 ,29.00 ,0.65 ,18459137400.00 
72.00 ,200.00 ,667.00 ,137.00 ,35.00 ,71.00 ,37.00 ,26.00 ,0.64 ,18479095300.00 
70.00 ,178.00 ,680.00 ,138.00 ,39.00 ,53.00 ,37.00 ,25.00 ,0.64 ,18479107600.00 
68.00 ,203.00 ,692.00 ,138.00 ,40.00 ,60.00 ,36.00 ,26.00 ,0.62 ,18518948700.00 
80.00 ,201.00 ,678.00 ,132.00 ,44.00 ,65.00 ,35.00 ,25.00 ,0.61 ,18538647700.00 
80.00 ,198.00 ,648.00 ,132.00 ,46.00 ,69.00 ,32.00 ,29.00 ,0.61 ,18538660800.00 
95.00 ,212.00 ,649.00 ,133.00 ,49.00 ,69.00 ,35.00 ,32.00 ,0.59 ,18579190700.00 
96.00 ,204.00 ,644.00 ,135.00 ,47.00 ,67.00 ,32.00 ,32.00 ,0.58 ,18598962000.00 
105.00 ,212.00 ,587.00 ,130.00 ,48.00 ,52.00 ,43.00 ,37.00 ,0.58 ,18598974200.00 
99.00 ,229.00 ,577.00 ,142.00 ,51.00 ,47.00 ,45.00 ,41.00 ,0.56 ,18638824300.00 
105.00 ,252.00 ,556.00 ,142.00 ,51.00 ,48.00 ,48.00 ,40.00 ,0.55 ,18659092500.00 
119.00 ,236.00 ,524.00 ,138.00 ,48.00 ,58.00 ,49.00 ,39.00 ,0.55 ,18659104900.00 
118.00 ,289.00 ,536.00 ,130.00 ,46.00 ,62.00 ,49.00 ,39.00 ,0.53 ,18698885100.00 
139.00 ,317.00 ,620.00 ,127.00 ,50.00 ,62.00 ,41.00 ,40.00 ,0.52 ,18719458400.00 
136.00 ,324.00 ,710.00 ,123.00 ,46.00 ,101.00 ,60.00 ,61.00 ,0.51 ,18738441000.00 
154.00 ,316.00 ,727.00 ,136.00 ,53.00 ,148.00 ,64.00 ,107.00 ,0.50 ,18758546400.00 
157.00 ,352.00 ,803.00 ,147.00 ,59.00 ,163.00 ,74.00 ,111.00 ,0.49 ,18778742700.00 
161.00 ,316.00 ,826.00 ,149.00 ,60.00 ,220.00 ,92.00 ,112.00 ,0.49 ,18778760100.00 
140.00 ,285.00 ,799.00 ,153.00 ,66.00 ,360.00 ,93.00 ,114.00 ,0.47 ,18818259400.00 
141.00 ,279.00 ,772.00 ,152.00 ,71.00 ,363.00 ,82.00 ,104.00 ,0.46 ,18837790500.00 
139.00 ,298.00 ,778.00 ,135.00 ,63.00 ,351.00 ,79.00 ,63.00 ,0.45 ,18857917400.00 
118.00 ,299.00 ,727.00 ,127.00 ,60.00 ,347.00 ,72.00 ,57.00 ,0.44 ,18877721800.00 
141.00 ,309.00 ,687.00 ,127.00 ,60.00 ,368.00 ,78.00 ,57.00 ,0.43 ,18899846900.00 
142.00 ,296.00 ,695.00 ,133.00 ,51.00 ,315.00 ,93.00 ,59.00 ,0.42 ,18919798200.00 
150.00 ,318.00 ,758.00 ,160.00 ,47.00 ,322.00 ,94.00 ,58.00 ,0.42 ,18919811300.00 
145.00 ,344.00 ,904.00 ,178.00 ,53.00 ,338.00 ,95.00 ,51.00 ,0.40 ,18959644100.00 
142.00 ,351.00 ,905.00 ,179.00 ,53.00 ,343.00 ,94.00 ,49.00 ,0.39 ,18979303200.00 
121.00 ,408.00 ,899.00 ,187.00 ,66.00 ,321.00 ,74.00 ,53.00 ,0.38 ,18999724900.00 
122.00 ,420.00 ,925.00 ,177.00 ,65.00 ,274.00 ,71.00 ,45.00 ,0.37 ,19019914500.00 
108.00 ,408.00 ,840.00 ,140.00 ,63.00 ,259.00 ,70.00 ,43.00 ,0.36 ,19037836800.00 
94.00 ,387.00 ,643.00 ,116.00 ,70.00 ,293.00 ,111.00 ,57.00 ,0.35 ,19057747800.00 
102.00 ,357.00 ,714.00 ,127.00 ,77.00 ,295.00 ,115.00 ,59.00 ,0.34 ,19078061900.00 
105.00 ,294.00 ,712.00 ,121.00 ,70.00 ,257.00 ,117.00 ,57.00 ,0.33 ,19098006300.00 
107.00 ,295.00 ,769.00 ,122.00 ,72.00 ,230.00 ,108.00 ,57.00 ,0.32 ,19118260500.00 
102.00 ,279.00 ,813.00 ,128.00 ,72.00 ,273.00 ,113.00 ,56.00 ,0.31 ,19138424600.00 
93.00 ,257.00 ,806.00 ,119.00 ,65.00 ,292.00 ,92.00 ,43.00 ,0.30 ,19158635200.00 
88.00 ,250.00 ,747.00 ,117.00 ,66.00 ,307.00 ,88.00 ,49.00 ,0.29 ,19178508000.00 
76.00 ,250.00 ,747.00 ,125.00 ,62.00 ,310.00 ,83.00 ,44.00 ,0.28 ,19198989100.00 
85.00 ,280.00 ,649.00 ,156.00 ,70.00 ,306.00 ,82.00 ,48.00 ,0.27 ,19218936600.00 
92.00 ,346.00 ,681.00 ,162.00 ,72.00 ,301.00 ,82.00 ,50.00 ,0.26 ,19238801900.00 
101.00 ,372.00 ,791.00 ,205.00 ,82.00 ,336.00 ,61.00 ,54.00 ,0.25 ,19258641500.00 
104.00 ,388.00 ,765.00 ,218.00 ,84.00 ,328.00 ,63.00 ,52.00 ,0.24 ,19277832900.00 
114.00 ,436.00 ,804.00 ,228.00 ,91.00 ,344.00 ,81.00 ,60.00 ,0.23 ,19297860100.00 
105.00 ,463.00 ,1008.00 ,229.00 ,87.00 ,364.00 ,95.00 ,57.00 ,0.22 ,19319968000.00 
108.00 ,476.00 ,971.00 ,236.00 ,90.00 ,339.00 ,88.00 ,58.00 ,0.21 ,19339990100.00 
131.00 ,544.00 ,966.00 ,244.00 ,91.00 ,249.00 ,97.00 ,65.00 ,0.21 ,19340004200.00 
155.00 ,586.00 ,1115.00 ,259.00 ,105.00 ,239.00 ,125.00 ,74.00 ,0.19 ,19377760500.00 
148.00 ,545.00 ,1117.00 ,247.00 ,100.00 ,215.00 ,115.00 ,69.00 ,0.18 ,19397702500.00 
149.00 ,537.00 ,998.00 ,243.00 ,102.00 ,191.00 ,104.00 ,69.00 ,0.17 ,19417655200.00 
159.00 ,552.00 ,1115.00 ,239.00 ,103.00 ,233.00 ,109.00 ,74.00 ,0.16 ,19437795300.00 
186.00 ,609.00 ,1111.00 ,285.00 ,137.00 ,386.00 ,161.00 ,93.00 ,0.15 ,19457584900.00 
177.00 ,593.00 ,1096.00 ,287.00 ,130.00 ,407.00 ,142.00 ,89.00 ,0.14 ,19477631200.00 
220.00 ,732.00 ,1107.00 ,381.00 ,166.00 ,424.00 ,159.00 ,112.00 ,0.13 ,19497575500.00 
245.00 ,832.00 ,1129.00 ,449.00 ,188.00 ,429.00 ,167.00 ,122.00 ,0.12 ,19517608300.00 
244.00 ,853.00 ,1129.00 ,479.00 ,199.00 ,483.00 ,183.00 ,123.00 ,0.11 ,19539694300.00 
229.00 ,814.00 ,1155.00 ,513.00 ,197.00 ,451.00 ,148.00 ,116.00 ,0.10 ,19558564800.00 
260.00 ,913.00 ,1120.00 ,579.00 ,218.00 ,469.00 ,159.00 ,131.00 ,0.09 ,19578642600.00 
284.00 ,884.00 ,1210.00 ,620.00 ,227.00 ,484.00 ,152.00 ,132.00 ,0.08 ,19598499900.00 
281.00 ,845.00 ,1234.00 ,607.00 ,220.00 ,479.00 ,149.00 ,133.00 ,0.07 ,19618522100.00 
295.00 ,908.00 ,1189.00 ,615.00 ,222.00 ,402.00 ,130.00 ,135.00 ,0.06 ,19638432900.00 
308.00 ,905.00 ,1194.00 ,601.00 ,217.00 ,355.00 ,116.00 ,143.00 ,0.05 ,19658622600.00 
304.00 ,878.00 ,1161.00 ,558.00 ,217.00 ,308.00 ,107.00 ,143.00 ,0.04 ,19678521200.00 
265.00 ,895.00 ,1123.00 ,470.00 ,187.00 ,265.00 ,91.00 ,131.00 ,0.03 ,19698171100.00 
283.00 ,954.00 ,1055.00 ,471.00 ,196.00 ,272.00 ,94.00 ,140.00 ,0.02 ,19718646900.00 
310.00 ,936.00 ,1086.00 ,512.00 ,219.00 ,276.00 ,98.00 ,153.00 ,0.01 ,19738766500.00 
303.00 ,977.00 ,1112.00 ,483.00 ,220.00 ,219.00 ,112.00 ,146.00 ,0.00 ,19758893800.00 
281.00 ,961.00 ,1175.00 ,467.00 ,219.00 ,423.00 ,161.00 ,137.00 ,0.01 ,19779227500.00 
278.00 ,909.00 ,1145.00 ,480.00 ,224.00 ,452.00 ,165.00 ,158.00 ,0.02 ,19799314900.00 
249.00 ,782.00 ,1171.00 ,445.00 ,215.00 ,501.00 ,167.00 ,155.00 ,0.03 ,19822876800.00 
195.00 ,669.00 ,1065.00 ,362.00 ,186.00 ,650.00 ,272.00 ,353.00 ,0.04 ,19838760200.00 
159.00 ,533.00 ,916.00 ,319.00 ,169.00 ,812.00 ,450.00 ,478.00 ,0.05 ,19859112400.00 
223.00 ,547.00 ,822.00 ,307.00 ,146.00 ,800.00 ,613.00 ,592.00 ,0.06 ,19879172200.00 
234.00 ,505.00 ,723.00 ,245.00 ,152.00 ,872.00 ,709.00 ,668.00 ,0.07 ,19899685800.00 
230.00 ,570.00 ,578.00 ,209.00 ,138.00 ,942.00 ,791.00 ,700.00 ,0.08 ,19920007900.00 
241.00 ,574.00 ,603.00 ,176.00 ,145.00 ,1012.00 ,884.00 ,772.00 ,0.09 ,19937700100.00 
257.00 ,615.00 ,595.00 ,170.00 ,143.00 ,956.00 ,913.00 ,827.00 ,0.10 ,19959866400.00 
251.00 ,580.00 ,577.00 ,104.00 ,131.00 ,939.00 ,819.00 ,856.00 ,0.11 ,19978785100.00 
270.00 ,586.00 ,634.00 ,97.00 ,126.00 ,959.00 ,763.00 ,888.00 ,0.12 ,20001196700.00 
271.00 ,506.00 ,700.00 ,93.00 ,126.00 ,909.00 ,709.00 ,992.00 ,0.13 ,20018705900.00 
271.00 ,499.00 ,637.00 ,86.00 ,123.00 ,901.00 ,608.00 ,919.00 ,0.14 ,20039473400.00 
273.00 ,465.00 ,651.00 ,91.00 ,124.00 ,935.00 ,604.00 ,849.00 ,0.15 ,20059267700.00 
248.00 ,516.00 ,611.00 ,121.00 ,133.00 ,937.00 ,662.00 ,900.00 ,0.16 ,20078946400.00 
206.00 ,586.00 ,565.00 ,119.00 ,115.00 ,849.00 ,669.00 ,853.00 ,0.17 ,20099031400.00 
216.00 ,656.00 ,460.00 ,118.00 ,115.00 ,879.00 ,729.00 ,776.00 ,0.18 ,20119161600.00 
207.00 ,649.00 ,445.00 ,110.00 ,92.00 ,755.00 ,738.00 ,789.00 ,0.19 ,20138679300.00 
213.00 ,634.00 ,406.00 ,105.00 ,83.00 ,623.00 ,653.00 ,843.00 ,0.20 ,20158488900.00 
218.00 ,563.00 ,443.00 ,144.00 ,76.00 ,561.00 ,622.00 ,707.00 ,0.21 ,20178294500.00 
231.00 ,558.00 ,435.00 ,211.00 ,86.00 ,640.00 ,668.00 ,701.00 ,0.22 ,20197802900.00 
220.00 ,466.00 ,429.00 ,216.00 ,86.00 ,598.00 ,646.00 ,643.00 ,0.23 ,20217765700.00 
229.00 ,460.00 ,437.00 ,217.00 ,85.00 ,530.00 ,613.00 ,649.00 ,0.24 ,20237732700.00 
209.00 ,481.00 ,432.00 ,219.00 ,85.00 ,561.00 ,605.00 ,626.00 ,0.25 ,20257850100.00 
228.00 ,477.00 ,398.00 ,187.00 ,80.00 ,641.00 ,567.00 ,666.00 ,0.26 ,20278104700.00 
214.00 ,378.00 ,381.00 ,108.00 ,67.00 ,566.00 ,519.00 ,666.00 ,0.27 ,20298383300.00 
214.00 ,422.00 ,393.00 ,98.00 ,60.00 ,614.00 ,552.00 ,750.00 ,0.28 ,20318642900.00 
210.00 ,436.00 ,392.00 ,96.00 ,58.00 ,624.00 ,574.00 ,733.00 ,0.29 ,20338395700.00 
212.00 ,443.00 ,388.00 ,92.00 ,60.00 ,609.00 ,693.00 ,682.00 ,0.30 ,20357703400.00 
155.00 ,416.00 ,360.00 ,72.00 ,53.00 ,544.00 ,722.00 ,725.00 ,0.31 ,20377712700.00 
175.00 ,445.00 ,413.00 ,78.00 ,54.00 ,526.00 ,696.00 ,708.00 ,0.32 ,20399846300.00 
176.00 ,438.00 ,396.00 ,82.00 ,49.00 ,420.00 ,644.00 ,681.00 ,0.33 ,20419726200.00 
164.00 ,444.00 ,384.00 ,80.00 ,53.00 ,422.00 ,680.00 ,722.00 ,0.34 ,20439518900.00 
165.00 ,457.00 ,392.00 ,78.00 ,47.00 ,419.00 ,562.00 ,762.00 ,0.35 ,20457604100.00 
173.00 ,500.00 ,389.00 ,80.00 ,46.00 ,401.00 ,544.00 ,754.00 ,0.36 ,20479543800.00 
155.00 ,482.00 ,352.00 ,103.00 ,56.00 ,402.00 ,681.00 ,790.00 ,0.37 ,20499492600.00 
160.00 ,451.00 ,356.00 ,103.00 ,54.00 ,366.00 ,691.00 ,830.00 ,0.38 ,20519357100.00 
179.00 ,465.00 ,356.00 ,105.00 ,54.00 ,385.00 ,642.00 ,801.00 ,0.39 ,20538983000.00 
183.00 ,452.00 ,357.00 ,107.00 ,56.00 ,371.00 ,721.00 ,812.00 ,0.40 ,20559396700.00 
179.00 ,399.00 ,322.00 ,102.00 ,55.00 ,381.00 ,765.00 ,779.00 ,0.41 ,20579635300.00 
185.00 ,386.00 ,398.00 ,75.00 ,45.00 ,458.00 ,702.00 ,808.00 ,0.42 ,20599528900.00 
179.00 ,434.00 ,417.00 ,69.00 ,48.00 ,485.00 ,745.00 ,804.00 ,0.43 ,20619614500.00 
156.00 ,509.00 ,421.00 ,67.00 ,45.00 ,446.00 ,742.00 ,791.00 ,0.44 ,20639885100.00 
162.00 ,517.00 ,415.00 ,62.00 ,43.00 ,446.00 ,665.00 ,724.00 ,0.45 ,20660080600.00 
162.00 ,496.00 ,432.00 ,65.00 ,47.00 ,511.00 ,717.00 ,738.00 ,0.46 ,20679576400.00 
171.00 ,509.00 ,273.00 ,56.00 ,46.00 ,469.00 ,773.00 ,681.00 ,0.47 ,20699189600.00 
184.00 ,580.00 ,321.00 ,81.00 ,51.00 ,461.00 ,744.00 ,587.00 ,0.48 ,20719413500.00 
193.00 ,519.00 ,404.00 ,88.00 ,53.00 ,554.00 ,815.00 ,629.00 ,0.49 ,20739085900.00 
182.00 ,511.00 ,409.00 ,92.00 ,62.00 ,589.00 ,809.00 ,657.00 ,0.50 ,20759155400.00 
184.00 ,511.00 ,385.00 ,88.00 ,62.00 ,602.00 ,742.00 ,609.00 ,0.51 ,20779637000.00 
170.00 ,540.00 ,371.00 ,86.00 ,67.00 ,652.00 ,664.00 ,662.00 ,0.52 ,20799479300.00 
157.00 ,453.00 ,309.00 ,65.00 ,64.00 ,688.00 ,626.00 ,706.00 ,0.53 ,20819372100.00 
164.00 ,539.00 ,291.00 ,61.00 ,62.00 ,656.00 ,701.00 ,765.00 ,0.54 ,20839296800.00 
184.00 ,545.00 ,315.00 ,66.00 ,62.00 ,643.00 ,685.00 ,771.00 ,0.55 ,20859542500.00 
224.00 ,553.00 ,358.00 ,71.00 ,63.00 ,587.00 ,690.00 ,792.00 ,0.56 ,20879386200.00 
224.00 ,517.00 ,369.00 ,68.00 ,56.00 ,546.00 ,686.00 ,783.00 ,0.57 ,20899928500.00 
221.00 ,518.00 ,378.00 ,69.00 ,55.00 ,558.00 ,729.00 ,769.00 ,0.58 ,20924162500.00 
218.00 ,408.00 ,356.00 ,70.00 ,58.00 ,548.00 ,583.00 ,711.00 ,0.59 ,20939376400.00 
202.00 ,423.00 ,335.00 ,63.00 ,54.00 ,574.00 ,637.00 ,757.00 ,0.60 ,20959568800.00 
201.00 ,494.00 ,291.00 ,59.00 ,60.00 ,576.00 ,645.00 ,781.00 ,0.61 ,20979518800.00 
230.00 ,488.00 ,295.00 ,65.00 ,64.00 ,654.00 ,645.00 ,808.00 ,0.62 ,20999615600.00 
235.00 ,503.00 ,277.00 ,60.00 ,65.00 ,595.00 ,696.00 ,856.00 ,0.63 ,21017627300.00 
236.00 ,510.00 ,256.00 ,53.00 ,67.00 ,679.00 ,680.00 ,856.00 ,0.64 ,21037974500.00 
240.00 ,486.00 ,271.00 ,52.00 ,66.00 ,752.00 ,683.00 ,836.00 ,0.65 ,21058109500.00 
212.00 ,457.00 ,271.00 ,49.00 ,59.00 ,782.00 ,721.00 ,816.00 ,0.66 ,21078143400.00 
190.00 ,476.00 ,267.00 ,43.00 ,60.00 ,775.00 ,746.00 ,811.00 ,0.67 ,21098313400.00 
202.00 ,531.00 ,274.00 ,45.00 ,61.00 ,916.00 ,705.00 ,811.00 ,0.68 ,21118551200.00 
198.00 ,613.00 ,226.00 ,42.00 ,61.00 ,888.00 ,696.00 ,847.00 ,0.69 ,21138438900.00 
195.00 ,614.00 ,261.00 ,51.00 ,61.00 ,857.00 ,710.00 ,865.00 ,0.70 ,21158359900.00 
204.00 ,577.00 ,346.00 ,59.00 ,67.00 ,892.00 ,674.00 ,871.00 ,0.71 ,21178356100.00 
190.00 ,592.00 ,395.00 ,61.00 ,65.00 ,942.00 ,663.00 ,890.00 ,0.72 ,21198901400.00 
179.00 ,550.00 ,436.00 ,62.00 ,71.00 ,859.00 ,591.00 ,831.00 ,0.73 ,21219041600.00 
184.00 ,468.00 ,437.00 ,63.00 ,70.00 ,882.00 ,687.00 ,863.00 ,0.74 ,21239290400.00 
187.00 ,537.00 ,398.00 ,55.00 ,71.00 ,860.00 ,676.00 ,843.00 ,0.75 ,21259490800.00 
157.00 ,566.00 ,326.00 ,50.00 ,75.00 ,894.00 ,694.00 ,883.00 ,0.76 ,21279312800.00 
174.00 ,553.00 ,275.00 ,50.00 ,78.00 ,877.00 ,673.00 ,891.00 ,0.77 ,21298960300.00 
193.00 ,532.00 ,239.00 ,54.00 ,79.00 ,970.00 ,770.00 ,932.00 ,0.78 ,21319152700.00 
219.00 ,601.00 ,255.00 ,60.00 ,78.00 ,1034.00 ,705.00 ,888.00 ,0.79 ,21339026100.00 
221.00 ,637.00 ,261.00 ,64.00 ,76.00 ,1045.00 ,722.00 ,907.00 ,0.80 ,21358856800.00 
241.00 ,661.00 ,275.00 ,68.00 ,91.00 ,1044.00 ,751.00 ,897.00 ,0.81 ,21379448000.00 
268.00 ,795.00 ,256.00 ,71.00 ,101.00 ,1127.00 ,828.00 ,896.00 ,0.82 ,21399294400.00 
260.00 ,836.00 ,243.00 ,71.00 ,102.00 ,1177.00 ,838.00 ,914.00 ,0.83 ,21419119900.00 
244.00 ,796.00 ,231.00 ,70.00 ,103.00 ,1196.00 ,913.00 ,981.00 ,0.84 ,21438972000.00 
270.00 ,813.00 ,241.00 ,70.00 ,112.00 ,1294.00 ,1017.00 ,971.00 ,0.85 ,21459086400.00 
273.00 ,828.00 ,221.00 ,75.00 ,134.00 ,1309.00 ,1026.00 ,1061.00 ,0.86 ,21478515500.00 
308.00 ,774.00 ,228.00 ,86.00 ,147.00 ,1239.00 ,1003.00 ,1110.00 ,0.87 ,21498926100.00 
318.00 ,745.00 ,219.00 ,86.00 ,158.00 ,1208.00 ,966.00 ,1080.00 ,0.88 ,21519198000.00 
333.00 ,778.00 ,258.00 ,85.00 ,171.00 ,1301.00 ,980.00 ,1063.00 ,0.89 ,21539261100.00 
439.00 ,767.00 ,251.00 ,88.00 ,186.00 ,1289.00 ,927.00 ,1099.00 ,0.90 ,21559917400.00 
468.00 ,818.00 ,284.00 ,113.00 ,209.00 ,1319.00 ,966.00 ,987.00 ,0.91 ,21577611400.00 
511.00 ,845.00 ,322.00 ,121.00 ,224.00 ,1399.00 ,1004.00 ,959.00 ,0.92 ,21599614700.00 
573.00 ,976.00 ,401.00 ,147.00 ,254.00 ,1418.00 ,1052.00 ,975.00 ,0.93 ,21619362100.00 
643.00 ,1068.00 ,463.00 ,161.00 ,262.00 ,1388.00 ,1044.00 ,990.00 ,0.94 ,21639434500.00 
658.00 ,1090.00 ,568.00 ,198.00 ,308.00 ,1449.00 ,1038.00 ,992.00 ,0.95 ,21658989100.00 
666.00 ,1062.00 ,578.00 ,189.00 ,287.00 ,1468.00 ,1036.00 ,1077.00 ,0.96 ,21679120300.00 
663.00 ,1043.00 ,638.00 ,207.00 ,293.00 ,1388.00 ,1043.00 ,1123.00 ,0.97 ,21699584300.00 
633.00 ,965.00 ,632.00 ,195.00 ,273.00 ,1442.00 ,1027.00 ,1157.00 ,0.98 ,21719264000.00 
570.00 ,890.00 ,585.00 ,194.00 ,264.00 ,1382.00 ,1082.00 ,1154.00 ,0.99 ,21739304700.00 
522.00 ,901.00 ,552.00 ,168.00 ,226.00 ,1291.00 ,1080.00 ,1174.00 ,0.98 ,21759346200.00 
535.00 ,1034.00 ,613.00 ,173.00 ,228.00 ,1398.00 ,1044.00 ,1109.00 ,0.97 ,21779085000.00 
490.00 ,1052.00 ,549.00 ,146.00 ,198.00 ,1471.00 ,987.00 ,1050.00 ,0.96 ,21799041200.00 
470.00 ,1066.00 ,548.00 ,142.00 ,187.00 ,1369.00 ,1051.00 ,1051.00 ,0.95 ,21819029400.00 
463.00 ,1049.00 ,556.00 ,126.00 ,185.00 ,1332.00 ,956.00 ,1030.00 ,0.94 ,21838855600.00 
385.00 ,949.00 ,510.00 ,113.00 ,145.00 ,1298.00 ,916.00 ,942.00 ,0.93 ,21859140600.00 
312.00 ,735.00 ,411.00 ,92.00 ,126.00 ,1080.00 ,850.00 ,879.00 ,0.92 ,21879047800.00 
258.00 ,633.00 ,469.00 ,84.00 ,110.00 ,996.00 ,808.00 ,749.00 ,0.91 ,21899792700.00 
214.00 ,498.00 ,542.00 ,104.00 ,99.00 ,915.00 ,601.00 ,622.00 ,0.90 ,21917784900.00 
165.00 ,389.00 ,560.00 ,145.00 ,81.00 ,879.00 ,492.00 ,411.00 ,0.89 ,21937928700.00 
163.00 ,382.00 ,581.00 ,175.00 ,72.00 ,804.00 ,340.00 ,310.00 ,0.88 ,21957948300.00 
138.00 ,381.00 ,706.00 ,227.00 ,68.00 ,849.00 ,258.00 ,278.00 ,0.87 ,21978224400.00 
128.00 ,340.00 ,753.00 ,246.00 ,86.00 ,869.00 ,220.00 ,279.00 ,0.86 ,21998410600.00 
109.00 ,314.00 ,696.00 ,236.00 ,83.00 ,1031.00 ,189.00 ,169.00 ,0.85 ,22019942500.00 
122.00 ,301.00 ,737.00 ,218.00 ,81.00 ,973.00 ,169.00 ,157.00 ,0.84 ,22039876500.00 
111.00 ,305.00 ,738.00 ,246.00 ,80.00 ,965.00 ,156.00 ,141.00 ,0.83 ,22057642800.00 
112.00 ,303.00 ,648.00 ,214.00 ,75.00 ,886.00 ,151.00 ,137.00 ,0.82 ,22079847700.00 
115.00 ,265.00 ,563.00 ,196.00 ,58.00 ,801.00 ,136.00 ,90.00 ,0.81 ,22099884400.00 
118.00 ,271.00 ,535.00 ,197.00 ,55.00 ,539.00 ,121.00 ,56.00 ,0.80 ,22119984400.00 
86.00 ,262.00 ,427.00 ,195.00 ,52.00 ,525.00 ,122.00 ,54.00 ,0.79 ,22137559800.00 
84.00 ,273.00 ,422.00 ,132.00 ,52.00 ,514.00 ,119.00 ,46.00 ,0.78 ,22157598200.00 
69.00 ,242.00 ,538.00 ,108.00 ,51.00 ,441.00 ,112.00 ,44.00 ,0.77 ,22177709100.00 
61.00 ,257.00 ,573.00 ,99.00 ,39.00 ,329.00 ,90.00 ,38.00 ,0.76 ,22199947300.00 
72.00 ,278.00 ,579.00 ,99.00 ,46.00 ,372.00 ,92.00 ,36.00 ,0.75 ,22219789100.00 
74.00 ,278.00 ,636.00 ,100.00 ,46.00 ,377.00 ,91.00 ,33.00 ,0.74 ,22239926200.00 
76.00 ,253.00 ,662.00 ,102.00 ,45.00 ,367.00 ,91.00 ,33.00 ,0.73 ,22259851300.00 
72.00 ,262.00 ,602.00 ,135.00 ,49.00 ,357.00 ,89.00 ,34.00 ,0.72 ,22277711100.00 
74.00 ,256.00 ,546.00 ,149.00 ,51.00 ,318.00 ,73.00 ,33.00 ,0.71 ,22299861600.00 
57.00 ,220.00 ,533.00 ,147.00 ,47.00 ,179.00 ,60.00 ,33.00 ,0.70 ,22319912200.00 
50.00 ,232.00 ,472.00 ,145.00 ,47.00 ,149.00 ,54.00 ,33.00 ,0.69 ,22339926900.00 
51.00 ,218.00 ,412.00 ,147.00 ,44.00 ,139.00 ,54.00 ,31.00 ,0.68 ,22358639000.00 
49.00 ,188.00 ,351.00 ,120.00 ,36.00 ,122.00 ,53.00 ,30.00 ,0.67 ,22379729500.00 
49.00 ,190.00 ,425.00 ,119.00 ,40.00 ,86.00 ,51.00 ,53.00 ,0.66 ,22399894900.00 
60.00 ,250.00 ,536.00 ,136.00 ,43.00 ,61.00 ,41.00 ,90.00 ,0.65 ,22417645200.00 
66.00 ,255.00 ,572.00 ,135.00 ,45.00 ,70.00 ,42.00 ,101.00 ,0.64 ,22437702900.00 
70.00 ,290.00 ,582.00 ,147.00 ,48.00 ,159.00 ,62.00 ,103.00 ,0.63 ,22457781100.00 
71.00 ,310.00 ,588.00 ,156.00 ,52.00 ,167.00 ,64.00 ,106.00 ,0.62 ,22477740100.00 
69.00 ,331.00 ,724.00 ,146.00 ,49.00 ,168.00 ,63.00 ,98.00 ,0.61 ,22497862100.00 
70.00 ,352.00 ,694.00 ,144.00 ,48.00 ,180.00 ,65.00 ,68.00 ,0.60 ,22517941100.00 
64.00 ,343.00 ,689.00 ,148.00 ,48.00 ,261.00 ,77.00 ,51.00 ,0.59 ,22537803700.00 
60.00 ,312.00 ,762.00 ,127.00 ,48.00 ,287.00 ,61.00 ,50.00 ,0.58 ,22557638100.00 
69.00 ,326.00 ,767.00 ,142.00 ,49.00 ,287.00 ,61.00 ,43.00 ,0.57 ,22577864900.00 
71.00 ,301.00 ,636.00 ,151.00 ,50.00 ,301.00 ,61.00 ,41.00 ,0.56 ,22597979400.00 
58.00 ,228.00 ,604.00 ,144.00 ,48.00 ,329.00 ,61.00 ,37.00 ,0.55 ,22617735400.00 
75.00 ,289.00 ,620.00 ,157.00 ,54.00 ,280.00 ,45.00 ,43.00 ,0.54 ,22640152200.00 
77.00 ,294.00 ,651.00 ,162.00 ,56.00 ,226.00 ,47.00 ,44.00 ,0.53 ,22659983600.00 
69.00 ,260.00 ,722.00 ,147.00 ,55.00 ,224.00 ,44.00 ,40.00 ,0.52 ,22679774600.00 
68.00 ,257.00 ,738.00 ,143.00 ,53.00 ,207.00 ,48.00 ,39.00 ,0.51 ,22700140200.00 
71.00 ,263.00 ,781.00 ,157.00 ,55.00 ,150.00 ,51.00 ,39.00 ,0.50 ,22717879400.00 
58.00 ,201.00 ,806.00 ,151.00 ,51.00 ,130.00 ,51.00 ,32.00 ,0.49 ,22737704600.00 
62.00 ,220.00 ,754.00 ,150.00 ,49.00 ,181.00 ,58.00 ,38.00 ,0.48 ,22757634900.00 
61.00 ,241.00 ,683.00 ,140.00 ,45.00 ,183.00 ,60.00 ,38.00 ,0.47 ,22779990000.00 
64.00 ,249.00 ,707.00 ,136.00 ,47.00 ,181.00 ,57.00 ,40.00 ,0.46 ,22797896600.00 
63.00 ,276.00 ,754.00 ,119.00 ,46.00 ,183.00 ,53.00 ,41.00 ,0.45 ,22819776100.00 
61.00 ,292.00 ,744.00 ,110.00 ,43.00 ,218.00 ,61.00 ,42.00 ,0.44 ,22839477800.00 
51.00 ,268.00 ,695.00 ,98.00 ,41.00 ,207.00 ,60.00 ,32.00 ,0.43 ,22859653600.00 
74.00 ,271.00 ,783.00 ,146.00 ,49.00 ,221.00 ,67.00 ,44.00 ,0.42 ,22879494600.00 
89.00 ,354.00 ,781.00 ,206.00 ,53.00 ,223.00 ,69.00 ,47.00 ,0.41 ,22899361800.00 
101.00 ,413.00 ,701.00 ,227.00 ,59.00 ,217.00 ,73.00 ,51.00 ,0.40 ,22919353000.00 
111.00 ,494.00 ,781.00 ,237.00 ,63.00 ,246.00 ,86.00 ,61.00 ,0.39 ,22939280300.00 
123.00 ,517.00 ,798.00 ,250.00 ,66.00 ,234.00 ,81.00 ,64.00 ,0.38 ,22959227000.00 
119.00 ,538.00 ,730.00 ,237.00 ,65.00 ,218.00 ,75.00 ,59.00 ,0.37 ,22979344600.00 
109.00 ,500.00 ,722.00 ,189.00 ,62.00 ,232.00 ,76.00 ,57.00 ,0.36 ,22999014600.00 
99.00 ,432.00 ,832.00 ,175.00 ,57.00 ,236.00 ,70.00 ,52.00 ,0.35 ,23018802400.00 
90.00 ,328.00 ,800.00 ,169.00 ,54.00 ,191.00 ,64.00 ,41.00 ,0.34 ,23038642500.00 
89.00 ,313.00 ,791.00 ,169.00 ,54.00 ,203.00 ,77.00 ,44.00 ,0.33 ,23058736700.00 
83.00 ,284.00 ,855.00 ,157.00 ,50.00 ,281.00 ,102.00 ,46.00 ,0.32 ,23078549400.00 
87.00 ,293.00 ,864.00 ,161.00 ,48.00 ,288.00 ,104.00 ,47.00 ,0.31 ,23097991800.00 
87.00 ,310.00 ,767.00 ,148.00 ,47.00 ,287.00 ,106.00 ,46.00 ,0.30 ,23118254500.00 
108.00 ,440.00 ,730.00 ,190.00 ,66.00 ,305.00 ,113.00 ,56.00 ,0.29 ,23137852300.00 
102.00 ,442.00 ,784.00 ,209.00 ,84.00 ,433.00 ,113.00 ,55.00 ,0.28 ,23157887800.00 
101.00 ,437.00 ,834.00 ,217.00 ,87.00 ,397.00 ,96.00 ,51.00 ,0.27 ,23179998400.00 
106.00 ,440.00 ,902.00 ,232.00 ,93.00 ,391.00 ,93.00 ,52.00 ,0.26 ,23197558800.00 
116.00 ,504.00 ,910.00 ,232.00 ,97.00 ,393.00 ,94.00 ,58.00 ,0.25 ,23219745400.00 
114.00 ,494.00 ,917.00 ,215.00 ,95.00 ,387.00 ,78.00 ,58.00 ,0.24 ,23239734900.00 
119.00 ,555.00 ,976.00 ,228.00 ,82.00 ,205.00 ,68.00 ,58.00 ,0.23 ,23259679700.00 
119.00 ,550.00 ,872.00 ,251.00 ,90.00 ,215.00 ,67.00 ,63.00 ,0.22 ,23279639400.00 
112.00 ,548.00 ,835.00 ,238.00 ,85.00 ,202.00 ,67.00 ,62.00 ,0.21 ,23297793400.00 
110.00 ,529.00 ,879.00 ,245.00 ,85.00 ,198.00 ,67.00 ,60.00 ,0.20 ,23319953900.00 
114.00 ,543.00 ,874.00 ,261.00 ,75.00 ,207.00 ,71.00 ,58.00 ,0.19 ,23339865200.00 
132.00 ,541.00 ,888.00 ,262.00 ,89.00 ,233.00 ,73.00 ,64.00 ,0.18 ,23358716300.00 
149.00 ,641.00 ,975.00 ,268.00 ,93.00 ,222.00 ,73.00 ,68.00 ,0.17 ,23379276900.00 
174.00 ,693.00 ,986.00 ,289.00 ,115.00 ,245.00 ,80.00 ,77.00 ,0.16 ,23399570500.00 
174.00 ,673.00 ,1019.00 ,325.00 ,118.00 ,285.00 ,77.00 ,76.00 ,0.15 ,23419447400.00 
173.00 ,640.00 ,1100.00 ,358.00 ,130.00 ,263.00 ,72.00 ,75.00 ,0.14 ,23437840400.00 
168.00 ,642.00 ,1122.00 ,374.00 ,136.00 ,245.00 ,72.00 ,75.00 ,0.13 ,23458019200.00 
157.00 ,578.00 ,1193.00 ,375.00 ,137.00 ,238.00 ,66.00 ,71.00 ,0.12 ,23477831900.00 
133.00 ,563.00 ,1264.00 ,387.00 ,121.00 ,210.00 ,54.00 ,60.00 ,0.11 ,23497960600.00 
140.00 ,667.00 ,1280.00 ,396.00 ,134.00 ,152.00 ,61.00 ,65.00 ,0.10 ,23517837700.00 
141.00 ,666.00 ,1332.00 ,386.00 ,130.00 ,132.00 ,57.00 ,70.00 ,0.09 ,23537929100.00 
131.00 ,694.00 ,1344.00 ,394.00 ,118.00 ,135.00 ,68.00 ,63.00 ,0.08 ,23558013800.00 
135.00 ,715.00 ,1258.00 ,416.00 ,124.00 ,150.00 ,76.00 ,65.00 ,0.07 ,23577909900.00 
166.00 ,753.00 ,1186.00 ,423.00 ,145.00 ,155.00 ,83.00 ,82.00 ,0.06 ,23598511800.00 
231.00 ,900.00 ,1191.00 ,430.00 ,156.00 ,160.00 ,89.00 ,98.00 ,0.05 ,23618456200.00 
265.00 ,967.00 ,1096.00 ,450.00 ,185.00 ,165.00 ,131.00 ,115.00 ,0.04 ,23640112000.00 
310.00 ,1048.00 ,1115.00 ,528.00 ,210.00 ,151.00 ,200.00 ,137.00 ,0.03 ,23658043700.00 
333.00 ,1077.00 ,1190.00 ,598.00 ,230.00 ,121.00 ,204.00 ,145.00 ,0.02 ,23677869700.00 
360.00 ,1092.00 ,1181.00 ,652.00 ,244.00 ,126.00 ,211.00 ,150.00 ,0.01 ,23698048300.00 
397.00 ,1116.00 ,1102.00 ,671.00 ,275.00 ,150.00 ,210.00 ,167.00 ,0.00 ,23718091600.00 
385.00 ,1078.00 ,1192.00 ,734.00 ,274.00 ,201.00 ,198.00 ,221.00 ,0.01 ,23737905000.00 
398.00 ,1062.00 ,1123.00 ,746.00 ,294.00 ,245.00 ,146.00 ,253.00 ,0.02 ,23758254100.00 
402.00 ,1116.00 ,1125.00 ,732.00 ,303.00 ,275.00 ,141.00 ,254.00 ,0.03 ,23778734800.00 
384.00 ,1178.00 ,1146.00 ,741.00 ,310.00 ,335.00 ,138.00 ,264.00 ,0.04 ,23798651800.00 
330.00 ,1049.00 ,1222.00 ,725.00 ,282.00 ,400.00 ,137.00 ,275.00 ,0.05 ,23819473400.00 
327.00 ,1018.00 ,1109.00 ,635.00 ,269.00 ,402.00 ,189.00 ,320.00 ,0.06 ,23839217800.00 
281.00 ,939.00 ,1053.00 ,544.00 ,231.00 ,449.00 ,261.00 ,366.00 ,0.07 ,23859133800.00 
243.00 ,835.00 ,890.00 ,449.00 ,195.00 ,655.00 ,405.00 ,458.00 ,0.08 ,23878777500.00 
218.00 ,645.00 ,791.00 ,311.00 ,155.00 ,797.00 ,485.00 ,559.00 ,0.09 ,23899830200.00 
174.00 ,555.00 ,615.00 ,244.00 ,130.00 ,939.00 ,574.00 ,694.00 ,0.10 ,23919973400.00 
162.00 ,537.00 ,553.00 ,214.00 ,129.00 ,1031.00 ,741.00 ,777.00 ,0.11 ,23939983400.00 
176.00 ,460.00 ,483.00 ,154.00 ,130.00 ,1137.00 ,850.00 ,870.00 ,0.12 ,23957689900.00 
181.00 ,416.00 ,466.00 ,151.00 ,128.00 ,1180.00 ,857.00 ,944.00 ,0.13 ,23977853100.00 
187.00 ,457.00 ,405.00 ,122.00 ,119.00 ,1179.00 ,899.00 ,916.00 ,0.14 ,23998497300.00 
191.00 ,426.00 ,608.00 ,111.00 ,130.00 ,1125.00 ,894.00 ,838.00 ,0.15 ,24018522300.00 
228.00 ,498.00 ,640.00 ,113.00 ,115.00 ,1044.00 ,759.00 ,766.00 ,0.16 ,24038161900.00 
202.00 ,500.00 ,644.00 ,121.00 ,94.00 ,927.00 ,660.00 ,672.00 ,0.17 ,24058407400.00 
214.00 ,471.00 ,650.00 ,125.00 ,98.00 ,782.00 ,668.00 ,698.00 ,0.18 ,24077935900.00 
208.00 ,425.00 ,664.00 ,125.00 ,99.00 ,706.00 ,622.00 ,770.00 ,0.19 ,24098060800.00 
232.00 ,457.00 ,683.00 ,150.00 ,87.00 ,588.00 ,617.00 ,836.00 ,0.20 ,24120016600.00 
210.00 ,396.00 ,681.00 ,142.00 ,87.00 ,569.00 ,620.00 ,867.00 ,0.21 ,24139606800.00 
204.00 ,373.00 ,686.00 ,124.00 ,87.00 ,570.00 ,572.00 ,954.00 ,0.22 ,24157639500.00 
193.00 ,366.00 ,677.00 ,119.00 ,81.00 ,602.00 ,494.00 ,867.00 ,0.23 ,24181068200.00 
191.00 ,349.00 ,706.00 ,127.00 ,77.00 ,518.00 ,479.00 ,853.00 ,0.24 ,24198814700.00 
165.00 ,316.00 ,570.00 ,129.00 ,80.00 ,511.00 ,407.00 ,779.00 ,0.25 ,24219851200.00 
125.00 ,379.00 ,517.00 ,123.00 ,76.00 ,530.00 ,385.00 ,762.00 ,0.26 ,24237995300.00 
133.00 ,391.00 ,481.00 ,125.00 ,76.00 ,562.00 ,398.00 ,641.00 ,0.27 ,24257941200.00 
130.00 ,407.00 ,478.00 ,125.00 ,63.00 ,470.00 ,399.00 ,700.00 ,0.28 ,24277616600.00 
141.00 ,459.00 ,426.00 ,130.00 ,64.00 ,451.00 ,407.00 ,671.00 ,0.29 ,24297644900.00 
137.00 ,470.00 ,496.00 ,108.00 ,56.00 ,440.00 ,422.00 ,664.00 ,0.30 ,24319966600.00 
147.00 ,418.00 ,481.00 ,114.00 ,56.00 ,418.00 ,427.00 ,612.00 ,0.31 ,24339919000.00 
145.00 ,414.00 ,490.00 ,111.00 ,54.00 ,308.00 ,414.00 ,604.00 ,0.32 ,24359398500.00 
137.00 ,454.00 ,501.00 ,111.00 ,57.00 ,285.00 ,469.00 ,584.00 ,0.33 ,24379786900.00 
130.00 ,460.00 ,492.00 ,106.00 ,52.00 ,321.00 ,401.00 ,644.00 ,0.34 ,24397637800.00 
121.00 ,450.00 ,511.00 ,104.00 ,47.00 ,314.00 ,392.00 ,677.00 ,0.35 ,24420001800.00 
113.00 ,426.00 ,507.00 ,97.00 ,47.00 ,313.00 ,426.00 ,706.00 ,0.36 ,24439840200.00 
114.00 ,425.00 ,490.00 ,97.00 ,47.00 ,307.00 ,450.00 ,770.00 ,0.37 ,24457790000.00 
138.00 ,404.00 ,489.00 ,97.00 ,42.00 ,282.00 ,387.00 ,733.00 ,0.38 ,24479919900.00 
153.00 ,384.00 ,501.00 ,83.00 ,41.00 ,227.00 ,421.00 ,698.00 ,0.39 ,24497594000.00 
158.00 ,346.00 ,516.00 ,89.00 ,46.00 ,275.00 ,422.00 ,678.00 ,0.40 ,24518014000.00 
177.00 ,340.00 ,492.00 ,87.00 ,47.00 ,288.00 ,425.00 ,703.00 ,0.41 ,24538322700.00 
173.00 ,388.00 ,503.00 ,89.00 ,48.00 ,284.00 ,449.00 ,670.00 ,0.43 ,24578662900.00 
168.00 ,398.00 ,492.00 ,85.00 ,47.00 ,341.00 ,479.00 ,804.00 ,0.44 ,24598920300.00 
163.00 ,433.00 ,496.00 ,91.00 ,52.00 ,380.00 ,514.00 ,790.00 ,0.44 ,24598932900.00 
162.00 ,453.00 ,408.00 ,87.00 ,45.00 ,347.00 ,516.00 ,781.00 ,0.46 ,24638353100.00 
153.00 ,465.00 ,504.00 ,92.00 ,45.00 ,330.00 ,485.00 ,730.00 ,0.46 ,24638366100.00 
163.00 ,419.00 ,517.00 ,92.00 ,46.00 ,334.00 ,461.00 ,707.00 ,0.47 ,24658717800.00 
170.00 ,438.00 ,525.00 ,92.00 ,51.00 ,454.00 ,531.00 ,577.00 ,0.49 ,24698916900.00 
228.00 ,397.00 ,503.00 ,86.00 ,45.00 ,430.00 ,485.00 ,570.00 ,0.49 ,24698930300.00 
239.00 ,393.00 ,394.00 ,57.00 ,42.00 ,437.00 ,500.00 ,591.00 ,0.50 ,24719179800.00 
230.00 ,395.00 ,304.00 ,47.00 ,41.00 ,447.00 ,501.00 ,600.00 ,0.52 ,24759039800.00 
239.00 ,441.00 ,273.00 ,43.00 ,40.00 ,464.00 ,507.00 ,627.00 ,0.52 ,24759054300.00 
232.00 ,400.00 ,275.00 ,48.00 ,35.00 ,306.00 ,440.00 ,675.00 ,0.53 ,24779323900.00 
184.00 ,451.00 ,306.00 ,62.00 ,45.00 ,386.00 ,455.00 ,638.00 ,0.55 ,24819194200.00 
170.00 ,450.00 ,377.00 ,72.00 ,48.00 ,397.00 ,453.00 ,666.00 ,0.55 ,24819221700.00 
189.00 ,449.00 ,353.00 ,72.00 ,47.00 ,398.00 ,465.00 ,746.00 ,0.56 ,24839168700.00 
165.00 ,414.00 ,365.00 ,73.00 ,49.00 ,386.00 ,426.00 ,777.00 ,0.58 ,24879564200.00 
178.00 ,410.00 ,395.00 ,72.00 ,55.00 ,477.00 ,396.00 ,667.00 ,0.58 ,24879577200.00 
172.00 ,329.00 ,387.00 ,69.00 ,53.00 ,416.00 ,434.00 ,692.00 ,0.59 ,24899730000.00 
169.00 ,320.00 ,316.00 ,87.00 ,50.00 ,465.00 ,466.00 ,705.00 ,0.61 ,24939765900.00 
165.00 ,329.00 ,348.00 ,93.00 ,55.00 ,569.00 ,545.00 ,637.00 ,0.61 ,24939778400.00 
189.00 ,341.00 ,337.00 ,94.00 ,58.00 ,583.00 ,608.00 ,730.00 ,0.62 ,24959342600.00 
170.00 ,338.00 ,296.00 ,93.00 ,53.00 ,558.00 ,637.00 ,787.00 ,0.64 ,24999654800.00 
166.00 ,340.00 ,312.00 ,89.00 ,51.00 ,611.00 ,665.00 ,788.00 ,0.64 ,24999667400.00 
176.00 ,335.00 ,417.00 ,75.00 ,52.00 ,577.00 ,672.00 ,749.00 ,0.65 ,25019564800.00 
168.00 ,340.00 ,398.00 ,68.00 ,49.00 ,506.00 ,679.00 ,726.00 ,0.66 ,25039963500.00 
154.00 ,467.00 ,405.00 ,75.00 ,53.00 ,531.00 ,667.00 ,632.00 ,0.67 ,25057647100.00 
160.00 ,474.00 ,596.00 ,93.00 ,56.00 ,499.00 ,667.00 ,645.00 ,0.68 ,25077608500.00 
155.00 ,499.00 ,621.00 ,95.00 ,52.00 ,521.00 ,685.00 ,621.00 ,0.70 ,25117646700.00 
151.00 ,500.00 ,553.00 ,85.00 ,54.00 ,591.00 ,749.00 ,738.00 ,0.70 ,25117658700.00 
163.00 ,516.00 ,545.00 ,83.00 ,53.00 ,646.00 ,736.00 ,758.00 ,0.71 ,25139981700.00 
182.00 ,451.00 ,541.00 ,78.00 ,50.00 ,619.00 ,729.00 ,677.00 ,0.73 ,25177840000.00 
176.00 ,442.00 ,313.00 ,53.00 ,50.00 ,676.00 ,703.00 ,667.00 ,0.73 ,25177874300.00 
163.00 ,442.00 ,222.00 ,123.00 ,83.00 ,647.00 ,615.00 ,706.00 ,0.74 ,25197987100.00 
176.00 ,496.00 ,238.00 ,139.00 ,87.00 ,611.00 ,523.00 ,589.00 ,0.76 ,25238362700.00 
222.00 ,500.00 ,243.00 ,143.00 ,91.00 ,613.00 ,479.00 ,584.00 ,0.76 ,25238375000.00 
234.00 ,514.00 ,249.00 ,145.00 ,92.00 ,735.00 ,531.00 ,622.00 ,0.77 ,25259122600.00 
243.00 ,529.00 ,258.00 ,146.00 ,91.00 ,685.00 ,540.00 ,618.00 ,0.79 ,25298336100.00 
257.00 ,510.00 ,244.00 ,92.00 ,65.00 ,736.00 ,620.00 ,576.00 ,0.79 ,25298348500.00 
246.00 ,475.00 ,218.00 ,66.00 ,69.00 ,752.00 ,607.00 ,642.00 ,0.80 ,25318011300.00 
215.00 ,523.00 ,224.00 ,61.00 ,67.00 ,728.00 ,644.00 ,712.00 ,0.82 ,25359722900.00 
202.00 ,485.00 ,204.00 ,62.00 ,85.00 ,699.00 ,664.00 ,727.00 ,0.82 ,25359739900.00 
207.00 ,489.00 ,247.00 ,64.00 ,96.00 ,876.00 ,688.00 ,761.00 ,0.83 ,25379735300.00 
209.00 ,502.00 ,271.00 ,67.00 ,100.00 ,886.00 ,633.00 ,817.00 ,0.85 ,25419845800.00 
213.00 ,532.00 ,275.00 ,67.00 ,92.00 ,870.00 ,653.00 ,790.00 ,0.85 ,25419863400.00 
194.00 ,460.00 ,257.00 ,62.00 ,90.00 ,883.00 ,672.00 ,795.00 ,0.86 ,25439959900.00 
180.00 ,534.00 ,276.00 ,57.00 ,77.00 ,866.00 ,653.00 ,817.00 ,0.88 ,25479407000.00 
182.00 ,640.00 ,216.00 ,59.00 ,71.00 ,825.00 ,649.00 ,832.00 ,0.89 ,25499766800.00 
188.00 ,640.00 ,178.00 ,57.00 ,72.00 ,811.00 ,665.00 ,857.00 ,0.89 ,25499784200.00 
204.00 ,684.00 ,193.00 ,63.00 ,74.00 ,880.00 ,681.00 ,948.00 ,0.91 ,25539699800.00 
233.00 ,697.00 ,184.00 ,64.00 ,84.00 ,876.00 ,645.00 ,904.00 ,0.92 ,25559674400.00 
240.00 ,700.00 ,176.00 ,69.00 ,111.00 ,1045.00 ,729.00 ,921.00 ,0.92 ,25559688200.00 
265.00 ,698.00 ,180.00 ,63.00 ,112.00 ,1052.00 ,747.00 ,924.00 ,0.94 ,25598498700.00 
308.00 ,749.00 ,179.00 ,69.00 ,126.00 ,1080.00 ,847.00 ,945.00 ,0.95 ,25618321000.00 
329.00 ,754.00 ,172.00 ,79.00 ,164.00 ,1162.00 ,863.00 ,920.00 ,0.95 ,25618333400.00 
330.00 ,793.00 ,207.00 ,92.00 ,200.00 ,1331.00 ,995.00 ,951.00 ,0.97 ,25658338500.00 
402.00 ,736.00 ,199.00 ,101.00 ,193.00 ,1320.00 ,995.00 ,1053.00 ,0.98 ,25678350600.00 
436.00 ,736.00 ,294.00 ,115.00 ,203.00 ,1416.00 ,1078.00 ,1089.00 ,0.98 ,25678363100.00 
421.00 ,727.00 ,307.00 ,118.00 ,204.00 ,1431.00 ,1056.00 ,1146.00 ,0.98 ,25718422500.00 
466.00 ,774.00 ,348.00 ,146.00 ,222.00 ,1432.00 ,1129.00 ,1209.00 ,0.97 ,25738648700.00 
484.00 ,782.00 ,340.00 ,163.00 ,220.00 ,1315.00 ,1059.00 ,1225.00 ,0.97 ,25738661400.00 
470.00 ,833.00 ,404.00 ,180.00 ,240.00 ,1226.00 ,1002.00 ,1138.00 ,0.95 ,25778699300.00 
489.00 ,869.00 ,396.00 ,182.00 ,246.00 ,1068.00 ,936.00 ,1133.00 ,0.94 ,25798575100.00 
503.00 ,902.00 ,413.00 ,182.00 ,246.00 ,1080.00 ,955.00 ,1022.00 ,0.94 ,25798587400.00 
489.00 ,964.00 ,415.00 ,164.00 ,213.00 ,1044.00 ,872.00 ,905.00 ,0.92 ,25838279200.00 
483.00 ,1058.00 ,423.00 ,147.00 ,192.00 ,1187.00 ,847.00 ,927.00 ,0.91 ,25858386600.00 
441.00 ,1032.00 ,356.00 ,114.00 ,155.00 ,1185.00 ,829.00 ,917.00 ,0.91 ,25858399500.00 
361.00 ,946.00 ,334.00 ,99.00 ,134.00 ,1206.00 ,790.00 ,809.00 ,0.89 ,25899085500.00 
338.00 ,932.00 ,324.00 ,92.00 ,122.00 ,1141.00 ,695.00 ,786.00 ,0.88 ,25919212900.00 
253.00 ,776.00 ,386.00 ,102.00 ,108.00 ,1020.00 ,619.00 ,727.00 ,0.88 ,25919225100.00 
200.00 ,571.00 ,555.00 ,183.00 ,88.00 ,781.00 ,536.00 ,581.00 ,0.86 ,25958934900.00 
186.00 ,541.00 ,585.00 ,196.00 ,90.00 ,832.00 ,468.00 ,450.00 ,0.85 ,25979083300.00 
180.00 ,506.00 ,616.00 ,211.00 ,103.00 ,794.00 ,382.00 ,379.00 ,0.85 ,25979095700.00 
123.00 ,412.00 ,639.00 ,227.00 ,96.00 ,742.00 ,271.00 ,259.00 ,0.83 ,26018832200.00 
131.00 ,399.00 ,605.00 ,236.00 ,98.00 ,749.00 ,213.00 ,187.00 ,0.82 ,26039999700.00 
124.00 ,372.00 ,504.00 ,194.00 ,96.00 ,705.00 ,165.00 ,158.00 ,0.82 ,26040012800.00 
108.00 ,358.00 ,546.00 ,208.00 ,98.00 ,513.00 ,157.00 ,114.00 ,0.80 ,26079567300.00 
102.00 ,381.00 ,627.00 ,204.00 ,74.00 ,356.00 ,117.00 ,87.00 ,0.79 ,26099478200.00 
111.00 ,385.00 ,661.00 ,201.00 ,72.00 ,324.00 ,96.00 ,63.00 ,0.79 ,26099494600.00 
97.00 ,350.00 ,641.00 ,188.00 ,66.00 ,276.00 ,89.00 ,50.00 ,0.77 ,26139269300.00 
95.00 ,372.00 ,609.00 ,180.00 ,64.00 ,258.00 ,90.00 ,44.00 ,0.76 ,26159046000.00 
121.00 ,369.00 ,604.00 ,153.00 ,50.00 ,261.00 ,80.00 ,38.00 ,0.76 ,26159078300.00 
126.00 ,336.00 ,508.00 ,139.00 ,45.00 ,227.00 ,71.00 ,34.00 ,0.74 ,26198717200.00 
110.00 ,260.00 ,494.00 ,124.00 ,47.00 ,238.00 ,70.00 ,33.00 ,0.73 ,26218808300.00 
110.00 ,249.00 ,526.00 ,123.00 ,49.00 ,243.00 ,68.00 ,32.00 ,0.73 ,26218821200.00 
111.00 ,192.00 ,520.00 ,112.00 ,46.00 ,236.00 ,59.00 ,31.00 ,0.71 ,26258952900.00 
79.00 ,181.00 ,471.00 ,106.00 ,47.00 ,161.00 ,48.00 ,31.00 ,0.70 ,26279348400.00 
88.00 ,212.00 ,577.00 ,109.00 ,50.00 ,154.00 ,51.00 ,30.00 ,0.70 ,26279360500.00 
87.00 ,222.00 ,755.00 ,111.00 ,43.00 ,117.00 ,54.00 ,31.00 ,0.68 ,26318795300.00 
82.00 ,218.00 ,749.00 ,101.00 ,44.00 ,104.00 ,54.00 ,31.00 ,0.67 ,26339001700.00 
77.00 ,233.00 ,777.00 ,113.00 ,49.00 ,86.00 ,54.00 ,30.00 ,0.67 ,26339012900.00 
76.00 ,222.00 ,783.00 ,120.00 ,49.00 ,90.00 ,55.00 ,32.00 ,0.66 ,26361863400.00 
56.00 ,224.00 ,743.00 ,140.00 ,49.00 ,145.00 ,56.00 ,30.00 ,0.64 ,26398648000.00 
68.00 ,307.00 ,651.00 ,183.00 ,62.00 ,157.00 ,43.00 ,37.00 ,0.63 ,26418222600.00 
78.00 ,337.00 ,780.00 ,193.00 ,63.00 ,167.00 ,44.00 ,38.00 ,0.62 ,26438063400.00 
75.00 ,338.00 ,767.00 ,184.00 ,58.00 ,172.00 ,51.00 ,35.00 ,0.61 ,26457943100.00 
74.00 ,346.00 ,800.00 ,181.00 ,66.00 ,291.00 ,73.00 ,38.00 ,0.60 ,26478046800.00 
78.00 ,358.00 ,750.00 ,166.00 ,71.00 ,296.00 ,73.00 ,42.00 ,0.59 ,26498392400.00 
81.00 ,303.00 ,670.00 ,125.00 ,67.00 ,292.00 ,75.00 ,70.00 ,0.58 ,26518580700.00 
78.00 ,298.00 ,621.00 ,118.00 ,66.00 ,303.00 ,90.00 ,75.00 ,0.57 ,26538790600.00 
81.00 ,310.00 ,630.00 ,115.00 ,69.00 ,460.00 ,94.00 ,77.00 ,0.56 ,26559201000.00 
80.00 ,303.00 ,602.00 ,115.00 ,65.00 ,453.00 ,88.00 ,78.00 ,0.55 ,26579285600.00 
83.00 ,288.00 ,675.00 ,129.00 ,59.00 ,439.00 ,91.00 ,77.00 ,0.54 ,26598920700.00 
76.00 ,265.00 ,790.00 ,114.00 ,55.00 ,444.00 ,90.00 ,51.00 ,0.53 ,26618813000.00 
69.00 ,242.00 ,756.00 ,105.00 ,50.00 ,450.00 ,79.00 ,40.00 ,0.52 ,26639361000.00 
73.00 ,277.00 ,854.00 ,126.00 ,54.00 ,288.00 ,74.00 ,41.00 ,0.51 ,26659176800.00 
70.00 ,307.00 ,907.00 ,129.00 ,53.00 ,225.00 ,66.00 ,38.00 ,0.50 ,26678886300.00 
62.00 ,293.00 ,913.00 ,125.00 ,51.00 ,242.00 ,64.00 ,35.00 ,0.49 ,26698744300.00 
68.00 ,329.00 ,892.00 ,135.00 ,52.00 ,231.00 ,64.00 ,36.00 ,0.48 ,26718572600.00 
78.00 ,354.00 ,921.00 ,151.00 ,60.00 ,237.00 ,60.00 ,40.00 ,0.47 ,26738743300.00 
72.00 ,315.00 ,864.00 ,138.00 ,57.00 ,267.00 ,54.00 ,39.00 ,0.46 ,26758304800.00 
88.00 ,304.00 ,856.00 ,171.00 ,81.00 ,316.00 ,62.00 ,47.00 ,0.45 ,26777973900.00 
96.00 ,310.00 ,813.00 ,169.00 ,85.00 ,313.00 ,63.00 ,50.00 ,0.44 ,26798074100.00 
93.00 ,289.00 ,742.00 ,165.00 ,85.00 ,334.00 ,70.00 ,49.00 ,0.43 ,26817773600.00 
92.00 ,254.00 ,800.00 ,148.00 ,81.00 ,306.00 ,77.00 ,50.00 ,0.42 ,26837875800.00 
103.00 ,325.00 ,755.00 ,154.00 ,82.00 ,295.00 ,83.00 ,52.00 ,0.41 ,26857860400.00 
99.00 ,376.00 ,716.00 ,141.00 ,58.00 ,232.00 ,80.00 ,46.00 ,0.40 ,26877705200.00 
100.00 ,402.00 ,828.00 ,151.00 ,64.00 ,286.00 ,88.00 ,50.00 ,0.39 ,26901665200.00 
97.00 ,409.00 ,927.00 ,153.00 ,62.00 ,269.00 ,98.00 ,49.00 ,0.39 ,26901678100.00 
94.00 ,455.00 ,927.00 ,161.00 ,64.00 ,290.00 ,93.00 ,47.00 ,0.37 ,26939633800.00 
90.00 ,437.00 ,1007.00 ,179.00 ,66.00 ,318.00 ,94.00 ,46.00 ,0.36 ,26959490900.00 
89.00 ,412.00 ,1032.00 ,169.00 ,68.00 ,384.00 ,108.00 ,49.00 ,0.35 ,26979628500.00 
88.00 ,413.00 ,967.00 ,173.00 ,63.00 ,345.00 ,110.00 ,47.00 ,0.34 ,26999841100.00 
91.00 ,415.00 ,866.00 ,193.00 ,68.00 ,338.00 ,104.00 ,50.00 ,0.33 ,27019948500.00 
120.00 ,437.00 ,906.00 ,245.00 ,81.00 ,320.00 ,103.00 ,63.00 ,0.33 ,27019960300.00 
118.00 ,415.00 ,863.00 ,243.00 ,84.00 ,277.00 ,96.00 ,62.00 ,0.31 ,27058198500.00 
112.00 ,425.00 ,865.00 ,252.00 ,85.00 ,213.00 ,105.00 ,59.00 ,0.30 ,27078361900.00 
121.00 ,476.00 ,902.00 ,251.00 ,85.00 ,253.00 ,117.00 ,58.00 ,0.29 ,27098372300.00 
126.00 ,484.00 ,926.00 ,247.00 ,84.00 ,267.00 ,113.00 ,54.00 ,0.28 ,27118348000.00 
108.00 ,482.00 ,804.00 ,206.00 ,75.00 ,277.00 ,113.00 ,44.00 ,0.27 ,27138361400.00 
110.00 ,496.00 ,826.00 ,275.00 ,76.00 ,277.00 ,113.00 ,46.00 ,0.26 ,27158033400.00 
109.00 ,515.00 ,856.00 ,266.00 ,76.00 ,225.00 ,92.00 ,48.00 ,0.25 ,27178013500.00 
106.00 ,485.00 ,895.00 ,273.00 ,89.00 ,240.00 ,62.00 ,50.00 ,0.24 ,27197794800.00 
108.00 ,511.00 ,918.00 ,277.00 ,93.00 ,244.00 ,67.00 ,52.00 ,0.23 ,27217930000.00 
98.00 ,481.00 ,1012.00 ,293.00 ,96.00 ,248.00 ,78.00 ,50.00 ,0.22 ,27237713000.00 
105.00 ,545.00 ,1110.00 ,235.00 ,97.00 ,248.00 ,82.00 ,53.00 ,0.21 ,27257597000.00 
117.00 ,520.00 ,1097.00 ,267.00 ,101.00 ,249.00 ,77.00 ,54.00 ,0.20 ,27277732500.00 
125.00 ,551.00 ,1087.00 ,295.00 ,97.00 ,177.00 ,80.00 ,59.00 ,0.19 ,27297735900.00 
134.00 ,564.00 ,1131.00 ,331.00 ,105.00 ,207.00 ,90.00 ,66.00 ,0.18 ,27317976100.00 
150.00 ,607.00 ,1100.00 ,345.00 ,108.00 ,197.00 ,77.00 ,72.00 ,0.17 ,27338540100.00 
165.00 ,648.00 ,1002.00 ,386.00 ,129.00 ,200.00 ,76.00 ,80.00 ,0.16 ,27359102600.00 
171.00 ,741.00 ,1060.00 ,482.00 ,151.00 ,192.00 ,77.00 ,83.00 ,0.15 ,27379558700.00 
184.00 ,819.00 ,1129.00 ,500.00 ,165.00 ,183.00 ,74.00 ,88.00 ,0.14 ,27399607500.00 
210.00 ,858.00 ,1114.00 ,498.00 ,183.00 ,126.00 ,64.00 ,100.00 ,0.13 ,27419697200.00 
242.00 ,951.00 ,1139.00 ,534.00 ,204.00 ,134.00 ,76.00 ,112.00 ,0.12 ,27437716200.00 
249.00 ,944.00 ,1205.00 ,549.00 ,206.00 ,134.00 ,75.00 ,113.00 ,0.11 ,27457556800.00 
294.00 ,991.00 ,1155.00 ,523.00 ,214.00 ,139.00 ,85.00 ,129.00 ,0.10 ,27479804100.00 
355.00 ,1055.00 ,1117.00 ,617.00 ,244.00 ,148.00 ,102.00 ,152.00 ,0.09 ,27499892700.00 
428.00 ,1130.00 ,1122.00 ,694.00 ,270.00 ,151.00 ,114.00 ,172.00 ,0.08 ,27519571800.00 
455.00 ,1152.00 ,1150.00 ,709.00 ,278.00 ,142.00 ,116.00 ,182.00 ,0.07 ,27537645600.00 
533.00 ,1261.00 ,1143.00 ,788.00 ,323.00 ,171.00 ,144.00 ,218.00 ,0.06 ,27558411900.00 
570.00 ,1296.00 ,1167.00 ,854.00 ,332.00 ,174.00 ,156.00 ,235.00 ,0.05 ,27578454300.00 
550.00 ,1219.00 ,1143.00 ,831.00 ,318.00 ,168.00 ,152.00 ,229.00 ,0.04 ,27598118400.00 
527.00 ,1291.00 ,1194.00 ,804.00 ,310.00 ,164.00 ,146.00 ,220.00 ,0.03 ,27618171800.00 
499.00 ,1205.00 ,1262.00 ,813.00 ,316.00 ,166.00 ,145.00 ,211.00 ,0.02 ,27638060500.00 
434.00 ,1113.00 ,1184.00 ,749.00 ,278.00 ,170.00 ,133.00 ,186.00 ,0.01 ,27658767700.00 
387.00 ,1087.00 ,1234.00 ,685.00 ,269.00 ,172.00 ,120.00 ,171.00 ,0.00 ,27679120600.00 
405.00 ,1166.00 ,1242.00 ,654.00 ,284.00 ,192.00 ,128.00 ,179.00 ,0.01 ,27698620200.00 
385.00 ,1051.00 ,1209.00 ,653.00 ,283.00 ,193.00 ,134.00 ,183.00 ,0.02 ,27719014500.00 
370.00 ,1031.00 ,1064.00 ,584.00 ,255.00 ,418.00 ,165.00 ,255.00 ,0.03 ,27738851900.00 
343.00 ,1012.00 ,1095.00 ,530.00 ,235.00 ,491.00 ,202.00 ,330.00 ,0.04 ,27758933800.00 
337.00 ,925.00 ,1095.00 ,472.00 ,230.00 ,496.00 ,224.00 ,372.00 ,0.05 ,27779071900.00 
276.00 ,740.00 ,1020.00 ,398.00 ,182.00 ,554.00 ,298.00 ,527.00 ,0.06 ,27799009300.00 
238.00 ,601.00 ,919.00 ,280.00 ,136.00 ,721.00 ,405.00 ,713.00 ,0.07 ,27819005400.00 
237.00 ,590.00 ,850.00 ,265.00 ,131.00 ,792.00 ,502.00 ,717.00 ,0.08 ,27838993900.00 
228.00 ,543.00 ,843.00 ,247.00 ,130.00 ,778.00 ,505.00 ,831.00 ,0.09 ,27859116400.00 
174.00 ,475.00 ,678.00 ,174.00 ,97.00 ,899.00 ,683.00 ,868.00 ,0.10 ,27878919200.00 
184.00 ,529.00 ,666.00 ,182.00 ,116.00 ,1003.00 ,829.00 ,868.00 ,0.11 ,27899552600.00 
193.00 ,517.00 ,636.00 ,167.00 ,119.00 ,954.00 ,830.00 ,818.00 ,0.12 ,27919313400.00 
201.00 ,521.00 ,604.00 ,156.00 ,138.00 ,946.00 ,810.00 ,896.00 ,0.13 ,27939101800.00 
201.00 ,516.00 ,516.00 ,135.00 ,138.00 ,1021.00 ,832.00 ,859.00 ,0.14 ,27958896200.00 
199.00 ,577.00 ,595.00 ,167.00 ,138.00 ,1031.00 ,701.00 ,896.00 ,0.15 ,27978957400.00 
253.00 ,613.00 ,598.00 ,169.00 ,148.00 ,1049.00 ,635.00 ,906.00 ,0.16 ,27997989200.00 
240.00 ,600.00 ,596.00 ,162.00 ,147.00 ,1064.00 ,652.00 ,881.00 ,0.17 ,28017756400.00 
254.00 ,594.00 ,605.00 ,164.00 ,124.00 ,1006.00 ,644.00 ,804.00 ,0.18 ,28040113300.00 
268.00 ,655.00 ,627.00 ,203.00 ,128.00 ,958.00 ,640.00 ,794.00 ,0.19 ,28057585900.00 
266.00 ,626.00 ,545.00 ,181.00 ,126.00 ,1003.00 ,670.00 ,735.00 ,0.20 ,28077666100.00 
204.00 ,546.00 ,484.00 ,154.00 ,97.00 ,945.00 ,538.00 ,624.00 ,0.21 ,28097726400.00 
188.00 ,556.00 ,460.00 ,153.00 ,82.00 ,880.00 ,525.00 ,544.00 ,0.22 ,28119891800.00 
163.00 ,585.00 ,500.00 ,149.00 ,82.00 ,837.00 ,570.00 ,553.00 ,0.23 ,28137540600.00 
146.00 ,520.00 ,509.00 ,125.00 ,78.00 ,780.00 ,533.00 ,447.00 ,0.24 ,28157619200.00 
151.00 ,455.00 ,462.00 ,113.00 ,73.00 ,594.00 ,519.00 ,403.00 ,0.25 ,28177783800.00 
148.00 ,477.00 ,463.00 ,111.00 ,73.00 ,577.00 ,512.00 ,458.00 ,0.26 ,28197763900.00 
198.00 ,492.00 ,451.00 ,110.00 ,71.00 ,569.00 ,491.00 ,504.00 ,0.27 ,28219872300.00 
201.00 ,556.00 ,457.00 ,117.00 ,68.00 ,539.00 ,476.00 ,513.00 ,0.28 ,28240063300.00 
191.00 ,582.00 ,551.00 ,124.00 ,66.00 ,548.00 ,486.00 ,495.00 ,0.29 ,28259555200.00 
182.00 ,602.00 ,557.00 ,134.00 ,75.00 ,532.00 ,455.00 ,472.00 ,0.30 ,28279832000.00 
200.00 ,617.00 ,562.00 ,134.00 ,69.00 ,372.00 ,465.00 ,429.00 ,0.31 ,28297703100.00 
166.00 ,617.00 ,563.00 ,134.00 ,73.00 ,352.00 ,416.00 ,446.00 ,0.32 ,28317804200.00 
163.00 ,583.00 ,509.00 ,126.00 ,73.00 ,379.00 ,314.00 ,422.00 ,0.33 ,28338318800.00 
156.00 ,511.00 ,435.00 ,109.00 ,60.00 ,359.00 ,340.00 ,423.00 ,0.34 ,28359210200.00 
169.00 ,530.00 ,466.00 ,99.00 ,45.00 ,348.00 ,327.00 ,446.00 ,0.35 ,28380077400.00 
166.00 ,503.00 ,463.00 ,100.00 ,49.00 ,389.00 ,331.00 ,513.00 ,0.36 ,28399570000.00 
163.00 ,483.00 ,473.00 ,100.00 ,50.00 ,467.00 ,357.00 ,602.00 ,0.37 ,28419608800.00 
165.00 ,462.00 ,533.00 ,108.00 ,60.00 ,502.00 ,404.00 ,649.00 ,0.38 ,28439932000.00 
