84.00 ,268.00 ,736.00 ,161.00 ,57.00 ,285.00 ,76.00 ,209.00 ,0.18 ,332902500.00 
90.00 ,262.00 ,717.00 ,147.00 ,54.00 ,292.00 ,78.00 ,216.00 ,0.19 ,345693900.00 
96.00 ,291.00 ,708.00 ,173.00 ,61.00 ,297.00 ,80.00 ,205.00 ,0.21 ,378956900.00 
96.00 ,361.00 ,719.00 ,164.00 ,58.00 ,302.00 ,80.00 ,208.00 ,0.22 ,399868600.00 
85.00 ,374.00 ,746.00 ,148.00 ,55.00 ,309.00 ,75.00 ,215.00 ,0.23 ,421466300.00 
75.00 ,378.00 ,762.00 ,151.00 ,48.00 ,195.00 ,75.00 ,125.00 ,0.24 ,440839600.00 
64.00 ,382.00 ,878.00 ,154.00 ,50.00 ,265.00 ,80.00 ,141.00 ,0.25 ,461615700.00 
70.00 ,385.00 ,843.00 ,152.00 ,56.00 ,284.00 ,81.00 ,171.00 ,0.26 ,482048700.00 
68.00 ,320.00 ,887.00 ,169.00 ,64.00 ,296.00 ,86.00 ,169.00 ,0.27 ,502676200.00 
79.00 ,277.00 ,830.00 ,181.00 ,67.00 ,305.00 ,92.00 ,165.00 ,0.28 ,518258200.00 
110.00 ,345.00 ,899.00 ,234.00 ,87.00 ,309.00 ,83.00 ,190.00 ,0.29 ,538592700.00 
128.00 ,400.00 ,854.00 ,295.00 ,97.00 ,259.00 ,78.00 ,173.00 ,0.30 ,558881700.00 
133.00 ,423.00 ,900.00 ,319.00 ,105.00 ,227.00 ,83.00 ,140.00 ,0.31 ,577177100.00 
141.00 ,436.00 ,947.00 ,324.00 ,109.00 ,209.00 ,84.00 ,175.00 ,0.32 ,598128100.00 
166.00 ,536.00 ,985.00 ,354.00 ,123.00 ,204.00 ,81.00 ,169.00 ,0.33 ,619112500.00 
152.00 ,539.00 ,945.00 ,339.00 ,116.00 ,163.00 ,66.00 ,144.00 ,0.34 ,639665400.00 
147.00 ,525.00 ,964.00 ,335.00 ,122.00 ,144.00 ,70.00 ,140.00 ,0.35 ,659586500.00 
185.00 ,569.00 ,1046.00 ,351.00 ,143.00 ,166.00 ,81.00 ,224.00 ,0.36 ,677614500.00 
181.00 ,583.00 ,940.00 ,363.00 ,142.00 ,203.00 ,90.00 ,252.00 ,0.37 ,697455100.00 
156.00 ,515.00 ,926.00 ,336.00 ,133.00 ,418.00 ,127.00 ,334.00 ,0.38 ,717675500.00 
158.00 ,487.00 ,891.00 ,320.00 ,156.00 ,743.00 ,426.00 ,491.00 ,0.39 ,737315700.00 
159.00 ,473.00 ,795.00 ,270.00 ,150.00 ,840.00 ,635.00 ,633.00 ,0.40 ,757450900.00 
134.00 ,384.00 ,600.00 ,196.00 ,127.00 ,920.00 ,813.00 ,779.00 ,0.41 ,778301000.00 
142.00 ,378.00 ,675.00 ,158.00 ,132.00 ,962.00 ,1064.00 ,917.00 ,0.42 ,798589100.00 
148.00 ,335.00 ,715.00 ,147.00 ,134.00 ,968.00 ,1155.00 ,990.00 ,0.43 ,819022800.00 
168.00 ,359.00 ,674.00 ,169.00 ,113.00 ,840.00 ,1210.00 ,1007.00 ,0.44 ,839775500.00 
168.00 ,363.00 ,679.00 ,173.00 ,124.00 ,984.00 ,1372.00 ,1034.00 ,0.45 ,857401100.00 
189.00 ,433.00 ,687.00 ,177.00 ,132.00 ,1047.00 ,1390.00 ,1075.00 ,0.46 ,877946600.00 
205.00 ,407.00 ,704.00 ,203.00 ,131.00 ,1086.00 ,1279.00 ,1029.00 ,0.47 ,897976900.00 
227.00 ,529.00 ,747.00 ,206.00 ,131.00 ,1047.00 ,1281.00 ,975.00 ,0.48 ,918370200.00 
217.00 ,515.00 ,833.00 ,187.00 ,123.00 ,1032.00 ,1239.00 ,1063.00 ,0.49 ,938811500.00 
221.00 ,494.00 ,835.00 ,184.00 ,116.00 ,963.00 ,1101.00 ,1102.00 ,0.50 ,957753100.00 
194.00 ,437.00 ,828.00 ,180.00 ,99.00 ,838.00 ,972.00 ,1014.00 ,0.51 ,978073900.00 
205.00 ,494.00 ,864.00 ,185.00 ,102.00 ,731.00 ,902.00 ,959.00 ,0.52 ,998691200.00 
194.00 ,400.00 ,881.00 ,194.00 ,100.00 ,703.00 ,832.00 ,933.00 ,0.53 ,1018960600.00 
216.00 ,368.00 ,816.00 ,194.00 ,114.00 ,771.00 ,848.00 ,841.00 ,0.54 ,1039142400.00 
209.00 ,383.00 ,799.00 ,190.00 ,104.00 ,651.00 ,778.00 ,745.00 ,0.55 ,1058580300.00 
214.00 ,364.00 ,797.00 ,189.00 ,101.00 ,667.00 ,851.00 ,654.00 ,0.56 ,1078734100.00 
178.00 ,283.00 ,608.00 ,130.00 ,89.00 ,674.00 ,940.00 ,676.00 ,0.57 ,1098725600.00 
166.00 ,268.00 ,489.00 ,100.00 ,87.00 ,784.00 ,995.00 ,724.00 ,0.58 ,1119242700.00 
159.00 ,290.00 ,433.00 ,83.00 ,76.00 ,772.00 ,1048.00 ,710.00 ,0.59 ,1139259700.00 
183.00 ,270.00 ,423.00 ,84.00 ,80.00 ,750.00 ,1127.00 ,764.00 ,0.60 ,1159494300.00 
229.00 ,309.00 ,500.00 ,80.00 ,81.00 ,854.00 ,1174.00 ,876.00 ,0.61 ,1178287500.00 
252.00 ,351.00 ,504.00 ,96.00 ,77.00 ,888.00 ,1136.00 ,909.00 ,0.62 ,1197454500.00 
268.00 ,354.00 ,442.00 ,80.00 ,95.00 ,953.00 ,1155.00 ,989.00 ,0.63 ,1219668800.00 
254.00 ,392.00 ,435.00 ,83.00 ,108.00 ,987.00 ,1172.00 ,1008.00 ,0.64 ,1237513700.00 
277.00 ,420.00 ,429.00 ,93.00 ,118.00 ,975.00 ,1105.00 ,1013.00 ,0.65 ,1272937200.00 
270.00 ,436.00 ,347.00 ,94.00 ,122.00 ,916.00 ,1018.00 ,981.00 ,0.65 ,1272949100.00 
265.00 ,422.00 ,519.00 ,117.00 ,133.00 ,989.00 ,1003.00 ,1011.00 ,0.67 ,1299624400.00 
249.00 ,423.00 ,465.00 ,122.00 ,131.00 ,937.00 ,934.00 ,927.00 ,0.68 ,1317692600.00 
249.00 ,427.00 ,484.00 ,120.00 ,119.00 ,911.00 ,818.00 ,889.00 ,0.69 ,1338056800.00 
229.00 ,460.00 ,482.00 ,115.00 ,115.00 ,983.00 ,838.00 ,802.00 ,0.70 ,1358162900.00 
206.00 ,443.00 ,565.00 ,130.00 ,123.00 ,1000.00 ,899.00 ,816.00 ,0.71 ,1378158500.00 
248.00 ,501.00 ,477.00 ,116.00 ,123.00 ,1041.00 ,999.00 ,768.00 ,0.72 ,1398160400.00 
296.00 ,522.00 ,502.00 ,122.00 ,134.00 ,1102.00 ,984.00 ,872.00 ,0.73 ,1418245100.00 
320.00 ,520.00 ,495.00 ,130.00 ,164.00 ,1181.00 ,1020.00 ,871.00 ,0.74 ,1438709900.00 
379.00 ,599.00 ,502.00 ,135.00 ,187.00 ,1281.00 ,1002.00 ,971.00 ,0.75 ,1459037600.00 
380.00 ,601.00 ,487.00 ,156.00 ,190.00 ,1284.00 ,966.00 ,965.00 ,0.76 ,1478941500.00 
362.00 ,598.00 ,449.00 ,151.00 ,187.00 ,1285.00 ,943.00 ,1067.00 ,0.77 ,1498752500.00 
348.00 ,653.00 ,510.00 ,148.00 ,184.00 ,1238.00 ,1006.00 ,1018.00 ,0.78 ,1518494400.00 
366.00 ,708.00 ,502.00 ,141.00 ,169.00 ,1187.00 ,1019.00 ,1085.00 ,0.79 ,1538557100.00 
316.00 ,763.00 ,499.00 ,136.00 ,154.00 ,1105.00 ,962.00 ,1071.00 ,0.80 ,1558383900.00 
330.00 ,895.00 ,422.00 ,101.00 ,142.00 ,1126.00 ,992.00 ,1137.00 ,0.81 ,1578435100.00 
377.00 ,930.00 ,422.00 ,135.00 ,155.00 ,1134.00 ,982.00 ,1123.00 ,0.82 ,1602822500.00 
395.00 ,949.00 ,348.00 ,141.00 ,169.00 ,1217.00 ,997.00 ,1138.00 ,0.83 ,1618381600.00 
392.00 ,1030.00 ,366.00 ,152.00 ,178.00 ,1254.00 ,973.00 ,1136.00 ,0.85 ,1658126800.00 
398.00 ,957.00 ,361.00 ,152.00 ,175.00 ,1254.00 ,1012.00 ,1170.00 ,0.85 ,1658139700.00 
397.00 ,863.00 ,394.00 ,153.00 ,184.00 ,1299.00 ,1032.00 ,1168.00 ,0.86 ,1679060700.00 
410.00 ,833.00 ,362.00 ,128.00 ,187.00 ,1282.00 ,1067.00 ,1092.00 ,0.87 ,1698790700.00 
443.00 ,769.00 ,345.00 ,145.00 ,218.00 ,1323.00 ,1079.00 ,1164.00 ,0.88 ,1718400800.00 
444.00 ,671.00 ,344.00 ,147.00 ,219.00 ,1307.00 ,1103.00 ,1159.00 ,0.89 ,1738515600.00 
494.00 ,882.00 ,354.00 ,148.00 ,221.00 ,1368.00 ,1143.00 ,1043.00 ,0.90 ,1758624200.00 
510.00 ,887.00 ,307.00 ,159.00 ,232.00 ,1364.00 ,1179.00 ,1010.00 ,0.91 ,1779368000.00 
533.00 ,904.00 ,494.00 ,169.00 ,241.00 ,1361.00 ,1175.00 ,1059.00 ,0.92 ,1799270300.00 
516.00 ,958.00 ,520.00 ,158.00 ,211.00 ,1291.00 ,1154.00 ,1037.00 ,0.93 ,1819435500.00 
542.00 ,1019.00 ,551.00 ,149.00 ,208.00 ,1353.00 ,1079.00 ,1025.00 ,0.94 ,1837633200.00 
512.00 ,933.00 ,581.00 ,150.00 ,207.00 ,1353.00 ,1040.00 ,1080.00 ,0.95 ,1857445800.00 
511.00 ,990.00 ,592.00 ,143.00 ,208.00 ,1333.00 ,1029.00 ,1023.00 ,0.96 ,1877480400.00 
512.00 ,1033.00 ,496.00 ,140.00 ,239.00 ,1424.00 ,976.00 ,1036.00 ,0.97 ,1897549400.00 
551.00 ,1070.00 ,486.00 ,144.00 ,244.00 ,1420.00 ,987.00 ,947.00 ,0.98 ,1917322700.00 
537.00 ,1053.00 ,471.00 ,149.00 ,236.00 ,1302.00 ,1029.00 ,930.00 ,0.99 ,1937674500.00 
555.00 ,1022.00 ,465.00 ,155.00 ,263.00 ,1367.00 ,1107.00 ,978.00 ,0.98 ,1958428800.00 
619.00 ,1032.00 ,463.00 ,152.00 ,260.00 ,1433.00 ,1089.00 ,1045.00 ,0.97 ,1978520800.00 
608.00 ,1025.00 ,402.00 ,138.00 ,232.00 ,1384.00 ,1070.00 ,1034.00 ,0.96 ,1998340900.00 
590.00 ,947.00 ,407.00 ,124.00 ,229.00 ,1412.00 ,1001.00 ,1136.00 ,0.95 ,2018384100.00 
578.00 ,891.00 ,386.00 ,114.00 ,223.00 ,1441.00 ,995.00 ,1149.00 ,0.94 ,2038356400.00 
562.00 ,818.00 ,366.00 ,109.00 ,207.00 ,1360.00 ,853.00 ,1109.00 ,0.93 ,2058151300.00 
498.00 ,763.00 ,341.00 ,118.00 ,208.00 ,1345.00 ,769.00 ,1095.00 ,0.92 ,2077913100.00 
462.00 ,659.00 ,383.00 ,112.00 ,185.00 ,1353.00 ,718.00 ,1059.00 ,0.91 ,2097667700.00 
398.00 ,659.00 ,412.00 ,119.00 ,162.00 ,1263.00 ,673.00 ,911.00 ,0.90 ,2118214300.00 
364.00 ,576.00 ,541.00 ,156.00 ,165.00 ,1280.00 ,553.00 ,803.00 ,0.89 ,2138478100.00 
313.00 ,555.00 ,631.00 ,153.00 ,136.00 ,1190.00 ,475.00 ,691.00 ,0.88 ,2157630900.00 
249.00 ,447.00 ,636.00 ,142.00 ,103.00 ,1135.00 ,482.00 ,557.00 ,0.87 ,2177914900.00 
178.00 ,510.00 ,636.00 ,151.00 ,100.00 ,981.00 ,438.00 ,440.00 ,0.86 ,2197940400.00 
164.00 ,448.00 ,664.00 ,163.00 ,93.00 ,935.00 ,417.00 ,382.00 ,0.85 ,2217823500.00 
171.00 ,465.00 ,580.00 ,144.00 ,85.00 ,820.00 ,412.00 ,338.00 ,0.84 ,2238089600.00 
165.00 ,525.00 ,538.00 ,148.00 ,83.00 ,906.00 ,429.00 ,322.00 ,0.83 ,2257804100.00 
150.00 ,567.00 ,595.00 ,146.00 ,83.00 ,805.00 ,324.00 ,272.00 ,0.82 ,2277618500.00 
170.00 ,485.00 ,607.00 ,175.00 ,76.00 ,775.00 ,307.00 ,185.00 ,0.81 ,2297373700.00 
179.00 ,489.00 ,624.00 ,170.00 ,78.00 ,727.00 ,298.00 ,165.00 ,0.80 ,2317574400.00 
167.00 ,470.00 ,682.00 ,169.00 ,88.00 ,769.00 ,320.00 ,145.00 ,0.79 ,2337419300.00 
190.00 ,422.00 ,655.00 ,161.00 ,75.00 ,590.00 ,298.00 ,282.00 ,0.78 ,2357299900.00 
208.00 ,426.00 ,621.00 ,184.00 ,73.00 ,498.00 ,266.00 ,284.00 ,0.77 ,2379756800.00 
189.00 ,433.00 ,592.00 ,192.00 ,74.00 ,471.00 ,261.00 ,296.00 ,0.76 ,2397304200.00 
174.00 ,429.00 ,604.00 ,195.00 ,79.00 ,613.00 ,338.00 ,302.00 ,0.75 ,2417861900.00 
175.00 ,466.00 ,613.00 ,198.00 ,78.00 ,540.00 ,294.00 ,338.00 ,0.74 ,2437910300.00 
155.00 ,459.00 ,614.00 ,211.00 ,75.00 ,513.00 ,275.00 ,226.00 ,0.73 ,2457881400.00 
129.00 ,395.00 ,697.00 ,230.00 ,84.00 ,524.00 ,258.00 ,212.00 ,0.72 ,2477734200.00 
143.00 ,402.00 ,761.00 ,222.00 ,87.00 ,619.00 ,282.00 ,197.00 ,0.71 ,2497807700.00 
163.00 ,410.00 ,718.00 ,215.00 ,81.00 ,595.00 ,220.00 ,187.00 ,0.70 ,2518082700.00 
176.00 ,374.00 ,667.00 ,212.00 ,71.00 ,579.00 ,221.00 ,122.00 ,0.69 ,2538165700.00 
176.00 ,402.00 ,682.00 ,220.00 ,72.00 ,571.00 ,224.00 ,117.00 ,0.68 ,2557532400.00 
165.00 ,394.00 ,612.00 ,187.00 ,61.00 ,609.00 ,239.00 ,105.00 ,0.67 ,2577826000.00 
158.00 ,423.00 ,603.00 ,185.00 ,60.00 ,519.00 ,225.00 ,97.00 ,0.66 ,2597857200.00 
147.00 ,412.00 ,592.00 ,179.00 ,58.00 ,465.00 ,184.00 ,106.00 ,0.65 ,2618808700.00 
122.00 ,398.00 ,579.00 ,176.00 ,59.00 ,461.00 ,175.00 ,83.00 ,0.64 ,2639200000.00 
137.00 ,357.00 ,574.00 ,164.00 ,59.00 ,473.00 ,161.00 ,84.00 ,0.63 ,2659115000.00 
138.00 ,404.00 ,538.00 ,161.00 ,55.00 ,503.00 ,141.00 ,84.00 ,0.62 ,2679101500.00 
137.00 ,373.00 ,574.00 ,125.00 ,60.00 ,616.00 ,135.00 ,82.00 ,0.61 ,2698148900.00 
128.00 ,368.00 ,658.00 ,131.00 ,63.00 ,592.00 ,133.00 ,65.00 ,0.60 ,2718477100.00 
143.00 ,375.00 ,708.00 ,130.00 ,64.00 ,577.00 ,128.00 ,64.00 ,0.59 ,2738203000.00 
130.00 ,348.00 ,793.00 ,127.00 ,63.00 ,594.00 ,125.00 ,59.00 ,0.58 ,2758236900.00 
128.00 ,345.00 ,813.00 ,119.00 ,67.00 ,537.00 ,118.00 ,57.00 ,0.57 ,2778993600.00 
125.00 ,324.00 ,796.00 ,128.00 ,57.00 ,448.00 ,115.00 ,47.00 ,0.55 ,2818573700.00 
121.00 ,356.00 ,697.00 ,117.00 ,51.00 ,401.00 ,108.00 ,43.00 ,0.55 ,2818587500.00 
138.00 ,425.00 ,706.00 ,111.00 ,49.00 ,377.00 ,111.00 ,43.00 ,0.54 ,2838688800.00 
128.00 ,447.00 ,605.00 ,93.00 ,50.00 ,364.00 ,116.00 ,38.00 ,0.53 ,2858655200.00 
137.00 ,413.00 ,724.00 ,106.00 ,55.00 ,596.00 ,181.00 ,42.00 ,0.52 ,2878583400.00 
146.00 ,484.00 ,797.00 ,107.00 ,54.00 ,595.00 ,209.00 ,119.00 ,0.51 ,2898976000.00 
157.00 ,550.00 ,867.00 ,114.00 ,56.00 ,602.00 ,219.00 ,125.00 ,0.50 ,2918974600.00 
130.00 ,515.00 ,868.00 ,126.00 ,61.00 ,604.00 ,220.00 ,128.00 ,0.49 ,2938900000.00 
128.00 ,499.00 ,859.00 ,141.00 ,75.00 ,720.00 ,236.00 ,132.00 ,0.48 ,2959151500.00 
138.00 ,524.00 ,859.00 ,156.00 ,79.00 ,530.00 ,196.00 ,137.00 ,0.47 ,2979160600.00 
153.00 ,467.00 ,847.00 ,186.00 ,87.00 ,487.00 ,148.00 ,87.00 ,0.46 ,2998943500.00 
144.00 ,410.00 ,819.00 ,193.00 ,87.00 ,485.00 ,142.00 ,84.00 ,0.45 ,3018838100.00 
146.00 ,411.00 ,817.00 ,187.00 ,98.00 ,610.00 ,170.00 ,90.00 ,0.44 ,3039011600.00 
145.00 ,426.00 ,844.00 ,190.00 ,95.00 ,489.00 ,147.00 ,85.00 ,0.43 ,3058655000.00 
128.00 ,413.00 ,788.00 ,174.00 ,91.00 ,479.00 ,135.00 ,76.00 ,0.41 ,3098373200.00 
94.00 ,406.00 ,758.00 ,156.00 ,88.00 ,478.00 ,137.00 ,69.00 ,0.41 ,3098392700.00 
93.00 ,364.00 ,748.00 ,147.00 ,96.00 ,571.00 ,140.00 ,68.00 ,0.40 ,3118332400.00 
98.00 ,331.00 ,744.00 ,143.00 ,82.00 ,459.00 ,114.00 ,69.00 ,0.39 ,3137837800.00 
97.00 ,325.00 ,757.00 ,131.00 ,74.00 ,417.00 ,111.00 ,72.00 ,0.38 ,3157323300.00 
114.00 ,327.00 ,740.00 ,132.00 ,67.00 ,419.00 ,113.00 ,73.00 ,0.36 ,3197281100.00 
112.00 ,304.00 ,671.00 ,123.00 ,66.00 ,432.00 ,112.00 ,71.00 ,0.36 ,3197294900.00 
111.00 ,326.00 ,784.00 ,133.00 ,57.00 ,357.00 ,96.00 ,69.00 ,0.35 ,3217292000.00 
113.00 ,382.00 ,766.00 ,152.00 ,63.00 ,328.00 ,87.00 ,69.00 ,0.34 ,3239574300.00 
126.00 ,391.00 ,806.00 ,164.00 ,66.00 ,320.00 ,81.00 ,69.00 ,0.33 ,3258925000.00 
120.00 ,371.00 ,831.00 ,167.00 ,69.00 ,315.00 ,78.00 ,67.00 ,0.32 ,3278992100.00 
126.00 ,378.00 ,964.00 ,169.00 ,73.00 ,334.00 ,101.00 ,72.00 ,0.31 ,3299363500.00 
139.00 ,356.00 ,877.00 ,181.00 ,80.00 ,360.00 ,130.00 ,77.00 ,0.30 ,3319377000.00 
128.00 ,288.00 ,853.00 ,166.00 ,76.00 ,368.00 ,125.00 ,59.00 ,0.29 ,3339047200.00 
119.00 ,270.00 ,843.00 ,180.00 ,81.00 ,370.00 ,126.00 ,56.00 ,0.27 ,3379118200.00 
128.00 ,310.00 ,800.00 ,214.00 ,93.00 ,390.00 ,134.00 ,63.00 ,0.27 ,3379164100.00 
126.00 ,345.00 ,679.00 ,229.00 ,94.00 ,413.00 ,115.00 ,59.00 ,0.26 ,3398959600.00 
111.00 ,344.00 ,696.00 ,224.00 ,86.00 ,350.00 ,119.00 ,53.00 ,0.24 ,3438482100.00 
124.00 ,364.00 ,743.00 ,244.00 ,93.00 ,339.00 ,122.00 ,59.00 ,0.24 ,3438495200.00 
132.00 ,416.00 ,730.00 ,244.00 ,88.00 ,339.00 ,125.00 ,59.00 ,0.23 ,3458060100.00 
117.00 ,424.00 ,808.00 ,231.00 ,79.00 ,332.00 ,121.00 ,53.00 ,0.21 ,3498022400.00 
113.00 ,421.00 ,958.00 ,222.00 ,74.00 ,276.00 ,118.00 ,50.00 ,0.21 ,3498039600.00 
119.00 ,461.00 ,1001.00 ,247.00 ,86.00 ,274.00 ,102.00 ,52.00 ,0.20 ,3517840800.00 
116.00 ,456.00 ,986.00 ,249.00 ,82.00 ,279.00 ,110.00 ,50.00 ,0.18 ,3557837400.00 
114.00 ,439.00 ,1050.00 ,246.00 ,91.00 ,274.00 ,108.00 ,55.00 ,0.18 ,3557851600.00 
123.00 ,446.00 ,1082.00 ,244.00 ,88.00 ,298.00 ,103.00 ,57.00 ,0.17 ,3577952600.00 
139.00 ,449.00 ,1013.00 ,266.00 ,95.00 ,301.00 ,120.00 ,63.00 ,0.15 ,3618729500.00 
145.00 ,498.00 ,1003.00 ,254.00 ,99.00 ,284.00 ,113.00 ,67.00 ,0.15 ,3618743100.00 
160.00 ,523.00 ,1057.00 ,277.00 ,99.00 ,276.00 ,109.00 ,72.00 ,0.14 ,3638652200.00 
152.00 ,594.00 ,1007.00 ,274.00 ,97.00 ,315.00 ,122.00 ,69.00 ,0.12 ,3679319100.00 
160.00 ,570.00 ,1006.00 ,290.00 ,104.00 ,367.00 ,136.00 ,78.00 ,0.12 ,3679332400.00 
154.00 ,617.00 ,1017.00 ,307.00 ,118.00 ,402.00 ,131.00 ,82.00 ,0.11 ,3699258400.00 
181.00 ,595.00 ,1014.00 ,380.00 ,128.00 ,389.00 ,125.00 ,85.00 ,0.10 ,3718919600.00 
191.00 ,670.00 ,980.00 ,471.00 ,144.00 ,388.00 ,123.00 ,94.00 ,0.09 ,3738581100.00 
254.00 ,740.00 ,1001.00 ,581.00 ,189.00 ,423.00 ,145.00 ,121.00 ,0.08 ,3758681000.00 
256.00 ,805.00 ,964.00 ,590.00 ,196.00 ,489.00 ,153.00 ,123.00 ,0.07 ,3779680900.00 
282.00 ,792.00 ,1004.00 ,629.00 ,212.00 ,454.00 ,162.00 ,136.00 ,0.06 ,3799339500.00 
306.00 ,872.00 ,1115.00 ,595.00 ,222.00 ,463.00 ,177.00 ,149.00 ,0.05 ,3817545600.00 
350.00 ,950.00 ,1149.00 ,538.00 ,239.00 ,458.00 ,179.00 ,161.00 ,0.03 ,3857286900.00 
408.00 ,1096.00 ,1134.00 ,638.00 ,250.00 ,407.00 ,171.00 ,180.00 ,0.03 ,3857300700.00 
455.00 ,1202.00 ,1185.00 ,685.00 ,284.00 ,389.00 ,156.00 ,193.00 ,0.02 ,3879529100.00 
444.00 ,1218.00 ,1346.00 ,660.00 ,277.00 ,394.00 ,139.00 ,183.00 ,0.01 ,3899158100.00 
503.00 ,1282.00 ,1335.00 ,823.00 ,332.00 ,384.00 ,154.00 ,216.00 ,0.00 ,3919176800.00 
549.00 ,1277.00 ,1395.00 ,880.00 ,330.00 ,399.00 ,159.00 ,234.00 ,0.01 ,3939525700.00 
547.00 ,1157.00 ,1461.00 ,795.00 ,345.00 ,535.00 ,219.00 ,246.00 ,0.03 ,3978257100.00 
527.00 ,1080.00 ,1475.00 ,806.00 ,341.00 ,444.00 ,237.00 ,253.00 ,0.03 ,3978271300.00 
546.00 ,1108.00 ,1299.00 ,821.00 ,355.00 ,603.00 ,256.00 ,274.00 ,0.04 ,3998371300.00 
502.00 ,1134.00 ,1280.00 ,730.00 ,308.00 ,626.00 ,238.00 ,263.00 ,0.06 ,4038489900.00 
434.00 ,1077.00 ,1226.00 ,665.00 ,301.00 ,648.00 ,237.00 ,354.00 ,0.06 ,4038507600.00 
359.00 ,1035.00 ,1204.00 ,602.00 ,250.00 ,703.00 ,316.00 ,516.00 ,0.07 ,4058590200.00 
355.00 ,1009.00 ,1205.00 ,550.00 ,225.00 ,706.00 ,375.00 ,581.00 ,0.09 ,4098523800.00 
382.00 ,1002.00 ,1161.00 ,539.00 ,210.00 ,655.00 ,380.00 ,606.00 ,0.09 ,4098538300.00 
345.00 ,791.00 ,1041.00 ,436.00 ,197.00 ,731.00 ,599.00 ,714.00 ,0.10 ,4118507700.00 
315.00 ,709.00 ,944.00 ,391.00 ,202.00 ,878.00 ,758.00 ,823.00 ,0.12 ,4157959400.00 
312.00 ,615.00 ,777.00 ,373.00 ,205.00 ,943.00 ,870.00 ,808.00 ,0.13 ,4178408100.00 
302.00 ,607.00 ,547.00 ,304.00 ,196.00 ,1103.00 ,1003.00 ,882.00 ,0.13 ,4178420300.00 
229.00 ,502.00 ,488.00 ,213.00 ,171.00 ,1106.00 ,1063.00 ,979.00 ,0.15 ,4218129800.00 
228.00 ,521.00 ,526.00 ,162.00 ,155.00 ,1154.00 ,1036.00 ,933.00 ,0.16 ,4238343200.00 
234.00 ,529.00 ,493.00 ,147.00 ,138.00 ,1164.00 ,1017.00 ,879.00 ,0.16 ,4238355800.00 
265.00 ,568.00 ,533.00 ,141.00 ,121.00 ,1113.00 ,973.00 ,872.00 ,0.17 ,4258059800.00 
261.00 ,563.00 ,702.00 ,144.00 ,111.00 ,1089.00 ,925.00 ,880.00 ,0.19 ,4298459100.00 
265.00 ,550.00 ,702.00 ,139.00 ,111.00 ,1084.00 ,868.00 ,785.00 ,0.20 ,4318232300.00 
279.00 ,582.00 ,696.00 ,167.00 ,112.00 ,1071.00 ,815.00 ,896.00 ,0.20 ,4318244400.00 
277.00 ,586.00 ,702.00 ,163.00 ,93.00 ,1025.00 ,853.00 ,997.00 ,0.22 ,4357685300.00 
247.00 ,620.00 ,711.00 ,160.00 ,91.00 ,948.00 ,796.00 ,996.00 ,0.22 ,4357702900.00 
232.00 ,605.00 ,615.00 ,161.00 ,86.00 ,803.00 ,679.00 ,923.00 ,0.23 ,4378383000.00 
250.00 ,690.00 ,553.00 ,158.00 ,79.00 ,780.00 ,774.00 ,938.00 ,0.25 ,4418465900.00 
231.00 ,653.00 ,486.00 ,133.00 ,85.00 ,791.00 ,797.00 ,863.00 ,0.25 ,4418478500.00 
232.00 ,653.00 ,482.00 ,139.00 ,93.00 ,674.00 ,680.00 ,756.00 ,0.26 ,4438528900.00 
250.00 ,694.00 ,594.00 ,170.00 ,106.00 ,637.00 ,648.00 ,688.00 ,0.28 ,4478497000.00 
281.00 ,698.00 ,690.00 ,214.00 ,118.00 ,663.00 ,655.00 ,663.00 ,0.28 ,4478516600.00 
279.00 ,617.00 ,687.00 ,213.00 ,120.00 ,761.00 ,643.00 ,711.00 ,0.29 ,4498524100.00 
267.00 ,591.00 ,687.00 ,213.00 ,116.00 ,656.00 ,625.00 ,782.00 ,0.31 ,4538288200.00 
281.00 ,605.00 ,683.00 ,211.00 ,110.00 ,646.00 ,633.00 ,702.00 ,0.31 ,4538301600.00 
293.00 ,524.00 ,638.00 ,206.00 ,104.00 ,693.00 ,708.00 ,739.00 ,0.33 ,4578006900.00 
260.00 ,433.00 ,521.00 ,159.00 ,93.00 ,685.00 ,771.00 ,782.00 ,0.34 ,4597835300.00 
248.00 ,430.00 ,535.00 ,155.00 ,92.00 ,693.00 ,703.00 ,745.00 ,0.34 ,4597852400.00 
254.00 ,431.00 ,547.00 ,152.00 ,81.00 ,707.00 ,697.00 ,613.00 ,0.35 ,4617983500.00 
246.00 ,445.00 ,549.00 ,149.00 ,80.00 ,735.00 ,732.00 ,669.00 ,0.37 ,4659466500.00 
207.00 ,549.00 ,634.00 ,172.00 ,77.00 ,702.00 ,649.00 ,642.00 ,0.37 ,4659479800.00 
211.00 ,551.00 ,587.00 ,158.00 ,75.00 ,706.00 ,549.00 ,625.00 ,0.38 ,4679376900.00 
199.00 ,540.00 ,570.00 ,147.00 ,69.00 ,685.00 ,583.00 ,584.00 ,0.40 ,4719124600.00 
192.00 ,620.00 ,553.00 ,142.00 ,67.00 ,645.00 ,577.00 ,622.00 ,0.40 ,4719137600.00 
197.00 ,614.00 ,644.00 ,151.00 ,68.00 ,609.00 ,492.00 ,612.00 ,0.41 ,4739119500.00 
184.00 ,504.00 ,567.00 ,110.00 ,65.00 ,599.00 ,553.00 ,639.00 ,0.43 ,4777271000.00 
190.00 ,490.00 ,539.00 ,109.00 ,66.00 ,706.00 ,564.00 ,599.00 ,0.43 ,4777283600.00 
186.00 ,490.00 ,540.00 ,110.00 ,62.00 ,611.00 ,613.00 ,681.00 ,0.44 ,4799704700.00 
212.00 ,414.00 ,544.00 ,110.00 ,62.00 ,641.00 ,612.00 ,636.00 ,0.46 ,4839216400.00 
187.00 ,423.00 ,509.00 ,98.00 ,62.00 ,645.00 ,597.00 ,574.00 ,0.46 ,4839229300.00 
194.00 ,423.00 ,425.00 ,84.00 ,55.00 ,645.00 ,561.00 ,533.00 ,0.48 ,4883350300.00 
173.00 ,444.00 ,448.00 ,87.00 ,50.00 ,529.00 ,587.00 ,524.00 ,0.48 ,4883363300.00 
188.00 ,437.00 ,459.00 ,86.00 ,47.00 ,488.00 ,566.00 ,525.00 ,0.49 ,4898680500.00 
176.00 ,502.00 ,463.00 ,87.00 ,50.00 ,397.00 ,580.00 ,523.00 ,0.50 ,4919409500.00 
175.00 ,452.00 ,446.00 ,85.00 ,52.00 ,386.00 ,638.00 ,522.00 ,0.52 ,4958381900.00 
169.00 ,428.00 ,444.00 ,118.00 ,59.00 ,435.00 ,644.00 ,518.00 ,0.52 ,4958402000.00 
167.00 ,407.00 ,421.00 ,123.00 ,58.00 ,396.00 ,645.00 ,609.00 ,0.53 ,4978186400.00 
155.00 ,426.00 ,397.00 ,121.00 ,56.00 ,397.00 ,613.00 ,561.00 ,0.55 ,5017650700.00 
192.00 ,433.00 ,393.00 ,123.00 ,55.00 ,447.00 ,624.00 ,576.00 ,0.55 ,5017663200.00 
219.00 ,511.00 ,386.00 ,125.00 ,57.00 ,548.00 ,631.00 ,665.00 ,0.57 ,5057634500.00 
230.00 ,525.00 ,385.00 ,93.00 ,60.00 ,514.00 ,695.00 ,695.00 ,0.58 ,5077369200.00 
243.00 ,587.00 ,380.00 ,80.00 ,57.00 ,531.00 ,687.00 ,704.00 ,0.58 ,5077382100.00 
233.00 ,598.00 ,388.00 ,81.00 ,66.00 ,546.00 ,662.00 ,700.00 ,0.60 ,5117665400.00 
189.00 ,529.00 ,411.00 ,80.00 ,68.00 ,554.00 ,663.00 ,790.00 ,0.61 ,5137423800.00 
162.00 ,453.00 ,410.00 ,84.00 ,65.00 ,537.00 ,652.00 ,721.00 ,0.62 ,5157303600.00 
150.00 ,452.00 ,348.00 ,66.00 ,55.00 ,573.00 ,596.00 ,759.00 ,0.63 ,5177310500.00 
144.00 ,370.00 ,350.00 ,63.00 ,58.00 ,619.00 ,579.00 ,743.00 ,0.64 ,5197445900.00 
151.00 ,356.00 ,393.00 ,67.00 ,51.00 ,690.00 ,660.00 ,715.00 ,0.65 ,5217390300.00 
173.00 ,380.00 ,368.00 ,60.00 ,48.00 ,701.00 ,627.00 ,788.00 ,0.66 ,5239608600.00 
193.00 ,369.00 ,293.00 ,50.00 ,48.00 ,739.00 ,616.00 ,815.00 ,0.67 ,5259513800.00 
191.00 ,363.00 ,326.00 ,61.00 ,62.00 ,789.00 ,653.00 ,767.00 ,0.68 ,5279151600.00 
245.00 ,375.00 ,328.00 ,63.00 ,61.00 ,786.00 ,648.00 ,805.00 ,0.68 ,5279164600.00 
269.00 ,411.00 ,350.00 ,83.00 ,62.00 ,776.00 ,630.00 ,796.00 ,0.70 ,5319557900.00 
254.00 ,422.00 ,343.00 ,87.00 ,76.00 ,857.00 ,696.00 ,683.00 ,0.71 ,5339288700.00 
294.00 ,503.00 ,358.00 ,87.00 ,80.00 ,836.00 ,714.00 ,729.00 ,0.71 ,5339300700.00 
299.00 ,500.00 ,405.00 ,87.00 ,78.00 ,828.00 ,679.00 ,737.00 ,0.73 ,5378986800.00 
266.00 ,503.00 ,396.00 ,88.00 ,78.00 ,864.00 ,772.00 ,672.00 ,0.74 ,5399052900.00 
249.00 ,486.00 ,324.00 ,65.00 ,77.00 ,914.00 ,726.00 ,728.00 ,0.74 ,5399068000.00 
255.00 ,540.00 ,324.00 ,66.00 ,70.00 ,845.00 ,664.00 ,699.00 ,0.76 ,5438810900.00 
211.00 ,506.00 ,314.00 ,62.00 ,70.00 ,863.00 ,655.00 ,748.00 ,0.77 ,5458817300.00 
243.00 ,600.00 ,191.00 ,49.00 ,68.00 ,913.00 ,722.00 ,814.00 ,0.77 ,5458831000.00 
244.00 ,615.00 ,215.00 ,44.00 ,69.00 ,883.00 ,655.00 ,826.00 ,0.79 ,5499508600.00 
255.00 ,743.00 ,225.00 ,48.00 ,90.00 ,1034.00 ,747.00 ,822.00 ,0.80 ,5519340400.00 
263.00 ,750.00 ,337.00 ,58.00 ,106.00 ,1102.00 ,781.00 ,837.00 ,0.80 ,5519362300.00 
260.00 ,794.00 ,317.00 ,63.00 ,110.00 ,1136.00 ,823.00 ,912.00 ,0.82 ,5557322000.00 
268.00 ,761.00 ,323.00 ,69.00 ,121.00 ,1196.00 ,878.00 ,926.00 ,0.83 ,5579513500.00 
269.00 ,802.00 ,306.00 ,74.00 ,126.00 ,1226.00 ,996.00 ,942.00 ,0.83 ,5579526300.00 
349.00 ,763.00 ,295.00 ,78.00 ,125.00 ,1106.00 ,992.00 ,1051.00 ,0.85 ,5619085000.00 
360.00 ,762.00 ,299.00 ,80.00 ,118.00 ,1163.00 ,1032.00 ,1162.00 ,0.86 ,5639810500.00 
383.00 ,765.00 ,326.00 ,86.00 ,141.00 ,1170.00 ,1038.00 ,1079.00 ,0.86 ,5639825000.00 
377.00 ,795.00 ,401.00 ,87.00 ,153.00 ,1159.00 ,1025.00 ,1075.00 ,0.88 ,5677854400.00 
462.00 ,880.00 ,483.00 ,106.00 ,210.00 ,1271.00 ,953.00 ,1101.00 ,0.89 ,5697859700.00 
431.00 ,888.00 ,515.00 ,114.00 ,237.00 ,1323.00 ,965.00 ,1046.00 ,0.90 ,5717804000.00 
439.00 ,918.00 ,452.00 ,116.00 ,249.00 ,1279.00 ,939.00 ,953.00 ,0.91 ,5737371700.00 
496.00 ,1033.00 ,444.00 ,132.00 ,281.00 ,1302.00 ,1050.00 ,1012.00 ,0.92 ,5757372000.00 
512.00 ,1093.00 ,458.00 ,156.00 ,316.00 ,1317.00 ,1019.00 ,1090.00 ,0.93 ,5777636000.00 
549.00 ,1081.00 ,401.00 ,172.00 ,305.00 ,1326.00 ,1008.00 ,1136.00 ,0.94 ,5797798400.00 
565.00 ,1087.00 ,396.00 ,179.00 ,287.00 ,1279.00 ,1015.00 ,1177.00 ,0.95 ,5818305900.00 
597.00 ,1076.00 ,459.00 ,184.00 ,288.00 ,1327.00 ,1059.00 ,1213.00 ,0.95 ,5818318200.00 
640.00 ,1048.00 ,491.00 ,181.00 ,260.00 ,1361.00 ,1033.00 ,1176.00 ,0.97 ,5858394900.00 
686.00 ,1016.00 ,443.00 ,184.00 ,238.00 ,1329.00 ,1042.00 ,1136.00 ,0.98 ,5878021700.00 
643.00 ,989.00 ,498.00 ,165.00 ,221.00 ,1302.00 ,1070.00 ,1104.00 ,0.98 ,5878107400.00 
644.00 ,1002.00 ,537.00 ,169.00 ,225.00 ,1294.00 ,1051.00 ,1049.00 ,0.98 ,5918043500.00 
636.00 ,1037.00 ,517.00 ,172.00 ,251.00 ,1274.00 ,1004.00 ,1002.00 ,0.97 ,5938376700.00 
547.00 ,1039.00 ,548.00 ,168.00 ,259.00 ,1294.00 ,938.00 ,1050.00 ,0.97 ,5938420300.00 
547.00 ,1007.00 ,544.00 ,157.00 ,251.00 ,1350.00 ,887.00 ,1024.00 ,0.95 ,5978656500.00 
519.00 ,987.00 ,510.00 ,160.00 ,250.00 ,1322.00 ,878.00 ,1005.00 ,0.94 ,5998519400.00 
495.00 ,939.00 ,523.00 ,152.00 ,237.00 ,1267.00 ,806.00 ,943.00 ,0.94 ,5998531900.00 
444.00 ,869.00 ,515.00 ,137.00 ,189.00 ,1221.00 ,794.00 ,877.00 ,0.92 ,6038431500.00 
437.00 ,725.00 ,456.00 ,127.00 ,159.00 ,1107.00 ,751.00 ,815.00 ,0.91 ,6058424200.00 
320.00 ,669.00 ,444.00 ,110.00 ,115.00 ,943.00 ,726.00 ,697.00 ,0.90 ,6078059000.00 
275.00 ,590.00 ,441.00 ,102.00 ,86.00 ,803.00 ,619.00 ,560.00 ,0.89 ,6098069400.00 
245.00 ,494.00 ,469.00 ,137.00 ,91.00 ,872.00 ,601.00 ,512.00 ,0.88 ,6117816600.00 
249.00 ,409.00 ,490.00 ,151.00 ,103.00 ,866.00 ,501.00 ,486.00 ,0.87 ,6137356700.00 
214.00 ,387.00 ,519.00 ,163.00 ,91.00 ,768.00 ,340.00 ,266.00 ,0.86 ,6158077200.00 
201.00 ,352.00 ,535.00 ,176.00 ,88.00 ,725.00 ,275.00 ,239.00 ,0.85 ,6178347100.00 
191.00 ,368.00 ,570.00 ,185.00 ,83.00 ,661.00 ,251.00 ,204.00 ,0.84 ,6198133800.00 
168.00 ,383.00 ,484.00 ,159.00 ,76.00 ,668.00 ,158.00 ,151.00 ,0.83 ,6218150900.00 
158.00 ,407.00 ,596.00 ,186.00 ,54.00 ,558.00 ,160.00 ,140.00 ,0.82 ,6237747300.00 
160.00 ,392.00 ,658.00 ,187.00 ,49.00 ,559.00 ,213.00 ,85.00 ,0.81 ,6257745100.00 
182.00 ,458.00 ,642.00 ,179.00 ,48.00 ,548.00 ,212.00 ,77.00 ,0.80 ,6277502400.00 
193.00 ,475.00 ,620.00 ,187.00 ,54.00 ,625.00 ,218.00 ,72.00 ,0.79 ,6298291700.00 
186.00 ,459.00 ,639.00 ,179.00 ,54.00 ,494.00 ,257.00 ,125.00 ,0.78 ,6318162000.00 
190.00 ,448.00 ,612.00 ,156.00 ,53.00 ,434.00 ,248.00 ,120.00 ,0.77 ,6337739300.00 
193.00 ,448.00 ,560.00 ,153.00 ,58.00 ,425.00 ,202.00 ,121.00 ,0.76 ,6357825500.00 
196.00 ,448.00 ,601.00 ,146.00 ,59.00 ,494.00 ,213.00 ,120.00 ,0.75 ,6377911600.00 
181.00 ,391.00 ,714.00 ,122.00 ,68.00 ,545.00 ,245.00 ,126.00 ,0.74 ,6398200700.00 
190.00 ,416.00 ,708.00 ,122.00 ,64.00 ,512.00 ,211.00 ,85.00 ,0.73 ,6417944800.00 
191.00 ,408.00 ,645.00 ,113.00 ,66.00 ,510.00 ,206.00 ,87.00 ,0.72 ,6438264700.00 
246.00 ,398.00 ,704.00 ,137.00 ,73.00 ,508.00 ,202.00 ,90.00 ,0.71 ,6458430200.00 
239.00 ,297.00 ,790.00 ,151.00 ,76.00 ,553.00 ,192.00 ,94.00 ,0.70 ,6478144600.00 
292.00 ,311.00 ,691.00 ,150.00 ,63.00 ,438.00 ,213.00 ,88.00 ,0.69 ,6498541300.00 
366.00 ,325.00 ,707.00 ,156.00 ,64.00 ,436.00 ,211.00 ,90.00 ,0.68 ,6520229200.00 
396.00 ,355.00 ,724.00 ,152.00 ,72.00 ,439.00 ,214.00 ,89.00 ,0.67 ,6538033200.00 
362.00 ,352.00 ,664.00 ,127.00 ,64.00 ,468.00 ,219.00 ,84.00 ,0.66 ,6557824300.00 
359.00 ,384.00 ,547.00 ,112.00 ,65.00 ,423.00 ,224.00 ,83.00 ,0.65 ,6577486600.00 
326.00 ,424.00 ,570.00 ,110.00 ,65.00 ,402.00 ,157.00 ,77.00 ,0.64 ,6597310800.00 
236.00 ,398.00 ,564.00 ,112.00 ,64.00 ,392.00 ,149.00 ,58.00 ,0.63 ,6617395600.00 
182.00 ,388.00 ,558.00 ,106.00 ,51.00 ,385.00 ,136.00 ,52.00 ,0.62 ,6637525900.00 
169.00 ,390.00 ,619.00 ,105.00 ,54.00 ,400.00 ,137.00 ,49.00 ,0.61 ,6658365400.00 
152.00 ,382.00 ,637.00 ,110.00 ,53.00 ,426.00 ,144.00 ,42.00 ,0.60 ,6678594500.00 
148.00 ,362.00 ,645.00 ,107.00 ,54.00 ,425.00 ,122.00 ,47.00 ,0.59 ,6699159900.00 
156.00 ,358.00 ,656.00 ,93.00 ,53.00 ,424.00 ,117.00 ,49.00 ,0.58 ,6719218500.00 
145.00 ,358.00 ,658.00 ,94.00 ,56.00 ,426.00 ,121.00 ,49.00 ,0.57 ,6739186400.00 
139.00 ,356.00 ,618.00 ,79.00 ,50.00 ,384.00 ,128.00 ,50.00 ,0.56 ,6759511600.00 
135.00 ,354.00 ,673.00 ,87.00 ,44.00 ,259.00 ,114.00 ,49.00 ,0.55 ,6777660300.00 
117.00 ,338.00 ,670.00 ,103.00 ,44.00 ,231.00 ,114.00 ,42.00 ,0.54 ,6797350100.00 
107.00 ,379.00 ,721.00 ,126.00 ,49.00 ,228.00 ,116.00 ,44.00 ,0.53 ,6819546500.00 
103.00 ,388.00 ,747.00 ,129.00 ,49.00 ,258.00 ,119.00 ,46.00 ,0.52 ,6839579300.00 
101.00 ,381.00 ,728.00 ,130.00 ,46.00 ,269.00 ,97.00 ,45.00 ,0.51 ,6859450000.00 
103.00 ,359.00 ,672.00 ,131.00 ,48.00 ,294.00 ,82.00 ,47.00 ,0.50 ,6879348100.00 
117.00 ,369.00 ,630.00 ,121.00 ,46.00 ,294.00 ,76.00 ,46.00 ,0.49 ,6899441400.00 
104.00 ,359.00 ,686.00 ,146.00 ,42.00 ,296.00 ,74.00 ,43.00 ,0.48 ,6919132200.00 
97.00 ,314.00 ,650.00 ,147.00 ,37.00 ,283.00 ,70.00 ,41.00 ,0.47 ,6939357000.00 
98.00 ,317.00 ,637.00 ,158.00 ,41.00 ,305.00 ,97.00 ,43.00 ,0.46 ,6958648300.00 
99.00 ,309.00 ,632.00 ,159.00 ,40.00 ,284.00 ,94.00 ,39.00 ,0.45 ,6979040300.00 
92.00 ,307.00 ,715.00 ,167.00 ,47.00 ,279.00 ,94.00 ,44.00 ,0.44 ,6998994600.00 
91.00 ,262.00 ,645.00 ,138.00 ,49.00 ,282.00 ,94.00 ,44.00 ,0.43 ,7018777200.00 
97.00 ,297.00 ,718.00 ,140.00 ,50.00 ,285.00 ,92.00 ,44.00 ,0.42 ,7038426400.00 
111.00 ,314.00 ,731.00 ,133.00 ,50.00 ,295.00 ,64.00 ,40.00 ,0.41 ,7058323800.00 
111.00 ,337.00 ,818.00 ,126.00 ,52.00 ,264.00 ,61.00 ,42.00 ,0.40 ,7077676600.00 
108.00 ,319.00 ,778.00 ,129.00 ,51.00 ,271.00 ,63.00 ,40.00 ,0.39 ,7097548600.00 
113.00 ,317.00 ,790.00 ,138.00 ,56.00 ,281.00 ,73.00 ,39.00 ,0.38 ,7117546300.00 
116.00 ,404.00 ,793.00 ,174.00 ,68.00 ,282.00 ,87.00 ,44.00 ,0.37 ,7137777400.00 
103.00 ,387.00 ,765.00 ,174.00 ,66.00 ,332.00 ,92.00 ,45.00 ,0.36 ,7158089500.00 
103.00 ,389.00 ,665.00 ,177.00 ,70.00 ,336.00 ,103.00 ,47.00 ,0.35 ,7178212200.00 
88.00 ,379.00 ,689.00 ,175.00 ,67.00 ,353.00 ,118.00 ,44.00 ,0.34 ,7197825400.00 
107.00 ,388.00 ,637.00 ,167.00 ,62.00 ,348.00 ,111.00 ,44.00 ,0.33 ,7217541600.00 
102.00 ,297.00 ,687.00 ,129.00 ,49.00 ,334.00 ,98.00 ,38.00 ,0.32 ,7237723200.00 
104.00 ,303.00 ,787.00 ,143.00 ,53.00 ,261.00 ,107.00 ,37.00 ,0.31 ,7257791000.00 
111.00 ,302.00 ,830.00 ,148.00 ,60.00 ,343.00 ,107.00 ,48.00 ,0.30 ,7277762100.00 
120.00 ,303.00 ,808.00 ,162.00 ,61.00 ,330.00 ,89.00 ,49.00 ,0.29 ,7297848200.00 
96.00 ,291.00 ,857.00 ,168.00 ,63.00 ,321.00 ,91.00 ,48.00 ,0.28 ,7318232300.00 
96.00 ,262.00 ,804.00 ,161.00 ,62.00 ,315.00 ,92.00 ,49.00 ,0.27 ,7337808000.00 
97.00 ,266.00 ,767.00 ,151.00 ,59.00 ,309.00 ,117.00 ,124.00 ,0.26 ,7358421500.00 
86.00 ,256.00 ,816.00 ,179.00 ,62.00 ,247.00 ,152.00 ,138.00 ,0.25 ,7378444300.00 
72.00 ,246.00 ,817.00 ,172.00 ,60.00 ,249.00 ,159.00 ,142.00 ,0.24 ,7398092000.00 
106.00 ,346.00 ,839.00 ,216.00 ,68.00 ,251.00 ,161.00 ,143.00 ,0.23 ,7418216300.00 
109.00 ,379.00 ,808.00 ,221.00 ,68.00 ,256.00 ,164.00 ,145.00 ,0.22 ,7438601800.00 
124.00 ,398.00 ,783.00 ,244.00 ,74.00 ,355.00 ,164.00 ,97.00 ,0.21 ,7458466700.00 
135.00 ,431.00 ,778.00 ,269.00 ,74.00 ,347.00 ,127.00 ,73.00 ,0.20 ,7478444400.00 
141.00 ,514.00 ,1037.00 ,276.00 ,84.00 ,337.00 ,127.00 ,69.00 ,0.19 ,7498353900.00 
130.00 ,484.00 ,1064.00 ,262.00 ,80.00 ,344.00 ,128.00 ,71.00 ,0.18 ,7518486200.00 
127.00 ,508.00 ,1095.00 ,306.00 ,93.00 ,365.00 ,131.00 ,68.00 ,0.17 ,7538103800.00 
133.00 ,583.00 ,1216.00 ,309.00 ,100.00 ,277.00 ,109.00 ,71.00 ,0.16 ,7558292000.00 
142.00 ,625.00 ,1210.00 ,284.00 ,103.00 ,245.00 ,105.00 ,77.00 ,0.15 ,7578383500.00 
152.00 ,628.00 ,1003.00 ,333.00 ,113.00 ,246.00 ,96.00 ,78.00 ,0.14 ,7598247200.00 
157.00 ,677.00 ,984.00 ,372.00 ,130.00 ,245.00 ,100.00 ,82.00 ,0.13 ,7617570000.00 
195.00 ,711.00 ,947.00 ,385.00 ,145.00 ,225.00 ,105.00 ,112.00 ,0.12 ,7637518100.00 
185.00 ,675.00 ,873.00 ,384.00 ,141.00 ,192.00 ,95.00 ,136.00 ,0.11 ,7657638800.00 
175.00 ,622.00 ,921.00 ,397.00 ,134.00 ,180.00 ,94.00 ,147.00 ,0.10 ,7677836500.00 
174.00 ,634.00 ,1018.00 ,380.00 ,122.00 ,173.00 ,105.00 ,149.00 ,0.09 ,7697804400.00 
206.00 ,682.00 ,1022.00 ,377.00 ,121.00 ,159.00 ,103.00 ,155.00 ,0.08 ,7718142100.00 
224.00 ,748.00 ,1189.00 ,439.00 ,148.00 ,130.00 ,102.00 ,160.00 ,0.07 ,7737650800.00 
249.00 ,862.00 ,1167.00 ,477.00 ,168.00 ,105.00 ,104.00 ,164.00 ,0.06 ,7757550500.00 
264.00 ,970.00 ,1156.00 ,533.00 ,200.00 ,112.00 ,109.00 ,157.00 ,0.05 ,7777457200.00 
294.00 ,973.00 ,1144.00 ,568.00 ,214.00 ,119.00 ,104.00 ,168.00 ,0.04 ,7797173000.00 
269.00 ,924.00 ,1154.00 ,546.00 ,212.00 ,114.00 ,99.00 ,160.00 ,0.03 ,7819558900.00 
279.00 ,907.00 ,1044.00 ,545.00 ,219.00 ,126.00 ,96.00 ,156.00 ,0.02 ,7839171800.00 
302.00 ,878.00 ,1077.00 ,560.00 ,222.00 ,118.00 ,97.00 ,145.00 ,0.01 ,7859409500.00 
304.00 ,832.00 ,1022.00 ,572.00 ,212.00 ,118.00 ,94.00 ,145.00 ,0.00 ,7879096700.00 
316.00 ,860.00 ,1000.00 ,596.00 ,230.00 ,117.00 ,90.00 ,149.00 ,0.01 ,7898989200.00 
335.00 ,907.00 ,1029.00 ,648.00 ,242.00 ,116.00 ,94.00 ,156.00 ,0.02 ,7918813500.00 
351.00 ,937.00 ,1007.00 ,697.00 ,245.00 ,119.00 ,90.00 ,159.00 ,0.03 ,7938735900.00 
358.00 ,883.00 ,945.00 ,735.00 ,254.00 ,133.00 ,94.00 ,162.00 ,0.04 ,7958422000.00 
382.00 ,909.00 ,978.00 ,716.00 ,258.00 ,150.00 ,130.00 ,208.00 ,0.05 ,7979439800.00 
364.00 ,889.00 ,999.00 ,696.00 ,243.00 ,155.00 ,148.00 ,204.00 ,0.06 ,7999385400.00 
368.00 ,904.00 ,1067.00 ,660.00 ,238.00 ,154.00 ,148.00 ,206.00 ,0.07 ,8019440900.00 
322.00 ,781.00 ,1134.00 ,544.00 ,210.00 ,441.00 ,286.00 ,320.00 ,0.08 ,8038826800.00 
273.00 ,755.00 ,1124.00 ,426.00 ,187.00 ,662.00 ,357.00 ,491.00 ,0.09 ,8058611800.00 
239.00 ,699.00 ,1125.00 ,384.00 ,196.00 ,840.00 ,543.00 ,572.00 ,0.10 ,8078413200.00 
246.00 ,664.00 ,1103.00 ,314.00 ,197.00 ,884.00 ,565.00 ,596.00 ,0.11 ,8098179000.00 
219.00 ,526.00 ,909.00 ,273.00 ,182.00 ,982.00 ,664.00 ,709.00 ,0.12 ,8118100400.00 
217.00 ,528.00 ,726.00 ,254.00 ,192.00 ,1036.00 ,735.00 ,845.00 ,0.13 ,8138121500.00 
228.00 ,518.00 ,759.00 ,259.00 ,195.00 ,1050.00 ,816.00 ,924.00 ,0.14 ,8159726200.00 
237.00 ,484.00 ,792.00 ,218.00 ,162.00 ,942.00 ,726.00 ,1004.00 ,0.15 ,8177605500.00 
215.00 ,431.00 ,705.00 ,184.00 ,144.00 ,964.00 ,764.00 ,1070.00 ,0.16 ,8197706200.00 
223.00 ,417.00 ,693.00 ,177.00 ,145.00 ,950.00 ,774.00 ,1036.00 ,0.17 ,8217469900.00 
240.00 ,497.00 ,710.00 ,185.00 ,120.00 ,808.00 ,774.00 ,981.00 ,0.18 ,8239539000.00 
257.00 ,533.00 ,647.00 ,218.00 ,111.00 ,654.00 ,880.00 ,877.00 ,0.19 ,8257325500.00 
242.00 ,554.00 ,445.00 ,200.00 ,102.00 ,640.00 ,911.00 ,783.00 ,0.20 ,8279648100.00 
243.00 ,557.00 ,371.00 ,202.00 ,109.00 ,701.00 ,938.00 ,782.00 ,0.21 ,8297440400.00 
232.00 ,553.00 ,411.00 ,194.00 ,109.00 ,624.00 ,898.00 ,767.00 ,0.22 ,8317502800.00 
210.00 ,574.00 ,503.00 ,212.00 ,105.00 ,632.00 ,814.00 ,712.00 ,0.23 ,8337185600.00 
191.00 ,558.00 ,480.00 ,166.00 ,90.00 ,643.00 ,574.00 ,685.00 ,0.24 ,8357393400.00 
177.00 ,478.00 ,490.00 ,166.00 ,102.00 ,742.00 ,571.00 ,774.00 ,0.25 ,8377239400.00 
160.00 ,451.00 ,498.00 ,158.00 ,89.00 ,658.00 ,527.00 ,770.00 ,0.26 ,8399465800.00 
172.00 ,513.00 ,548.00 ,155.00 ,81.00 ,630.00 ,523.00 ,742.00 ,0.27 ,8420121500.00 
181.00 ,579.00 ,628.00 ,169.00 ,86.00 ,612.00 ,512.00 ,702.00 ,0.28 ,8437900400.00 
171.00 ,588.00 ,660.00 ,172.00 ,93.00 ,567.00 ,624.00 ,724.00 ,0.29 ,8458408300.00 
172.00 ,593.00 ,652.00 ,166.00 ,85.00 ,501.00 ,599.00 ,617.00 ,0.30 ,8479267300.00 
176.00 ,593.00 ,646.00 ,167.00 ,79.00 ,478.00 ,617.00 ,594.00 ,0.31 ,8498499200.00 
162.00 ,608.00 ,612.00 ,189.00 ,82.00 ,466.00 ,576.00 ,664.00 ,0.32 ,8518153000.00 
146.00 ,472.00 ,566.00 ,144.00 ,72.00 ,443.00 ,594.00 ,689.00 ,0.33 ,8537906200.00 
137.00 ,405.00 ,578.00 ,138.00 ,59.00 ,437.00 ,465.00 ,657.00 ,0.34 ,8558060800.00 
144.00 ,391.00 ,578.00 ,140.00 ,55.00 ,351.00 ,467.00 ,696.00 ,0.35 ,8577966200.00 
140.00 ,398.00 ,578.00 ,139.00 ,59.00 ,321.00 ,441.00 ,642.00 ,0.36 ,8597864700.00 
134.00 ,292.00 ,553.00 ,107.00 ,54.00 ,358.00 ,500.00 ,568.00 ,0.37 ,8617920900.00 
128.00 ,250.00 ,553.00 ,97.00 ,49.00 ,359.00 ,496.00 ,529.00 ,0.38 ,8637757800.00 
136.00 ,290.00 ,502.00 ,85.00 ,45.00 ,361.00 ,503.00 ,574.00 ,0.39 ,8658449700.00 
141.00 ,310.00 ,506.00 ,80.00 ,45.00 ,362.00 ,479.00 ,569.00 ,0.40 ,8678351100.00 
144.00 ,326.00 ,506.00 ,84.00 ,50.00 ,369.00 ,405.00 ,600.00 ,0.41 ,8698674300.00 
152.00 ,384.00 ,517.00 ,82.00 ,54.00 ,341.00 ,385.00 ,625.00 ,0.42 ,8719702100.00 
151.00 ,364.00 ,388.00 ,86.00 ,53.00 ,338.00 ,366.00 ,627.00 ,0.43 ,8737500500.00 
151.00 ,392.00 ,389.00 ,80.00 ,52.00 ,356.00 ,375.00 ,611.00 ,0.44 ,8757463200.00 
161.00 ,401.00 ,390.00 ,83.00 ,54.00 ,402.00 ,485.00 ,613.00 ,0.45 ,8777879100.00 
172.00 ,431.00 ,407.00 ,91.00 ,49.00 ,398.00 ,529.00 ,593.00 ,0.46 ,8797990700.00 
206.00 ,387.00 ,425.00 ,98.00 ,47.00 ,412.00 ,504.00 ,633.00 ,0.47 ,8817944800.00 
224.00 ,403.00 ,629.00 ,106.00 ,50.00 ,418.00 ,503.00 ,664.00 ,0.48 ,8837838300.00 
220.00 ,345.00 ,653.00 ,106.00 ,52.00 ,399.00 ,507.00 ,659.00 ,0.49 ,8857828000.00 
202.00 ,322.00 ,660.00 ,105.00 ,46.00 ,333.00 ,430.00 ,620.00 ,0.50 ,8878214600.00 
191.00 ,388.00 ,655.00 ,97.00 ,43.00 ,403.00 ,409.00 ,608.00 ,0.51 ,8898499100.00 
147.00 ,375.00 ,640.00 ,102.00 ,47.00 ,413.00 ,421.00 ,600.00 ,0.52 ,8918489600.00 
138.00 ,364.00 ,384.00 ,77.00 ,42.00 ,422.00 ,466.00 ,596.00 ,0.53 ,8938858100.00 
159.00 ,442.00 ,353.00 ,77.00 ,44.00 ,437.00 ,509.00 ,587.00 ,0.54 ,8957352200.00 
158.00 ,457.00 ,346.00 ,76.00 ,43.00 ,463.00 ,507.00 ,596.00 ,0.55 ,8978366500.00 
179.00 ,379.00 ,370.00 ,86.00 ,44.00 ,378.00 ,495.00 ,644.00 ,0.56 ,8998335100.00 
201.00 ,464.00 ,442.00 ,93.00 ,40.00 ,351.00 ,529.00 ,638.00 ,0.57 ,9018124800.00 
199.00 ,468.00 ,507.00 ,97.00 ,41.00 ,353.00 ,515.00 ,619.00 ,0.58 ,9037786900.00 
190.00 ,431.00 ,483.00 ,96.00 ,42.00 ,408.00 ,562.00 ,651.00 ,0.59 ,9057445900.00 
190.00 ,427.00 ,468.00 ,97.00 ,46.00 ,368.00 ,556.00 ,674.00 ,0.60 ,9079488100.00 
170.00 ,455.00 ,446.00 ,86.00 ,44.00 ,372.00 ,551.00 ,613.00 ,0.61 ,9099670600.00 
148.00 ,385.00 ,410.00 ,74.00 ,48.00 ,382.00 ,510.00 ,575.00 ,0.62 ,9119763000.00 
139.00 ,407.00 ,349.00 ,73.00 ,50.00 ,405.00 ,482.00 ,557.00 ,0.63 ,9140002700.00 
139.00 ,394.00 ,339.00 ,72.00 ,49.00 ,429.00 ,359.00 ,523.00 ,0.64 ,9157656700.00 
142.00 ,388.00 ,341.00 ,73.00 ,51.00 ,455.00 ,399.00 ,507.00 ,0.65 ,9177594700.00 
170.00 ,349.00 ,351.00 ,72.00 ,58.00 ,484.00 ,430.00 ,576.00 ,0.66 ,9197588300.00 
184.00 ,339.00 ,378.00 ,83.00 ,62.00 ,508.00 ,511.00 ,691.00 ,0.67 ,9217451900.00 
180.00 ,370.00 ,391.00 ,83.00 ,64.00 ,491.00 ,533.00 ,704.00 ,0.68 ,9237570900.00 
171.00 ,372.00 ,408.00 ,83.00 ,66.00 ,507.00 ,543.00 ,721.00 ,0.69 ,9257311600.00 
180.00 ,399.00 ,404.00 ,84.00 ,71.00 ,571.00 ,538.00 ,764.00 ,0.70 ,9279228700.00 
157.00 ,418.00 ,392.00 ,81.00 ,64.00 ,567.00 ,532.00 ,695.00 ,0.71 ,9299298400.00 
166.00 ,510.00 ,299.00 ,55.00 ,62.00 ,707.00 ,506.00 ,608.00 ,0.72 ,9319106700.00 
173.00 ,486.00 ,296.00 ,56.00 ,65.00 ,755.00 ,553.00 ,654.00 ,0.73 ,9339158900.00 
191.00 ,501.00 ,306.00 ,65.00 ,62.00 ,770.00 ,656.00 ,625.00 ,0.74 ,9359467500.00 
205.00 ,575.00 ,310.00 ,65.00 ,56.00 ,724.00 ,653.00 ,581.00 ,0.75 ,9379096600.00 
214.00 ,597.00 ,346.00 ,72.00 ,69.00 ,856.00 ,784.00 ,619.00 ,0.76 ,9397200700.00 
201.00 ,547.00 ,359.00 ,76.00 ,64.00 ,810.00 ,799.00 ,661.00 ,0.77 ,9419449400.00 
202.00 ,562.00 ,315.00 ,71.00 ,63.00 ,828.00 ,772.00 ,698.00 ,0.78 ,9439136600.00 
206.00 ,656.00 ,356.00 ,66.00 ,66.00 ,792.00 ,767.00 ,705.00 ,0.79 ,9459147400.00 
206.00 ,726.00 ,362.00 ,65.00 ,64.00 ,814.00 ,750.00 ,686.00 ,0.80 ,9478401800.00 
216.00 ,728.00 ,346.00 ,60.00 ,54.00 ,823.00 ,620.00 ,703.00 ,0.81 ,9498311400.00 
211.00 ,723.00 ,313.00 ,51.00 ,57.00 ,860.00 ,623.00 ,701.00 ,0.82 ,9517921200.00 
219.00 ,825.00 ,324.00 ,54.00 ,55.00 ,846.00 ,648.00 ,705.00 ,0.83 ,9537760000.00 
222.00 ,790.00 ,254.00 ,57.00 ,69.00 ,1011.00 ,604.00 ,756.00 ,0.84 ,9557460100.00 
231.00 ,682.00 ,249.00 ,59.00 ,79.00 ,1068.00 ,671.00 ,790.00 ,0.85 ,9579586700.00 
228.00 ,685.00 ,215.00 ,61.00 ,88.00 ,1047.00 ,754.00 ,834.00 ,0.86 ,9597676200.00 
232.00 ,743.00 ,195.00 ,65.00 ,91.00 ,1069.00 ,850.00 ,897.00 ,0.87 ,9617593500.00 
291.00 ,632.00 ,179.00 ,69.00 ,104.00 ,1115.00 ,907.00 ,843.00 ,0.88 ,9637575900.00 
346.00 ,732.00 ,183.00 ,73.00 ,112.00 ,1122.00 ,971.00 ,891.00 ,0.89 ,9659465300.00 
347.00 ,758.00 ,192.00 ,75.00 ,116.00 ,1180.00 ,936.00 ,862.00 ,0.90 ,9677478500.00 
363.00 ,806.00 ,283.00 ,91.00 ,124.00 ,1189.00 ,981.00 ,858.00 ,0.91 ,9697574500.00 
369.00 ,826.00 ,317.00 ,92.00 ,127.00 ,1236.00 ,998.00 ,847.00 ,0.92 ,9717574700.00 
480.00 ,869.00 ,344.00 ,119.00 ,174.00 ,1293.00 ,1001.00 ,935.00 ,0.94 ,9759663400.00 
479.00 ,815.00 ,367.00 ,123.00 ,185.00 ,1322.00 ,1036.00 ,925.00 ,0.94 ,9759677300.00 
601.00 ,888.00 ,403.00 ,139.00 ,208.00 ,1312.00 ,1101.00 ,1005.00 ,0.95 ,9777685900.00 
640.00 ,958.00 ,390.00 ,154.00 ,236.00 ,1405.00 ,1033.00 ,995.00 ,0.96 ,9797975300.00 
659.00 ,970.00 ,396.00 ,166.00 ,255.00 ,1362.00 ,981.00 ,1018.00 ,0.97 ,9817371700.00 
608.00 ,1011.00 ,400.00 ,167.00 ,271.00 ,1364.00 ,1003.00 ,994.00 ,0.98 ,9837557100.00 
589.00 ,1009.00 ,391.00 ,173.00 ,287.00 ,1398.00 ,918.00 ,946.00 ,0.99 ,9857325600.00 
549.00 ,1026.00 ,378.00 ,178.00 ,299.00 ,1374.00 ,901.00 ,935.00 ,0.98 ,9877610300.00 
550.00 ,931.00 ,399.00 ,159.00 ,278.00 ,1327.00 ,923.00 ,931.00 ,0.97 ,9898036600.00 
575.00 ,917.00 ,432.00 ,154.00 ,265.00 ,1301.00 ,872.00 ,928.00 ,0.96 ,9917998600.00 
568.00 ,867.00 ,406.00 ,135.00 ,222.00 ,1306.00 ,848.00 ,992.00 ,0.95 ,9938345000.00 
600.00 ,859.00 ,429.00 ,127.00 ,199.00 ,1134.00 ,871.00 ,1107.00 ,0.94 ,9957572500.00 
558.00 ,808.00 ,572.00 ,127.00 ,155.00 ,1168.00 ,817.00 ,1041.00 ,0.93 ,9977564300.00 
512.00 ,823.00 ,556.00 ,132.00 ,154.00 ,1154.00 ,765.00 ,1022.00 ,0.92 ,9997409300.00 
454.00 ,758.00 ,525.00 ,122.00 ,140.00 ,1132.00 ,745.00 ,919.00 ,0.91 ,10017574700.00 
394.00 ,800.00 ,532.00 ,119.00 ,132.00 ,1072.00 ,645.00 ,935.00 ,0.90 ,10037737000.00 
333.00 ,814.00 ,512.00 ,112.00 ,116.00 ,1119.00 ,649.00 ,778.00 ,0.89 ,10057496400.00 
267.00 ,748.00 ,310.00 ,74.00 ,106.00 ,1100.00 ,586.00 ,731.00 ,0.88 ,10077279500.00 
229.00 ,679.00 ,421.00 ,103.00 ,95.00 ,1021.00 ,531.00 ,689.00 ,0.87 ,10099490900.00 
214.00 ,660.00 ,467.00 ,113.00 ,102.00 ,1031.00 ,476.00 ,656.00 ,0.86 ,10119104400.00 
201.00 ,519.00 ,492.00 ,118.00 ,99.00 ,1025.00 ,450.00 ,361.00 ,0.85 ,10139500700.00 
180.00 ,426.00 ,512.00 ,119.00 ,87.00 ,992.00 ,219.00 ,249.00 ,0.84 ,10159133600.00 
168.00 ,377.00 ,600.00 ,121.00 ,86.00 ,865.00 ,204.00 ,207.00 ,0.83 ,10178565200.00 
170.00 ,423.00 ,569.00 ,93.00 ,78.00 ,771.00 ,166.00 ,158.00 ,0.82 ,10198495900.00 
165.00 ,412.00 ,584.00 ,103.00 ,68.00 ,748.00 ,171.00 ,139.00 ,0.81 ,10218449900.00 
172.00 ,493.00 ,659.00 ,98.00 ,53.00 ,708.00 ,159.00 ,107.00 ,0.79 ,10258409100.00 
161.00 ,437.00 ,662.00 ,104.00 ,52.00 ,591.00 ,149.00 ,78.00 ,0.79 ,10258422500.00 
140.00 ,474.00 ,585.00 ,102.00 ,47.00 ,576.00 ,151.00 ,72.00 ,0.78 ,10278421000.00 
128.00 ,451.00 ,554.00 ,112.00 ,49.00 ,561.00 ,145.00 ,65.00 ,0.77 ,10299528400.00 
130.00 ,484.00 ,568.00 ,93.00 ,48.00 ,480.00 ,126.00 ,66.00 ,0.76 ,10318239600.00 
174.00 ,449.00 ,474.00 ,90.00 ,42.00 ,406.00 ,106.00 ,57.00 ,0.75 ,10338009100.00 
167.00 ,466.00 ,512.00 ,86.00 ,41.00 ,436.00 ,116.00 ,54.00 ,0.74 ,10359644800.00 
160.00 ,442.00 ,563.00 ,98.00 ,40.00 ,424.00 ,110.00 ,42.00 ,0.73 ,10377474300.00 
199.00 ,454.00 ,605.00 ,113.00 ,42.00 ,419.00 ,109.00 ,41.00 ,0.72 ,10397403500.00 
201.00 ,425.00 ,568.00 ,130.00 ,51.00 ,387.00 ,100.00 ,34.00 ,0.71 ,10417259100.00 
161.00 ,401.00 ,578.00 ,135.00 ,60.00 ,339.00 ,92.00 ,37.00 ,0.70 ,10439660000.00 
162.00 ,406.00 ,583.00 ,132.00 ,63.00 ,326.00 ,86.00 ,66.00 ,0.68 ,10477251800.00 
165.00 ,412.00 ,574.00 ,128.00 ,64.00 ,326.00 ,83.00 ,67.00 ,0.68 ,10477265100.00 
134.00 ,380.00 ,523.00 ,110.00 ,63.00 ,330.00 ,83.00 ,68.00 ,0.67 ,10499648800.00 
132.00 ,374.00 ,628.00 ,96.00 ,57.00 ,324.00 ,82.00 ,70.00 ,0.66 ,10519403700.00 
117.00 ,361.00 ,700.00 ,95.00 ,49.00 ,389.00 ,89.00 ,70.00 ,0.65 ,10539114600.00 
112.00 ,352.00 ,789.00 ,112.00 ,48.00 ,382.00 ,98.00 ,47.00 ,0.64 ,10559211800.00 
109.00 ,350.00 ,846.00 ,127.00 ,54.00 ,384.00 ,101.00 ,47.00 ,0.63 ,10578686600.00 
99.00 ,329.00 ,854.00 ,121.00 ,49.00 ,383.00 ,103.00 ,44.00 ,0.62 ,10598971100.00 
118.00 ,330.00 ,796.00 ,121.00 ,47.00 ,377.00 ,109.00 ,45.00 ,0.61 ,10619139900.00 
117.00 ,323.00 ,806.00 ,124.00 ,50.00 ,282.00 ,100.00 ,47.00 ,0.60 ,10639502200.00 
123.00 ,305.00 ,704.00 ,124.00 ,52.00 ,252.00 ,93.00 ,45.00 ,0.59 ,10659402800.00 
145.00 ,305.00 ,696.00 ,123.00 ,49.00 ,256.00 ,89.00 ,44.00 ,0.58 ,10677511200.00 
140.00 ,324.00 ,736.00 ,121.00 ,50.00 ,251.00 ,102.00 ,44.00 ,0.57 ,10697515000.00 
124.00 ,315.00 ,708.00 ,117.00 ,55.00 ,330.00 ,108.00 ,43.00 ,0.56 ,10717527700.00 
126.00 ,328.00 ,642.00 ,114.00 ,53.00 ,319.00 ,114.00 ,67.00 ,0.55 ,10737462800.00 
117.00 ,335.00 ,664.00 ,105.00 ,46.00 ,300.00 ,105.00 ,66.00 ,0.54 ,10759516300.00 
107.00 ,292.00 ,575.00 ,85.00 ,42.00 ,288.00 ,103.00 ,67.00 ,0.53 ,10777451600.00 
102.00 ,274.00 ,541.00 ,88.00 ,45.00 ,294.00 ,90.00 ,66.00 ,0.52 ,10799567500.00 
108.00 ,282.00 ,576.00 ,99.00 ,47.00 ,267.00 ,88.00 ,66.00 ,0.51 ,10819325900.00 
98.00 ,268.00 ,641.00 ,106.00 ,47.00 ,236.00 ,71.00 ,40.00 ,0.50 ,10839305800.00 
104.00 ,259.00 ,709.00 ,113.00 ,55.00 ,257.00 ,75.00 ,44.00 ,0.49 ,10858852100.00 
89.00 ,286.00 ,772.00 ,117.00 ,56.00 ,269.00 ,76.00 ,42.00 ,0.48 ,10879019800.00 
118.00 ,306.00 ,870.00 ,134.00 ,55.00 ,267.00 ,84.00 ,44.00 ,0.47 ,10903137000.00 
114.00 ,326.00 ,871.00 ,129.00 ,49.00 ,319.00 ,98.00 ,46.00 ,0.46 ,10918399300.00 
116.00 ,352.00 ,834.00 ,120.00 ,50.00 ,322.00 ,97.00 ,44.00 ,0.45 ,10939142800.00 
113.00 ,366.00 ,745.00 ,121.00 ,44.00 ,320.00 ,96.00 ,40.00 ,0.44 ,10957481100.00 
115.00 ,341.00 ,713.00 ,121.00 ,52.00 ,356.00 ,99.00 ,42.00 ,0.42 ,10997416600.00 
102.00 ,347.00 ,611.00 ,111.00 ,51.00 ,359.00 ,92.00 ,42.00 ,0.42 ,10997433000.00 
105.00 ,328.00 ,570.00 ,113.00 ,52.00 ,275.00 ,78.00 ,38.00 ,0.41 ,11017286300.00 
105.00 ,304.00 ,763.00 ,136.00 ,55.00 ,263.00 ,91.00 ,42.00 ,0.39 ,11057430700.00 
101.00 ,275.00 ,784.00 ,130.00 ,55.00 ,269.00 ,89.00 ,42.00 ,0.39 ,11057443700.00 
106.00 ,321.00 ,781.00 ,129.00 ,51.00 ,200.00 ,92.00 ,43.00 ,0.38 ,11077315600.00 
96.00 ,334.00 ,770.00 ,123.00 ,51.00 ,192.00 ,94.00 ,43.00 ,0.37 ,11099595700.00 
96.00 ,425.00 ,802.00 ,128.00 ,59.00 ,321.00 ,122.00 ,53.00 ,0.36 ,11119339500.00 
110.00 ,417.00 ,589.00 ,116.00 ,60.00 ,338.00 ,112.00 ,56.00 ,0.35 ,11137244300.00 
109.00 ,416.00 ,690.00 ,114.00 ,60.00 ,317.00 ,114.00 ,55.00 ,0.34 ,11159362500.00 
96.00 ,380.00 ,832.00 ,111.00 ,56.00 ,318.00 ,113.00 ,54.00 ,0.33 ,11178925800.00 
101.00 ,347.00 ,898.00 ,109.00 ,57.00 ,351.00 ,119.00 ,52.00 ,0.32 ,11199177700.00 
95.00 ,246.00 ,877.00 ,96.00 ,53.00 ,394.00 ,99.00 ,47.00 ,0.31 ,11218815900.00 
78.00 ,260.00 ,900.00 ,90.00 ,49.00 ,397.00 ,101.00 ,41.00 ,0.30 ,11238662700.00 
81.00 ,282.00 ,849.00 ,114.00 ,51.00 ,407.00 ,98.00 ,40.00 ,0.29 ,11258995500.00 
84.00 ,290.00 ,809.00 ,150.00 ,61.00 ,416.00 ,96.00 ,45.00 ,0.28 ,11278417800.00 
83.00 ,338.00 ,857.00 ,177.00 ,71.00 ,467.00 ,108.00 ,48.00 ,0.27 ,11298482400.00 
86.00 ,336.00 ,936.00 ,184.00 ,67.00 ,351.00 ,96.00 ,44.00 ,0.26 ,11318358500.00 
99.00 ,359.00 ,979.00 ,209.00 ,73.00 ,330.00 ,96.00 ,49.00 ,0.25 ,11338393500.00 
99.00 ,347.00 ,964.00 ,205.00 ,73.00 ,332.00 ,95.00 ,51.00 ,0.24 ,11358478700.00 
119.00 ,399.00 ,873.00 ,244.00 ,84.00 ,368.00 ,103.00 ,60.00 ,0.23 ,11378307900.00 
120.00 ,403.00 ,763.00 ,236.00 ,80.00 ,386.00 ,95.00 ,60.00 ,0.22 ,11398373200.00 
124.00 ,411.00 ,740.00 ,248.00 ,99.00 ,433.00 ,100.00 ,76.00 ,0.21 ,11418387700.00 
129.00 ,422.00 ,747.00 ,243.00 ,98.00 ,438.00 ,99.00 ,76.00 ,0.20 ,11438476200.00 
129.00 ,435.00 ,757.00 ,251.00 ,99.00 ,488.00 ,102.00 ,76.00 ,0.19 ,11458292200.00 
108.00 ,397.00 ,800.00 ,212.00 ,91.00 ,546.00 ,111.00 ,69.00 ,0.18 ,11477853100.00 
109.00 ,378.00 ,871.00 ,211.00 ,88.00 ,484.00 ,102.00 ,69.00 ,0.17 ,11498021500.00 
116.00 ,377.00 ,894.00 ,202.00 ,72.00 ,432.00 ,101.00 ,55.00 ,0.15 ,11537538100.00 
118.00 ,388.00 ,887.00 ,214.00 ,78.00 ,455.00 ,123.00 ,60.00 ,0.14 ,11557841800.00 
124.00 ,406.00 ,966.00 ,223.00 ,83.00 ,411.00 ,125.00 ,60.00 ,0.14 ,11557855300.00 
124.00 ,428.00 ,1095.00 ,226.00 ,101.00 ,437.00 ,113.00 ,67.00 ,0.12 ,11597471900.00 
125.00 ,448.00 ,1137.00 ,230.00 ,105.00 ,433.00 ,110.00 ,72.00 ,0.12 ,11597485500.00 
129.00 ,550.00 ,1111.00 ,235.00 ,103.00 ,436.00 ,100.00 ,72.00 ,0.11 ,11619364600.00 
123.00 ,594.00 ,1125.00 ,216.00 ,96.00 ,411.00 ,74.00 ,67.00 ,0.10 ,11639531200.00 
153.00 ,655.00 ,1091.00 ,263.00 ,104.00 ,476.00 ,104.00 ,71.00 ,0.09 ,11657373600.00 
193.00 ,750.00 ,1033.00 ,273.00 ,99.00 ,361.00 ,99.00 ,77.00 ,0.07 ,11699649300.00 
196.00 ,765.00 ,983.00 ,372.00 ,111.00 ,358.00 ,107.00 ,75.00 ,0.07 ,11699691400.00 
200.00 ,744.00 ,1037.00 ,469.00 ,135.00 ,351.00 ,109.00 ,83.00 ,0.06 ,11719483800.00 
240.00 ,790.00 ,1105.00 ,591.00 ,187.00 ,351.00 ,117.00 ,103.00 ,0.05 ,11739689000.00 
227.00 ,782.00 ,1166.00 ,601.00 ,187.00 ,261.00 ,85.00 ,101.00 ,0.04 ,11759668600.00 
209.00 ,738.00 ,1153.00 ,650.00 ,196.00 ,227.00 ,90.00 ,98.00 ,0.02 ,11797540100.00 
237.00 ,863.00 ,1191.00 ,675.00 ,210.00 ,202.00 ,87.00 ,109.00 ,0.02 ,11797553000.00 
294.00 ,1107.00 ,1183.00 ,703.00 ,230.00 ,211.00 ,93.00 ,120.00 ,0.01 ,11819338200.00 
283.00 ,1152.00 ,1201.00 ,644.00 ,211.00 ,202.00 ,98.00 ,117.00 ,0.01 ,11858835200.00 
316.00 ,1168.00 ,1191.00 ,724.00 ,262.00 ,145.00 ,108.00 ,137.00 ,0.01 ,11858848400.00 
330.00 ,1196.00 ,1138.00 ,752.00 ,261.00 ,178.00 ,113.00 ,151.00 ,0.02 ,11878566400.00 
371.00 ,1176.00 ,1150.00 ,809.00 ,285.00 ,193.00 ,121.00 ,163.00 ,0.04 ,11918315000.00 
378.00 ,987.00 ,1197.00 ,775.00 ,274.00 ,182.00 ,120.00 ,165.00 ,0.04 ,11918329200.00 
385.00 ,961.00 ,1102.00 ,763.00 ,267.00 ,404.00 ,134.00 ,188.00 ,0.05 ,11938819500.00 
363.00 ,916.00 ,1030.00 ,681.00 ,223.00 ,466.00 ,193.00 ,212.00 ,0.07 ,11979222400.00 
359.00 ,881.00 ,1098.00 ,601.00 ,219.00 ,630.00 ,241.00 ,249.00 ,0.07 ,11979235900.00 
315.00 ,821.00 ,973.00 ,417.00 ,174.00 ,730.00 ,511.00 ,362.00 ,0.08 ,11998624100.00 
260.00 ,798.00 ,825.00 ,337.00 ,164.00 ,811.00 ,725.00 ,518.00 ,0.10 ,12038485400.00 
232.00 ,692.00 ,759.00 ,288.00 ,157.00 ,925.00 ,819.00 ,648.00 ,0.10 ,12038513500.00 
259.00 ,673.00 ,673.00 ,216.00 ,149.00 ,1055.00 ,925.00 ,869.00 ,0.11 ,12058617000.00 
254.00 ,704.00 ,521.00 ,196.00 ,149.00 ,1042.00 ,993.00 ,927.00 ,0.13 ,12098794700.00 
247.00 ,664.00 ,649.00 ,194.00 ,144.00 ,1029.00 ,928.00 ,963.00 ,0.13 ,12098807600.00 
263.00 ,709.00 ,764.00 ,183.00 ,127.00 ,992.00 ,797.00 ,974.00 ,0.14 ,12118847000.00 
260.00 ,688.00 ,755.00 ,182.00 ,124.00 ,883.00 ,764.00 ,948.00 ,0.16 ,12159374200.00 
238.00 ,686.00 ,759.00 ,180.00 ,117.00 ,837.00 ,732.00 ,951.00 ,0.16 ,12159387700.00 
230.00 ,660.00 ,828.00 ,173.00 ,110.00 ,839.00 ,758.00 ,966.00 ,0.17 ,12179361300.00 
225.00 ,726.00 ,779.00 ,198.00 ,101.00 ,803.00 ,732.00 ,916.00 ,0.19 ,12219440900.00 
194.00 ,594.00 ,699.00 ,186.00 ,102.00 ,803.00 ,725.00 ,856.00 ,0.19 ,12219454200.00 
190.00 ,657.00 ,675.00 ,177.00 ,107.00 ,867.00 ,785.00 ,926.00 ,0.20 ,12239649600.00 
181.00 ,650.00 ,673.00 ,173.00 ,105.00 ,788.00 ,759.00 ,816.00 ,0.22 ,12279053400.00 
167.00 ,574.00 ,583.00 ,170.00 ,92.00 ,709.00 ,636.00 ,767.00 ,0.22 ,12279066400.00 
185.00 ,559.00 ,535.00 ,188.00 ,100.00 ,683.00 ,634.00 ,777.00 ,0.23 ,12299097400.00 
203.00 ,610.00 ,464.00 ,182.00 ,95.00 ,680.00 ,696.00 ,907.00 ,0.25 ,12338545800.00 
206.00 ,559.00 ,475.00 ,180.00 ,90.00 ,612.00 ,609.00 ,909.00 ,0.25 ,12338559100.00 
222.00 ,559.00 ,470.00 ,177.00 ,85.00 ,549.00 ,646.00 ,883.00 ,0.26 ,12358216700.00 
225.00 ,573.00 ,452.00 ,188.00 ,89.00 ,526.00 ,655.00 ,855.00 ,0.28 ,12398053000.00 
209.00 ,529.00 ,412.00 ,168.00 ,85.00 ,522.00 ,645.00 ,900.00 ,0.28 ,12398066600.00 
190.00 ,479.00 ,388.00 ,154.00 ,87.00 ,621.00 ,647.00 ,787.00 ,0.29 ,12418033600.00 
206.00 ,485.00 ,369.00 ,151.00 ,80.00 ,510.00 ,639.00 ,693.00 ,0.31 ,12458395000.00 
182.00 ,477.00 ,357.00 ,153.00 ,79.00 ,490.00 ,622.00 ,729.00 ,0.31 ,12458407900.00 
222.00 ,512.00 ,506.00 ,174.00 ,78.00 ,469.00 ,635.00 ,728.00 ,0.32 ,12478380900.00 
216.00 ,506.00 ,497.00 ,142.00 ,66.00 ,516.00 ,668.00 ,741.00 ,0.34 ,12518176500.00 
213.00 ,503.00 ,499.00 ,143.00 ,65.00 ,345.00 ,660.00 ,779.00 ,0.34 ,12518189100.00 
191.00 ,444.00 ,495.00 ,142.00 ,61.00 ,367.00 ,626.00 ,787.00 ,0.36 ,12557507000.00 
190.00 ,473.00 ,502.00 ,140.00 ,61.00 ,356.00 ,540.00 ,704.00 ,0.37 ,12577389300.00 
145.00 ,435.00 ,340.00 ,92.00 ,50.00 ,356.00 ,525.00 ,696.00 ,0.37 ,12577402600.00 
127.00 ,404.00 ,388.00 ,86.00 ,55.00 ,369.00 ,517.00 ,610.00 ,0.38 ,12599392000.00 
128.00 ,428.00 ,400.00 ,92.00 ,50.00 ,412.00 ,474.00 ,520.00 ,0.40 ,12639407900.00 
143.00 ,476.00 ,411.00 ,93.00 ,57.00 ,489.00 ,578.00 ,515.00 ,0.40 ,12639422800.00 
149.00 ,460.00 ,404.00 ,91.00 ,57.00 ,512.00 ,584.00 ,551.00 ,0.41 ,12659470000.00 
148.00 ,454.00 ,387.00 ,78.00 ,54.00 ,513.00 ,571.00 ,549.00 ,0.43 ,12698986900.00 
155.00 ,421.00 ,369.00 ,95.00 ,55.00 ,461.00 ,563.00 ,537.00 ,0.44 ,12718955200.00 
174.00 ,461.00 ,349.00 ,101.00 ,70.00 ,601.00 ,568.00 ,599.00 ,0.44 ,12718968100.00 
159.00 ,452.00 ,333.00 ,103.00 ,68.00 ,528.00 ,524.00 ,547.00 ,0.46 ,12758788300.00 
161.00 ,460.00 ,337.00 ,103.00 ,67.00 ,514.00 ,606.00 ,511.00 ,0.47 ,12779001700.00 
166.00 ,509.00 ,420.00 ,119.00 ,70.00 ,515.00 ,654.00 ,512.00 ,0.47 ,12779014800.00 
166.00 ,498.00 ,375.00 ,102.00 ,64.00 ,548.00 ,665.00 ,498.00 ,0.49 ,12818466600.00 
142.00 ,460.00 ,368.00 ,89.00 ,46.00 ,399.00 ,651.00 ,394.00 ,0.50 ,12838440400.00 
193.00 ,480.00 ,423.00 ,89.00 ,44.00 ,387.00 ,629.00 ,522.00 ,0.50 ,12838452400.00 
237.00 ,480.00 ,444.00 ,91.00 ,47.00 ,408.00 ,559.00 ,552.00 ,0.52 ,12878136700.00 
273.00 ,446.00 ,354.00 ,67.00 ,47.00 ,417.00 ,533.00 ,557.00 ,0.53 ,12897971700.00 
290.00 ,506.00 ,333.00 ,78.00 ,46.00 ,359.00 ,488.00 ,546.00 ,0.54 ,12917670500.00 
306.00 ,495.00 ,328.00 ,89.00 ,48.00 ,307.00 ,528.00 ,603.00 ,0.55 ,12939756700.00 
311.00 ,467.00 ,257.00 ,89.00 ,54.00 ,431.00 ,564.00 ,576.00 ,0.56 ,12957375300.00 
285.00 ,442.00 ,342.00 ,89.00 ,53.00 ,426.00 ,549.00 ,539.00 ,0.57 ,12977643600.00 
264.00 ,409.00 ,388.00 ,98.00 ,58.00 ,451.00 ,626.00 ,558.00 ,0.58 ,12997694700.00 
279.00 ,329.00 ,448.00 ,86.00 ,60.00 ,454.00 ,651.00 ,630.00 ,0.59 ,13019674200.00 
279.00 ,354.00 ,493.00 ,82.00 ,66.00 ,460.00 ,625.00 ,646.00 ,0.59 ,13019687500.00 
271.00 ,392.00 ,512.00 ,83.00 ,63.00 ,429.00 ,569.00 ,639.00 ,0.61 ,13059731200.00 
279.00 ,414.00 ,437.00 ,82.00 ,64.00 ,435.00 ,563.00 ,707.00 ,0.62 ,13079283100.00 
269.00 ,444.00 ,405.00 ,78.00 ,61.00 ,411.00 ,483.00 ,741.00 ,0.62 ,13079296100.00 
246.00 ,515.00 ,481.00 ,79.00 ,58.00 ,414.00 ,499.00 ,725.00 ,0.64 ,13119277700.00 
227.00 ,484.00 ,448.00 ,72.00 ,50.00 ,427.00 ,489.00 ,711.00 ,0.65 ,13139277500.00 
240.00 ,466.00 ,432.00 ,66.00 ,45.00 ,409.00 ,623.00 ,763.00 ,0.65 ,13139291400.00 
216.00 ,456.00 ,425.00 ,64.00 ,46.00 ,432.00 ,655.00 ,791.00 ,0.67 ,13179289800.00 
213.00 ,436.00 ,414.00 ,54.00 ,43.00 ,446.00 ,641.00 ,796.00 ,0.68 ,13199354200.00 
218.00 ,421.00 ,245.00 ,51.00 ,45.00 ,477.00 ,618.00 ,804.00 ,0.68 ,13199368900.00 
230.00 ,444.00 ,213.00 ,53.00 ,47.00 ,464.00 ,648.00 ,802.00 ,0.70 ,13239255000.00 
218.00 ,479.00 ,231.00 ,56.00 ,54.00 ,477.00 ,600.00 ,724.00 ,0.71 ,13258900600.00 
241.00 ,509.00 ,355.00 ,65.00 ,54.00 ,477.00 ,585.00 ,685.00 ,0.71 ,13258919500.00 
253.00 ,509.00 ,357.00 ,70.00 ,56.00 ,514.00 ,658.00 ,691.00 ,0.73 ,13299151600.00 
262.00 ,465.00 ,348.00 ,69.00 ,61.00 ,491.00 ,675.00 ,675.00 ,0.74 ,13318848200.00 
267.00 ,462.00 ,372.00 ,70.00 ,61.00 ,525.00 ,677.00 ,721.00 ,0.74 ,13318862700.00 
240.00 ,429.00 ,352.00 ,68.00 ,56.00 ,534.00 ,672.00 ,724.00 ,0.76 ,13357254000.00 
221.00 ,529.00 ,230.00 ,60.00 ,62.00 ,639.00 ,684.00 ,728.00 ,0.77 ,13377432000.00 
222.00 ,519.00 ,260.00 ,54.00 ,63.00 ,614.00 ,635.00 ,757.00 ,0.78 ,13397569200.00 
225.00 ,633.00 ,262.00 ,53.00 ,59.00 ,651.00 ,666.00 ,838.00 ,0.79 ,13419495000.00 
223.00 ,658.00 ,226.00 ,46.00 ,64.00 ,640.00 ,615.00 ,851.00 ,0.80 ,13439720300.00 
251.00 ,696.00 ,260.00 ,55.00 ,76.00 ,689.00 ,653.00 ,881.00 ,0.80 ,13439734500.00 
292.00 ,647.00 ,287.00 ,53.00 ,81.00 ,660.00 ,657.00 ,871.00 ,0.82 ,13477377700.00 
308.00 ,817.00 ,294.00 ,56.00 ,95.00 ,802.00 ,654.00 ,943.00 ,0.83 ,13497601600.00 
298.00 ,739.00 ,294.00 ,67.00 ,103.00 ,896.00 ,652.00 ,933.00 ,0.84 ,13517520100.00 
336.00 ,767.00 ,302.00 ,77.00 ,140.00 ,1064.00 ,761.00 ,931.00 ,0.85 ,13537378100.00 
332.00 ,782.00 ,283.00 ,78.00 ,160.00 ,1128.00 ,718.00 ,991.00 ,0.86 ,13559771200.00 
321.00 ,791.00 ,252.00 ,80.00 ,164.00 ,1174.00 ,759.00 ,994.00 ,0.86 ,13559786500.00 
291.00 ,675.00 ,213.00 ,77.00 ,159.00 ,1116.00 ,764.00 ,906.00 ,0.88 ,13599287600.00 
329.00 ,750.00 ,205.00 ,74.00 ,165.00 ,1103.00 ,768.00 ,859.00 ,0.89 ,13618426500.00 
311.00 ,708.00 ,209.00 ,70.00 ,132.00 ,1001.00 ,834.00 ,843.00 ,0.90 ,13638528000.00 
321.00 ,776.00 ,219.00 ,72.00 ,112.00 ,1065.00 ,872.00 ,739.00 ,0.91 ,13658186700.00 
313.00 ,762.00 ,217.00 ,72.00 ,104.00 ,1063.00 ,880.00 ,812.00 ,0.92 ,13678289200.00 
388.00 ,750.00 ,207.00 ,80.00 ,119.00 ,1129.00 ,969.00 ,891.00 ,0.93 ,13698198700.00 
467.00 ,795.00 ,224.00 ,105.00 ,190.00 ,1189.00 ,1011.00 ,896.00 ,0.94 ,13717581100.00 
538.00 ,859.00 ,229.00 ,116.00 ,218.00 ,1186.00 ,987.00 ,906.00 ,0.95 ,13739484000.00 
621.00 ,830.00 ,223.00 ,134.00 ,243.00 ,1117.00 ,1019.00 ,978.00 ,0.96 ,13759199100.00 
656.00 ,908.00 ,247.00 ,141.00 ,265.00 ,1240.00 ,1122.00 ,947.00 ,0.97 ,13779683400.00 
668.00 ,906.00 ,275.00 ,156.00 ,290.00 ,1288.00 ,1176.00 ,978.00 ,0.98 ,13799562000.00 
631.00 ,982.00 ,282.00 ,152.00 ,280.00 ,1316.00 ,1141.00 ,1104.00 ,0.99 ,13819654700.00 
722.00 ,1050.00 ,285.00 ,156.00 ,301.00 ,1419.00 ,1127.00 ,1075.00 ,0.98 ,13839697500.00 
725.00 ,1052.00 ,303.00 ,167.00 ,314.00 ,1455.00 ,1128.00 ,1074.00 ,0.97 ,13857398200.00 
721.00 ,1035.00 ,312.00 ,169.00 ,321.00 ,1356.00 ,1105.00 ,1072.00 ,0.96 ,13877509100.00 
741.00 ,1185.00 ,353.00 ,161.00 ,314.00 ,1324.00 ,1036.00 ,1022.00 ,0.95 ,13897604500.00 
754.00 ,1108.00 ,375.00 ,184.00 ,324.00 ,1245.00 ,1062.00 ,907.00 ,0.94 ,13918050000.00 
621.00 ,1106.00 ,376.00 ,189.00 ,318.00 ,1230.00 ,1060.00 ,1035.00 ,0.93 ,13939258400.00 
543.00 ,1103.00 ,359.00 ,174.00 ,296.00 ,1220.00 ,1081.00 ,1068.00 ,0.92 ,13957887300.00 
552.00 ,1071.00 ,347.00 ,169.00 ,273.00 ,1165.00 ,986.00 ,1042.00 ,0.91 ,13978191000.00 
505.00 ,1004.00 ,285.00 ,171.00 ,269.00 ,1166.00 ,919.00 ,1039.00 ,0.90 ,13998302900.00 
526.00 ,970.00 ,324.00 ,146.00 ,237.00 ,1163.00 ,912.00 ,1168.00 ,0.89 ,14018220500.00 
516.00 ,829.00 ,332.00 ,130.00 ,198.00 ,1055.00 ,847.00 ,1072.00 ,0.88 ,14038386600.00 
506.00 ,787.00 ,439.00 ,130.00 ,180.00 ,943.00 ,684.00 ,961.00 ,0.87 ,14058131800.00 
455.00 ,794.00 ,604.00 ,164.00 ,177.00 ,893.00 ,602.00 ,918.00 ,0.86 ,14078257900.00 
408.00 ,636.00 ,785.00 ,159.00 ,149.00 ,823.00 ,546.00 ,834.00 ,0.85 ,14098453500.00 
279.00 ,558.00 ,776.00 ,155.00 ,111.00 ,814.00 ,397.00 ,529.00 ,0.84 ,14118291800.00 
242.00 ,592.00 ,830.00 ,169.00 ,106.00 ,739.00 ,283.00 ,393.00 ,0.83 ,14138272800.00 
215.00 ,556.00 ,849.00 ,166.00 ,96.00 ,674.00 ,269.00 ,297.00 ,0.82 ,14158223700.00 
200.00 ,463.00 ,821.00 ,143.00 ,80.00 ,695.00 ,235.00 ,255.00 ,0.81 ,14177621200.00 
175.00 ,430.00 ,728.00 ,153.00 ,69.00 ,629.00 ,202.00 ,131.00 ,0.80 ,14197281800.00 
168.00 ,450.00 ,757.00 ,146.00 ,73.00 ,618.00 ,261.00 ,115.00 ,0.79 ,14219631100.00 
173.00 ,417.00 ,729.00 ,130.00 ,64.00 ,655.00 ,325.00 ,145.00 ,0.78 ,14239459900.00 
163.00 ,383.00 ,706.00 ,150.00 ,71.00 ,646.00 ,313.00 ,138.00 ,0.77 ,14259508100.00 
133.00 ,382.00 ,651.00 ,146.00 ,71.00 ,635.00 ,329.00 ,139.00 ,0.76 ,14279518800.00 
134.00 ,384.00 ,632.00 ,162.00 ,70.00 ,688.00 ,340.00 ,138.00 ,0.75 ,14297220800.00 
136.00 ,360.00 ,617.00 ,173.00 ,62.00 ,624.00 ,330.00 ,126.00 ,0.74 ,14317334100.00 
131.00 ,432.00 ,581.00 ,168.00 ,63.00 ,572.00 ,296.00 ,82.00 ,0.73 ,14337753100.00 
117.00 ,447.00 ,603.00 ,157.00 ,60.00 ,559.00 ,294.00 ,77.00 ,0.72 ,14357560800.00 
128.00 ,509.00 ,615.00 ,159.00 ,62.00 ,568.00 ,274.00 ,72.00 ,0.71 ,14377451100.00 
121.00 ,528.00 ,564.00 ,158.00 ,61.00 ,540.00 ,263.00 ,69.00 ,0.70 ,14397577700.00 
117.00 ,557.00 ,697.00 ,154.00 ,62.00 ,469.00 ,366.00 ,134.00 ,0.69 ,14419504700.00 
134.00 ,489.00 ,719.00 ,157.00 ,63.00 ,454.00 ,357.00 ,136.00 ,0.68 ,14439410200.00 
138.00 ,496.00 ,663.00 ,164.00 ,59.00 ,460.00 ,358.00 ,137.00 ,0.67 ,14459103700.00 
134.00 ,478.00 ,742.00 ,159.00 ,55.00 ,426.00 ,364.00 ,140.00 ,0.66 ,14479436600.00 
137.00 ,473.00 ,796.00 ,132.00 ,58.00 ,453.00 ,370.00 ,157.00 ,0.65 ,14499084100.00 
137.00 ,459.00 ,703.00 ,120.00 ,54.00 ,468.00 ,273.00 ,110.00 ,0.64 ,14518660900.00 
130.00 ,488.00 ,711.00 ,117.00 ,51.00 ,465.00 ,248.00 ,105.00 ,0.63 ,14538718700.00 
121.00 ,454.00 ,695.00 ,94.00 ,51.00 ,469.00 ,256.00 ,104.00 ,0.62 ,14558609200.00 
114.00 ,438.00 ,580.00 ,105.00 ,62.00 ,593.00 ,252.00 ,102.00 ,0.61 ,14578064200.00 
114.00 ,441.00 ,522.00 ,104.00 ,59.00 ,517.00 ,247.00 ,76.00 ,0.60 ,14598202400.00 
114.00 ,495.00 ,535.00 ,117.00 ,62.00 ,505.00 ,171.00 ,73.00 ,0.59 ,14618343200.00 
96.00 ,448.00 ,560.00 ,133.00 ,61.00 ,503.00 ,159.00 ,66.00 ,0.58 ,14638510000.00 
106.00 ,442.00 ,579.00 ,138.00 ,61.00 ,506.00 ,133.00 ,67.00 ,0.57 ,14658380500.00 
112.00 ,441.00 ,599.00 ,131.00 ,61.00 ,369.00 ,126.00 ,65.00 ,0.56 ,14678112600.00 
147.00 ,459.00 ,585.00 ,130.00 ,67.00 ,410.00 ,153.00 ,64.00 ,0.55 ,14698375800.00 
143.00 ,385.00 ,526.00 ,122.00 ,61.00 ,410.00 ,203.00 ,50.00 ,0.54 ,14718209400.00 
137.00 ,371.00 ,512.00 ,117.00 ,68.00 ,411.00 ,206.00 ,50.00 ,0.53 ,14738112700.00 
130.00 ,383.00 ,562.00 ,117.00 ,72.00 ,396.00 ,206.00 ,48.00 ,0.52 ,14757942100.00 
139.00 ,392.00 ,521.00 ,111.00 ,63.00 ,416.00 ,209.00 ,48.00 ,0.51 ,14778196400.00 
126.00 ,363.00 ,585.00 ,125.00 ,61.00 ,337.00 ,193.00 ,65.00 ,0.50 ,14798077700.00 
146.00 ,347.00 ,570.00 ,130.00 ,65.00 ,308.00 ,131.00 ,66.00 ,0.49 ,14817631500.00 
147.00 ,343.00 ,564.00 ,137.00 ,63.00 ,303.00 ,132.00 ,65.00 ,0.48 ,14837472400.00 
158.00 ,325.00 ,571.00 ,136.00 ,62.00 ,309.00 ,130.00 ,70.00 ,0.47 ,14857500300.00 
155.00 ,324.00 ,567.00 ,145.00 ,65.00 ,380.00 ,131.00 ,72.00 ,0.46 ,14877475300.00 
139.00 ,315.00 ,559.00 ,141.00 ,63.00 ,432.00 ,130.00 ,67.00 ,0.45 ,14897531100.00 
117.00 ,312.00 ,693.00 ,136.00 ,61.00 ,436.00 ,122.00 ,65.00 ,0.44 ,14917851800.00 
111.00 ,318.00 ,686.00 ,123.00 ,58.00 ,460.00 ,120.00 ,65.00 ,0.43 ,14939130200.00 
95.00 ,397.00 ,680.00 ,119.00 ,60.00 ,485.00 ,122.00 ,61.00 ,0.42 ,14959400500.00 
89.00 ,364.00 ,830.00 ,131.00 ,67.00 ,458.00 ,118.00 ,61.00 ,0.41 ,14979006200.00 
74.00 ,359.00 ,828.00 ,128.00 ,60.00 ,424.00 ,96.00 ,45.00 ,0.40 ,14998690300.00 
72.00 ,390.00 ,758.00 ,131.00 ,62.00 ,415.00 ,106.00 ,46.00 ,0.39 ,15018506900.00 
75.00 ,394.00 ,767.00 ,141.00 ,61.00 ,403.00 ,104.00 ,46.00 ,0.38 ,15038304800.00 
79.00 ,320.00 ,871.00 ,143.00 ,68.00 ,414.00 ,119.00 ,54.00 ,0.37 ,15058198500.00 
81.00 ,367.00 ,799.00 ,129.00 ,72.00 ,437.00 ,120.00 ,56.00 ,0.36 ,15078112200.00 
83.00 ,349.00 ,807.00 ,130.00 ,75.00 ,392.00 ,117.00 ,58.00 ,0.35 ,15097772800.00 
78.00 ,329.00 ,831.00 ,131.00 ,74.00 ,404.00 ,107.00 ,57.00 ,0.34 ,15118320300.00 
85.00 ,365.00 ,920.00 ,142.00 ,77.00 ,443.00 ,125.00 ,61.00 ,0.33 ,15138246000.00 
87.00 ,368.00 ,795.00 ,135.00 ,76.00 ,509.00 ,126.00 ,57.00 ,0.32 ,15157697200.00 
77.00 ,296.00 ,762.00 ,134.00 ,64.00 ,441.00 ,117.00 ,50.00 ,0.31 ,15177811700.00 
79.00 ,323.00 ,794.00 ,153.00 ,68.00 ,434.00 ,114.00 ,50.00 ,0.30 ,15197587800.00 
78.00 ,300.00 ,800.00 ,159.00 ,69.00 ,423.00 ,121.00 ,49.00 ,0.29 ,15219399200.00 
77.00 ,303.00 ,828.00 ,152.00 ,69.00 ,391.00 ,117.00 ,45.00 ,0.28 ,15239302500.00 
84.00 ,317.00 ,890.00 ,168.00 ,59.00 ,328.00 ,107.00 ,42.00 ,0.27 ,15258818400.00 
95.00 ,364.00 ,937.00 ,182.00 ,62.00 ,315.00 ,110.00 ,45.00 ,0.26 ,15278681700.00 
98.00 ,363.00 ,927.00 ,175.00 ,64.00 ,308.00 ,111.00 ,46.00 ,0.25 ,15299211900.00 
107.00 ,390.00 ,879.00 ,193.00 ,68.00 ,319.00 ,104.00 ,51.00 ,0.24 ,15319276800.00 
108.00 ,382.00 ,819.00 ,198.00 ,66.00 ,299.00 ,95.00 ,52.00 ,0.23 ,15339450000.00 
107.00 ,391.00 ,864.00 ,215.00 ,77.00 ,211.00 ,87.00 ,55.00 ,0.22 ,15359162200.00 
102.00 ,405.00 ,872.00 ,206.00 ,76.00 ,215.00 ,96.00 ,55.00 ,0.21 ,15378944700.00 
98.00 ,412.00 ,938.00 ,201.00 ,70.00 ,222.00 ,98.00 ,52.00 ,0.20 ,15398920800.00 
92.00 ,386.00 ,1083.00 ,179.00 ,65.00 ,213.00 ,97.00 ,49.00 ,0.19 ,15419316700.00 
100.00 ,357.00 ,1139.00 ,173.00 ,66.00 ,250.00 ,100.00 ,52.00 ,0.18 ,15439279600.00 
86.00 ,346.00 ,1122.00 ,159.00 ,60.00 ,365.00 ,98.00 ,45.00 ,0.17 ,15459319600.00 
84.00 ,321.00 ,1117.00 ,161.00 ,62.00 ,380.00 ,84.00 ,42.00 ,0.16 ,15479295800.00 
95.00 ,314.00 ,1090.00 ,175.00 ,65.00 ,380.00 ,85.00 ,45.00 ,0.15 ,15499208300.00 
108.00 ,418.00 ,1023.00 ,200.00 ,82.00 ,377.00 ,87.00 ,48.00 ,0.14 ,15519052600.00 
104.00 ,427.00 ,970.00 ,236.00 ,96.00 ,413.00 ,114.00 ,48.00 ,0.13 ,15539328200.00 
111.00 ,442.00 ,984.00 ,239.00 ,96.00 ,314.00 ,115.00 ,51.00 ,0.12 ,15559227500.00 
113.00 ,434.00 ,1019.00 ,258.00 ,98.00 ,279.00 ,114.00 ,53.00 ,0.11 ,15579272100.00 
120.00 ,435.00 ,1117.00 ,279.00 ,104.00 ,274.00 ,111.00 ,59.00 ,0.10 ,15598972800.00 
158.00 ,486.00 ,1126.00 ,332.00 ,124.00 ,275.00 ,117.00 ,81.00 ,0.09 ,15618785600.00 
166.00 ,581.00 ,1206.00 ,343.00 ,121.00 ,153.00 ,81.00 ,81.00 ,0.08 ,15639201400.00 
204.00 ,636.00 ,1244.00 ,387.00 ,147.00 ,185.00 ,99.00 ,100.00 ,0.07 ,15659487700.00 
215.00 ,665.00 ,1247.00 ,393.00 ,152.00 ,234.00 ,105.00 ,105.00 ,0.06 ,15677583900.00 
217.00 ,695.00 ,1110.00 ,378.00 ,148.00 ,238.00 ,104.00 ,104.00 ,0.05 ,15697779800.00 
231.00 ,703.00 ,1144.00 ,405.00 ,157.00 ,243.00 ,101.00 ,109.00 ,0.04 ,15718171900.00 
244.00 ,707.00 ,1090.00 ,400.00 ,163.00 ,242.00 ,102.00 ,116.00 ,0.03 ,15738092800.00 
270.00 ,770.00 ,1104.00 ,435.00 ,188.00 ,208.00 ,95.00 ,126.00 ,0.02 ,15757842200.00 
289.00 ,799.00 ,1235.00 ,439.00 ,204.00 ,175.00 ,99.00 ,135.00 ,0.01 ,15779066500.00 
299.00 ,817.00 ,1269.00 ,510.00 ,228.00 ,232.00 ,104.00 ,155.00 ,0.00 ,15798307500.00 
285.00 ,827.00 ,1205.00 ,467.00 ,219.00 ,267.00 ,104.00 ,180.00 ,0.01 ,15818566800.00 
274.00 ,800.00 ,1119.00 ,453.00 ,214.00 ,417.00 ,149.00 ,283.00 ,0.02 ,15838646600.00 
260.00 ,741.00 ,1078.00 ,392.00 ,181.00 ,439.00 ,165.00 ,394.00 ,0.03 ,15858943000.00 
234.00 ,700.00 ,824.00 ,372.00 ,161.00 ,529.00 ,216.00 ,458.00 ,0.04 ,15878655500.00 
220.00 ,692.00 ,753.00 ,261.00 ,132.00 ,733.00 ,353.00 ,622.00 ,0.05 ,15898471000.00 
201.00 ,617.00 ,679.00 ,232.00 ,119.00 ,740.00 ,526.00 ,760.00 ,0.06 ,15918792100.00 
205.00 ,602.00 ,711.00 ,218.00 ,123.00 ,775.00 ,618.00 ,809.00 ,0.07 ,15939408800.00 
171.00 ,547.00 ,669.00 ,192.00 ,119.00 ,846.00 ,620.00 ,846.00 ,0.08 ,15957733400.00 
166.00 ,540.00 ,658.00 ,180.00 ,110.00 ,885.00 ,687.00 ,859.00 ,0.09 ,15978167400.00 
195.00 ,499.00 ,660.00 ,177.00 ,106.00 ,790.00 ,701.00 ,842.00 ,0.10 ,15998449100.00 
227.00 ,585.00 ,661.00 ,157.00 ,133.00 ,1012.00 ,816.00 ,878.00 ,0.11 ,16018113900.00 
254.00 ,594.00 ,693.00 ,181.00 ,127.00 ,975.00 ,867.00 ,853.00 ,0.12 ,16038259500.00 
302.00 ,655.00 ,650.00 ,156.00 ,122.00 ,960.00 ,923.00 ,840.00 ,0.13 ,16057862100.00 
327.00 ,660.00 ,645.00 ,154.00 ,124.00 ,970.00 ,901.00 ,883.00 ,0.14 ,16077974000.00 
325.00 ,669.00 ,600.00 ,147.00 ,127.00 ,1021.00 ,915.00 ,840.00 ,0.15 ,16098056200.00 
310.00 ,622.00 ,623.00 ,146.00 ,83.00 ,798.00 ,777.00 ,709.00 ,0.16 ,16118105400.00 
293.00 ,630.00 ,614.00 ,133.00 ,79.00 ,773.00 ,672.00 ,711.00 ,0.17 ,16138319000.00 
240.00 ,587.00 ,531.00 ,133.00 ,73.00 ,741.00 ,650.00 ,749.00 ,0.18 ,16158132600.00 
238.00 ,553.00 ,520.00 ,131.00 ,72.00 ,656.00 ,712.00 ,750.00 ,0.19 ,16179312500.00 
228.00 ,528.00 ,529.00 ,126.00 ,60.00 ,499.00 ,715.00 ,751.00 ,0.20 ,16198990900.00 
227.00 ,508.00 ,645.00 ,153.00 ,73.00 ,533.00 ,668.00 ,747.00 ,0.21 ,16219252600.00 
226.00 ,516.00 ,599.00 ,116.00 ,66.00 ,544.00 ,643.00 ,716.00 ,0.22 ,16239308700.00 
225.00 ,483.00 ,570.00 ,112.00 ,69.00 ,570.00 ,655.00 ,643.00 ,0.23 ,16258936300.00 
188.00 ,486.00 ,551.00 ,108.00 ,66.00 ,625.00 ,602.00 ,550.00 ,0.24 ,16278632900.00 
176.00 ,499.00 ,572.00 ,108.00 ,64.00 ,618.00 ,626.00 ,516.00 ,0.25 ,16298691600.00 
165.00 ,456.00 ,418.00 ,90.00 ,51.00 ,585.00 ,622.00 ,472.00 ,0.26 ,16318678600.00 
175.00 ,387.00 ,409.00 ,105.00 ,60.00 ,565.00 ,631.00 ,451.00 ,0.27 ,16337724900.00 
197.00 ,421.00 ,438.00 ,101.00 ,61.00 ,567.00 ,639.00 ,455.00 ,0.28 ,16357466300.00 
255.00 ,433.00 ,425.00 ,105.00 ,62.00 ,490.00 ,592.00 ,556.00 ,0.29 ,16377295000.00 
261.00 ,416.00 ,452.00 ,103.00 ,62.00 ,461.00 ,494.00 ,542.00 ,0.30 ,16397493200.00 
261.00 ,416.00 ,536.00 ,111.00 ,64.00 ,456.00 ,538.00 ,550.00 ,0.31 ,16417424500.00 
250.00 ,472.00 ,524.00 ,110.00 ,63.00 ,479.00 ,517.00 ,570.00 ,0.32 ,16439647500.00 
229.00 ,412.00 ,563.00 ,116.00 ,64.00 ,458.00 ,445.00 ,582.00 ,0.33 ,16457200400.00 
179.00 ,455.00 ,576.00 ,113.00 ,65.00 ,410.00 ,513.00 ,511.00 ,0.34 ,16479686800.00 
171.00 ,494.00 ,528.00 ,118.00 ,63.00 ,440.00 ,497.00 ,535.00 ,0.35 ,16499603300.00 
174.00 ,497.00 ,479.00 ,85.00 ,59.00 ,506.00 ,453.00 ,593.00 ,0.36 ,16517552300.00 
167.00 ,449.00 ,607.00 ,94.00 ,57.00 ,486.00 ,530.00 ,584.00 ,0.37 ,16538084200.00 
175.00 ,484.00 ,584.00 ,92.00 ,51.00 ,450.00 ,548.00 ,520.00 ,0.38 ,16558191900.00 
162.00 ,468.00 ,588.00 ,91.00 ,54.00 ,519.00 ,490.00 ,577.00 ,0.40 ,16597975300.00 
205.00 ,444.00 ,583.00 ,85.00 ,55.00 ,496.00 ,536.00 ,561.00 ,0.40 ,16597998800.00 
202.00 ,440.00 ,592.00 ,94.00 ,56.00 ,514.00 ,600.00 ,551.00 ,0.41 ,16618087600.00 
201.00 ,426.00 ,519.00 ,103.00 ,55.00 ,491.00 ,542.00 ,545.00 ,0.42 ,16638157600.00 
197.00 ,406.00 ,500.00 ,102.00 ,49.00 ,507.00 ,544.00 ,632.00 ,0.43 ,16657849800.00 
196.00 ,373.00 ,486.00 ,102.00 ,41.00 ,454.00 ,531.00 ,637.00 ,0.44 ,16677712800.00 
156.00 ,347.00 ,491.00 ,101.00 ,42.00 ,461.00 ,487.00 ,633.00 ,0.45 ,16697746800.00 
154.00 ,360.00 ,405.00 ,97.00 ,41.00 ,391.00 ,455.00 ,669.00 ,0.46 ,16718642200.00 
148.00 ,374.00 ,425.00 ,73.00 ,34.00 ,388.00 ,452.00 ,666.00 ,0.47 ,16738933700.00 
134.00 ,384.00 ,426.00 ,76.00 ,38.00 ,370.00 ,458.00 ,605.00 ,0.48 ,16758867900.00 
160.00 ,417.00 ,440.00 ,74.00 ,43.00 ,432.00 ,480.00 ,554.00 ,0.49 ,16779149200.00 
172.00 ,471.00 ,433.00 ,75.00 ,45.00 ,489.00 ,546.00 ,654.00 ,0.50 ,16798872600.00 
195.00 ,461.00 ,459.00 ,74.00 ,51.00 ,540.00 ,526.00 ,625.00 ,0.51 ,16818910000.00 
197.00 ,461.00 ,357.00 ,67.00 ,53.00 ,571.00 ,541.00 ,647.00 ,0.52 ,16838775700.00 
222.00 ,433.00 ,365.00 ,68.00 ,62.00 ,551.00 ,541.00 ,654.00 ,0.53 ,16858532200.00 
239.00 ,451.00 ,358.00 ,70.00 ,59.00 ,506.00 ,532.00 ,636.00 ,0.54 ,16877622800.00 
242.00 ,430.00 ,362.00 ,73.00 ,61.00 ,464.00 ,458.00 ,610.00 ,0.55 ,16898054500.00 
244.00 ,432.00 ,328.00 ,71.00 ,53.00 ,375.00 ,525.00 ,610.00 ,0.56 ,16918342700.00 
248.00 ,455.00 ,269.00 ,69.00 ,55.00 ,368.00 ,546.00 ,667.00 ,0.57 ,16939608400.00 
231.00 ,475.00 ,295.00 ,67.00 ,44.00 ,388.00 ,607.00 ,770.00 ,0.58 ,16957695000.00 
204.00 ,471.00 ,324.00 ,75.00 ,41.00 ,388.00 ,614.00 ,756.00 ,0.59 ,16977733100.00 
216.00 ,431.00 ,321.00 ,73.00 ,39.00 ,369.00 ,604.00 ,704.00 ,0.60 ,16997531100.00 
248.00 ,420.00 ,321.00 ,73.00 ,40.00 ,392.00 ,596.00 ,709.00 ,0.61 ,17019453800.00 
243.00 ,394.00 ,314.00 ,66.00 ,42.00 ,504.00 ,654.00 ,696.00 ,0.62 ,17039154400.00 
249.00 ,387.00 ,225.00 ,58.00 ,46.00 ,521.00 ,577.00 ,609.00 ,0.63 ,17059347700.00 
255.00 ,418.00 ,164.00 ,44.00 ,49.00 ,597.00 ,566.00 ,669.00 ,0.64 ,17079440000.00 
228.00 ,470.00 ,353.00 ,67.00 ,54.00 ,608.00 ,574.00 ,682.00 ,0.65 ,17099343700.00 
194.00 ,533.00 ,372.00 ,68.00 ,55.00 ,659.00 ,621.00 ,685.00 ,0.66 ,17119657500.00 
205.00 ,542.00 ,384.00 ,71.00 ,54.00 ,587.00 ,551.00 ,715.00 ,0.67 ,17139260800.00 
222.00 ,576.00 ,392.00 ,71.00 ,56.00 ,573.00 ,591.00 ,719.00 ,0.68 ,17159020300.00 
212.00 ,526.00 ,396.00 ,71.00 ,56.00 ,494.00 ,604.00 ,708.00 ,0.69 ,17178856000.00 
222.00 ,485.00 ,293.00 ,54.00 ,54.00 ,509.00 ,632.00 ,809.00 ,0.70 ,17198462300.00 
226.00 ,515.00 ,357.00 ,58.00 ,59.00 ,555.00 ,562.00 ,840.00 ,0.72 ,17238119700.00 
235.00 ,513.00 ,363.00 ,61.00 ,61.00 ,574.00 ,574.00 ,849.00 ,0.72 ,17238139500.00 
299.00 ,563.00 ,358.00 ,60.00 ,62.00 ,624.00 ,635.00 ,887.00 ,0.73 ,17257979700.00 
318.00 ,603.00 ,367.00 ,60.00 ,65.00 ,680.00 ,662.00 ,885.00 ,0.74 ,17278263900.00 
321.00 ,716.00 ,391.00 ,61.00 ,62.00 ,673.00 ,670.00 ,795.00 ,0.75 ,17298050700.00 
330.00 ,757.00 ,319.00 ,56.00 ,59.00 ,563.00 ,663.00 ,744.00 ,0.76 ,17317899200.00 
349.00 ,749.00 ,414.00 ,57.00 ,54.00 ,527.00 ,661.00 ,793.00 ,0.78 ,17357655500.00 
291.00 ,732.00 ,429.00 ,78.00 ,59.00 ,598.00 ,600.00 ,773.00 ,0.79 ,17378070300.00 
301.00 ,797.00 ,428.00 ,86.00 ,70.00 ,722.00 ,678.00 ,852.00 ,0.79 ,17378083100.00 
299.00 ,717.00 ,368.00 ,85.00 ,77.00 ,739.00 ,646.00 ,845.00 ,0.80 ,17397612800.00 
269.00 ,692.00 ,434.00 ,88.00 ,78.00 ,862.00 ,640.00 ,867.00 ,0.81 ,17419322600.00 
276.00 ,720.00 ,452.00 ,117.00 ,87.00 ,929.00 ,705.00 ,811.00 ,0.82 ,17437647300.00 
285.00 ,738.00 ,472.00 ,112.00 ,87.00 ,927.00 ,732.00 ,795.00 ,0.83 ,17458081000.00 
283.00 ,723.00 ,464.00 ,107.00 ,87.00 ,935.00 ,704.00 ,789.00 ,0.84 ,17478351800.00 
349.00 ,749.00 ,477.00 ,111.00 ,89.00 ,1057.00 ,764.00 ,811.00 ,0.85 ,17498193300.00 
354.00 ,750.00 ,414.00 ,109.00 ,102.00 ,1135.00 ,804.00 ,880.00 ,0.86 ,17518453100.00 
356.00 ,805.00 ,293.00 ,81.00 ,97.00 ,1180.00 ,765.00 ,832.00 ,0.87 ,17538466100.00 
405.00 ,791.00 ,248.00 ,78.00 ,103.00 ,1214.00 ,769.00 ,852.00 ,0.88 ,17558291500.00 
427.00 ,733.00 ,258.00 ,82.00 ,100.00 ,1237.00 ,793.00 ,869.00 ,0.89 ,17578432300.00 
397.00 ,759.00 ,239.00 ,79.00 ,100.00 ,1138.00 ,827.00 ,884.00 ,0.90 ,17598342200.00 
420.00 ,806.00 ,245.00 ,84.00 ,106.00 ,1075.00 ,942.00 ,917.00 ,0.91 ,17618303500.00 
431.00 ,772.00 ,278.00 ,83.00 ,117.00 ,995.00 ,956.00 ,981.00 ,0.93 ,17658474100.00 
425.00 ,825.00 ,274.00 ,83.00 ,125.00 ,1121.00 ,954.00 ,947.00 ,0.93 ,17658488500.00 
435.00 ,817.00 ,269.00 ,102.00 ,157.00 ,1072.00 ,911.00 ,1031.00 ,0.94 ,17678599200.00 
426.00 ,827.00 ,276.00 ,105.00 ,161.00 ,1152.00 ,893.00 ,1075.00 ,0.95 ,17698558900.00 
475.00 ,766.00 ,282.00 ,108.00 ,175.00 ,1185.00 ,774.00 ,1069.00 ,0.96 ,17718587400.00 
515.00 ,880.00 ,259.00 ,118.00 ,189.00 ,1238.00 ,881.00 ,1041.00 ,0.97 ,17738468700.00 
519.00 ,940.00 ,301.00 ,119.00 ,195.00 ,1114.00 ,969.00 ,1099.00 ,0.98 ,17758086700.00 
582.00 ,1012.00 ,301.00 ,125.00 ,216.00 ,1176.00 ,1047.00 ,989.00 ,0.99 ,17778033100.00 
615.00 ,1122.00 ,330.00 ,132.00 ,228.00 ,1279.00 ,1160.00 ,979.00 ,0.97 ,17818121100.00 
587.00 ,1158.00 ,432.00 ,134.00 ,228.00 ,1309.00 ,1183.00 ,919.00 ,0.97 ,17818133600.00 
569.00 ,1106.00 ,438.00 ,140.00 ,225.00 ,1302.00 ,1156.00 ,962.00 ,0.96 ,17838100300.00 
563.00 ,1105.00 ,542.00 ,159.00 ,246.00 ,1323.00 ,1089.00 ,938.00 ,0.95 ,17857990700.00 
465.00 ,1046.00 ,560.00 ,155.00 ,228.00 ,1301.00 ,1022.00 ,892.00 ,0.94 ,17877792500.00 
453.00 ,895.00 ,556.00 ,151.00 ,220.00 ,1207.00 ,841.00 ,839.00 ,0.93 ,17897493700.00 
458.00 ,873.00 ,509.00 ,148.00 ,202.00 ,1080.00 ,810.00 ,778.00 ,0.92 ,17917738300.00 
401.00 ,799.00 ,721.00 ,144.00 ,188.00 ,1021.00 ,673.00 ,665.00 ,0.91 ,17937545500.00 
343.00 ,624.00 ,683.00 ,133.00 ,146.00 ,921.00 ,569.00 ,558.00 ,0.90 ,17957676600.00 
328.00 ,693.00 ,751.00 ,139.00 ,112.00 ,851.00 ,473.00 ,522.00 ,0.89 ,17977513100.00 
258.00 ,647.00 ,845.00 ,201.00 ,96.00 ,711.00 ,416.00 ,422.00 ,0.88 ,17997631900.00 
175.00 ,528.00 ,891.00 ,220.00 ,93.00 ,688.00 ,211.00 ,355.00 ,0.87 ,18017804900.00 
156.00 ,502.00 ,756.00 ,226.00 ,87.00 ,653.00 ,170.00 ,303.00 ,0.86 ,18037786400.00 
153.00 ,498.00 ,810.00 ,254.00 ,84.00 ,655.00 ,175.00 ,259.00 ,0.85 ,18057886300.00 
132.00 ,378.00 ,862.00 ,260.00 ,76.00 ,543.00 ,149.00 ,139.00 ,0.84 ,18077591000.00 
136.00 ,398.00 ,825.00 ,232.00 ,72.00 ,513.00 ,143.00 ,118.00 ,0.83 ,18097649200.00 
127.00 ,432.00 ,895.00 ,223.00 ,73.00 ,488.00 ,143.00 ,96.00 ,0.82 ,18117667700.00 
146.00 ,442.00 ,919.00 ,236.00 ,79.00 ,524.00 ,135.00 ,81.00 ,0.81 ,18137400300.00 
160.00 ,418.00 ,867.00 ,201.00 ,78.00 ,542.00 ,127.00 ,79.00 ,0.80 ,18157381700.00 
160.00 ,376.00 ,772.00 ,183.00 ,77.00 ,515.00 ,117.00 ,71.00 ,0.79 ,18177434100.00 
153.00 ,396.00 ,811.00 ,187.00 ,78.00 ,517.00 ,116.00 ,67.00 ,0.78 ,18199417800.00 
159.00 ,390.00 ,716.00 ,182.00 ,71.00 ,516.00 ,116.00 ,56.00 ,0.77 ,18219569600.00 
160.00 ,365.00 ,821.00 ,165.00 ,72.00 ,547.00 ,118.00 ,53.00 ,0.76 ,18239439300.00 
152.00 ,420.00 ,856.00 ,176.00 ,70.00 ,471.00 ,116.00 ,57.00 ,0.75 ,18259172300.00 
174.00 ,442.00 ,874.00 ,180.00 ,70.00 ,458.00 ,187.00 ,64.00 ,0.74 ,18278963100.00 
177.00 ,434.00 ,783.00 ,153.00 ,73.00 ,451.00 ,195.00 ,69.00 ,0.73 ,18299207100.00 
177.00 ,420.00 ,805.00 ,161.00 ,79.00 ,529.00 ,203.00 ,70.00 ,0.72 ,18319538000.00 
205.00 ,452.00 ,693.00 ,146.00 ,76.00 ,548.00 ,212.00 ,70.00 ,0.71 ,18337189500.00 
216.00 ,431.00 ,690.00 ,129.00 ,70.00 ,533.00 ,207.00 ,134.00 ,0.70 ,18359638300.00 
206.00 ,422.00 ,732.00 ,125.00 ,69.00 ,531.00 ,141.00 ,134.00 ,0.69 ,18377355000.00 
203.00 ,376.00 ,768.00 ,129.00 ,60.00 ,535.00 ,132.00 ,138.00 ,0.68 ,18399346600.00 
232.00 ,364.00 ,866.00 ,147.00 ,76.00 ,444.00 ,117.00 ,143.00 ,0.67 ,18419119600.00 
191.00 ,332.00 ,842.00 ,149.00 ,77.00 ,326.00 ,93.00 ,142.00 ,0.66 ,18439264100.00 
176.00 ,342.00 ,833.00 ,170.00 ,83.00 ,333.00 ,95.00 ,84.00 ,0.65 ,18459212400.00 
200.00 ,366.00 ,927.00 ,188.00 ,85.00 ,322.00 ,91.00 ,79.00 ,0.64 ,18478896600.00 
210.00 ,462.00 ,960.00 ,189.00 ,91.00 ,384.00 ,119.00 ,74.00 ,0.63 ,18499046500.00 
170.00 ,495.00 ,859.00 ,175.00 ,73.00 ,348.00 ,114.00 ,64.00 ,0.62 ,18518698900.00 
175.00 ,503.00 ,893.00 ,193.00 ,75.00 ,308.00 ,113.00 ,63.00 ,0.61 ,18539297300.00 
191.00 ,496.00 ,897.00 ,189.00 ,71.00 ,355.00 ,104.00 ,54.00 ,0.60 ,18559057000.00 
178.00 ,493.00 ,771.00 ,191.00 ,88.00 ,453.00 ,120.00 ,65.00 ,0.59 ,18579003400.00 
185.00 ,473.00 ,763.00 ,214.00 ,89.00 ,414.00 ,106.00 ,63.00 ,0.57 ,18619686600.00 
216.00 ,473.00 ,748.00 ,209.00 ,87.00 ,419.00 ,106.00 ,61.00 ,0.56 ,18639765100.00 
222.00 ,457.00 ,800.00 ,209.00 ,85.00 ,428.00 ,104.00 ,64.00 ,0.56 ,18639779000.00 
221.00 ,451.00 ,830.00 ,207.00 ,87.00 ,429.00 ,145.00 ,63.00 ,0.55 ,18659380600.00 
200.00 ,435.00 ,860.00 ,198.00 ,89.00 ,526.00 ,168.00 ,56.00 ,0.54 ,18679349300.00 
203.00 ,380.00 ,827.00 ,172.00 ,87.00 ,512.00 ,162.00 ,52.00 ,0.53 ,18699679400.00 
181.00 ,342.00 ,912.00 ,175.00 ,86.00 ,508.00 ,162.00 ,51.00 ,0.51 ,18738653600.00 
177.00 ,436.00 ,914.00 ,187.00 ,87.00 ,505.00 ,164.00 ,50.00 ,0.51 ,18738669800.00 
162.00 ,440.00 ,854.00 ,182.00 ,88.00 ,535.00 ,140.00 ,49.00 ,0.50 ,18758169000.00 
184.00 ,497.00 ,823.00 ,196.00 ,84.00 ,402.00 ,101.00 ,55.00 ,0.48 ,18798687500.00 
177.00 ,564.00 ,894.00 ,243.00 ,97.00 ,411.00 ,98.00 ,62.00 ,0.48 ,18798712600.00 
175.00 ,640.00 ,964.00 ,272.00 ,113.00 ,424.00 ,100.00 ,69.00 ,0.47 ,18819096000.00 
168.00 ,602.00 ,972.00 ,260.00 ,113.00 ,425.00 ,103.00 ,69.00 ,0.45 ,18858617300.00 
194.00 ,631.00 ,1040.00 ,266.00 ,110.00 ,414.00 ,106.00 ,83.00 ,0.45 ,18858631100.00 
208.00 ,620.00 ,1031.00 ,262.00 ,109.00 ,478.00 ,104.00 ,80.00 ,0.44 ,18878667600.00 
219.00 ,617.00 ,1087.00 ,257.00 ,104.00 ,509.00 ,105.00 ,79.00 ,0.42 ,18918481700.00 
226.00 ,562.00 ,1095.00 ,222.00 ,92.00 ,500.00 ,103.00 ,73.00 ,0.42 ,18918494700.00 
231.00 ,589.00 ,1107.00 ,219.00 ,96.00 ,557.00 ,130.00 ,76.00 ,0.41 ,18938988200.00 
227.00 ,563.00 ,1125.00 ,235.00 ,104.00 ,500.00 ,125.00 ,78.00 ,0.39 ,18977415800.00 
248.00 ,545.00 ,1186.00 ,295.00 ,99.00 ,397.00 ,123.00 ,75.00 ,0.39 ,18977428700.00 
228.00 ,520.00 ,1161.00 ,291.00 ,105.00 ,341.00 ,122.00 ,78.00 ,0.38 ,18997352500.00 
228.00 ,667.00 ,1145.00 ,357.00 ,137.00 ,348.00 ,129.00 ,92.00 ,0.37 ,19019525400.00 
247.00 ,683.00 ,1167.00 ,400.00 ,142.00 ,422.00 ,132.00 ,100.00 ,0.36 ,19039482900.00 
260.00 ,796.00 ,1166.00 ,471.00 ,169.00 ,438.00 ,148.00 ,103.00 ,0.35 ,19059455500.00 
231.00 ,878.00 ,1165.00 ,466.00 ,185.00 ,448.00 ,154.00 ,121.00 ,0.34 ,19078817000.00 
258.00 ,957.00 ,1237.00 ,493.00 ,196.00 ,465.00 ,157.00 ,128.00 ,0.33 ,19098647300.00 
280.00 ,873.00 ,1158.00 ,517.00 ,197.00 ,461.00 ,159.00 ,140.00 ,0.32 ,19119057100.00 
290.00 ,885.00 ,1113.00 ,567.00 ,212.00 ,392.00 ,196.00 ,145.00 ,0.31 ,19139000800.00 
299.00 ,899.00 ,1147.00 ,555.00 ,208.00 ,402.00 ,191.00 ,142.00 ,0.30 ,19159398700.00 
304.00 ,845.00 ,1194.00 ,564.00 ,212.00 ,383.00 ,196.00 ,137.00 ,0.29 ,19179353400.00 
339.00 ,787.00 ,1130.00 ,605.00 ,236.00 ,378.00 ,198.00 ,147.00 ,0.28 ,19198942900.00 
384.00 ,873.00 ,1137.00 ,677.00 ,278.00 ,390.00 ,200.00 ,157.00 ,0.27 ,19219138100.00 
425.00 ,918.00 ,1141.00 ,687.00 ,283.00 ,355.00 ,153.00 ,257.00 ,0.26 ,19239225800.00 
439.00 ,890.00 ,1124.00 ,715.00 ,305.00 ,347.00 ,163.00 ,283.00 ,0.25 ,19258912400.00 
477.00 ,1008.00 ,1161.00 ,812.00 ,347.00 ,389.00 ,180.00 ,297.00 ,0.24 ,19279100500.00 
465.00 ,1025.00 ,1173.00 ,850.00 ,360.00 ,400.00 ,193.00 ,304.00 ,0.23 ,19299284200.00 
433.00 ,982.00 ,1222.00 ,804.00 ,332.00 ,499.00 ,203.00 ,295.00 ,0.22 ,19319564900.00 
460.00 ,1065.00 ,1245.00 ,851.00 ,354.00 ,571.00 ,210.00 ,295.00 ,0.20 ,19358682200.00 
439.00 ,1070.00 ,1263.00 ,854.00 ,350.00 ,564.00 ,195.00 ,270.00 ,0.20 ,19358695700.00 
395.00 ,978.00 ,1164.00 ,785.00 ,327.00 ,570.00 ,189.00 ,297.00 ,0.18 ,19398195200.00 
489.00 ,1073.00 ,1118.00 ,781.00 ,326.00 ,685.00 ,190.00 ,348.00 ,0.17 ,19418126500.00 
488.00 ,1143.00 ,1140.00 ,776.00 ,336.00 ,731.00 ,199.00 ,399.00 ,0.17 ,19418139100.00 
470.00 ,1081.00 ,1110.00 ,749.00 ,318.00 ,661.00 ,200.00 ,359.00 ,0.15 ,19457389000.00 
486.00 ,1101.00 ,1062.00 ,741.00 ,303.00 ,652.00 ,196.00 ,373.00 ,0.14 ,19479555200.00 
510.00 ,1204.00 ,1104.00 ,754.00 ,301.00 ,657.00 ,207.00 ,365.00 ,0.14 ,19479568600.00 
416.00 ,1088.00 ,1055.00 ,697.00 ,280.00 ,672.00 ,219.00 ,320.00 ,0.13 ,19499070600.00 
414.00 ,994.00 ,918.00 ,688.00 ,267.00 ,554.00 ,216.00 ,318.00 ,0.11 ,19539054000.00 
358.00 ,980.00 ,864.00 ,618.00 ,250.00 ,652.00 ,239.00 ,319.00 ,0.11 ,19539067900.00 
349.00 ,980.00 ,895.00 ,588.00 ,250.00 ,661.00 ,265.00 ,319.00 ,0.10 ,19558695100.00 
306.00 ,807.00 ,758.00 ,509.00 ,217.00 ,669.00 ,266.00 ,307.00 ,0.08 ,19598209200.00 
286.00 ,772.00 ,721.00 ,444.00 ,186.00 ,621.00 ,263.00 ,363.00 ,0.08 ,19598221500.00 
254.00 ,725.00 ,727.00 ,364.00 ,161.00 ,729.00 ,429.00 ,456.00 ,0.06 ,19638537400.00 
287.00 ,739.00 ,770.00 ,334.00 ,163.00 ,771.00 ,446.00 ,568.00 ,0.05 ,19658404000.00 
268.00 ,705.00 ,825.00 ,264.00 ,140.00 ,786.00 ,443.00 ,606.00 ,0.05 ,19658417300.00 
272.00 ,681.00 ,817.00 ,246.00 ,131.00 ,811.00 ,484.00 ,780.00 ,0.03 ,19698251000.00 
269.00 ,716.00 ,827.00 ,265.00 ,136.00 ,907.00 ,627.00 ,834.00 ,0.02 ,19718147500.00 
292.00 ,762.00 ,874.00 ,289.00 ,146.00 ,838.00 ,567.00 ,776.00 ,0.02 ,19718160200.00 
246.00 ,622.00 ,823.00 ,232.00 ,123.00 ,787.00 ,550.00 ,767.00 ,0.00 ,19757636800.00 
248.00 ,482.00 ,634.00 ,196.00 ,125.00 ,883.00 ,586.00 ,908.00 ,0.01 ,19778216200.00 
247.00 ,502.00 ,640.00 ,194.00 ,134.00 ,887.00 ,707.00 ,799.00 ,0.01 ,19778228500.00 
248.00 ,481.00 ,720.00 ,171.00 ,136.00 ,756.00 ,724.00 ,785.00 ,0.03 ,19818469900.00 
261.00 ,572.00 ,742.00 ,210.00 ,131.00 ,763.00 ,698.00 ,796.00 ,0.04 ,19838232000.00 
299.00 ,685.00 ,794.00 ,257.00 ,136.00 ,746.00 ,718.00 ,794.00 ,0.05 ,19858257500.00 
285.00 ,713.00 ,756.00 ,261.00 ,137.00 ,766.00 ,784.00 ,659.00 ,0.06 ,19878639100.00 
295.00 ,711.00 ,741.00 ,261.00 ,128.00 ,724.00 ,751.00 ,706.00 ,0.07 ,19898571500.00 
306.00 ,715.00 ,640.00 ,256.00 ,120.00 ,697.00 ,625.00 ,629.00 ,0.07 ,19898584500.00 
276.00 ,605.00 ,635.00 ,245.00 ,121.00 ,688.00 ,633.00 ,605.00 ,0.09 ,19939094900.00 
226.00 ,484.00 ,513.00 ,200.00 ,119.00 ,708.00 ,632.00 ,650.00 ,0.10 ,19957765400.00 
219.00 ,428.00 ,507.00 ,193.00 ,115.00 ,731.00 ,700.00 ,729.00 ,0.10 ,19957779300.00 
205.00 ,401.00 ,509.00 ,191.00 ,114.00 ,730.00 ,633.00 ,679.00 ,0.12 ,19997451300.00 
186.00 ,494.00 ,498.00 ,178.00 ,108.00 ,717.00 ,652.00 ,693.00 ,0.13 ,20017178900.00 
195.00 ,475.00 ,387.00 ,145.00 ,87.00 ,689.00 ,668.00 ,709.00 ,0.13 ,20017191900.00 
211.00 ,482.00 ,385.00 ,134.00 ,82.00 ,708.00 ,660.00 ,647.00 ,0.14 ,20038848600.00 
208.00 ,479.00 ,373.00 ,130.00 ,65.00 ,643.00 ,524.00 ,613.00 ,0.16 ,20078714200.00 
221.00 ,513.00 ,373.00 ,130.00 ,61.00 ,631.00 ,545.00 ,599.00 ,0.16 ,20078743300.00 
224.00 ,451.00 ,427.00 ,142.00 ,57.00 ,619.00 ,535.00 ,578.00 ,0.17 ,20098768200.00 
241.00 ,469.00 ,442.00 ,142.00 ,67.00 ,625.00 ,513.00 ,566.00 ,0.19 ,20138900000.00 
235.00 ,438.00 ,470.00 ,142.00 ,75.00 ,676.00 ,531.00 ,550.00 ,0.19 ,20138913500.00 
250.00 ,456.00 ,472.00 ,144.00 ,73.00 ,585.00 ,497.00 ,558.00 ,0.21 ,20178730700.00 
232.00 ,462.00 ,464.00 ,142.00 ,74.00 ,591.00 ,502.00 ,544.00 ,0.22 ,20198627400.00 
227.00 ,544.00 ,491.00 ,134.00 ,75.00 ,597.00 ,487.00 ,560.00 ,0.22 ,20198640500.00 
207.00 ,587.00 ,539.00 ,165.00 ,93.00 ,616.00 ,490.00 ,587.00 ,0.23 ,20218883600.00 
196.00 ,598.00 ,513.00 ,174.00 ,88.00 ,511.00 ,542.00 ,646.00 ,0.25 ,20258341100.00 
187.00 ,586.00 ,516.00 ,175.00 ,89.00 ,507.00 ,555.00 ,558.00 ,0.25 ,20258353900.00 
190.00 ,577.00 ,514.00 ,176.00 ,88.00 ,475.00 ,476.00 ,542.00 ,0.27 ,20298783100.00 
276.00 ,492.00 ,450.00 ,175.00 ,89.00 ,477.00 ,465.00 ,524.00 ,0.28 ,20318846900.00 
266.00 ,456.00 ,395.00 ,132.00 ,66.00 ,466.00 ,490.00 ,542.00 ,0.29 ,20338842000.00 
269.00 ,471.00 ,402.00 ,128.00 ,55.00 ,387.00 ,401.00 ,446.00 ,0.30 ,20359306700.00 
265.00 ,468.00 ,403.00 ,126.00 ,59.00 ,378.00 ,377.00 ,495.00 ,0.31 ,20379218500.00 
292.00 ,437.00 ,408.00 ,128.00 ,58.00 ,394.00 ,448.00 ,525.00 ,0.32 ,20399289100.00 
213.00 ,492.00 ,398.00 ,130.00 ,58.00 ,376.00 ,489.00 ,528.00 ,0.33 ,20419126500.00 
217.00 ,495.00 ,488.00 ,164.00 ,66.00 ,344.00 ,445.00 ,501.00 ,0.34 ,20438718500.00 
211.00 ,479.00 ,507.00 ,168.00 ,67.00 ,329.00 ,452.00 ,575.00 ,0.35 ,20459110100.00 
224.00 ,478.00 ,505.00 ,169.00 ,66.00 ,338.00 ,484.00 ,565.00 ,0.36 ,20479236400.00 
212.00 ,469.00 ,505.00 ,167.00 ,65.00 ,326.00 ,482.00 ,538.00 ,0.37 ,20499200800.00 
210.00 ,427.00 ,505.00 ,163.00 ,64.00 ,332.00 ,450.00 ,552.00 ,0.38 ,20519282200.00 
222.00 ,449.00 ,381.00 ,104.00 ,52.00 ,339.00 ,446.00 ,523.00 ,0.39 ,20538921200.00 
216.00 ,465.00 ,368.00 ,87.00 ,55.00 ,367.00 ,449.00 ,423.00 ,0.40 ,20558814800.00 
214.00 ,473.00 ,355.00 ,85.00 ,50.00 ,352.00 ,453.00 ,498.00 ,0.41 ,20578561400.00 
216.00 ,500.00 ,356.00 ,84.00 ,52.00 ,344.00 ,459.00 ,541.00 ,0.42 ,20599057400.00 
217.00 ,506.00 ,355.00 ,85.00 ,55.00 ,351.00 ,461.00 ,557.00 ,0.43 ,20619293800.00 
199.00 ,485.00 ,310.00 ,66.00 ,50.00 ,336.00 ,492.00 ,582.00 ,0.44 ,20639333200.00 
233.00 ,511.00 ,277.00 ,56.00 ,49.00 ,309.00 ,545.00 ,580.00 ,0.44 ,20639523600.00 
227.00 ,511.00 ,272.00 ,58.00 ,52.00 ,314.00 ,564.00 ,517.00 ,0.46 ,20679006600.00 
192.00 ,511.00 ,265.00 ,56.00 ,51.00 ,322.00 ,503.00 ,563.00 ,0.47 ,20698223600.00 
198.00 ,531.00 ,319.00 ,63.00 ,47.00 ,326.00 ,533.00 ,557.00 ,0.48 ,20718822100.00 
209.00 ,493.00 ,332.00 ,71.00 ,54.00 ,366.00 ,640.00 ,589.00 ,0.49 ,20739463200.00 
188.00 ,450.00 ,352.00 ,77.00 ,55.00 ,388.00 ,599.00 ,585.00 ,0.50 ,20757271600.00 
190.00 ,452.00 ,353.00 ,76.00 ,55.00 ,350.00 ,581.00 ,635.00 ,0.51 ,20778547600.00 
199.00 ,438.00 ,352.00 ,76.00 ,58.00 ,363.00 ,599.00 ,627.00 ,0.52 ,20798379900.00 
172.00 ,404.00 ,311.00 ,69.00 ,57.00 ,418.00 ,574.00 ,634.00 ,0.53 ,20818079300.00 
179.00 ,493.00 ,310.00 ,61.00 ,54.00 ,436.00 ,520.00 ,603.00 ,0.54 ,20838104400.00 
167.00 ,505.00 ,343.00 ,51.00 ,53.00 ,462.00 ,529.00 ,684.00 ,0.55 ,20858004200.00 
165.00 ,530.00 ,375.00 ,55.00 ,51.00 ,456.00 ,546.00 ,582.00 ,0.56 ,20877879600.00 
195.00 ,545.00 ,375.00 ,54.00 ,51.00 ,488.00 ,595.00 ,522.00 ,0.57 ,20898142300.00 
220.00 ,581.00 ,486.00 ,100.00 ,58.00 ,541.00 ,605.00 ,560.00 ,0.58 ,20918271900.00 
235.00 ,566.00 ,485.00 ,111.00 ,57.00 ,544.00 ,522.00 ,584.00 ,0.59 ,20938169700.00 
250.00 ,554.00 ,443.00 ,111.00 ,56.00 ,577.00 ,527.00 ,526.00 ,0.60 ,20959962400.00 
263.00 ,566.00 ,419.00 ,110.00 ,53.00 ,632.00 ,465.00 ,535.00 ,0.61 ,20979409300.00 
259.00 ,575.00 ,425.00 ,111.00 ,62.00 ,734.00 ,449.00 ,599.00 ,0.62 ,20999504600.00 
274.00 ,523.00 ,307.00 ,73.00 ,61.00 ,713.00 ,449.00 ,568.00 ,0.62 ,20999518700.00 
264.00 ,546.00 ,307.00 ,67.00 ,69.00 ,783.00 ,478.00 ,562.00 ,0.64 ,21039103500.00 
257.00 ,578.00 ,307.00 ,66.00 ,74.00 ,822.00 ,528.00 ,535.00 ,0.65 ,21059208100.00 
237.00 ,579.00 ,306.00 ,68.00 ,76.00 ,844.00 ,508.00 ,560.00 ,0.66 ,21079045000.00 
241.00 ,554.00 ,296.00 ,65.00 ,69.00 ,766.00 ,545.00 ,515.00 ,0.67 ,21098727700.00 
222.00 ,552.00 ,262.00 ,65.00 ,71.00 ,811.00 ,568.00 ,581.00 ,0.68 ,21118843700.00 
240.00 ,522.00 ,163.00 ,47.00 ,70.00 ,907.00 ,606.00 ,644.00 ,0.69 ,21138862100.00 
281.00 ,588.00 ,161.00 ,48.00 ,68.00 ,924.00 ,544.00 ,690.00 ,0.70 ,21159096600.00 
307.00 ,630.00 ,172.00 ,48.00 ,64.00 ,901.00 ,588.00 ,749.00 ,0.72 ,21198197800.00 
296.00 ,627.00 ,184.00 ,53.00 ,80.00 ,974.00 ,563.00 ,761.00 ,0.72 ,21198211900.00 
290.00 ,625.00 ,167.00 ,50.00 ,78.00 ,925.00 ,623.00 ,735.00 ,0.73 ,21218260600.00 
266.00 ,604.00 ,168.00 ,56.00 ,85.00 ,936.00 ,622.00 ,708.00 ,0.74 ,21238115400.00 
282.00 ,579.00 ,172.00 ,59.00 ,86.00 ,1074.00 ,715.00 ,751.00 ,0.75 ,21257618600.00 
278.00 ,652.00 ,165.00 ,57.00 ,92.00 ,1080.00 ,756.00 ,753.00 ,0.76 ,21279566000.00 
320.00 ,675.00 ,158.00 ,55.00 ,87.00 ,1079.00 ,713.00 ,764.00 ,0.77 ,21299456000.00 
336.00 ,689.00 ,216.00 ,72.00 ,92.00 ,1241.00 ,682.00 ,859.00 ,0.78 ,21319457300.00 
370.00 ,760.00 ,256.00 ,79.00 ,89.00 ,1210.00 ,744.00 ,920.00 ,0.79 ,21339145500.00 
359.00 ,856.00 ,252.00 ,79.00 ,88.00 ,1104.00 ,701.00 ,889.00 ,0.80 ,21359317000.00 
352.00 ,785.00 ,252.00 ,80.00 ,85.00 ,1089.00 ,695.00 ,826.00 ,0.81 ,21379273800.00 
329.00 ,880.00 ,258.00 ,79.00 ,78.00 ,1104.00 ,700.00 ,804.00 ,0.82 ,21398801400.00 
315.00 ,859.00 ,217.00 ,66.00 ,70.00 ,935.00 ,670.00 ,652.00 ,0.83 ,21419182500.00 
276.00 ,844.00 ,179.00 ,59.00 ,65.00 ,932.00 ,662.00 ,512.00 ,0.84 ,21439087700.00 
236.00 ,781.00 ,189.00 ,59.00 ,69.00 ,953.00 ,732.00 ,580.00 ,0.85 ,21458872400.00 
307.00 ,759.00 ,183.00 ,59.00 ,94.00 ,1093.00 ,715.00 ,609.00 ,0.86 ,21478904600.00 
319.00 ,732.00 ,164.00 ,57.00 ,93.00 ,1044.00 ,804.00 ,677.00 ,0.87 ,21498816800.00 
357.00 ,768.00 ,197.00 ,61.00 ,98.00 ,1123.00 ,844.00 ,793.00 ,0.88 ,21518645000.00 
372.00 ,731.00 ,198.00 ,57.00 ,101.00 ,1183.00 ,901.00 ,869.00 ,0.89 ,21538641400.00 
365.00 ,655.00 ,182.00 ,60.00 ,110.00 ,1207.00 ,1018.00 ,911.00 ,0.90 ,21558636500.00 
330.00 ,707.00 ,208.00 ,84.00 ,126.00 ,1221.00 ,1076.00 ,982.00 ,0.91 ,21578432300.00 
418.00 ,695.00 ,279.00 ,120.00 ,190.00 ,1296.00 ,1075.00 ,1031.00 ,0.92 ,21598512400.00 
520.00 ,811.00 ,302.00 ,132.00 ,209.00 ,1293.00 ,1137.00 ,1105.00 ,0.93 ,21618656100.00 
679.00 ,927.00 ,321.00 ,141.00 ,222.00 ,1335.00 ,1105.00 ,1249.00 ,0.94 ,21638242900.00 
710.00 ,992.00 ,324.00 ,141.00 ,232.00 ,1302.00 ,996.00 ,1186.00 ,0.95 ,21658289300.00 
773.00 ,993.00 ,307.00 ,129.00 ,232.00 ,1291.00 ,1024.00 ,1196.00 ,0.96 ,21679163200.00 
770.00 ,1036.00 ,261.00 ,109.00 ,208.00 ,1277.00 ,1034.00 ,1158.00 ,0.97 ,21699162600.00 
770.00 ,1022.00 ,276.00 ,115.00 ,226.00 ,1412.00 ,971.00 ,1087.00 ,0.98 ,21719022000.00 
683.00 ,1006.00 ,345.00 ,123.00 ,234.00 ,1375.00 ,1001.00 ,895.00 ,0.99 ,21739250800.00 
660.00 ,999.00 ,382.00 ,130.00 ,225.00 ,1437.00 ,1023.00 ,894.00 ,0.98 ,21759620400.00 
695.00 ,1046.00 ,491.00 ,157.00 ,216.00 ,1358.00 ,943.00 ,815.00 ,0.97 ,21777788800.00 
644.00 ,1017.00 ,542.00 ,163.00 ,198.00 ,1324.00 ,887.00 ,747.00 ,0.96 ,21797636000.00 
544.00 ,919.00 ,555.00 ,157.00 ,155.00 ,1166.00 ,839.00 ,628.00 ,0.95 ,21817511700.00 
485.00 ,791.00 ,592.00 ,145.00 ,119.00 ,1008.00 ,702.00 ,534.00 ,0.94 ,21837339100.00 
471.00 ,746.00 ,578.00 ,140.00 ,104.00 ,906.00 ,525.00 ,447.00 ,0.93 ,21857426200.00 
254.00 ,660.00 ,523.00 ,115.00 ,87.00 ,982.00 ,425.00 ,322.00 ,0.92 ,21877682600.00 
225.00 ,548.00 ,470.00 ,95.00 ,72.00 ,950.00 ,346.00 ,240.00 ,0.91 ,21897863400.00 
224.00 ,539.00 ,418.00 ,99.00 ,68.00 ,921.00 ,292.00 ,203.00 ,0.89 ,21937589900.00 
174.00 ,550.00 ,374.00 ,99.00 ,59.00 ,1032.00 ,230.00 ,153.00 ,0.89 ,21937640500.00 
176.00 ,499.00 ,444.00 ,96.00 ,59.00 ,944.00 ,288.00 ,136.00 ,0.88 ,21959126000.00 
149.00 ,452.00 ,482.00 ,110.00 ,50.00 ,883.00 ,267.00 ,93.00 ,0.87 ,21979058000.00 
154.00 ,442.00 ,535.00 ,122.00 ,59.00 ,838.00 ,255.00 ,68.00 ,0.86 ,21998840500.00 
140.00 ,429.00 ,574.00 ,135.00 ,53.00 ,769.00 ,249.00 ,60.00 ,0.85 ,22018818700.00 
146.00 ,416.00 ,547.00 ,139.00 ,57.00 ,616.00 ,252.00 ,57.00 ,0.84 ,22038713100.00 
142.00 ,382.00 ,636.00 ,147.00 ,62.00 ,623.00 ,162.00 ,58.00 ,0.83 ,22058658800.00 
143.00 ,346.00 ,610.00 ,132.00 ,62.00 ,519.00 ,149.00 ,55.00 ,0.82 ,22078538200.00 
162.00 ,307.00 ,572.00 ,123.00 ,54.00 ,476.00 ,208.00 ,57.00 ,0.81 ,22098399500.00 
156.00 ,300.00 ,532.00 ,90.00 ,47.00 ,476.00 ,207.00 ,57.00 ,0.80 ,22118395400.00 
165.00 ,307.00 ,576.00 ,96.00 ,44.00 ,453.00 ,207.00 ,50.00 ,0.79 ,22138191100.00 
164.00 ,355.00 ,484.00 ,103.00 ,53.00 ,461.00 ,203.00 ,46.00 ,0.78 ,22159005800.00 
163.00 ,342.00 ,508.00 ,124.00 ,51.00 ,466.00 ,215.00 ,49.00 ,0.77 ,22178913500.00 
131.00 ,362.00 ,516.00 ,126.00 ,50.00 ,466.00 ,129.00 ,41.00 ,0.76 ,22198806900.00 
126.00 ,338.00 ,557.00 ,141.00 ,53.00 ,436.00 ,130.00 ,41.00 ,0.75 ,22219381200.00 
111.00 ,365.00 ,667.00 ,160.00 ,57.00 ,410.00 ,121.00 ,42.00 ,0.74 ,22239227200.00 
118.00 ,366.00 ,649.00 ,156.00 ,42.00 ,333.00 ,114.00 ,42.00 ,0.73 ,22259376400.00 
132.00 ,352.00 ,613.00 ,141.00 ,43.00 ,259.00 ,80.00 ,41.00 ,0.72 ,22279519900.00 
139.00 ,336.00 ,630.00 ,145.00 ,44.00 ,241.00 ,77.00 ,43.00 ,0.71 ,22299303700.00 
138.00 ,344.00 ,666.00 ,135.00 ,41.00 ,202.00 ,62.00 ,42.00 ,0.70 ,22319243300.00 
138.00 ,333.00 ,521.00 ,128.00 ,45.00 ,258.00 ,93.00 ,43.00 ,0.69 ,22338736100.00 
135.00 ,307.00 ,489.00 ,125.00 ,49.00 ,265.00 ,91.00 ,42.00 ,0.68 ,22358794200.00 
136.00 ,321.00 ,575.00 ,128.00 ,46.00 ,257.00 ,90.00 ,39.00 ,0.67 ,22378687200.00 
120.00 ,322.00 ,618.00 ,125.00 ,47.00 ,262.00 ,86.00 ,37.00 ,0.66 ,22398860900.00 
121.00 ,321.00 ,547.00 ,127.00 ,54.00 ,351.00 ,100.00 ,40.00 ,0.65 ,22419121000.00 
116.00 ,284.00 ,565.00 ,117.00 ,59.00 ,432.00 ,83.00 ,43.00 ,0.64 ,22438910100.00 
113.00 ,292.00 ,625.00 ,125.00 ,58.00 ,450.00 ,82.00 ,43.00 ,0.63 ,22459024400.00 
110.00 ,306.00 ,573.00 ,139.00 ,62.00 ,460.00 ,84.00 ,46.00 ,0.62 ,22478681200.00 
110.00 ,320.00 ,518.00 ,146.00 ,63.00 ,461.00 ,89.00 ,46.00 ,0.61 ,22498573500.00 
119.00 ,325.00 ,648.00 ,142.00 ,59.00 ,396.00 ,77.00 ,43.00 ,0.60 ,22518397200.00 
117.00 ,334.00 ,606.00 ,139.00 ,50.00 ,266.00 ,66.00 ,36.00 ,0.59 ,22537913800.00 
113.00 ,310.00 ,607.00 ,140.00 ,46.00 ,247.00 ,66.00 ,37.00 ,0.58 ,22557644500.00 
96.00 ,320.00 ,584.00 ,123.00 ,45.00 ,226.00 ,65.00 ,35.00 ,0.57 ,22577612300.00 
92.00 ,304.00 ,670.00 ,119.00 ,46.00 ,217.00 ,56.00 ,31.00 ,0.56 ,22597449400.00 
72.00 ,288.00 ,600.00 ,119.00 ,46.00 ,210.00 ,49.00 ,33.00 ,0.55 ,22617237400.00 
71.00 ,281.00 ,762.00 ,125.00 ,39.00 ,132.00 ,38.00 ,36.00 ,0.54 ,22639561900.00 
64.00 ,268.00 ,742.00 ,113.00 ,41.00 ,82.00 ,32.00 ,56.00 ,0.53 ,22659520800.00 
57.00 ,237.00 ,756.00 ,123.00 ,41.00 ,88.00 ,32.00 ,58.00 ,0.52 ,22679112100.00 
54.00 ,220.00 ,670.00 ,112.00 ,38.00 ,85.00 ,33.00 ,58.00 ,0.51 ,22698779700.00 
53.00 ,223.00 ,657.00 ,118.00 ,40.00 ,85.00 ,33.00 ,59.00 ,0.50 ,22719036200.00 
52.00 ,216.00 ,663.00 ,105.00 ,40.00 ,82.00 ,34.00 ,58.00 ,0.49 ,22738789200.00 
54.00 ,228.00 ,662.00 ,107.00 ,40.00 ,87.00 ,36.00 ,39.00 ,0.48 ,22757496500.00 
47.00 ,209.00 ,651.00 ,93.00 ,37.00 ,74.00 ,34.00 ,33.00 ,0.47 ,22777625500.00 
51.00 ,227.00 ,706.00 ,94.00 ,38.00 ,127.00 ,43.00 ,35.00 ,0.46 ,22797773900.00 
53.00 ,226.00 ,698.00 ,100.00 ,38.00 ,128.00 ,45.00 ,31.00 ,0.45 ,22817364900.00 
51.00 ,220.00 ,511.00 ,96.00 ,39.00 ,127.00 ,43.00 ,30.00 ,0.44 ,22837388500.00 
52.00 ,222.00 ,480.00 ,95.00 ,40.00 ,126.00 ,44.00 ,31.00 ,0.43 ,22859495500.00 
56.00 ,236.00 ,570.00 ,102.00 ,38.00 ,153.00 ,53.00 ,32.00 ,0.42 ,22879390500.00 
51.00 ,214.00 ,606.00 ,100.00 ,36.00 ,168.00 ,61.00 ,28.00 ,0.41 ,22899434300.00 
48.00 ,210.00 ,690.00 ,92.00 ,35.00 ,166.00 ,62.00 ,29.00 ,0.40 ,22919165800.00 
52.00 ,227.00 ,811.00 ,101.00 ,39.00 ,168.00 ,65.00 ,33.00 ,0.39 ,22939536600.00 
50.00 ,205.00 ,877.00 ,98.00 ,39.00 ,203.00 ,64.00 ,33.00 ,0.38 ,22958988100.00 
73.00 ,241.00 ,849.00 ,117.00 ,56.00 ,264.00 ,69.00 ,45.00 ,0.37 ,22978660100.00 
81.00 ,268.00 ,846.00 ,134.00 ,58.00 ,257.00 ,56.00 ,52.00 ,0.36 ,22998967400.00 
86.00 ,270.00 ,843.00 ,133.00 ,61.00 ,260.00 ,55.00 ,118.00 ,0.35 ,23019231700.00 
97.00 ,272.00 ,761.00 ,163.00 ,69.00 ,265.00 ,54.00 ,121.00 ,0.34 ,23039089400.00 
103.00 ,289.00 ,686.00 ,174.00 ,74.00 ,242.00 ,125.00 ,164.00 ,0.33 ,23058866400.00 
90.00 ,259.00 ,747.00 ,170.00 ,65.00 ,156.00 ,127.00 ,173.00 ,0.32 ,23078814900.00 
83.00 ,256.00 ,740.00 ,159.00 ,66.00 ,120.00 ,129.00 ,172.00 ,0.31 ,23099251400.00 
83.00 ,276.00 ,709.00 ,159.00 ,64.00 ,179.00 ,147.00 ,138.00 ,0.30 ,23118901900.00 
73.00 ,283.00 ,712.00 ,115.00 ,53.00 ,239.00 ,148.00 ,135.00 ,0.29 ,23138609800.00 
66.00 ,260.00 ,815.00 ,109.00 ,49.00 ,251.00 ,97.00 ,80.00 ,0.28 ,23159125600.00 
66.00 ,299.00 ,863.00 ,100.00 ,50.00 ,258.00 ,90.00 ,51.00 ,0.27 ,23178988300.00 
78.00 ,319.00 ,855.00 ,98.00 ,50.00 ,280.00 ,95.00 ,52.00 ,0.26 ,23199112500.00 
82.00 ,354.00 ,864.00 ,132.00 ,58.00 ,279.00 ,63.00 ,57.00 ,0.25 ,23219411000.00 
83.00 ,348.00 ,926.00 ,147.00 ,67.00 ,272.00 ,75.00 ,73.00 ,0.24 ,23239342100.00 
93.00 ,357.00 ,992.00 ,168.00 ,81.00 ,276.00 ,92.00 ,80.00 ,0.23 ,23258824700.00 
103.00 ,373.00 ,963.00 ,164.00 ,80.00 ,277.00 ,91.00 ,81.00 ,0.22 ,23278860300.00 
112.00 ,443.00 ,950.00 ,195.00 ,86.00 ,263.00 ,84.00 ,84.00 ,0.21 ,23298951300.00 
119.00 ,464.00 ,991.00 ,190.00 ,87.00 ,330.00 ,93.00 ,79.00 ,0.20 ,23319138500.00 
116.00 ,492.00 ,1039.00 ,197.00 ,82.00 ,362.00 ,116.00 ,65.00 ,0.19 ,23339285700.00 
118.00 ,533.00 ,1005.00 ,190.00 ,78.00 ,357.00 ,103.00 ,59.00 ,0.18 ,23359311000.00 
120.00 ,548.00 ,999.00 ,225.00 ,90.00 ,355.00 ,107.00 ,60.00 ,0.17 ,23378924000.00 
117.00 ,562.00 ,1062.00 ,226.00 ,93.00 ,358.00 ,110.00 ,62.00 ,0.16 ,23398655400.00 
114.00 ,603.00 ,1084.00 ,229.00 ,92.00 ,267.00 ,109.00 ,63.00 ,0.15 ,23420457100.00 
126.00 ,629.00 ,1034.00 ,237.00 ,97.00 ,172.00 ,73.00 ,64.00 ,0.14 ,23438345700.00 
158.00 ,681.00 ,1056.00 ,272.00 ,122.00 ,205.00 ,86.00 ,73.00 ,0.13 ,23458606200.00 
182.00 ,797.00 ,1104.00 ,283.00 ,128.00 ,200.00 ,85.00 ,79.00 ,0.12 ,23478243300.00 
179.00 ,769.00 ,1150.00 ,290.00 ,127.00 ,185.00 ,86.00 ,74.00 ,0.11 ,23498288900.00 
181.00 ,750.00 ,1147.00 ,312.00 ,133.00 ,182.00 ,83.00 ,73.00 ,0.10 ,23518102400.00 
194.00 ,827.00 ,1199.00 ,328.00 ,153.00 ,178.00 ,88.00 ,82.00 ,0.09 ,23538111200.00 
184.00 ,835.00 ,1187.00 ,373.00 ,143.00 ,123.00 ,82.00 ,81.00 ,0.08 ,23558311600.00 
204.00 ,822.00 ,1209.00 ,413.00 ,168.00 ,123.00 ,90.00 ,97.00 ,0.07 ,23578426000.00 
237.00 ,844.00 ,1190.00 ,528.00 ,198.00 ,130.00 ,95.00 ,114.00 ,0.06 ,23598510100.00 
290.00 ,906.00 ,1178.00 ,570.00 ,208.00 ,141.00 ,101.00 ,138.00 ,0.05 ,23618240900.00 
322.00 ,902.00 ,1142.00 ,667.00 ,225.00 ,139.00 ,109.00 ,155.00 ,0.04 ,23639107700.00 
384.00 ,972.00 ,1128.00 ,680.00 ,252.00 ,150.00 ,121.00 ,175.00 ,0.03 ,23659048100.00 
384.00 ,966.00 ,1152.00 ,678.00 ,243.00 ,154.00 ,116.00 ,171.00 ,0.02 ,23679633000.00 
372.00 ,971.00 ,1152.00 ,623.00 ,230.00 ,143.00 ,112.00 ,165.00 ,0.01 ,23699692200.00 
365.00 ,1032.00 ,1286.00 ,592.00 ,227.00 ,139.00 ,108.00 ,157.00 ,0.00 ,23717289900.00 
369.00 ,989.00 ,1345.00 ,633.00 ,268.00 ,139.00 ,115.00 ,161.00 ,0.01 ,23739585700.00 
351.00 ,1048.00 ,1303.00 ,682.00 ,279.00 ,132.00 ,110.00 ,157.00 ,0.02 ,23757275300.00 
355.00 ,1038.00 ,1250.00 ,730.00 ,285.00 ,130.00 ,124.00 ,173.00 ,0.03 ,23777398400.00 
349.00 ,1012.00 ,1158.00 ,703.00 ,275.00 ,205.00 ,133.00 ,206.00 ,0.04 ,23797240400.00 
329.00 ,876.00 ,957.00 ,698.00 ,272.00 ,389.00 ,263.00 ,410.00 ,0.05 ,23817895500.00 
299.00 ,833.00 ,829.00 ,553.00 ,205.00 ,484.00 ,335.00 ,585.00 ,0.07 ,23858163600.00 
234.00 ,591.00 ,812.00 ,420.00 ,149.00 ,602.00 ,566.00 ,642.00 ,0.07 ,23858177700.00 
189.00 ,462.00 ,694.00 ,251.00 ,113.00 ,620.00 ,574.00 ,706.00 ,0.08 ,23877949100.00 
186.00 ,466.00 ,710.00 ,234.00 ,116.00 ,692.00 ,601.00 ,719.00 ,0.09 ,23898135600.00 
156.00 ,418.00 ,631.00 ,192.00 ,110.00 ,686.00 ,614.00 ,707.00 ,0.10 ,23917844700.00 
176.00 ,422.00 ,656.00 ,179.00 ,120.00 ,814.00 ,622.00 ,614.00 ,0.11 ,23937524000.00 
166.00 ,506.00 ,747.00 ,179.00 ,109.00 ,802.00 ,454.00 ,618.00 ,0.12 ,23959492900.00 
169.00 ,508.00 ,723.00 ,167.00 ,119.00 ,866.00 ,471.00 ,686.00 ,0.13 ,23978849700.00 
180.00 ,459.00 ,687.00 ,146.00 ,118.00 ,874.00 ,553.00 ,697.00 ,0.14 ,23998751600.00 
201.00 ,504.00 ,735.00 ,178.00 ,120.00 ,864.00 ,579.00 ,717.00 ,0.15 ,24018783300.00 
170.00 ,569.00 ,701.00 ,168.00 ,106.00 ,722.00 ,562.00 ,700.00 ,0.16 ,24038797900.00 
205.00 ,548.00 ,546.00 ,164.00 ,106.00 ,649.00 ,546.00 ,652.00 ,0.17 ,24058965500.00 
207.00 ,595.00 ,523.00 ,163.00 ,107.00 ,758.00 ,555.00 ,573.00 ,0.18 ,24078674700.00 
209.00 ,602.00 ,515.00 ,165.00 ,100.00 ,756.00 ,448.00 ,703.00 ,0.19 ,24099011600.00 
204.00 ,597.00 ,498.00 ,125.00 ,90.00 ,717.00 ,370.00 ,614.00 ,0.20 ,24119058500.00 
216.00 ,577.00 ,508.00 ,165.00 ,91.00 ,688.00 ,319.00 ,602.00 ,0.21 ,24139031400.00 
183.00 ,554.00 ,501.00 ,153.00 ,90.00 ,696.00 ,315.00 ,676.00 ,0.22 ,24159195600.00 
191.00 ,475.00 ,493.00 ,154.00 ,75.00 ,636.00 ,320.00 ,750.00 ,0.23 ,24179434900.00 
176.00 ,502.00 ,508.00 ,156.00 ,76.00 ,587.00 ,408.00 ,708.00 ,0.24 ,24198982200.00 
177.00 ,497.00 ,602.00 ,164.00 ,77.00 ,586.00 ,380.00 ,718.00 ,0.25 ,24219409700.00 
158.00 ,515.00 ,501.00 ,127.00 ,62.00 ,589.00 ,387.00 ,721.00 ,0.26 ,24237708100.00 
170.00 ,492.00 ,489.00 ,119.00 ,59.00 ,587.00 ,415.00 ,696.00 ,0.27 ,24257233100.00 
167.00 ,495.00 ,495.00 ,115.00 ,56.00 ,398.00 ,430.00 ,634.00 ,0.28 ,24279414600.00 
179.00 ,485.00 ,473.00 ,110.00 ,57.00 ,344.00 ,382.00 ,535.00 ,0.29 ,24299618900.00 
163.00 ,470.00 ,382.00 ,94.00 ,48.00 ,306.00 ,372.00 ,524.00 ,0.30 ,24318993100.00 
162.00 ,468.00 ,457.00 ,107.00 ,57.00 ,300.00 ,396.00 ,506.00 ,0.31 ,24339226700.00 
161.00 ,480.00 ,491.00 ,105.00 ,57.00 ,328.00 ,362.00 ,509.00 ,0.32 ,24359585200.00 
156.00 ,501.00 ,488.00 ,105.00 ,58.00 ,386.00 ,385.00 ,547.00 ,0.33 ,24377258100.00 
144.00 ,495.00 ,503.00 ,106.00 ,55.00 ,358.00 ,379.00 ,572.00 ,0.34 ,24397457800.00 
141.00 ,502.00 ,453.00 ,98.00 ,55.00 ,365.00 ,395.00 ,569.00 ,0.35 ,24417243500.00 
131.00 ,410.00 ,479.00 ,74.00 ,45.00 ,359.00 ,371.00 ,584.00 ,0.36 ,24439575100.00 
149.00 ,390.00 ,456.00 ,80.00 ,44.00 ,329.00 ,387.00 ,612.00 ,0.37 ,24459374400.00 
166.00 ,366.00 ,468.00 ,82.00 ,44.00 ,276.00 ,316.00 ,552.00 ,0.38 ,24479269200.00 
180.00 ,346.00 ,462.00 ,81.00 ,44.00 ,283.00 ,277.00 ,566.00 ,0.39 ,24498993900.00 
185.00 ,429.00 ,515.00 ,125.00 ,49.00 ,309.00 ,283.00 ,613.00 ,0.40 ,24517932600.00 
188.00 ,446.00 ,413.00 ,116.00 ,46.00 ,338.00 ,320.00 ,615.00 ,0.41 ,24537780300.00 
168.00 ,408.00 ,387.00 ,115.00 ,46.00 ,354.00 ,316.00 ,565.00 ,0.42 ,24557744200.00 
161.00 ,401.00 ,359.00 ,116.00 ,42.00 ,345.00 ,326.00 ,528.00 ,0.43 ,24577786700.00 
153.00 ,416.00 ,407.00 ,118.00 ,40.00 ,344.00 ,330.00 ,486.00 ,0.44 ,24597376000.00 
148.00 ,333.00 ,331.00 ,92.00 ,44.00 ,324.00 ,311.00 ,461.00 ,0.45 ,24619552500.00 
151.00 ,370.00 ,340.00 ,100.00 ,46.00 ,315.00 ,304.00 ,552.00 ,0.46 ,24639328600.00 
164.00 ,373.00 ,352.00 ,100.00 ,46.00 ,309.00 ,335.00 ,587.00 ,0.47 ,24659262800.00 
184.00 ,381.00 ,351.00 ,98.00 ,44.00 ,285.00 ,333.00 ,603.00 ,0.48 ,24679045400.00 
175.00 ,367.00 ,276.00 ,96.00 ,49.00 ,288.00 ,353.00 ,625.00 ,0.49 ,24698932500.00 
173.00 ,402.00 ,474.00 ,91.00 ,40.00 ,311.00 ,380.00 ,631.00 ,0.50 ,24718559800.00 
169.00 ,368.00 ,543.00 ,88.00 ,42.00 ,311.00 ,376.00 ,595.00 ,0.51 ,24738935100.00 
177.00 ,385.00 ,538.00 ,83.00 ,43.00 ,279.00 ,364.00 ,568.00 ,0.52 ,24759563800.00 
151.00 ,380.00 ,540.00 ,85.00 ,50.00 ,309.00 ,354.00 ,563.00 ,0.53 ,24777423900.00 
167.00 ,415.00 ,567.00 ,88.00 ,49.00 ,307.00 ,386.00 ,591.00 ,0.54 ,24798203200.00 
175.00 ,370.00 ,453.00 ,87.00 ,49.00 ,296.00 ,373.00 ,566.00 ,0.55 ,24818039100.00 
176.00 ,380.00 ,373.00 ,80.00 ,47.00 ,290.00 ,380.00 ,574.00 ,0.56 ,24837918700.00 
159.00 ,443.00 ,370.00 ,80.00 ,45.00 ,286.00 ,416.00 ,545.00 ,0.57 ,24857993600.00 
156.00 ,454.00 ,376.00 ,77.00 ,39.00 ,330.00 ,423.00 ,623.00 ,0.58 ,24878090300.00 
148.00 ,429.00 ,356.00 ,75.00 ,39.00 ,405.00 ,389.00 ,653.00 ,0.59 ,24898169800.00 
219.00 ,507.00 ,293.00 ,57.00 ,37.00 ,408.00 ,423.00 ,649.00 ,0.60 ,24918129700.00 
232.00 ,498.00 ,256.00 ,83.00 ,41.00 ,402.00 ,395.00 ,595.00 ,0.61 ,24938214200.00 
235.00 ,483.00 ,254.00 ,88.00 ,46.00 ,429.00 ,340.00 ,600.00 ,0.62 ,24959716300.00 
240.00 ,495.00 ,245.00 ,86.00 ,51.00 ,524.00 ,377.00 ,621.00 ,0.63 ,24979646200.00 
242.00 ,488.00 ,207.00 ,86.00 ,52.00 ,495.00 ,370.00 ,562.00 ,0.64 ,24997308200.00 
186.00 ,401.00 ,140.00 ,82.00 ,53.00 ,514.00 ,312.00 ,582.00 ,0.65 ,25017218600.00 
166.00 ,402.00 ,192.00 ,64.00 ,48.00 ,516.00 ,357.00 ,595.00 ,0.66 ,25037417900.00 
159.00 ,336.00 ,195.00 ,56.00 ,44.00 ,507.00 ,365.00 ,693.00 ,0.67 ,25059142800.00 
153.00 ,316.00 ,194.00 ,59.00 ,43.00 ,370.00 ,348.00 ,608.00 ,0.68 ,25079384900.00 
146.00 ,444.00 ,206.00 ,56.00 ,42.00 ,333.00 ,346.00 ,584.00 ,0.69 ,25097381300.00 
126.00 ,434.00 ,225.00 ,53.00 ,42.00 ,299.00 ,356.00 ,618.00 ,0.70 ,25119517800.00 
132.00 ,449.00 ,184.00 ,43.00 ,43.00 ,363.00 ,386.00 ,770.00 ,0.71 ,25139401400.00 
158.00 ,540.00 ,179.00 ,46.00 ,50.00 ,403.00 ,469.00 ,691.00 ,0.72 ,25157316400.00 
152.00 ,634.00 ,191.00 ,48.00 ,50.00 ,541.00 ,458.00 ,808.00 ,0.73 ,25177197900.00 
155.00 ,591.00 ,243.00 ,56.00 ,51.00 ,562.00 ,464.00 ,818.00 ,0.74 ,25197266600.00 
172.00 ,625.00 ,348.00 ,61.00 ,53.00 ,592.00 ,562.00 ,823.00 ,0.75 ,25219585900.00 
173.00 ,625.00 ,383.00 ,59.00 ,57.00 ,597.00 ,557.00 ,777.00 ,0.76 ,25239156800.00 
162.00 ,675.00 ,383.00 ,57.00 ,58.00 ,644.00 ,506.00 ,799.00 ,0.77 ,25258959300.00 
201.00 ,614.00 ,384.00 ,57.00 ,61.00 ,542.00 ,525.00 ,687.00 ,0.78 ,25278846100.00 
223.00 ,683.00 ,359.00 ,49.00 ,62.00 ,571.00 ,595.00 ,746.00 ,0.79 ,25298925200.00 
247.00 ,775.00 ,247.00 ,42.00 ,62.00 ,571.00 ,612.00 ,757.00 ,0.80 ,25318314700.00 
256.00 ,783.00 ,185.00 ,42.00 ,64.00 ,592.00 ,655.00 ,687.00 ,0.81 ,25338400700.00 
247.00 ,769.00 ,316.00 ,48.00 ,58.00 ,592.00 ,669.00 ,701.00 ,0.82 ,25358042500.00 
249.00 ,841.00 ,409.00 ,52.00 ,53.00 ,610.00 ,720.00 ,699.00 ,0.83 ,25377821700.00 
267.00 ,767.00 ,409.00 ,56.00 ,54.00 ,707.00 ,681.00 ,700.00 ,0.84 ,25397406800.00 
255.00 ,709.00 ,413.00 ,56.00 ,55.00 ,788.00 ,663.00 ,682.00 ,0.85 ,25419411600.00 
277.00 ,782.00 ,425.00 ,61.00 ,52.00 ,826.00 ,650.00 ,677.00 ,0.86 ,25439241000.00 
299.00 ,806.00 ,403.00 ,70.00 ,69.00 ,844.00 ,667.00 ,704.00 ,0.87 ,25459709500.00 
313.00 ,794.00 ,315.00 ,66.00 ,78.00 ,909.00 ,624.00 ,722.00 ,0.88 ,25479531200.00 
304.00 ,917.00 ,312.00 ,69.00 ,87.00 ,960.00 ,661.00 ,742.00 ,0.89 ,25499362200.00 
302.00 ,921.00 ,303.00 ,70.00 ,90.00 ,909.00 ,660.00 ,781.00 ,0.90 ,25519078900.00 
330.00 ,896.00 ,312.00 ,74.00 ,93.00 ,917.00 ,716.00 ,911.00 ,0.91 ,25538946400.00 
346.00 ,834.00 ,251.00 ,74.00 ,114.00 ,1012.00 ,712.00 ,933.00 ,0.92 ,25559457300.00 
324.00 ,810.00 ,243.00 ,95.00 ,132.00 ,1071.00 ,780.00 ,971.00 ,0.93 ,25579110100.00 
359.00 ,729.00 ,238.00 ,108.00 ,166.00 ,989.00 ,891.00 ,1009.00 ,0.94 ,25598532300.00 
387.00 ,816.00 ,253.00 ,115.00 ,178.00 ,1069.00 ,941.00 ,1024.00 ,0.95 ,25618173200.00 
381.00 ,869.00 ,229.00 ,119.00 ,209.00 ,1154.00 ,964.00 ,1031.00 ,0.96 ,25638945900.00 
409.00 ,897.00 ,204.00 ,120.00 ,227.00 ,1252.00 ,1064.00 ,1036.00 ,0.97 ,25658954000.00 
454.00 ,890.00 ,208.00 ,122.00 ,229.00 ,1320.00 ,1074.00 ,1083.00 ,0.98 ,25679595700.00 
465.00 ,887.00 ,233.00 ,114.00 ,220.00 ,1375.00 ,1016.00 ,1122.00 ,0.99 ,25699342400.00 
616.00 ,838.00 ,310.00 ,138.00 ,256.00 ,1446.00 ,1012.00 ,1157.00 ,0.98 ,25718785000.00 
675.00 ,799.00 ,333.00 ,152.00 ,275.00 ,1492.00 ,991.00 ,1132.00 ,0.97 ,25738701800.00 
696.00 ,833.00 ,435.00 ,166.00 ,263.00 ,1510.00 ,990.00 ,1145.00 ,0.96 ,25758887400.00 
693.00 ,888.00 ,492.00 ,174.00 ,281.00 ,1467.00 ,956.00 ,1144.00 ,0.95 ,25779302000.00 
684.00 ,951.00 ,481.00 ,177.00 ,297.00 ,1527.00 ,1023.00 ,1039.00 ,0.93 ,25819348800.00 
559.00 ,916.00 ,446.00 ,159.00 ,263.00 ,1479.00 ,968.00 ,998.00 ,0.93 ,25819362100.00 
512.00 ,939.00 ,457.00 ,164.00 ,259.00 ,1389.00 ,954.00 ,1102.00 ,0.92 ,25838972900.00 
449.00 ,899.00 ,418.00 ,146.00 ,249.00 ,1228.00 ,847.00 ,1066.00 ,0.91 ,25859159900.00 
415.00 ,874.00 ,350.00 ,123.00 ,219.00 ,1133.00 ,834.00 ,990.00 ,0.90 ,25879320300.00 
393.00 ,779.00 ,370.00 ,119.00 ,191.00 ,964.00 ,697.00 ,999.00 ,0.89 ,25899071500.00 
341.00 ,775.00 ,461.00 ,117.00 ,185.00 ,819.00 ,653.00 ,919.00 ,0.88 ,25918590200.00 
250.00 ,666.00 ,473.00 ,113.00 ,118.00 ,772.00 ,544.00 ,645.00 ,0.87 ,25937441100.00 
217.00 ,604.00 ,475.00 ,194.00 ,115.00 ,865.00 ,471.00 ,534.00 ,0.86 ,25958627000.00 
195.00 ,537.00 ,630.00 ,225.00 ,121.00 ,885.00 ,378.00 ,433.00 ,0.85 ,25978477200.00 
151.00 ,513.00 ,741.00 ,257.00 ,104.00 ,944.00 ,278.00 ,267.00 ,0.84 ,25998400700.00 
153.00 ,435.00 ,695.00 ,258.00 ,100.00 ,955.00 ,260.00 ,219.00 ,0.83 ,26018160700.00 
168.00 ,441.00 ,698.00 ,252.00 ,99.00 ,883.00 ,243.00 ,150.00 ,0.82 ,26038004000.00 
183.00 ,445.00 ,744.00 ,257.00 ,93.00 ,690.00 ,243.00 ,125.00 ,0.80 ,26078271700.00 
170.00 ,400.00 ,661.00 ,237.00 ,70.00 ,677.00 ,221.00 ,87.00 ,0.80 ,26078296700.00 
174.00 ,362.00 ,549.00 ,210.00 ,51.00 ,590.00 ,228.00 ,73.00 ,0.79 ,26098275300.00 
166.00 ,395.00 ,571.00 ,211.00 ,51.00 ,565.00 ,222.00 ,70.00 ,0.78 ,26118370600.00 
157.00 ,475.00 ,544.00 ,220.00 ,53.00 ,563.00 ,219.00 ,59.00 ,0.77 ,26137478000.00 
141.00 ,459.00 ,562.00 ,158.00 ,54.00 ,539.00 ,197.00 ,55.00 ,0.75 ,26179636500.00 
132.00 ,430.00 ,537.00 ,160.00 ,49.00 ,475.00 ,194.00 ,54.00 ,0.75 ,26179649100.00 
120.00 ,433.00 ,532.00 ,150.00 ,51.00 ,373.00 ,251.00 ,56.00 ,0.74 ,26198086800.00 
124.00 ,456.00 ,531.00 ,143.00 ,47.00 ,342.00 ,234.00 ,59.00 ,0.72 ,26237869300.00 
104.00 ,405.00 ,541.00 ,115.00 ,40.00 ,331.00 ,237.00 ,56.00 ,0.71 ,26257457700.00 
112.00 ,430.00 ,449.00 ,117.00 ,43.00 ,312.00 ,237.00 ,54.00 ,0.71 ,26257470800.00 
112.00 ,451.00 ,441.00 ,97.00 ,44.00 ,181.00 ,238.00 ,54.00 ,0.70 ,26279326100.00 
117.00 ,448.00 ,505.00 ,106.00 ,39.00 ,240.00 ,166.00 ,47.00 ,0.69 ,26297484500.00 
112.00 ,385.00 ,487.00 ,111.00 ,39.00 ,272.00 ,210.00 ,37.00 ,0.68 ,26317426900.00 
116.00 ,319.00 ,473.00 ,110.00 ,38.00 ,261.00 ,206.00 ,35.00 ,0.67 ,26339660300.00 
96.00 ,291.00 ,509.00 ,91.00 ,36.00 ,263.00 ,204.00 ,36.00 ,0.66 ,26359675800.00 
101.00 ,262.00 ,533.00 ,108.00 ,37.00 ,259.00 ,197.00 ,33.00 ,0.65 ,26379551500.00 
98.00 ,304.00 ,462.00 ,99.00 ,37.00 ,192.00 ,198.00 ,32.00 ,0.64 ,26399163400.00 
96.00 ,335.00 ,574.00 ,100.00 ,37.00 ,111.00 ,143.00 ,29.00 ,0.63 ,26418939500.00 
89.00 ,327.00 ,626.00 ,116.00 ,41.00 ,112.00 ,138.00 ,30.00 ,0.62 ,26438858700.00 
85.00 ,298.00 ,625.00 ,125.00 ,41.00 ,101.00 ,135.00 ,30.00 ,0.61 ,26458654600.00 
93.00 ,320.00 ,660.00 ,159.00 ,45.00 ,94.00 ,132.00 ,36.00 ,0.60 ,26478758100.00 
89.00 ,284.00 ,658.00 ,169.00 ,51.00 ,78.00 ,66.00 ,41.00 ,0.59 ,26498726400.00 
87.00 ,265.00 ,641.00 ,175.00 ,54.00 ,77.00 ,54.00 ,43.00 ,0.58 ,26518052700.00 
99.00 ,272.00 ,656.00 ,178.00 ,52.00 ,61.00 ,62.00 ,43.00 ,0.57 ,26538281600.00 
97.00 ,282.00 ,653.00 ,171.00 ,52.00 ,59.00 ,59.00 ,43.00 ,0.56 ,26558248200.00 
82.00 ,231.00 ,634.00 ,133.00 ,58.00 ,55.00 ,55.00 ,39.00 ,0.54 ,26598447100.00 
74.00 ,208.00 ,708.00 ,114.00 ,56.00 ,68.00 ,56.00 ,33.00 ,0.54 ,26598460700.00 
75.00 ,185.00 ,703.00 ,112.00 ,60.00 ,161.00 ,64.00 ,31.00 ,0.53 ,26617868800.00 
58.00 ,197.00 ,645.00 ,110.00 ,62.00 ,268.00 ,65.00 ,31.00 ,0.51 ,26658028400.00 
57.00 ,179.00 ,622.00 ,111.00 ,63.00 ,290.00 ,64.00 ,29.00 ,0.51 ,26658040600.00 
56.00 ,232.00 ,713.00 ,110.00 ,55.00 ,301.00 ,66.00 ,29.00 ,0.50 ,26677625700.00 
64.00 ,246.00 ,665.00 ,116.00 ,54.00 ,302.00 ,66.00 ,37.00 ,0.49 ,26698095500.00 
82.00 ,265.00 ,618.00 ,135.00 ,72.00 ,366.00 ,85.00 ,41.00 ,0.48 ,26718047000.00 
80.00 ,265.00 ,628.00 ,125.00 ,72.00 ,320.00 ,76.00 ,41.00 ,0.47 ,26737902800.00 
90.00 ,295.00 ,691.00 ,140.00 ,74.00 ,302.00 ,79.00 ,45.00 ,0.45 ,26778726100.00 
102.00 ,334.00 ,770.00 ,151.00 ,74.00 ,295.00 ,77.00 ,46.00 ,0.45 ,26778741700.00 
98.00 ,330.00 ,785.00 ,157.00 ,74.00 ,298.00 ,76.00 ,41.00 ,0.44 ,26799149600.00 
87.00 ,327.00 ,803.00 ,136.00 ,53.00 ,165.00 ,50.00 ,43.00 ,0.43 ,26819521600.00 
88.00 ,329.00 ,819.00 ,138.00 ,51.00 ,141.00 ,63.00 ,44.00 ,0.42 ,26839540600.00 
82.00 ,314.00 ,792.00 ,134.00 ,50.00 ,178.00 ,63.00 ,41.00 ,0.41 ,26859551400.00 
71.00 ,272.00 ,688.00 ,120.00 ,51.00 ,241.00 ,66.00 ,41.00 ,0.40 ,26879512500.00 
75.00 ,347.00 ,745.00 ,134.00 ,65.00 ,312.00 ,114.00 ,47.00 ,0.39 ,26899560400.00 
67.00 ,339.00 ,796.00 ,145.00 ,65.00 ,317.00 ,115.00 ,43.00 ,0.38 ,26919333600.00 
108.00 ,352.00 ,846.00 ,146.00 ,66.00 ,332.00 ,111.00 ,43.00 ,0.36 ,26958289800.00 
142.00 ,404.00 ,910.00 ,148.00 ,71.00 ,331.00 ,112.00 ,54.00 ,0.35 ,26978556300.00 
142.00 ,392.00 ,884.00 ,147.00 ,69.00 ,357.00 ,114.00 ,52.00 ,0.35 ,26978568800.00 
147.00 ,367.00 ,844.00 ,130.00 ,56.00 ,308.00 ,69.00 ,50.00 ,0.34 ,26998631000.00 
156.00 ,397.00 ,857.00 ,124.00 ,56.00 ,306.00 ,68.00 ,52.00 ,0.32 ,27038327400.00 
133.00 ,378.00 ,791.00 ,129.00 ,58.00 ,304.00 ,63.00 ,54.00 ,0.32 ,27038340100.00 
104.00 ,351.00 ,772.00 ,129.00 ,54.00 ,290.00 ,62.00 ,46.00 ,0.30 ,27078116300.00 
121.00 ,405.00 ,805.00 ,165.00 ,63.00 ,301.00 ,83.00 ,52.00 ,0.29 ,27097900800.00 
117.00 ,383.00 ,921.00 ,174.00 ,61.00 ,318.00 ,87.00 ,49.00 ,0.29 ,27097919500.00 
108.00 ,351.00 ,843.00 ,175.00 ,62.00 ,318.00 ,90.00 ,50.00 ,0.27 ,27138216100.00 
109.00 ,359.00 ,886.00 ,180.00 ,64.00 ,307.00 ,99.00 ,51.00 ,0.26 ,27158214400.00 
114.00 ,384.00 ,872.00 ,180.00 ,62.00 ,404.00 ,121.00 ,54.00 ,0.26 ,27158227100.00 
100.00 ,394.00 ,850.00 ,168.00 ,68.00 ,372.00 ,111.00 ,50.00 ,0.24 ,27197690600.00 
116.00 ,492.00 ,786.00 ,215.00 ,80.00 ,382.00 ,117.00 ,58.00 ,0.23 ,27221665600.00 
130.00 ,520.00 ,901.00 ,272.00 ,92.00 ,380.00 ,117.00 ,63.00 ,0.23 ,27221678200.00 
144.00 ,588.00 ,1000.00 ,296.00 ,97.00 ,372.00 ,113.00 ,67.00 ,0.22 ,27239440700.00 
147.00 ,577.00 ,1034.00 ,306.00 ,102.00 ,357.00 ,101.00 ,69.00 ,0.20 ,27279139200.00 
166.00 ,544.00 ,1084.00 ,323.00 ,108.00 ,347.00 ,99.00 ,79.00 ,0.20 ,27279155200.00 
166.00 ,549.00 ,1068.00 ,295.00 ,108.00 ,306.00 ,90.00 ,78.00 ,0.19 ,27299260700.00 
163.00 ,547.00 ,992.00 ,242.00 ,98.00 ,306.00 ,90.00 ,74.00 ,0.17 ,27339151000.00 
165.00 ,583.00 ,916.00 ,222.00 ,95.00 ,305.00 ,89.00 ,75.00 ,0.17 ,27339164800.00 
199.00 ,619.00 ,929.00 ,301.00 ,106.00 ,180.00 ,82.00 ,87.00 ,0.15 ,27378379300.00 
192.00 ,673.00 ,906.00 ,309.00 ,103.00 ,140.00 ,80.00 ,83.00 ,0.14 ,27398299400.00 
193.00 ,676.00 ,910.00 ,341.00 ,109.00 ,156.00 ,76.00 ,85.00 ,0.14 ,27398312700.00 
233.00 ,783.00 ,989.00 ,437.00 ,130.00 ,155.00 ,87.00 ,103.00 ,0.13 ,27418128600.00 
230.00 ,723.00 ,1023.00 ,489.00 ,135.00 ,150.00 ,85.00 ,103.00 ,0.11 ,27457818900.00 
222.00 ,769.00 ,1006.00 ,476.00 ,134.00 ,142.00 ,77.00 ,98.00 ,0.11 ,27457831900.00 
247.00 ,796.00 ,1065.00 ,556.00 ,164.00 ,124.00 ,83.00 ,110.00 ,0.09 ,27498110300.00 
263.00 ,761.00 ,1095.00 ,556.00 ,167.00 ,95.00 ,89.00 ,117.00 ,0.08 ,27518062600.00 
271.00 ,778.00 ,1123.00 ,524.00 ,173.00 ,90.00 ,83.00 ,116.00 ,0.08 ,27518075600.00 
322.00 ,872.00 ,1151.00 ,596.00 ,206.00 ,110.00 ,93.00 ,132.00 ,0.07 ,27537941300.00 
395.00 ,903.00 ,1193.00 ,638.00 ,223.00 ,116.00 ,105.00 ,148.00 ,0.05 ,27577799500.00 
410.00 ,913.00 ,1222.00 ,594.00 ,224.00 ,109.00 ,110.00 ,157.00 ,0.05 ,27577813900.00 
422.00 ,921.00 ,1180.00 ,603.00 ,239.00 ,115.00 ,116.00 ,162.00 ,0.03 ,27618049900.00 
423.00 ,897.00 ,1112.00 ,596.00 ,240.00 ,119.00 ,123.00 ,169.00 ,0.02 ,27638059300.00 
389.00 ,838.00 ,1039.00 ,579.00 ,238.00 ,119.00 ,120.00 ,161.00 ,0.02 ,27638071300.00 
324.00 ,849.00 ,1041.00 ,568.00 ,244.00 ,255.00 ,124.00 ,157.00 ,0.00 ,27678045800.00 
278.00 ,816.00 ,972.00 ,530.00 ,223.00 ,366.00 ,139.00 ,190.00 ,0.01 ,27697958200.00 
261.00 ,833.00 ,982.00 ,529.00 ,211.00 ,453.00 ,152.00 ,238.00 ,0.01 ,27697970700.00 
322.00 ,868.00 ,980.00 ,607.00 ,258.00 ,603.00 ,188.00 ,280.00 ,0.02 ,27718227600.00 
316.00 ,854.00 ,982.00 ,510.00 ,233.00 ,614.00 ,206.00 ,291.00 ,0.04 ,27762517400.00 
291.00 ,738.00 ,837.00 ,433.00 ,206.00 ,635.00 ,215.00 ,427.00 ,0.04 ,27762530600.00 
303.00 ,717.00 ,718.00 ,423.00 ,205.00 ,612.00 ,223.00 ,541.00 ,0.06 ,27797696900.00 
299.00 ,700.00 ,678.00 ,395.00 ,195.00 ,643.00 ,233.00 ,581.00 ,0.07 ,27817449600.00 
204.00 ,655.00 ,776.00 ,213.00 ,102.00 ,545.00 ,231.00 ,650.00 ,0.07 ,27817463500.00 
199.00 ,635.00 ,714.00 ,196.00 ,97.00 ,577.00 ,227.00 ,678.00 ,0.08 ,27839546800.00 
191.00 ,656.00 ,732.00 ,182.00 ,94.00 ,609.00 ,256.00 ,627.00 ,0.10 ,27879014600.00 
211.00 ,609.00 ,833.00 ,182.00 ,99.00 ,700.00 ,253.00 ,618.00 ,0.11 ,27899187400.00 
206.00 ,615.00 ,950.00 ,157.00 ,102.00 ,702.00 ,248.00 ,588.00 ,0.11 ,27899200600.00 
183.00 ,547.00 ,833.00 ,112.00 ,102.00 ,864.00 ,254.00 ,593.00 ,0.13 ,27939213900.00 
185.00 ,531.00 ,829.00 ,100.00 ,105.00 ,910.00 ,294.00 ,706.00 ,0.14 ,27957962600.00 
195.00 ,569.00 ,793.00 ,97.00 ,100.00 ,877.00 ,299.00 ,772.00 ,0.14 ,27958017500.00 
212.00 ,629.00 ,703.00 ,135.00 ,99.00 ,835.00 ,302.00 ,835.00 ,0.16 ,27998068600.00 
200.00 ,641.00 ,483.00 ,125.00 ,89.00 ,772.00 ,297.00 ,841.00 ,0.17 ,28017713700.00 
216.00 ,589.00 ,403.00 ,133.00 ,75.00 ,639.00 ,289.00 ,791.00 ,0.18 ,28038320500.00 
231.00 ,586.00 ,382.00 ,133.00 ,70.00 ,617.00 ,278.00 ,789.00 ,0.19 ,28058337000.00 
231.00 ,571.00 ,378.00 ,135.00 ,72.00 ,593.00 ,240.00 ,741.00 ,0.20 ,28078003500.00 
189.00 ,526.00 ,447.00 ,122.00 ,63.00 ,527.00 ,225.00 ,589.00 ,0.20 ,28078018600.00 
184.00 ,469.00 ,514.00 ,131.00 ,71.00 ,652.00 ,258.00 ,571.00 ,0.22 ,28117860500.00 
157.00 ,442.00 ,516.00 ,125.00 ,73.00 ,619.00 ,288.00 ,575.00 ,0.23 ,28137874900.00 
125.00 ,423.00 ,516.00 ,124.00 ,72.00 ,585.00 ,277.00 ,517.00 ,0.24 ,28157779100.00 
106.00 ,313.00 ,533.00 ,125.00 ,68.00 ,632.00 ,315.00 ,477.00 ,0.25 ,28177719100.00 
108.00 ,302.00 ,527.00 ,112.00 ,62.00 ,632.00 ,318.00 ,491.00 ,0.26 ,28197609900.00 
121.00 ,268.00 ,602.00 ,93.00 ,53.00 ,514.00 ,300.00 ,590.00 ,0.27 ,28219678800.00 
132.00 ,401.00 ,616.00 ,99.00 ,55.00 ,475.00 ,297.00 ,601.00 ,0.28 ,28239356400.00 
145.00 ,403.00 ,623.00 ,100.00 ,59.00 ,445.00 ,298.00 ,605.00 ,0.29 ,28258822100.00 
148.00 ,441.00 ,617.00 ,98.00 ,58.00 ,340.00 ,261.00 ,627.00 ,0.30 ,28278564200.00 
139.00 ,522.00 ,611.00 ,96.00 ,58.00 ,340.00 ,259.00 ,624.00 ,0.31 ,28302811400.00 
154.00 ,560.00 ,649.00 ,137.00 ,64.00 ,405.00 ,282.00 ,591.00 ,0.32 ,28317915400.00 
161.00 ,561.00 ,672.00 ,135.00 ,61.00 ,430.00 ,271.00 ,597.00 ,0.32 ,28317927300.00 
148.00 ,574.00 ,669.00 ,137.00 ,55.00 ,445.00 ,287.00 ,531.00 ,0.34 ,28358245200.00 
152.00 ,567.00 ,661.00 ,137.00 ,57.00 ,447.00 ,345.00 ,529.00 ,0.35 ,28378034600.00 
165.00 ,488.00 ,634.00 ,122.00 ,50.00 ,442.00 ,351.00 ,592.00 ,0.35 ,28378046200.00 
150.00 ,546.00 ,563.00 ,91.00 ,44.00 ,375.00 ,324.00 ,545.00 ,0.37 ,28417399400.00 
144.00 ,490.00 ,546.00 ,98.00 ,43.00 ,357.00 ,294.00 ,537.00 ,0.38 ,28437543300.00 
150.00 ,492.00 ,544.00 ,93.00 ,42.00 ,312.00 ,302.00 ,556.00 ,0.39 ,28457527300.00 
157.00 ,479.00 ,546.00 ,91.00 ,40.00 ,310.00 ,306.00 ,591.00 ,0.40 ,28477376500.00 
136.00 ,468.00 ,483.00 ,92.00 ,45.00 ,306.00 ,304.00 ,548.00 ,0.41 ,28497397000.00 
144.00 ,373.00 ,389.00 ,93.00 ,45.00 ,299.00 ,306.00 ,550.00 ,0.42 ,28517425900.00 
135.00 ,362.00 ,360.00 ,78.00 ,41.00 ,257.00 ,339.00 ,616.00 ,0.43 ,28537650300.00 
136.00 ,371.00 ,346.00 ,82.00 ,48.00 ,281.00 ,310.00 ,598.00 ,0.44 ,28557315300.00 
142.00 ,352.00 ,341.00 ,81.00 ,50.00 ,421.00 ,268.00 ,581.00 ,0.45 ,28577374700.00 
152.00 ,394.00 ,293.00 ,83.00 ,48.00 ,439.00 ,281.00 ,591.00 ,0.46 ,28599601900.00 
148.00 ,389.00 ,231.00 ,57.00 ,46.00 ,447.00 ,308.00 ,594.00 ,0.47 ,28621039400.00 
161.00 ,402.00 ,357.00 ,72.00 ,51.00 ,475.00 ,272.00 ,539.00 ,0.47 ,28621051800.00 
163.00 ,380.00 ,374.00 ,68.00 ,46.00 ,475.00 ,258.00 ,551.00 ,0.49 ,28659201500.00 
149.00 ,464.00 ,386.00 ,72.00 ,44.00 ,385.00 ,256.00 ,532.00 ,0.50 ,28679743300.00 
144.00 ,449.00 ,409.00 ,70.00 ,45.00 ,360.00 ,313.00 ,533.00 ,0.50 ,28679756300.00 
159.00 ,410.00 ,385.00 ,66.00 ,44.00 ,384.00 ,345.00 ,641.00 ,0.52 ,28717477800.00 
151.00 ,442.00 ,235.00 ,48.00 ,41.00 ,371.00 ,362.00 ,614.00 ,0.53 ,28737584100.00 
