7.100000000000000000e+01,2.410000000000000000e+02,7.310000000000000000e+02,1.110000000000000000e+02,4.300000000000000000e+01,3.700000000000000000e+01,5.500000000000000000e+01,3.050000000000000000e+02,2.999999999999999889e-02,1.796410000000000000e+07
5.600000000000000000e+01,2.350000000000000000e+02,6.840000000000000000e+02,9.600000000000000000e+01,4.300000000000000000e+01,3.300000000000000000e+01,6.500000000000000000e+01,2.890000000000000000e+02,4.000000000000000083e-02,4.397574000000000000e+08
5.500000000000000000e+01,2.250000000000000000e+02,6.180000000000000000e+02,9.400000000000000000e+01,4.100000000000000000e+01,3.400000000000000000e+01,6.600000000000000000e+01,2.470000000000000000e+02,4.000000000000000083e-02,4.397813000000000000e+08
5.200000000000000000e+01,2.410000000000000000e+02,5.520000000000000000e+02,8.900000000000000000e+01,3.700000000000000000e+01,2.900000000000000000e+01,6.700000000000000000e+01,2.450000000000000000e+02,4.000000000000000083e-02,4.397891000000000000e+08
4.700000000000000000e+01,2.320000000000000000e+02,5.000000000000000000e+02,7.100000000000000000e+01,3.600000000000000000e+01,3.000000000000000000e+01,6.800000000000000000e+01,2.420000000000000000e+02,4.000000000000000083e-02,4.397968000000000000e+08
4.700000000000000000e+01,2.330000000000000000e+02,4.850000000000000000e+02,7.100000000000000000e+01,3.700000000000000000e+01,3.000000000000000000e+01,6.300000000000000000e+01,2.400000000000000000e+02,4.000000000000000083e-02,4.398042000000000000e+08
5.200000000000000000e+01,2.390000000000000000e+02,5.640000000000000000e+02,7.500000000000000000e+01,3.800000000000000000e+01,3.300000000000000000e+01,6.500000000000000000e+01,2.130000000000000000e+02,4.000000000000000083e-02,4.398114000000000000e+08
5.100000000000000000e+01,2.240000000000000000e+02,5.720000000000000000e+02,7.700000000000000000e+01,4.200000000000000000e+01,3.200000000000000000e+01,6.600000000000000000e+01,2.160000000000000000e+02,4.000000000000000083e-02,4.398272000000000000e+08
5.400000000000000000e+01,2.150000000000000000e+02,6.410000000000000000e+02,8.500000000000000000e+01,4.600000000000000000e+01,3.700000000000000000e+01,7.200000000000000000e+01,2.410000000000000000e+02,4.000000000000000083e-02,4.398343000000000000e+08
5.700000000000000000e+01,2.460000000000000000e+02,6.770000000000000000e+02,8.600000000000000000e+01,4.500000000000000000e+01,3.800000000000000000e+01,7.300000000000000000e+01,2.930000000000000000e+02,4.000000000000000083e-02,4.398414000000000000e+08
5.300000000000000000e+01,2.360000000000000000e+02,6.490000000000000000e+02,8.500000000000000000e+01,4.300000000000000000e+01,3.800000000000000000e+01,6.600000000000000000e+01,2.680000000000000000e+02,4.000000000000000083e-02,4.398541000000000000e+08
4.500000000000000000e+01,2.310000000000000000e+02,6.350000000000000000e+02,7.400000000000000000e+01,3.600000000000000000e+01,3.400000000000000000e+01,5.200000000000000000e+01,2.530000000000000000e+02,4.000000000000000083e-02,4.398621000000000000e+08
5.300000000000000000e+01,2.530000000000000000e+02,6.040000000000000000e+02,6.800000000000000000e+01,3.100000000000000000e+01,3.300000000000000000e+01,5.000000000000000000e+01,2.540000000000000000e+02,4.000000000000000083e-02,4.398693000000000000e+08
6.400000000000000000e+01,2.800000000000000000e+02,5.970000000000000000e+02,7.700000000000000000e+01,3.200000000000000000e+01,3.000000000000000000e+01,3.900000000000000000e+01,2.940000000000000000e+02,4.000000000000000083e-02,4.398774000000000000e+08
6.400000000000000000e+01,2.410000000000000000e+02,6.500000000000000000e+02,8.100000000000000000e+01,3.100000000000000000e+01,2.900000000000000000e+01,3.400000000000000000e+01,2.440000000000000000e+02,4.000000000000000083e-02,4.398842000000000000e+08
6.400000000000000000e+01,2.370000000000000000e+02,6.640000000000000000e+02,8.100000000000000000e+01,3.100000000000000000e+01,2.900000000000000000e+01,3.300000000000000000e+01,2.430000000000000000e+02,4.000000000000000083e-02,4.398961000000000000e+08
6.800000000000000000e+01,2.420000000000000000e+02,7.080000000000000000e+02,9.700000000000000000e+01,3.700000000000000000e+01,3.000000000000000000e+01,5.400000000000000000e+01,2.650000000000000000e+02,4.000000000000000083e-02,4.399054000000000000e+08
7.500000000000000000e+01,3.540000000000000000e+02,7.670000000000000000e+02,9.700000000000000000e+01,3.500000000000000000e+01,2.900000000000000000e+01,6.000000000000000000e+01,2.900000000000000000e+02,4.000000000000000083e-02,4.399124000000000000e+08
6.800000000000000000e+01,3.620000000000000000e+02,7.220000000000000000e+02,8.300000000000000000e+01,3.000000000000000000e+01,2.700000000000000000e+01,6.300000000000000000e+01,2.440000000000000000e+02,4.000000000000000083e-02,4.399190000000000000e+08
7.000000000000000000e+01,3.580000000000000000e+02,6.280000000000000000e+02,7.800000000000000000e+01,3.200000000000000000e+01,2.800000000000000000e+01,6.500000000000000000e+01,2.510000000000000000e+02,4.000000000000000083e-02,4.399256000000000000e+08
7.100000000000000000e+01,3.720000000000000000e+02,6.160000000000000000e+02,7.800000000000000000e+01,3.200000000000000000e+01,2.800000000000000000e+01,6.600000000000000000e+01,2.940000000000000000e+02,4.000000000000000083e-02,4.399320000000000000e+08
7.100000000000000000e+01,3.860000000000000000e+02,5.180000000000000000e+02,5.900000000000000000e+01,2.600000000000000000e+01,2.800000000000000000e+01,5.300000000000000000e+01,2.830000000000000000e+02,4.000000000000000083e-02,4.399387000000000000e+08
5.500000000000000000e+01,2.710000000000000000e+02,4.220000000000000000e+02,5.300000000000000000e+01,2.800000000000000000e+01,3.100000000000000000e+01,4.200000000000000000e+01,2.460000000000000000e+02,2.099999999999999922e-01,4.729926000000000000e+08
5.800000000000000000e+01,2.890000000000000000e+02,4.470000000000000000e+02,5.800000000000000000e+01,2.700000000000000000e+01,3.400000000000000000e+01,3.600000000000000000e+01,2.230000000000000000e+02,2.200000000000000011e-01,4.926208000000000000e+08
5.800000000000000000e+01,3.210000000000000000e+02,5.670000000000000000e+02,7.700000000000000000e+01,2.900000000000000000e+01,3.700000000000000000e+01,6.000000000000000000e+01,2.510000000000000000e+02,2.300000000000000100e-01,5.081304000000000000e+08
9.500000000000000000e+01,3.350000000000000000e+02,5.560000000000000000e+02,9.300000000000000000e+01,3.300000000000000000e+01,4.100000000000000000e+01,6.500000000000000000e+01,3.440000000000000000e+02,2.399999999999999911e-01,5.319528000000000000e+08
9.500000000000000000e+01,3.330000000000000000e+02,5.240000000000000000e+02,9.000000000000000000e+01,3.400000000000000000e+01,4.200000000000000000e+01,6.400000000000000000e+01,3.450000000000000000e+02,2.500000000000000000e-01,5.478730000000000000e+08
1.000000000000000000e+02,3.460000000000000000e+02,5.310000000000000000e+02,9.100000000000000000e+01,3.400000000000000000e+01,4.100000000000000000e+01,6.500000000000000000e+01,3.490000000000000000e+02,2.600000000000000089e-01,5.714232000000000000e+08
9.600000000000000000e+01,2.910000000000000000e+02,5.410000000000000000e+02,9.300000000000000000e+01,3.400000000000000000e+01,3.900000000000000000e+01,6.700000000000000000e+01,3.530000000000000000e+02,2.700000000000000178e-01,5.872771000000000000e+08
9.600000000000000000e+01,2.630000000000000000e+02,4.220000000000000000e+02,8.300000000000000000e+01,3.400000000000000000e+01,3.700000000000000000e+01,4.700000000000000000e+01,3.400000000000000000e+02,2.800000000000000266e-01,6.129943000000000000e+08
6.600000000000000000e+01,2.630000000000000000e+02,4.100000000000000000e+02,6.600000000000000000e+01,3.200000000000000000e+01,3.200000000000000000e+01,4.700000000000000000e+01,2.590000000000000000e+02,2.899999999999999800e-01,6.308121000000000000e+08
6.600000000000000000e+01,2.430000000000000000e+02,4.410000000000000000e+02,6.300000000000000000e+01,3.200000000000000000e+01,7.000000000000000000e+01,7.200000000000000000e+01,3.120000000000000000e+02,2.999999999999999889e-01,6.527927000000000000e+08
6.200000000000000000e+01,2.170000000000000000e+02,5.660000000000000000e+02,7.300000000000000000e+01,3.300000000000000000e+01,7.900000000000000000e+01,7.300000000000000000e+01,3.100000000000000000e+02,3.099999999999999978e-01,6.684371000000000000e+08
6.400000000000000000e+01,2.620000000000000000e+02,5.310000000000000000e+02,7.200000000000000000e+01,3.600000000000000000e+01,8.000000000000000000e+01,7.200000000000000000e+01,3.060000000000000000e+02,3.200000000000000067e-01,6.906841000000000000e+08
6.700000000000000000e+01,3.750000000000000000e+02,5.990000000000000000e+02,6.700000000000000000e+01,3.200000000000000000e+01,8.500000000000000000e+01,7.100000000000000000e+01,2.930000000000000000e+02,3.300000000000000155e-01,7.072296000000000000e+08
7.200000000000000000e+01,3.790000000000000000e+02,7.310000000000000000e+02,7.900000000000000000e+01,3.600000000000000000e+01,9.000000000000000000e+01,6.900000000000000000e+01,2.380000000000000000e+02,3.400000000000000244e-01,7.342694000000000000e+08
7.400000000000000000e+01,4.310000000000000000e+02,7.530000000000000000e+02,8.800000000000000000e+01,3.800000000000000000e+01,6.500000000000000000e+01,4.400000000000000000e+01,1.440000000000000000e+02,3.499999999999999778e-01,7.467552000000000000e+08
1.240000000000000000e+02,4.920000000000000000e+02,7.270000000000000000e+02,9.100000000000000000e+01,3.900000000000000000e+01,5.900000000000000000e+01,5.600000000000000000e+01,2.960000000000000000e+02,3.599999999999999867e-01,7.681972000000000000e+08
1.360000000000000000e+02,5.010000000000000000e+02,7.360000000000000000e+02,1.200000000000000000e+02,4.600000000000000000e+01,6.600000000000000000e+01,6.500000000000000000e+01,2.990000000000000000e+02,3.699999999999999956e-01,7.893069000000000000e+08
1.590000000000000000e+02,5.050000000000000000e+02,8.220000000000000000e+02,1.420000000000000000e+02,5.200000000000000000e+01,6.000000000000000000e+01,6.700000000000000000e+01,3.310000000000000000e+02,3.800000000000000044e-01,8.071402000000000000e+08
1.850000000000000000e+02,5.630000000000000000e+02,7.690000000000000000e+02,1.750000000000000000e+02,6.900000000000000000e+01,1.230000000000000000e+02,7.400000000000000000e+01,3.320000000000000000e+02,4.000000000000000222e-01,8.477998000000000000e+08
1.890000000000000000e+02,5.340000000000000000e+02,7.490000000000000000e+02,1.730000000000000000e+02,7.100000000000000000e+01,3.190000000000000000e+02,3.120000000000000000e+02,4.850000000000000000e+02,4.000000000000000222e-01,8.478347000000000000e+08
1.850000000000000000e+02,4.850000000000000000e+02,6.690000000000000000e+02,1.690000000000000000e+02,7.800000000000000000e+01,4.860000000000000000e+02,5.230000000000000000e+02,4.730000000000000000e+02,4.099999999999999756e-01,8.706021000000000000e+08
1.800000000000000000e+02,5.160000000000000000e+02,6.240000000000000000e+02,1.470000000000000000e+02,8.300000000000000000e+01,6.570000000000000000e+02,7.540000000000000000e+02,6.520000000000000000e+02,4.199999999999999845e-01,8.886531000000000000e+08
1.660000000000000000e+02,5.400000000000000000e+02,4.130000000000000000e+02,1.360000000000000000e+02,1.570000000000000000e+02,8.610000000000000000e+02,1.064000000000000000e+03,7.760000000000000000e+02,4.299999999999999933e-01,9.079025000000000000e+08
2.780000000000000000e+02,5.530000000000000000e+02,2.730000000000000000e+02,9.300000000000000000e+01,2.020000000000000000e+02,9.470000000000000000e+02,1.137000000000000000e+03,8.470000000000000000e+02,4.400000000000000022e-01,9.281023000000000000e+08
3.300000000000000000e+02,6.330000000000000000e+02,2.350000000000000000e+02,1.170000000000000000e+02,2.570000000000000000e+02,9.930000000000000000e+02,1.261000000000000000e+03,8.900000000000000000e+02,4.500000000000000111e-01,9.487888000000000000e+08
3.360000000000000000e+02,6.640000000000000000e+02,3.200000000000000000e+02,1.640000000000000000e+02,3.160000000000000000e+02,1.187000000000000000e+03,1.283000000000000000e+03,9.890000000000000000e+02,4.600000000000000200e-01,9.693886000000000000e+08
3.900000000000000000e+02,7.070000000000000000e+02,3.270000000000000000e+02,1.930000000000000000e+02,4.180000000000000000e+02,1.260000000000000000e+03,1.263000000000000000e+03,9.770000000000000000e+02,4.699999999999999734e-01,9.868823000000000000e+08
4.160000000000000000e+02,7.110000000000000000e+02,3.340000000000000000e+02,2.060000000000000000e+02,4.680000000000000000e+02,1.388000000000000000e+03,1.101000000000000000e+03,1.040000000000000000e+03,4.899999999999999911e-01,1.028149000000000000e+09
4.140000000000000000e+02,7.780000000000000000e+02,5.510000000000000000e+02,2.550000000000000000e+02,4.750000000000000000e+02,1.427000000000000000e+03,1.094000000000000000e+03,1.089000000000000000e+03,4.899999999999999911e-01,1.028161800000000000e+09
4.940000000000000000e+02,7.910000000000000000e+02,6.150000000000000000e+02,2.580000000000000000e+02,4.720000000000000000e+02,1.483000000000000000e+03,1.027000000000000000e+03,1.107000000000000000e+03,5.000000000000000000e-01,1.050119400000000000e+09
4.980000000000000000e+02,8.400000000000000000e+02,6.620000000000000000e+02,2.440000000000000000e+02,4.420000000000000000e+02,1.381000000000000000e+03,1.026000000000000000e+03,1.126000000000000000e+03,5.100000000000000089e-01,1.067281100000000000e+09
4.830000000000000000e+02,8.110000000000000000e+02,6.760000000000000000e+02,2.350000000000000000e+02,3.920000000000000000e+02,1.559000000000000000e+03,1.000000000000000000e+03,1.100000000000000000e+03,5.200000000000000178e-01,1.087727100000000000e+09
4.890000000000000000e+02,8.410000000000000000e+02,7.430000000000000000e+02,2.290000000000000000e+02,3.160000000000000000e+02,1.442000000000000000e+03,9.670000000000000000e+02,1.050000000000000000e+03,5.300000000000000266e-01,1.108280200000000000e+09
5.050000000000000000e+02,7.810000000000000000e+02,7.890000000000000000e+02,2.080000000000000000e+02,3.120000000000000000e+02,1.518000000000000000e+03,9.720000000000000000e+02,1.029000000000000000e+03,5.400000000000000355e-01,1.128462500000000000e+09
4.160000000000000000e+02,7.680000000000000000e+02,7.930000000000000000e+02,2.000000000000000000e+02,2.960000000000000000e+02,1.511000000000000000e+03,9.580000000000000000e+02,9.880000000000000000e+02,5.500000000000000444e-01,1.149491500000000000e+09
4.310000000000000000e+02,7.820000000000000000e+02,8.200000000000000000e+02,2.260000000000000000e+02,2.910000000000000000e+02,1.522000000000000000e+03,9.030000000000000000e+02,8.790000000000000000e+02,5.600000000000000533e-01,1.166344600000000000e+09
4.720000000000000000e+02,8.170000000000000000e+02,8.480000000000000000e+02,2.280000000000000000e+02,2.470000000000000000e+02,1.283000000000000000e+03,9.230000000000000000e+02,8.910000000000000000e+02,5.699999999999999512e-01,1.187209000000000000e+09
4.640000000000000000e+02,7.810000000000000000e+02,7.950000000000000000e+02,2.260000000000000000e+02,2.350000000000000000e+02,1.264000000000000000e+03,9.570000000000000000e+02,8.260000000000000000e+02,5.799999999999999600e-01,1.208063500000000000e+09
4.240000000000000000e+02,7.550000000000000000e+02,6.830000000000000000e+02,1.930000000000000000e+02,2.010000000000000000e+02,1.194000000000000000e+03,9.230000000000000000e+02,8.710000000000000000e+02,5.899999999999999689e-01,1.229352100000000000e+09
4.190000000000000000e+02,8.070000000000000000e+02,6.270000000000000000e+02,1.930000000000000000e+02,2.050000000000000000e+02,1.229000000000000000e+03,8.740000000000000000e+02,8.610000000000000000e+02,5.999999999999999778e-01,1.248752900000000000e+09
4.190000000000000000e+02,7.880000000000000000e+02,5.130000000000000000e+02,1.500000000000000000e+02,2.190000000000000000e+02,1.253000000000000000e+03,9.490000000000000000e+02,9.280000000000000000e+02,6.099999999999999867e-01,1.266375800000000000e+09
4.160000000000000000e+02,8.120000000000000000e+02,4.480000000000000000e+02,1.310000000000000000e+02,2.240000000000000000e+02,1.323000000000000000e+03,9.370000000000000000e+02,9.670000000000000000e+02,6.199999999999999956e-01,1.286384500000000000e+09
4.270000000000000000e+02,8.510000000000000000e+02,4.720000000000000000e+02,1.270000000000000000e+02,2.350000000000000000e+02,1.335000000000000000e+03,9.540000000000000000e+02,1.030000000000000000e+03,6.300000000000000044e-01,1.310937200000000000e+09
4.320000000000000000e+02,8.680000000000000000e+02,5.480000000000000000e+02,1.780000000000000000e+02,2.410000000000000000e+02,1.353000000000000000e+03,9.890000000000000000e+02,9.260000000000000000e+02,6.400000000000000133e-01,1.328691700000000000e+09
4.820000000000000000e+02,8.740000000000000000e+02,5.710000000000000000e+02,1.730000000000000000e+02,2.170000000000000000e+02,1.284000000000000000e+03,9.710000000000000000e+02,9.600000000000000000e+02,6.500000000000000222e-01,1.353809800000000000e+09
5.070000000000000000e+02,8.770000000000000000e+02,5.510000000000000000e+02,1.730000000000000000e+02,2.050000000000000000e+02,1.272000000000000000e+03,9.100000000000000000e+02,9.570000000000000000e+02,6.600000000000000311e-01,1.368103400000000000e+09
4.970000000000000000e+02,9.120000000000000000e+02,5.450000000000000000e+02,1.710000000000000000e+02,1.910000000000000000e+02,1.232000000000000000e+03,8.730000000000000000e+02,9.260000000000000000e+02,6.700000000000000400e-01,1.388667200000000000e+09
5.520000000000000000e+02,8.900000000000000000e+02,5.660000000000000000e+02,1.830000000000000000e+02,1.770000000000000000e+02,1.209000000000000000e+03,8.220000000000000000e+02,8.690000000000000000e+02,6.800000000000000488e-01,1.409355900000000000e+09
5.430000000000000000e+02,9.470000000000000000e+02,5.010000000000000000e+02,1.420000000000000000e+02,1.570000000000000000e+02,1.191000000000000000e+03,8.440000000000000000e+02,9.470000000000000000e+02,6.899999999999999467e-01,1.426418100000000000e+09
5.380000000000000000e+02,9.120000000000000000e+02,4.720000000000000000e+02,1.500000000000000000e+02,1.670000000000000000e+02,1.284000000000000000e+03,9.330000000000000000e+02,9.610000000000000000e+02,6.999999999999999556e-01,1.447425500000000000e+09
5.170000000000000000e+02,9.470000000000000000e+02,4.860000000000000000e+02,1.500000000000000000e+02,1.880000000000000000e+02,1.322000000000000000e+03,1.008000000000000000e+03,1.041000000000000000e+03,7.099999999999999645e-01,1.468326500000000000e+09
5.190000000000000000e+02,9.480000000000000000e+02,5.730000000000000000e+02,1.730000000000000000e+02,1.910000000000000000e+02,1.313000000000000000e+03,1.079000000000000000e+03,1.056000000000000000e+03,7.199999999999999734e-01,1.488303600000000000e+09
4.680000000000000000e+02,9.360000000000000000e+02,6.010000000000000000e+02,1.700000000000000000e+02,1.950000000000000000e+02,1.268000000000000000e+03,1.089000000000000000e+03,1.081000000000000000e+03,7.299999999999999822e-01,1.506389000000000000e+09
4.590000000000000000e+02,8.860000000000000000e+02,5.620000000000000000e+02,1.790000000000000000e+02,2.160000000000000000e+02,1.254000000000000000e+03,1.030000000000000000e+03,1.059000000000000000e+03,7.500000000000000000e-01,1.546968400000000000e+09
4.340000000000000000e+02,8.920000000000000000e+02,5.530000000000000000e+02,1.730000000000000000e+02,2.080000000000000000e+02,1.143000000000000000e+03,9.660000000000000000e+02,1.019000000000000000e+03,7.500000000000000000e-01,1.546986800000000000e+09
4.310000000000000000e+02,8.260000000000000000e+02,5.890000000000000000e+02,1.760000000000000000e+02,2.390000000000000000e+02,1.196000000000000000e+03,9.140000000000000000e+02,9.630000000000000000e+02,7.700000000000000178e-01,1.588504200000000000e+09
3.930000000000000000e+02,7.760000000000000000e+02,5.480000000000000000e+02,1.540000000000000000e+02,2.260000000000000000e+02,1.202000000000000000e+03,8.300000000000000000e+02,9.630000000000000000e+02,7.700000000000000178e-01,1.588515800000000000e+09
4.950000000000000000e+02,7.910000000000000000e+02,5.640000000000000000e+02,1.930000000000000000e+02,2.890000000000000000e+02,1.318000000000000000e+03,8.990000000000000000e+02,1.014000000000000000e+03,7.800000000000000266e-01,1.608482700000000000e+09
5.050000000000000000e+02,7.980000000000000000e+02,5.640000000000000000e+02,1.880000000000000000e+02,3.180000000000000000e+02,1.355000000000000000e+03,1.039000000000000000e+03,1.032000000000000000e+03,7.900000000000000355e-01,1.628583600000000000e+09
5.970000000000000000e+02,7.440000000000000000e+02,5.940000000000000000e+02,1.890000000000000000e+02,3.370000000000000000e+02,1.468000000000000000e+03,1.124000000000000000e+03,1.106000000000000000e+03,8.000000000000000444e-01,1.649148500000000000e+09
5.990000000000000000e+02,7.890000000000000000e+02,6.130000000000000000e+02,2.000000000000000000e+02,3.350000000000000000e+02,1.461000000000000000e+03,1.109000000000000000e+03,1.104000000000000000e+03,8.100000000000000533e-01,1.671626100000000000e+09
6.220000000000000000e+02,7.840000000000000000e+02,6.580000000000000000e+02,2.310000000000000000e+02,3.490000000000000000e+02,1.474000000000000000e+03,1.126000000000000000e+03,1.202000000000000000e+03,8.199999999999999512e-01,1.693048700000000000e+09
6.420000000000000000e+02,8.520000000000000000e+02,6.800000000000000000e+02,2.130000000000000000e+02,3.250000000000000000e+02,1.434000000000000000e+03,1.119000000000000000e+03,1.162000000000000000e+03,8.299999999999999600e-01,1.707359000000000000e+09
7.530000000000000000e+02,8.800000000000000000e+02,6.700000000000000000e+02,2.280000000000000000e+02,3.190000000000000000e+02,1.438000000000000000e+03,1.070000000000000000e+03,1.137000000000000000e+03,8.399999999999999689e-01,1.726444300000000000e+09
7.790000000000000000e+02,9.390000000000000000e+02,6.760000000000000000e+02,2.390000000000000000e+02,3.350000000000000000e+02,1.374000000000000000e+03,1.028000000000000000e+03,1.188000000000000000e+03,8.599999999999999867e-01,1.767537400000000000e+09
8.000000000000000000e+02,9.700000000000000000e+02,7.090000000000000000e+02,2.410000000000000000e+02,3.190000000000000000e+02,1.252000000000000000e+03,1.028000000000000000e+03,1.192000000000000000e+03,8.599999999999999867e-01,1.767547700000000000e+09
8.380000000000000000e+02,1.038000000000000000e+03,6.500000000000000000e+02,2.170000000000000000e+02,3.550000000000000000e+02,1.264000000000000000e+03,1.003000000000000000e+03,1.082000000000000000e+03,8.699999999999999956e-01,1.788981300000000000e+09
7.990000000000000000e+02,9.650000000000000000e+02,5.920000000000000000e+02,2.670000000000000000e+02,3.760000000000000000e+02,1.259000000000000000e+03,9.490000000000000000e+02,1.033000000000000000e+03,8.900000000000000133e-01,1.826345200000000000e+09
7.440000000000000000e+02,9.310000000000000000e+02,6.190000000000000000e+02,2.660000000000000000e+02,3.770000000000000000e+02,1.310000000000000000e+03,9.080000000000000000e+02,1.070000000000000000e+03,8.900000000000000133e-01,1.826356000000000000e+09
6.590000000000000000e+02,9.490000000000000000e+02,6.390000000000000000e+02,2.630000000000000000e+02,3.790000000000000000e+02,1.287000000000000000e+03,9.090000000000000000e+02,9.530000000000000000e+02,9.000000000000000222e-01,1.846478800000000000e+09
6.830000000000000000e+02,1.032000000000000000e+03,6.150000000000000000e+02,2.700000000000000000e+02,4.110000000000000000e+02,1.386000000000000000e+03,1.012000000000000000e+03,9.330000000000000000e+02,9.100000000000000311e-01,1.867335500000000000e+09
6.360000000000000000e+02,9.370000000000000000e+02,8.210000000000000000e+02,2.920000000000000000e+02,4.060000000000000000e+02,1.400000000000000000e+03,1.093000000000000000e+03,9.600000000000000000e+02,9.200000000000000400e-01,1.887327700000000000e+09
6.000000000000000000e+02,9.690000000000000000e+02,8.040000000000000000e+02,2.390000000000000000e+02,3.720000000000000000e+02,1.379000000000000000e+03,1.130000000000000000e+03,9.800000000000000000e+02,9.300000000000000488e-01,1.907223800000000000e+09
5.960000000000000000e+02,9.950000000000000000e+02,7.970000000000000000e+02,2.310000000000000000e+02,4.220000000000000000e+02,1.323000000000000000e+03,1.103000000000000000e+03,9.030000000000000000e+02,9.399999999999999467e-01,1.927248900000000000e+09
6.100000000000000000e+02,1.007000000000000000e+03,8.260000000000000000e+02,2.370000000000000000e+02,4.150000000000000000e+02,1.340000000000000000e+03,1.071000000000000000e+03,8.710000000000000000e+02,9.499999999999999556e-01,1.947668900000000000e+09
5.700000000000000000e+02,8.990000000000000000e+02,8.400000000000000000e+02,2.140000000000000000e+02,3.750000000000000000e+02,1.230000000000000000e+03,9.740000000000000000e+02,9.110000000000000000e+02,9.599999999999999645e-01,1.970397300000000000e+09
5.880000000000000000e+02,9.420000000000000000e+02,7.160000000000000000e+02,1.990000000000000000e+02,3.790000000000000000e+02,1.222000000000000000e+03,9.360000000000000000e+02,8.760000000000000000e+02,9.699999999999999734e-01,1.986696800000000000e+09
5.820000000000000000e+02,9.210000000000000000e+02,7.380000000000000000e+02,1.840000000000000000e+02,3.820000000000000000e+02,1.367000000000000000e+03,9.010000000000000000e+02,9.510000000000000000e+02,9.799999999999999822e-01,2.007442800000000000e+09
5.790000000000000000e+02,1.043000000000000000e+03,6.950000000000000000e+02,1.650000000000000000e+02,3.100000000000000000e+02,1.286000000000000000e+03,9.370000000000000000e+02,9.970000000000000000e+02,9.799999999999999822e-01,2.048094500000000000e+09
5.370000000000000000e+02,1.022000000000000000e+03,6.190000000000000000e+02,2.090000000000000000e+02,2.800000000000000000e+02,1.217000000000000000e+03,9.120000000000000000e+02,1.008000000000000000e+03,9.799999999999999822e-01,2.048105900000000000e+09
5.200000000000000000e+02,1.018000000000000000e+03,5.930000000000000000e+02,2.200000000000000000e+02,2.900000000000000000e+02,1.305000000000000000e+03,8.960000000000000000e+02,9.060000000000000000e+02,9.699999999999999734e-01,2.067853500000000000e+09
4.740000000000000000e+02,1.025000000000000000e+03,6.130000000000000000e+02,2.080000000000000000e+02,2.290000000000000000e+02,1.303000000000000000e+03,8.490000000000000000e+02,9.100000000000000000e+02,9.599999999999999645e-01,2.086984000000000000e+09
4.610000000000000000e+02,1.018000000000000000e+03,5.770000000000000000e+02,2.050000000000000000e+02,2.020000000000000000e+02,1.115000000000000000e+03,8.750000000000000000e+02,7.890000000000000000e+02,9.399999999999999467e-01,2.129037300000000000e+09
3.900000000000000000e+02,8.350000000000000000e+02,6.020000000000000000e+02,2.200000000000000000e+02,1.880000000000000000e+02,1.107000000000000000e+03,8.410000000000000000e+02,7.760000000000000000e+02,9.399999999999999467e-01,2.129049800000000000e+09
3.730000000000000000e+02,8.050000000000000000e+02,6.450000000000000000e+02,2.720000000000000000e+02,2.570000000000000000e+02,1.231000000000000000e+03,8.380000000000000000e+02,7.140000000000000000e+02,9.300000000000000488e-01,2.149032400000000000e+09
3.910000000000000000e+02,7.510000000000000000e+02,6.030000000000000000e+02,2.810000000000000000e+02,2.450000000000000000e+02,1.162000000000000000e+03,8.070000000000000000e+02,7.400000000000000000e+02,9.200000000000000400e-01,2.168967800000000000e+09
3.800000000000000000e+02,6.910000000000000000e+02,5.560000000000000000e+02,2.800000000000000000e+02,2.430000000000000000e+02,1.183000000000000000e+03,7.930000000000000000e+02,7.440000000000000000e+02,9.100000000000000311e-01,2.189264700000000000e+09
3.840000000000000000e+02,6.710000000000000000e+02,6.490000000000000000e+02,2.860000000000000000e+02,2.570000000000000000e+02,1.250000000000000000e+03,7.180000000000000000e+02,7.850000000000000000e+02,9.000000000000000222e-01,2.206415600000000000e+09
3.610000000000000000e+02,7.720000000000000000e+02,6.930000000000000000e+02,2.770000000000000000e+02,2.400000000000000000e+02,1.276000000000000000e+03,7.340000000000000000e+02,7.930000000000000000e+02,8.900000000000000133e-01,2.226429300000000000e+09
3.510000000000000000e+02,8.600000000000000000e+02,6.630000000000000000e+02,1.770000000000000000e+02,1.940000000000000000e+02,1.169000000000000000e+03,7.040000000000000000e+02,7.720000000000000000e+02,8.800000000000000044e-01,2.246307200000000000e+09
3.610000000000000000e+02,8.450000000000000000e+02,6.320000000000000000e+02,3.200000000000000000e+02,2.730000000000000000e+02,1.163000000000000000e+03,7.590000000000000000e+02,7.330000000000000000e+02,8.699999999999999956e-01,2.268201200000000000e+09
3.550000000000000000e+02,8.230000000000000000e+02,5.460000000000000000e+02,3.520000000000000000e+02,3.000000000000000000e+02,1.066000000000000000e+03,7.060000000000000000e+02,7.520000000000000000e+02,8.599999999999999867e-01,2.288109900000000000e+09
3.260000000000000000e+02,8.230000000000000000e+02,4.690000000000000000e+02,3.540000000000000000e+02,2.970000000000000000e+02,1.098000000000000000e+03,6.620000000000000000e+02,7.260000000000000000e+02,8.499999999999999778e-01,2.307869400000000000e+09
3.180000000000000000e+02,7.520000000000000000e+02,3.770000000000000000e+02,3.550000000000000000e+02,3.240000000000000000e+02,1.178000000000000000e+03,6.650000000000000000e+02,6.850000000000000000e+02,8.399999999999999689e-01,2.327306400000000000e+09
3.240000000000000000e+02,6.110000000000000000e+02,3.210000000000000000e+02,3.550000000000000000e+02,3.170000000000000000e+02,1.159000000000000000e+03,6.500000000000000000e+02,7.210000000000000000e+02,8.299999999999999600e-01,2.347103700000000000e+09
3.060000000000000000e+02,6.950000000000000000e+02,3.160000000000000000e+02,2.160000000000000000e+02,2.620000000000000000e+02,1.206000000000000000e+03,6.420000000000000000e+02,7.570000000000000000e+02,8.199999999999999512e-01,2.366419500000000000e+09
2.970000000000000000e+02,8.020000000000000000e+02,3.270000000000000000e+02,1.640000000000000000e+02,2.590000000000000000e+02,1.163000000000000000e+03,6.260000000000000000e+02,6.240000000000000000e+02,8.100000000000000533e-01,2.389288700000000000e+09
2.960000000000000000e+02,8.300000000000000000e+02,2.100000000000000000e+02,1.500000000000000000e+02,2.610000000000000000e+02,1.086000000000000000e+03,6.420000000000000000e+02,5.640000000000000000e+02,8.000000000000000444e-01,2.413765200000000000e+09
2.930000000000000000e+02,8.080000000000000000e+02,2.220000000000000000e+02,1.930000000000000000e+02,2.320000000000000000e+02,8.950000000000000000e+02,5.410000000000000000e+02,4.980000000000000000e+02,7.900000000000000355e-01,2.427285800000000000e+09
2.950000000000000000e+02,8.050000000000000000e+02,2.360000000000000000e+02,1.910000000000000000e+02,2.280000000000000000e+02,8.540000000000000000e+02,5.130000000000000000e+02,4.270000000000000000e+02,7.800000000000000266e-01,2.446731700000000000e+09
2.730000000000000000e+02,8.400000000000000000e+02,2.810000000000000000e+02,2.760000000000000000e+02,2.060000000000000000e+02,6.930000000000000000e+02,3.360000000000000000e+02,2.390000000000000000e+02,7.700000000000000178e-01,2.466673300000000000e+09
3.290000000000000000e+02,7.280000000000000000e+02,3.670000000000000000e+02,3.670000000000000000e+02,1.690000000000000000e+02,7.060000000000000000e+02,3.170000000000000000e+02,2.140000000000000000e+02,7.600000000000000089e-01,2.486371900000000000e+09
3.190000000000000000e+02,6.450000000000000000e+02,4.640000000000000000e+02,4.490000000000000000e+02,1.670000000000000000e+02,5.860000000000000000e+02,2.180000000000000000e+02,1.930000000000000000e+02,7.500000000000000000e-01,2.509063700000000000e+09
3.280000000000000000e+02,6.330000000000000000e+02,5.900000000000000000e+02,4.340000000000000000e+02,1.700000000000000000e+02,5.700000000000000000e+02,1.800000000000000000e+02,1.490000000000000000e+02,7.399999999999999911e-01,2.527723400000000000e+09
3.730000000000000000e+02,5.830000000000000000e+02,7.560000000000000000e+02,4.480000000000000000e+02,1.390000000000000000e+02,6.530000000000000000e+02,2.280000000000000000e+02,1.330000000000000000e+02,7.299999999999999822e-01,2.547236100000000000e+09
3.330000000000000000e+02,4.300000000000000000e+02,7.870000000000000000e+02,4.410000000000000000e+02,1.350000000000000000e+02,5.930000000000000000e+02,2.160000000000000000e+02,1.160000000000000000e+02,7.199999999999999734e-01,2.568419100000000000e+09
2.970000000000000000e+02,3.910000000000000000e+02,7.770000000000000000e+02,3.890000000000000000e+02,1.260000000000000000e+02,4.880000000000000000e+02,1.950000000000000000e+02,9.900000000000000000e+01,7.099999999999999645e-01,2.588378900000000000e+09
3.180000000000000000e+02,4.040000000000000000e+02,9.280000000000000000e+02,2.970000000000000000e+02,1.040000000000000000e+02,4.560000000000000000e+02,1.980000000000000000e+02,9.500000000000000000e+01,6.999999999999999556e-01,2.608590200000000000e+09
3.010000000000000000e+02,3.760000000000000000e+02,8.970000000000000000e+02,3.150000000000000000e+02,1.030000000000000000e+02,5.980000000000000000e+02,1.960000000000000000e+02,9.100000000000000000e+01,6.899999999999999467e-01,2.628559400000000000e+09
2.400000000000000000e+02,3.910000000000000000e+02,8.800000000000000000e+02,2.970000000000000000e+02,1.030000000000000000e+02,4.680000000000000000e+02,1.240000000000000000e+02,6.900000000000000000e+01,6.800000000000000488e-01,2.648171700000000000e+09
2.490000000000000000e+02,3.360000000000000000e+02,9.010000000000000000e+02,2.390000000000000000e+02,1.110000000000000000e+02,5.030000000000000000e+02,1.170000000000000000e+02,7.000000000000000000e+01,6.700000000000000400e-01,2.668494000000000000e+09
2.170000000000000000e+02,3.350000000000000000e+02,9.310000000000000000e+02,1.920000000000000000e+02,1.150000000000000000e+02,6.030000000000000000e+02,1.380000000000000000e+02,7.000000000000000000e+01,6.600000000000000311e-01,2.688234600000000000e+09
2.640000000000000000e+02,3.370000000000000000e+02,7.870000000000000000e+02,1.940000000000000000e+02,1.110000000000000000e+02,6.870000000000000000e+02,1.640000000000000000e+02,6.900000000000000000e+01,6.500000000000000222e-01,2.708181800000000000e+09
2.800000000000000000e+02,3.720000000000000000e+02,8.860000000000000000e+02,1.670000000000000000e+02,1.000000000000000000e+02,5.850000000000000000e+02,1.590000000000000000e+02,6.500000000000000000e+01,6.400000000000000133e-01,2.727046300000000000e+09
2.950000000000000000e+02,4.080000000000000000e+02,8.060000000000000000e+02,1.660000000000000000e+02,1.010000000000000000e+02,5.860000000000000000e+02,1.610000000000000000e+02,7.200000000000000000e+01,6.300000000000000044e-01,2.747323300000000000e+09
2.930000000000000000e+02,4.270000000000000000e+02,8.960000000000000000e+02,2.460000000000000000e+02,9.300000000000000000e+01,6.110000000000000000e+02,1.620000000000000000e+02,7.100000000000000000e+01,6.199999999999999956e-01,2.767115000000000000e+09
2.920000000000000000e+02,4.510000000000000000e+02,9.870000000000000000e+02,2.660000000000000000e+02,9.400000000000000000e+01,5.910000000000000000e+02,1.600000000000000000e+02,8.000000000000000000e+01,6.099999999999999867e-01,2.786512000000000000e+09
2.390000000000000000e+02,4.440000000000000000e+02,1.008000000000000000e+03,2.550000000000000000e+02,8.700000000000000000e+01,5.080000000000000000e+02,1.290000000000000000e+02,7.600000000000000000e+01,5.999999999999999778e-01,2.806677400000000000e+09
2.300000000000000000e+02,4.290000000000000000e+02,9.120000000000000000e+02,2.520000000000000000e+02,8.500000000000000000e+01,4.960000000000000000e+02,1.280000000000000000e+02,7.800000000000000000e+01,5.899999999999999689e-01,2.826483700000000000e+09
2.030000000000000000e+02,3.930000000000000000e+02,9.210000000000000000e+02,2.570000000000000000e+02,8.900000000000000000e+01,6.250000000000000000e+02,1.250000000000000000e+02,8.300000000000000000e+01,5.799999999999999600e-01,2.846610900000000000e+09
2.060000000000000000e+02,4.490000000000000000e+02,9.270000000000000000e+02,1.940000000000000000e+02,9.100000000000000000e+01,5.880000000000000000e+02,1.320000000000000000e+02,8.500000000000000000e+01,5.699999999999999512e-01,2.867828200000000000e+09
2.230000000000000000e+02,4.780000000000000000e+02,9.300000000000000000e+02,2.350000000000000000e+02,8.800000000000000000e+01,5.140000000000000000e+02,1.070000000000000000e+02,7.600000000000000000e+01,5.600000000000000533e-01,2.887701500000000000e+09
2.080000000000000000e+02,4.810000000000000000e+02,9.390000000000000000e+02,2.630000000000000000e+02,1.050000000000000000e+02,5.050000000000000000e+02,9.600000000000000000e+01,7.800000000000000000e+01,5.500000000000000444e-01,2.907255400000000000e+09
2.000000000000000000e+02,4.810000000000000000e+02,1.024000000000000000e+03,2.860000000000000000e+02,1.020000000000000000e+02,5.110000000000000000e+02,1.080000000000000000e+02,7.600000000000000000e+01,5.400000000000000355e-01,2.926894200000000000e+09
2.110000000000000000e+02,5.530000000000000000e+02,1.116000000000000000e+03,3.130000000000000000e+02,1.130000000000000000e+02,4.050000000000000000e+02,1.150000000000000000e+02,1.470000000000000000e+02,5.300000000000000266e-01,2.946720100000000000e+09
2.000000000000000000e+02,5.050000000000000000e+02,1.043000000000000000e+03,3.030000000000000000e+02,1.110000000000000000e+02,4.180000000000000000e+02,1.120000000000000000e+02,1.500000000000000000e+02,5.200000000000000178e-01,2.966555500000000000e+09
1.770000000000000000e+02,4.580000000000000000e+02,9.190000000000000000e+02,2.630000000000000000e+02,1.030000000000000000e+02,4.050000000000000000e+02,1.090000000000000000e+02,1.570000000000000000e+02,5.100000000000000089e-01,2.987079800000000000e+09
1.990000000000000000e+02,4.530000000000000000e+02,9.360000000000000000e+02,3.480000000000000000e+02,1.100000000000000000e+02,4.010000000000000000e+02,1.130000000000000000e+02,1.660000000000000000e+02,5.000000000000000000e-01,3.006884600000000000e+09
2.160000000000000000e+02,5.080000000000000000e+02,8.490000000000000000e+02,3.460000000000000000e+02,1.100000000000000000e+02,4.610000000000000000e+02,1.030000000000000000e+02,1.690000000000000000e+02,4.899999999999999911e-01,3.028118900000000000e+09
2.050000000000000000e+02,4.250000000000000000e+02,7.520000000000000000e+02,3.250000000000000000e+02,9.900000000000000000e+01,4.220000000000000000e+02,8.500000000000000000e+01,1.090000000000000000e+02,4.799999999999999822e-01,3.047574200000000000e+09
2.090000000000000000e+02,4.200000000000000000e+02,7.810000000000000000e+02,3.450000000000000000e+02,1.050000000000000000e+02,4.040000000000000000e+02,8.500000000000000000e+01,1.100000000000000000e+02,4.699999999999999734e-01,3.067800600000000000e+09
2.150000000000000000e+02,4.280000000000000000e+02,8.910000000000000000e+02,3.720000000000000000e+02,1.300000000000000000e+02,3.960000000000000000e+02,8.900000000000000000e+01,1.000000000000000000e+02,4.600000000000000200e-01,3.087383900000000000e+09
1.960000000000000000e+02,4.410000000000000000e+02,8.910000000000000000e+02,2.970000000000000000e+02,1.230000000000000000e+02,3.970000000000000000e+02,8.600000000000000000e+01,9.300000000000000000e+01,4.500000000000000111e-01,3.107233100000000000e+09
1.610000000000000000e+02,3.920000000000000000e+02,9.030000000000000000e+02,3.130000000000000000e+02,1.400000000000000000e+02,3.070000000000000000e+02,8.900000000000000000e+01,9.300000000000000000e+01,4.400000000000000022e-01,3.126993200000000000e+09
1.560000000000000000e+02,4.260000000000000000e+02,1.000000000000000000e+03,3.360000000000000000e+02,1.480000000000000000e+02,3.520000000000000000e+02,9.100000000000000000e+01,9.200000000000000000e+01,4.299999999999999933e-01,3.147355000000000000e+09
1.450000000000000000e+02,4.350000000000000000e+02,1.037000000000000000e+03,3.240000000000000000e+02,1.620000000000000000e+02,4.290000000000000000e+02,9.900000000000000000e+01,8.800000000000000000e+01,4.199999999999999845e-01,3.168824100000000000e+09
1.350000000000000000e+02,4.320000000000000000e+02,1.004000000000000000e+03,3.060000000000000000e+02,2.050000000000000000e+02,4.490000000000000000e+02,9.500000000000000000e+01,8.500000000000000000e+01,4.099999999999999756e-01,3.188909200000000000e+09
1.380000000000000000e+02,5.190000000000000000e+02,1.075000000000000000e+03,3.140000000000000000e+02,2.160000000000000000e+02,4.540000000000000000e+02,9.600000000000000000e+01,8.000000000000000000e+01,4.000000000000000222e-01,3.208521100000000000e+09
1.440000000000000000e+02,5.020000000000000000e+02,1.122000000000000000e+03,2.910000000000000000e+02,2.070000000000000000e+02,4.420000000000000000e+02,8.900000000000000000e+01,7.600000000000000000e+01,3.900000000000000133e-01,3.228031900000000000e+09
1.380000000000000000e+02,5.040000000000000000e+02,1.012000000000000000e+03,2.620000000000000000e+02,2.090000000000000000e+02,4.030000000000000000e+02,9.600000000000000000e+01,7.300000000000000000e+01,3.699999999999999956e-01,3.267544000000000000e+09
1.510000000000000000e+02,5.100000000000000000e+02,1.005000000000000000e+03,2.920000000000000000e+02,2.020000000000000000e+02,3.690000000000000000e+02,8.800000000000000000e+01,6.700000000000000000e+01,3.699999999999999956e-01,3.267555400000000000e+09
1.450000000000000000e+02,5.290000000000000000e+02,1.117000000000000000e+03,2.860000000000000000e+02,1.440000000000000000e+02,3.550000000000000000e+02,9.200000000000000000e+01,7.300000000000000000e+01,3.499999999999999778e-01,3.307266600000000000e+09
1.460000000000000000e+02,4.710000000000000000e+02,1.046000000000000000e+03,2.780000000000000000e+02,1.250000000000000000e+02,3.420000000000000000e+02,9.400000000000000000e+01,7.400000000000000000e+01,3.499999999999999778e-01,3.307279500000000000e+09
1.580000000000000000e+02,5.470000000000000000e+02,1.092000000000000000e+03,2.910000000000000000e+02,1.300000000000000000e+02,3.580000000000000000e+02,1.010000000000000000e+02,7.500000000000000000e+01,3.400000000000000244e-01,3.329035200000000000e+09
1.680000000000000000e+02,5.660000000000000000e+02,1.174000000000000000e+03,3.120000000000000000e+02,1.240000000000000000e+02,3.370000000000000000e+02,9.700000000000000000e+01,7.800000000000000000e+01,3.300000000000000155e-01,3.348700000000000000e+09
1.780000000000000000e+02,6.230000000000000000e+02,1.187000000000000000e+03,3.070000000000000000e+02,1.190000000000000000e+02,2.710000000000000000e+02,9.100000000000000000e+01,1.090000000000000000e+02,3.200000000000000067e-01,3.368367800000000000e+09
2.040000000000000000e+02,7.280000000000000000e+02,1.141000000000000000e+03,3.490000000000000000e+02,1.310000000000000000e+02,2.490000000000000000e+02,9.300000000000000000e+01,1.120000000000000000e+02,3.099999999999999978e-01,3.387964400000000000e+09
2.110000000000000000e+02,8.060000000000000000e+02,1.162000000000000000e+03,3.460000000000000000e+02,1.330000000000000000e+02,2.520000000000000000e+02,9.100000000000000000e+01,1.150000000000000000e+02,2.899999999999999800e-01,3.427123700000000000e+09
2.110000000000000000e+02,8.380000000000000000e+02,1.139000000000000000e+03,3.550000000000000000e+02,1.360000000000000000e+02,2.270000000000000000e+02,8.800000000000000000e+01,1.220000000000000000e+02,2.899999999999999800e-01,3.427134600000000000e+09
2.130000000000000000e+02,8.680000000000000000e+02,1.145000000000000000e+03,3.430000000000000000e+02,1.310000000000000000e+02,2.120000000000000000e+02,8.000000000000000000e+01,1.230000000000000000e+02,2.800000000000000266e-01,3.446516900000000000e+09
2.560000000000000000e+02,9.410000000000000000e+02,1.190000000000000000e+03,4.210000000000000000e+02,1.630000000000000000e+02,1.880000000000000000e+02,8.400000000000000000e+01,1.150000000000000000e+02,2.600000000000000089e-01,3.486821600000000000e+09
2.740000000000000000e+02,9.440000000000000000e+02,1.250000000000000000e+03,4.740000000000000000e+02,1.790000000000000000e+02,2.180000000000000000e+02,8.900000000000000000e+01,1.230000000000000000e+02,2.600000000000000089e-01,3.486833700000000000e+09
3.110000000000000000e+02,9.280000000000000000e+02,1.317000000000000000e+03,5.780000000000000000e+02,2.290000000000000000e+02,2.690000000000000000e+02,1.020000000000000000e+02,1.370000000000000000e+02,2.500000000000000000e-01,3.506821700000000000e+09
3.360000000000000000e+02,9.560000000000000000e+02,1.271000000000000000e+03,6.030000000000000000e+02,2.330000000000000000e+02,2.650000000000000000e+02,1.040000000000000000e+02,1.340000000000000000e+02,2.300000000000000100e-01,3.546501400000000000e+09
3.520000000000000000e+02,1.020000000000000000e+03,1.288000000000000000e+03,6.450000000000000000e+02,2.520000000000000000e+02,2.860000000000000000e+02,1.110000000000000000e+02,1.440000000000000000e+02,2.300000000000000100e-01,3.546512500000000000e+09
3.310000000000000000e+02,1.022000000000000000e+03,1.221000000000000000e+03,6.430000000000000000e+02,2.370000000000000000e+02,3.280000000000000000e+02,1.040000000000000000e+02,1.370000000000000000e+02,2.200000000000000011e-01,3.569559400000000000e+09
3.650000000000000000e+02,9.930000000000000000e+02,1.184000000000000000e+03,7.050000000000000000e+02,2.370000000000000000e+02,3.130000000000000000e+02,1.020000000000000000e+02,1.540000000000000000e+02,2.099999999999999922e-01,3.589292400000000000e+09
3.500000000000000000e+02,9.990000000000000000e+02,1.173000000000000000e+03,6.560000000000000000e+02,2.030000000000000000e+02,4.010000000000000000e+02,8.900000000000000000e+01,1.470000000000000000e+02,2.000000000000000111e-01,3.608901900000000000e+09
4.120000000000000000e+02,9.790000000000000000e+02,1.220000000000000000e+03,8.060000000000000000e+02,2.470000000000000000e+02,4.240000000000000000e+02,1.070000000000000000e+02,1.960000000000000000e+02,1.900000000000000022e-01,3.627819400000000000e+09
4.650000000000000000e+02,1.032000000000000000e+03,1.247000000000000000e+03,8.620000000000000000e+02,2.820000000000000000e+02,4.180000000000000000e+02,1.250000000000000000e+02,2.280000000000000000e+02,1.700000000000000122e-01,3.668233300000000000e+09
5.870000000000000000e+02,1.069000000000000000e+03,1.264000000000000000e+03,9.620000000000000000e+02,3.350000000000000000e+02,4.300000000000000000e+02,1.660000000000000000e+02,2.710000000000000000e+02,1.700000000000000122e-01,3.668254700000000000e+09
6.100000000000000000e+02,1.172000000000000000e+03,1.214000000000000000e+03,9.380000000000000000e+02,3.820000000000000000e+02,4.350000000000000000e+02,1.820000000000000000e+02,2.810000000000000000e+02,1.600000000000000033e-01,3.688216400000000000e+09
6.290000000000000000e+02,1.214000000000000000e+03,1.149000000000000000e+03,9.750000000000000000e+02,5.820000000000000000e+02,3.450000000000000000e+02,2.050000000000000000e+02,3.060000000000000000e+02,1.400000000000000133e-01,3.727892800000000000e+09
5.970000000000000000e+02,1.235000000000000000e+03,1.210000000000000000e+03,9.460000000000000000e+02,8.830000000000000000e+02,3.890000000000000000e+02,2.030000000000000000e+02,2.910000000000000000e+02,1.400000000000000133e-01,3.727926600000000000e+09
6.180000000000000000e+02,1.156000000000000000e+03,1.147000000000000000e+03,9.760000000000000000e+02,1.032000000000000000e+03,4.220000000000000000e+02,2.030000000000000000e+02,2.880000000000000000e+02,1.300000000000000044e-01,3.747636000000000000e+09
5.450000000000000000e+02,1.074000000000000000e+03,1.149000000000000000e+03,9.740000000000000000e+02,1.135000000000000000e+03,4.090000000000000000e+02,1.940000000000000000e+02,2.740000000000000000e+02,1.199999999999999956e-01,3.771912400000000000e+09
4.820000000000000000e+02,9.930000000000000000e+02,1.125000000000000000e+03,9.320000000000000000e+02,1.139000000000000000e+03,4.200000000000000000e+02,1.830000000000000000e+02,2.540000000000000000e+02,1.000000000000000056e-01,3.807936500000000000e+09
4.640000000000000000e+02,1.021000000000000000e+03,1.128000000000000000e+03,9.240000000000000000e+02,1.052000000000000000e+03,4.150000000000000000e+02,1.620000000000000000e+02,2.280000000000000000e+02,1.000000000000000056e-01,3.807946800000000000e+09
4.640000000000000000e+02,9.970000000000000000e+02,9.590000000000000000e+02,9.030000000000000000e+02,8.020000000000000000e+02,3.780000000000000000e+02,1.710000000000000000e+02,2.310000000000000000e+02,8.000000000000000167e-02,3.847230200000000000e+09
4.590000000000000000e+02,1.101000000000000000e+03,1.014000000000000000e+03,8.920000000000000000e+02,5.730000000000000000e+02,3.530000000000000000e+02,1.670000000000000000e+02,2.280000000000000000e+02,8.000000000000000167e-02,3.847251800000000000e+09
4.270000000000000000e+02,1.140000000000000000e+03,1.128000000000000000e+03,7.920000000000000000e+02,2.600000000000000000e+02,3.410000000000000000e+02,1.460000000000000000e+02,2.060000000000000000e+02,7.000000000000000666e-02,3.866770900000000000e+09
4.720000000000000000e+02,1.163000000000000000e+03,1.137000000000000000e+03,8.130000000000000000e+02,1.230000000000000000e+02,3.200000000000000000e+02,1.470000000000000000e+02,2.210000000000000000e+02,5.000000000000000278e-02,3.906411800000000000e+09
4.870000000000000000e+02,1.227000000000000000e+03,1.238000000000000000e+03,7.970000000000000000e+02,3.160000000000000000e+02,3.100000000000000000e+02,1.490000000000000000e+02,2.310000000000000000e+02,5.000000000000000278e-02,3.906425600000000000e+09
4.760000000000000000e+02,1.244000000000000000e+03,1.274000000000000000e+03,7.100000000000000000e+02,3.770000000000000000e+02,3.360000000000000000e+02,1.330000000000000000e+02,2.230000000000000000e+02,4.000000000000000083e-02,3.927974600000000000e+09
3.960000000000000000e+02,1.126000000000000000e+03,1.209000000000000000e+03,5.720000000000000000e+02,3.830000000000000000e+02,3.660000000000000000e+02,1.230000000000000000e+02,2.160000000000000000e+02,2.999999999999999889e-02,3.948198200000000000e+09
3.670000000000000000e+02,1.078000000000000000e+03,1.078000000000000000e+03,5.170000000000000000e+02,3.920000000000000000e+02,3.410000000000000000e+02,1.350000000000000000e+02,3.520000000000000000e+02,2.000000000000000042e-02,3.967918900000000000e+09
3.090000000000000000e+02,9.790000000000000000e+02,1.058000000000000000e+03,4.500000000000000000e+02,3.950000000000000000e+02,5.470000000000000000e+02,1.670000000000000000e+02,4.270000000000000000e+02,1.000000000000000021e-02,3.987853600000000000e+09
2.430000000000000000e+02,7.610000000000000000e+02,8.860000000000000000e+02,3.520000000000000000e+02,2.520000000000000000e+02,5.840000000000000000e+02,2.210000000000000000e+02,5.240000000000000000e+02,1.000000000000000021e-02,4.027144500000000000e+09
2.180000000000000000e+02,7.010000000000000000e+02,8.380000000000000000e+02,2.970000000000000000e+02,1.400000000000000000e+02,6.720000000000000000e+02,2.300000000000000000e+02,5.510000000000000000e+02,1.000000000000000021e-02,4.027158400000000000e+09
2.320000000000000000e+02,6.960000000000000000e+02,8.040000000000000000e+02,3.000000000000000000e+02,1.610000000000000000e+02,6.900000000000000000e+02,4.290000000000000000e+02,6.000000000000000000e+02,2.000000000000000042e-02,4.046910600000000000e+09
2.350000000000000000e+02,6.160000000000000000e+02,7.090000000000000000e+02,2.640000000000000000e+02,1.890000000000000000e+02,9.520000000000000000e+02,5.670000000000000000e+02,6.410000000000000000e+02,4.000000000000000083e-02,4.087871700000000000e+09
2.410000000000000000e+02,6.150000000000000000e+02,7.030000000000000000e+02,2.900000000000000000e+02,1.990000000000000000e+02,9.480000000000000000e+02,7.200000000000000000e+02,7.020000000000000000e+02,4.000000000000000083e-02,4.087883200000000000e+09
2.530000000000000000e+02,6.290000000000000000e+02,7.600000000000000000e+02,2.910000000000000000e+02,2.060000000000000000e+02,9.840000000000000000e+02,7.890000000000000000e+02,7.540000000000000000e+02,5.000000000000000278e-02,4.107481600000000000e+09
2.700000000000000000e+02,5.870000000000000000e+02,7.760000000000000000e+02,2.940000000000000000e+02,2.330000000000000000e+02,9.150000000000000000e+02,8.130000000000000000e+02,8.300000000000000000e+02,7.000000000000000666e-02,4.146559700000000000e+09
2.400000000000000000e+02,5.110000000000000000e+02,7.400000000000000000e+02,3.040000000000000000e+02,2.270000000000000000e+02,9.080000000000000000e+02,7.540000000000000000e+02,9.540000000000000000e+02,7.000000000000000666e-02,4.146570900000000000e+09
2.370000000000000000e+02,5.230000000000000000e+02,8.080000000000000000e+02,2.960000000000000000e+02,2.180000000000000000e+02,7.600000000000000000e+02,7.790000000000000000e+02,9.840000000000000000e+02,8.000000000000000167e-02,4.169490400000000000e+09
2.340000000000000000e+02,5.030000000000000000e+02,7.320000000000000000e+02,2.540000000000000000e+02,2.140000000000000000e+02,6.650000000000000000e+02,7.620000000000000000e+02,1.012000000000000000e+03,8.999999999999999667e-02,4.189069100000000000e+09
2.380000000000000000e+02,4.990000000000000000e+02,6.770000000000000000e+02,2.440000000000000000e+02,2.090000000000000000e+02,6.200000000000000000e+02,7.270000000000000000e+02,9.680000000000000000e+02,1.000000000000000056e-01,4.208848000000000000e+09
2.200000000000000000e+02,4.370000000000000000e+02,7.170000000000000000e+02,2.170000000000000000e+02,2.360000000000000000e+02,6.310000000000000000e+02,7.430000000000000000e+02,1.051000000000000000e+03,1.100000000000000006e-01,4.230685900000000000e+09
2.140000000000000000e+02,4.310000000000000000e+02,7.220000000000000000e+02,1.400000000000000000e+02,2.570000000000000000e+02,8.270000000000000000e+02,8.830000000000000000e+02,1.006000000000000000e+03,1.300000000000000044e-01,4.266550800000000000e+09
2.190000000000000000e+02,4.090000000000000000e+02,6.400000000000000000e+02,1.270000000000000000e+02,2.440000000000000000e+02,8.010000000000000000e+02,8.450000000000000000e+02,9.310000000000000000e+02,1.499999999999999944e-01,4.308466400000000000e+09
2.060000000000000000e+02,4.360000000000000000e+02,7.240000000000000000e+02,1.730000000000000000e+02,2.500000000000000000e+02,8.170000000000000000e+02,8.950000000000000000e+02,8.570000000000000000e+02,1.499999999999999944e-01,4.308477900000000000e+09
2.220000000000000000e+02,3.600000000000000000e+02,7.840000000000000000e+02,1.930000000000000000e+02,2.540000000000000000e+02,8.520000000000000000e+02,9.080000000000000000e+02,8.760000000000000000e+02,1.499999999999999944e-01,4.308487800000000000e+09
2.040000000000000000e+02,4.350000000000000000e+02,7.970000000000000000e+02,1.940000000000000000e+02,2.060000000000000000e+02,8.470000000000000000e+02,9.760000000000000000e+02,7.950000000000000000e+02,1.700000000000000122e-01,4.347418900000000000e+09
2.260000000000000000e+02,4.530000000000000000e+02,7.720000000000000000e+02,1.980000000000000000e+02,1.630000000000000000e+02,7.320000000000000000e+02,9.990000000000000000e+02,7.730000000000000000e+02,1.799999999999999933e-01,4.368516600000000000e+09
2.180000000000000000e+02,4.710000000000000000e+02,7.670000000000000000e+02,1.950000000000000000e+02,1.630000000000000000e+02,6.970000000000000000e+02,1.015000000000000000e+03,8.110000000000000000e+02,1.900000000000000022e-01,4.386662800000000000e+09
2.340000000000000000e+02,5.100000000000000000e+02,7.970000000000000000e+02,1.760000000000000000e+02,1.410000000000000000e+02,6.670000000000000000e+02,9.080000000000000000e+02,7.730000000000000000e+02,2.000000000000000111e-01,4.406715800000000000e+09
2.250000000000000000e+02,4.980000000000000000e+02,7.230000000000000000e+02,1.450000000000000000e+02,1.260000000000000000e+02,5.920000000000000000e+02,9.380000000000000000e+02,8.010000000000000000e+02,2.000000000000000111e-01,4.406726800000000000e+09
2.420000000000000000e+02,4.340000000000000000e+02,6.250000000000000000e+02,1.420000000000000000e+02,1.230000000000000000e+02,6.920000000000000000e+02,9.520000000000000000e+02,7.970000000000000000e+02,2.099999999999999922e-01,4.429491500000000000e+09
2.390000000000000000e+02,4.140000000000000000e+02,6.110000000000000000e+02,1.330000000000000000e+02,1.150000000000000000e+02,5.950000000000000000e+02,8.270000000000000000e+02,7.900000000000000000e+02,2.300000000000000100e-01,4.469161500000000000e+09
2.360000000000000000e+02,4.290000000000000000e+02,6.150000000000000000e+02,1.330000000000000000e+02,8.500000000000000000e+01,5.830000000000000000e+02,7.620000000000000000e+02,7.840000000000000000e+02,2.300000000000000100e-01,4.469179100000000000e+09
2.630000000000000000e+02,4.460000000000000000e+02,5.450000000000000000e+02,1.370000000000000000e+02,1.020000000000000000e+02,6.250000000000000000e+02,8.380000000000000000e+02,8.360000000000000000e+02,2.399999999999999911e-01,4.489237100000000000e+09
2.550000000000000000e+02,4.530000000000000000e+02,4.610000000000000000e+02,1.260000000000000000e+02,1.090000000000000000e+02,7.260000000000000000e+02,8.880000000000000000e+02,8.160000000000000000e+02,2.600000000000000089e-01,4.528237200000000000e+09
2.550000000000000000e+02,4.650000000000000000e+02,4.620000000000000000e+02,1.250000000000000000e+02,1.140000000000000000e+02,7.060000000000000000e+02,8.860000000000000000e+02,7.830000000000000000e+02,2.600000000000000089e-01,4.528247700000000000e+09
2.360000000000000000e+02,4.790000000000000000e+02,4.440000000000000000e+02,1.240000000000000000e+02,1.200000000000000000e+02,7.370000000000000000e+02,1.076000000000000000e+03,8.590000000000000000e+02,2.800000000000000266e-01,4.569247400000000000e+09
2.720000000000000000e+02,5.090000000000000000e+02,4.620000000000000000e+02,1.320000000000000000e+02,1.200000000000000000e+02,7.130000000000000000e+02,1.110000000000000000e+03,8.200000000000000000e+02,2.899999999999999800e-01,4.588895100000000000e+09
2.330000000000000000e+02,4.630000000000000000e+02,5.130000000000000000e+02,1.160000000000000000e+02,1.050000000000000000e+02,6.920000000000000000e+02,1.078000000000000000e+03,8.060000000000000000e+02,2.999999999999999889e-01,4.608926100000000000e+09
2.340000000000000000e+02,4.620000000000000000e+02,5.380000000000000000e+02,1.100000000000000000e+02,8.500000000000000000e+01,5.950000000000000000e+02,1.103000000000000000e+03,8.930000000000000000e+02,3.099999999999999978e-01,4.626557400000000000e+09
2.190000000000000000e+02,4.540000000000000000e+02,5.200000000000000000e+02,1.090000000000000000e+02,7.700000000000000000e+01,6.250000000000000000e+02,1.058000000000000000e+03,8.900000000000000000e+02,3.200000000000000067e-01,4.646810000000000000e+09
2.170000000000000000e+02,5.460000000000000000e+02,5.130000000000000000e+02,1.080000000000000000e+02,7.200000000000000000e+01,5.750000000000000000e+02,9.280000000000000000e+02,8.210000000000000000e+02,3.300000000000000155e-01,4.667207500000000000e+09
1.880000000000000000e+02,5.700000000000000000e+02,6.520000000000000000e+02,1.570000000000000000e+02,8.600000000000000000e+01,5.640000000000000000e+02,9.430000000000000000e+02,8.680000000000000000e+02,3.400000000000000244e-01,4.688430600000000000e+09
2.040000000000000000e+02,5.510000000000000000e+02,6.560000000000000000e+02,1.730000000000000000e+02,9.900000000000000000e+01,5.670000000000000000e+02,9.870000000000000000e+02,8.780000000000000000e+02,3.499999999999999778e-01,4.708659300000000000e+09
2.000000000000000000e+02,5.660000000000000000e+02,6.290000000000000000e+02,1.730000000000000000e+02,1.020000000000000000e+02,6.600000000000000000e+02,8.890000000000000000e+02,7.840000000000000000e+02,3.599999999999999867e-01,4.728757800000000000e+09
1.980000000000000000e+02,5.830000000000000000e+02,6.410000000000000000e+02,1.760000000000000000e+02,1.010000000000000000e+02,5.890000000000000000e+02,1.016000000000000000e+03,7.790000000000000000e+02,3.699999999999999956e-01,4.748639400000000000e+09
2.230000000000000000e+02,5.600000000000000000e+02,6.480000000000000000e+02,1.780000000000000000e+02,1.030000000000000000e+02,7.200000000000000000e+02,1.024000000000000000e+03,7.200000000000000000e+02,3.800000000000000044e-01,4.768280600000000000e+09
2.250000000000000000e+02,5.000000000000000000e+02,5.850000000000000000e+02,1.450000000000000000e+02,9.600000000000000000e+01,7.670000000000000000e+02,9.750000000000000000e+02,7.900000000000000000e+02,3.800000000000000044e-01,4.768292000000000000e+09
2.150000000000000000e+02,5.540000000000000000e+02,5.640000000000000000e+02,1.010000000000000000e+02,8.100000000000000000e+01,8.130000000000000000e+02,9.570000000000000000e+02,7.680000000000000000e+02,3.900000000000000133e-01,4.787845000000000000e+09
2.030000000000000000e+02,5.700000000000000000e+02,5.730000000000000000e+02,1.060000000000000000e+02,8.600000000000000000e+01,7.970000000000000000e+02,9.390000000000000000e+02,7.890000000000000000e+02,4.099999999999999756e-01,4.827229000000000000e+09
2.430000000000000000e+02,5.720000000000000000e+02,5.700000000000000000e+02,1.050000000000000000e+02,9.200000000000000000e+01,8.100000000000000000e+02,8.110000000000000000e+02,7.980000000000000000e+02,4.099999999999999756e-01,4.827239600000000000e+09
2.490000000000000000e+02,5.070000000000000000e+02,5.740000000000000000e+02,1.030000000000000000e+02,8.500000000000000000e+01,7.450000000000000000e+02,7.980000000000000000e+02,9.180000000000000000e+02,4.199999999999999845e-01,4.849143300000000000e+09
2.540000000000000000e+02,5.630000000000000000e+02,5.610000000000000000e+02,9.800000000000000000e+01,8.200000000000000000e+01,7.490000000000000000e+02,8.550000000000000000e+02,8.610000000000000000e+02,4.400000000000000022e-01,4.888456600000000000e+09
2.700000000000000000e+02,5.030000000000000000e+02,5.530000000000000000e+02,1.350000000000000000e+02,9.100000000000000000e+01,7.920000000000000000e+02,8.120000000000000000e+02,9.240000000000000000e+02,4.400000000000000022e-01,4.888467700000000000e+09
2.660000000000000000e+02,4.610000000000000000e+02,5.850000000000000000e+02,1.430000000000000000e+02,8.600000000000000000e+01,7.670000000000000000e+02,9.160000000000000000e+02,9.630000000000000000e+02,4.500000000000000111e-01,4.908121900000000000e+09
2.670000000000000000e+02,5.060000000000000000e+02,6.080000000000000000e+02,1.440000000000000000e+02,9.000000000000000000e+01,7.580000000000000000e+02,9.000000000000000000e+02,9.820000000000000000e+02,4.699999999999999734e-01,4.947581400000000000e+09
3.000000000000000000e+02,6.330000000000000000e+02,6.020000000000000000e+02,1.440000000000000000e+02,1.040000000000000000e+02,7.490000000000000000e+02,8.730000000000000000e+02,9.350000000000000000e+02,4.699999999999999734e-01,4.947592100000000000e+09
2.950000000000000000e+02,6.730000000000000000e+02,5.160000000000000000e+02,1.320000000000000000e+02,1.170000000000000000e+02,8.730000000000000000e+02,8.290000000000000000e+02,9.280000000000000000e+02,4.899999999999999911e-01,4.992178300000000000e+09
2.900000000000000000e+02,6.880000000000000000e+02,4.230000000000000000e+02,1.100000000000000000e+02,1.140000000000000000e+02,8.510000000000000000e+02,8.460000000000000000e+02,9.450000000000000000e+02,4.899999999999999911e-01,4.992188700000000000e+09
3.110000000000000000e+02,7.220000000000000000e+02,3.880000000000000000e+02,9.600000000000000000e+01,1.160000000000000000e+02,8.760000000000000000e+02,8.140000000000000000e+02,8.640000000000000000e+02,5.000000000000000000e-01,5.008973700000000000e+09
2.940000000000000000e+02,7.150000000000000000e+02,3.440000000000000000e+02,8.900000000000000000e+01,1.130000000000000000e+02,9.600000000000000000e+02,8.640000000000000000e+02,8.780000000000000000e+02,5.100000000000000089e-01,5.028520200000000000e+09
2.430000000000000000e+02,6.280000000000000000e+02,3.350000000000000000e+02,8.600000000000000000e+01,1.070000000000000000e+02,9.710000000000000000e+02,8.060000000000000000e+02,8.520000000000000000e+02,5.300000000000000266e-01,5.068138200000000000e+09
2.380000000000000000e+02,6.380000000000000000e+02,3.890000000000000000e+02,9.100000000000000000e+01,9.600000000000000000e+01,1.023000000000000000e+03,8.080000000000000000e+02,8.910000000000000000e+02,5.300000000000000266e-01,5.068149700000000000e+09
2.190000000000000000e+02,6.560000000000000000e+02,3.610000000000000000e+02,6.900000000000000000e+01,1.080000000000000000e+02,1.065000000000000000e+03,7.990000000000000000e+02,8.550000000000000000e+02,5.400000000000000355e-01,5.088110800000000000e+09
2.210000000000000000e+02,6.640000000000000000e+02,3.210000000000000000e+02,6.300000000000000000e+01,1.300000000000000000e+02,1.088000000000000000e+03,8.190000000000000000e+02,9.810000000000000000e+02,5.600000000000000533e-01,5.127320800000000000e+09
2.420000000000000000e+02,6.880000000000000000e+02,3.430000000000000000e+02,7.100000000000000000e+01,1.570000000000000000e+02,1.192000000000000000e+03,7.760000000000000000e+02,9.860000000000000000e+02,5.600000000000000533e-01,5.127350200000000000e+09
2.440000000000000000e+02,7.280000000000000000e+02,3.490000000000000000e+02,7.900000000000000000e+01,1.590000000000000000e+02,1.355000000000000000e+03,8.020000000000000000e+02,1.018000000000000000e+03,5.699999999999999512e-01,5.148958100000000000e+09
2.550000000000000000e+02,6.490000000000000000e+02,3.500000000000000000e+02,8.300000000000000000e+01,1.670000000000000000e+02,1.273000000000000000e+03,8.680000000000000000e+02,9.770000000000000000e+02,5.899999999999999689e-01,5.187932500000000000e+09
2.760000000000000000e+02,7.620000000000000000e+02,4.010000000000000000e+02,9.300000000000000000e+01,1.640000000000000000e+02,1.279000000000000000e+03,9.290000000000000000e+02,1.030000000000000000e+03,5.999999999999999778e-01,5.207334500000000000e+09
3.310000000000000000e+02,8.680000000000000000e+02,3.960000000000000000e+02,9.700000000000000000e+01,1.560000000000000000e+02,1.279000000000000000e+03,8.920000000000000000e+02,9.440000000000000000e+02,6.099999999999999867e-01,5.227047200000000000e+09
3.600000000000000000e+02,8.640000000000000000e+02,3.670000000000000000e+02,9.500000000000000000e+01,1.370000000000000000e+02,1.215000000000000000e+03,8.720000000000000000e+02,8.800000000000000000e+02,6.199999999999999956e-01,5.246914100000000000e+09
4.330000000000000000e+02,8.180000000000000000e+02,3.700000000000000000e+02,9.200000000000000000e+01,1.380000000000000000e+02,1.133000000000000000e+03,8.630000000000000000e+02,8.040000000000000000e+02,6.300000000000000044e-01,5.266990900000000000e+09
5.300000000000000000e+02,8.380000000000000000e+02,2.910000000000000000e+02,8.300000000000000000e+01,1.310000000000000000e+02,1.149000000000000000e+03,8.110000000000000000e+02,7.790000000000000000e+02,6.400000000000000133e-01,5.286824300000000000e+09
5.260000000000000000e+02,7.300000000000000000e+02,2.030000000000000000e+02,7.400000000000000000e+01,1.280000000000000000e+02,1.196000000000000000e+03,7.120000000000000000e+02,6.780000000000000000e+02,6.500000000000000222e-01,5.307916200000000000e+09
4.870000000000000000e+02,6.400000000000000000e+02,1.940000000000000000e+02,6.700000000000000000e+01,1.250000000000000000e+02,1.244000000000000000e+03,6.690000000000000000e+02,7.300000000000000000e+02,6.600000000000000311e-01,5.328034400000000000e+09
4.950000000000000000e+02,6.720000000000000000e+02,1.850000000000000000e+02,6.100000000000000000e+01,1.180000000000000000e+02,1.163000000000000000e+03,7.350000000000000000e+02,7.750000000000000000e+02,6.600000000000000311e-01,5.328045100000000000e+09
4.650000000000000000e+02,6.940000000000000000e+02,2.740000000000000000e+02,6.800000000000000000e+01,1.420000000000000000e+02,1.130000000000000000e+03,7.770000000000000000e+02,8.010000000000000000e+02,6.800000000000000488e-01,5.367606500000000000e+09
3.610000000000000000e+02,7.170000000000000000e+02,2.800000000000000000e+02,7.100000000000000000e+01,1.450000000000000000e+02,1.201000000000000000e+03,7.850000000000000000e+02,8.400000000000000000e+02,6.899999999999999467e-01,5.387077500000000000e+09
4.330000000000000000e+02,7.390000000000000000e+02,2.860000000000000000e+02,7.900000000000000000e+01,1.520000000000000000e+02,1.175000000000000000e+03,8.350000000000000000e+02,8.630000000000000000e+02,6.999999999999999556e-01,5.407339300000000000e+09
4.440000000000000000e+02,6.910000000000000000e+02,3.510000000000000000e+02,8.400000000000000000e+01,1.590000000000000000e+02,1.142000000000000000e+03,9.520000000000000000e+02,8.420000000000000000e+02,7.099999999999999645e-01,5.427296400000000000e+09
4.520000000000000000e+02,7.270000000000000000e+02,3.530000000000000000e+02,9.000000000000000000e+01,2.310000000000000000e+02,1.283000000000000000e+03,1.015000000000000000e+03,8.520000000000000000e+02,7.199999999999999734e-01,5.448594700000000000e+09
4.940000000000000000e+02,8.940000000000000000e+02,2.820000000000000000e+02,8.900000000000000000e+01,2.420000000000000000e+02,1.324000000000000000e+03,1.080000000000000000e+03,9.690000000000000000e+02,7.299999999999999822e-01,5.468541800000000000e+09
5.120000000000000000e+02,9.210000000000000000e+02,2.940000000000000000e+02,1.160000000000000000e+02,3.190000000000000000e+02,1.319000000000000000e+03,1.102000000000000000e+03,9.900000000000000000e+02,7.399999999999999911e-01,5.488602400000000000e+09
4.790000000000000000e+02,9.540000000000000000e+02,3.590000000000000000e+02,1.230000000000000000e+02,3.290000000000000000e+02,1.328000000000000000e+03,1.139000000000000000e+03,1.066000000000000000e+03,7.500000000000000000e-01,5.508578800000000000e+09
5.170000000000000000e+02,9.950000000000000000e+02,3.410000000000000000e+02,1.310000000000000000e+02,3.320000000000000000e+02,1.369000000000000000e+03,1.082000000000000000e+03,1.050000000000000000e+03,7.500000000000000000e-01,5.508589900000000000e+09
4.900000000000000000e+02,9.750000000000000000e+02,3.630000000000000000e+02,1.360000000000000000e+02,3.190000000000000000e+02,1.291000000000000000e+03,1.055000000000000000e+03,1.071000000000000000e+03,7.700000000000000178e-01,5.548305000000000000e+09
4.950000000000000000e+02,9.020000000000000000e+02,3.740000000000000000e+02,1.470000000000000000e+02,3.110000000000000000e+02,1.215000000000000000e+03,1.089000000000000000e+03,1.055000000000000000e+03,7.800000000000000266e-01,5.568192800000000000e+09
5.070000000000000000e+02,9.800000000000000000e+02,3.630000000000000000e+02,1.320000000000000000e+02,2.740000000000000000e+02,1.180000000000000000e+03,1.113000000000000000e+03,1.047000000000000000e+03,7.800000000000000266e-01,5.568203600000000000e+09
5.090000000000000000e+02,9.520000000000000000e+02,3.290000000000000000e+02,1.400000000000000000e+02,3.000000000000000000e+02,1.244000000000000000e+03,1.131000000000000000e+03,1.000000000000000000e+03,8.000000000000000444e-01,5.606255400000000000e+09
5.770000000000000000e+02,9.210000000000000000e+02,3.130000000000000000e+02,1.550000000000000000e+02,3.330000000000000000e+02,1.240000000000000000e+03,1.088000000000000000e+03,9.800000000000000000e+02,8.100000000000000533e-01,5.629360800000000000e+09
6.140000000000000000e+02,9.260000000000000000e+02,3.040000000000000000e+02,1.520000000000000000e+02,3.360000000000000000e+02,1.430000000000000000e+03,1.056000000000000000e+03,9.700000000000000000e+02,8.100000000000000533e-01,5.629371600000000000e+09
6.060000000000000000e+02,9.140000000000000000e+02,3.610000000000000000e+02,1.430000000000000000e+02,3.520000000000000000e+02,1.495000000000000000e+03,1.008000000000000000e+03,9.050000000000000000e+02,8.299999999999999600e-01,5.668254100000000000e+09
6.870000000000000000e+02,7.750000000000000000e+02,4.260000000000000000e+02,1.470000000000000000e+02,3.290000000000000000e+02,1.535000000000000000e+03,1.043000000000000000e+03,9.600000000000000000e+02,8.399999999999999689e-01,5.688202600000000000e+09
7.610000000000000000e+02,7.930000000000000000e+02,4.140000000000000000e+02,1.550000000000000000e+02,3.330000000000000000e+02,1.505000000000000000e+03,9.780000000000000000e+02,9.400000000000000000e+02,8.499999999999999778e-01,5.708080700000000000e+09
7.330000000000000000e+02,8.650000000000000000e+02,4.040000000000000000e+02,1.540000000000000000e+02,3.390000000000000000e+02,1.463000000000000000e+03,1.070000000000000000e+03,1.075000000000000000e+03,8.599999999999999867e-01,5.727470800000000000e+09
7.430000000000000000e+02,8.500000000000000000e+02,4.230000000000000000e+02,1.690000000000000000e+02,3.310000000000000000e+02,1.357000000000000000e+03,1.105000000000000000e+03,1.100000000000000000e+03,8.699999999999999956e-01,5.749023900000000000e+09
7.980000000000000000e+02,8.490000000000000000e+02,4.010000000000000000e+02,1.820000000000000000e+02,3.440000000000000000e+02,1.322000000000000000e+03,1.068000000000000000e+03,1.103000000000000000e+03,8.699999999999999956e-01,5.749039600000000000e+09
7.550000000000000000e+02,9.090000000000000000e+02,4.330000000000000000e+02,2.020000000000000000e+02,3.660000000000000000e+02,1.292000000000000000e+03,1.019000000000000000e+03,1.139000000000000000e+03,8.900000000000000133e-01,5.788583700000000000e+09
6.860000000000000000e+02,8.910000000000000000e+02,4.450000000000000000e+02,1.950000000000000000e+02,3.650000000000000000e+02,1.337000000000000000e+03,1.034000000000000000e+03,1.136000000000000000e+03,9.000000000000000222e-01,5.808215200000000000e+09
7.670000000000000000e+02,8.510000000000000000e+02,4.460000000000000000e+02,2.000000000000000000e+02,3.360000000000000000e+02,1.344000000000000000e+03,9.720000000000000000e+02,1.065000000000000000e+03,9.000000000000000222e-01,5.808225800000000000e+09
7.450000000000000000e+02,8.250000000000000000e+02,5.120000000000000000e+02,1.940000000000000000e+02,3.200000000000000000e+02,1.279000000000000000e+03,1.014000000000000000e+03,9.910000000000000000e+02,9.200000000000000400e-01,5.847540800000000000e+09
6.600000000000000000e+02,7.910000000000000000e+02,4.990000000000000000e+02,1.870000000000000000e+02,3.010000000000000000e+02,1.317000000000000000e+03,1.063000000000000000e+03,9.730000000000000000e+02,9.300000000000000488e-01,5.867390100000000000e+09
7.030000000000000000e+02,7.100000000000000000e+02,4.230000000000000000e+02,1.610000000000000000e+02,2.800000000000000000e+02,1.301000000000000000e+03,1.047000000000000000e+03,9.460000000000000000e+02,9.300000000000000488e-01,5.867401100000000000e+09
6.890000000000000000e+02,8.090000000000000000e+02,4.130000000000000000e+02,1.560000000000000000e+02,2.640000000000000000e+02,1.385000000000000000e+03,1.055000000000000000e+03,9.230000000000000000e+02,9.499999999999999556e-01,5.908594700000000000e+09
5.470000000000000000e+02,7.840000000000000000e+02,4.590000000000000000e+02,1.320000000000000000e+02,2.530000000000000000e+02,1.411000000000000000e+03,1.060000000000000000e+03,1.004000000000000000e+03,9.599999999999999645e-01,5.928546100000000000e+09
5.550000000000000000e+02,8.500000000000000000e+02,3.870000000000000000e+02,1.370000000000000000e+02,2.680000000000000000e+02,1.433000000000000000e+03,9.240000000000000000e+02,1.014000000000000000e+03,9.599999999999999645e-01,5.928555900000000000e+09
5.540000000000000000e+02,8.710000000000000000e+02,3.840000000000000000e+02,1.400000000000000000e+02,2.750000000000000000e+02,1.548000000000000000e+03,9.210000000000000000e+02,1.015000000000000000e+03,9.799999999999999822e-01,5.968377200000000000e+09
4.370000000000000000e+02,9.120000000000000000e+02,4.220000000000000000e+02,1.390000000000000000e+02,2.600000000000000000e+02,1.515000000000000000e+03,1.000000000000000000e+03,9.900000000000000000e+02,9.899999999999999911e-01,5.988441700000000000e+09
4.490000000000000000e+02,8.530000000000000000e+02,5.090000000000000000e+02,1.400000000000000000e+02,2.290000000000000000e+02,1.326000000000000000e+03,9.710000000000000000e+02,1.018000000000000000e+03,9.899999999999999911e-01,5.988452200000000000e+09
4.710000000000000000e+02,1.002000000000000000e+03,4.620000000000000000e+02,1.330000000000000000e+02,2.350000000000000000e+02,1.367000000000000000e+03,9.510000000000000000e+02,9.350000000000000000e+02,9.699999999999999734e-01,6.027759700000000000e+09
4.450000000000000000e+02,9.940000000000000000e+02,4.490000000000000000e+02,1.370000000000000000e+02,2.520000000000000000e+02,1.332000000000000000e+03,9.850000000000000000e+02,9.460000000000000000e+02,9.599999999999999645e-01,6.047195600000000000e+09
4.440000000000000000e+02,1.032000000000000000e+03,4.690000000000000000e+02,1.250000000000000000e+02,2.130000000000000000e+02,1.230000000000000000e+03,9.440000000000000000e+02,9.640000000000000000e+02,9.499999999999999556e-01,6.068417000000000000e+09
4.280000000000000000e+02,1.024000000000000000e+03,5.410000000000000000e+02,1.240000000000000000e+02,2.080000000000000000e+02,1.311000000000000000e+03,8.380000000000000000e+02,8.640000000000000000e+02,9.399999999999999467e-01,6.087822000000000000e+09
4.170000000000000000e+02,9.990000000000000000e+02,4.790000000000000000e+02,1.230000000000000000e+02,2.160000000000000000e+02,1.372000000000000000e+03,7.950000000000000000e+02,8.250000000000000000e+02,9.300000000000000488e-01,6.107094200000000000e+09
4.010000000000000000e+02,9.880000000000000000e+02,4.780000000000000000e+02,1.230000000000000000e+02,2.050000000000000000e+02,1.345000000000000000e+03,7.690000000000000000e+02,7.390000000000000000e+02,9.200000000000000400e-01,6.126433900000000000e+09
4.350000000000000000e+02,9.460000000000000000e+02,4.650000000000000000e+02,9.700000000000000000e+01,1.470000000000000000e+02,1.286000000000000000e+03,7.880000000000000000e+02,7.150000000000000000e+02,9.100000000000000311e-01,6.146370600000000000e+09
4.060000000000000000e+02,9.460000000000000000e+02,4.400000000000000000e+02,9.500000000000000000e+01,1.380000000000000000e+02,1.225000000000000000e+03,6.840000000000000000e+02,6.420000000000000000e+02,9.000000000000000222e-01,6.169546300000000000e+09
3.870000000000000000e+02,9.290000000000000000e+02,4.320000000000000000e+02,1.070000000000000000e+02,1.370000000000000000e+02,1.128000000000000000e+03,6.220000000000000000e+02,6.320000000000000000e+02,8.900000000000000133e-01,6.189047400000000000e+09
3.550000000000000000e+02,8.880000000000000000e+02,5.350000000000000000e+02,1.090000000000000000e+02,1.100000000000000000e+02,9.870000000000000000e+02,5.820000000000000000e+02,5.610000000000000000e+02,8.800000000000000044e-01,6.208299700000000000e+09
3.040000000000000000e+02,6.690000000000000000e+02,7.010000000000000000e+02,1.250000000000000000e+02,1.020000000000000000e+02,9.620000000000000000e+02,5.370000000000000000e+02,4.930000000000000000e+02,8.699999999999999956e-01,6.228241200000000000e+09
1.640000000000000000e+02,6.260000000000000000e+02,7.800000000000000000e+02,1.450000000000000000e+02,9.500000000000000000e+01,9.550000000000000000e+02,3.700000000000000000e+02,3.810000000000000000e+02,8.599999999999999867e-01,6.248724000000000000e+09
1.400000000000000000e+02,5.010000000000000000e+02,8.310000000000000000e+02,1.570000000000000000e+02,9.300000000000000000e+01,8.640000000000000000e+02,3.420000000000000000e+02,2.620000000000000000e+02,8.499999999999999778e-01,6.268646400000000000e+09
1.280000000000000000e+02,4.890000000000000000e+02,8.290000000000000000e+02,1.590000000000000000e+02,8.900000000000000000e+01,8.430000000000000000e+02,3.040000000000000000e+02,2.410000000000000000e+02,8.399999999999999689e-01,6.288301100000000000e+09
1.330000000000000000e+02,4.880000000000000000e+02,7.570000000000000000e+02,1.590000000000000000e+02,8.600000000000000000e+01,9.030000000000000000e+02,3.250000000000000000e+02,2.430000000000000000e+02,8.299999999999999600e-01,6.308066400000000000e+09
1.390000000000000000e+02,4.990000000000000000e+02,7.400000000000000000e+02,1.520000000000000000e+02,7.100000000000000000e+01,8.150000000000000000e+02,2.810000000000000000e+02,2.180000000000000000e+02,8.199999999999999512e-01,6.327965600000000000e+09
1.380000000000000000e+02,5.240000000000000000e+02,7.320000000000000000e+02,1.360000000000000000e+02,7.200000000000000000e+01,8.000000000000000000e+02,2.670000000000000000e+02,2.090000000000000000e+02,8.100000000000000533e-01,6.347430200000000000e+09
1.340000000000000000e+02,4.870000000000000000e+02,7.210000000000000000e+02,1.240000000000000000e+02,7.600000000000000000e+01,8.770000000000000000e+02,2.570000000000000000e+02,2.040000000000000000e+02,8.000000000000000444e-01,6.369320300000000000e+09
1.380000000000000000e+02,4.690000000000000000e+02,6.980000000000000000e+02,1.100000000000000000e+02,7.400000000000000000e+01,8.450000000000000000e+02,2.720000000000000000e+02,2.430000000000000000e+02,7.900000000000000355e-01,6.389265300000000000e+09
1.400000000000000000e+02,5.310000000000000000e+02,7.520000000000000000e+02,1.000000000000000000e+02,7.300000000000000000e+01,8.710000000000000000e+02,2.280000000000000000e+02,3.000000000000000000e+02,7.800000000000000266e-01,6.408551100000000000e+09
1.420000000000000000e+02,5.480000000000000000e+02,6.760000000000000000e+02,1.090000000000000000e+02,8.200000000000000000e+01,8.550000000000000000e+02,2.100000000000000000e+02,3.080000000000000000e+02,7.700000000000000178e-01,6.428249000000000000e+09
1.400000000000000000e+02,6.330000000000000000e+02,7.420000000000000000e+02,1.360000000000000000e+02,7.700000000000000000e+01,8.430000000000000000e+02,2.020000000000000000e+02,3.540000000000000000e+02,7.600000000000000089e-01,6.447500900000000000e+09
1.520000000000000000e+02,6.210000000000000000e+02,7.420000000000000000e+02,1.490000000000000000e+02,7.000000000000000000e+01,7.460000000000000000e+02,2.230000000000000000e+02,3.560000000000000000e+02,7.500000000000000000e-01,6.467213800000000000e+09
1.510000000000000000e+02,6.180000000000000000e+02,7.210000000000000000e+02,1.520000000000000000e+02,6.700000000000000000e+01,6.920000000000000000e+02,2.060000000000000000e+02,3.370000000000000000e+02,7.399999999999999911e-01,6.486750500000000000e+09
1.490000000000000000e+02,5.790000000000000000e+02,6.660000000000000000e+02,1.460000000000000000e+02,7.300000000000000000e+01,6.480000000000000000e+02,2.660000000000000000e+02,2.800000000000000000e+02,7.299999999999999822e-01,6.511401000000000000e+09
1.380000000000000000e+02,5.620000000000000000e+02,7.170000000000000000e+02,1.380000000000000000e+02,5.800000000000000000e+01,5.810000000000000000e+02,2.810000000000000000e+02,2.750000000000000000e+02,7.199999999999999734e-01,6.528114400000000000e+09
1.380000000000000000e+02,4.820000000000000000e+02,6.170000000000000000e+02,1.220000000000000000e+02,5.600000000000000000e+01,5.690000000000000000e+02,2.890000000000000000e+02,2.350000000000000000e+02,7.099999999999999645e-01,6.547530600000000000e+09
1.770000000000000000e+02,5.090000000000000000e+02,7.160000000000000000e+02,1.220000000000000000e+02,5.500000000000000000e+01,4.920000000000000000e+02,2.610000000000000000e+02,2.340000000000000000e+02,6.999999999999999556e-01,6.567724800000000000e+09
1.820000000000000000e+02,5.870000000000000000e+02,7.310000000000000000e+02,1.240000000000000000e+02,5.500000000000000000e+01,5.260000000000000000e+02,2.660000000000000000e+02,2.310000000000000000e+02,6.899999999999999467e-01,6.587800000000000000e+09
1.760000000000000000e+02,5.950000000000000000e+02,7.650000000000000000e+02,1.300000000000000000e+02,4.900000000000000000e+01,4.560000000000000000e+02,2.560000000000000000e+02,2.800000000000000000e+02,6.800000000000000488e-01,6.607678000000000000e+09
1.820000000000000000e+02,6.090000000000000000e+02,7.560000000000000000e+02,1.300000000000000000e+02,5.000000000000000000e+01,4.540000000000000000e+02,2.350000000000000000e+02,2.780000000000000000e+02,6.700000000000000400e-01,6.628266600000000000e+09
1.820000000000000000e+02,5.930000000000000000e+02,7.580000000000000000e+02,1.230000000000000000e+02,4.800000000000000000e+01,4.400000000000000000e+02,2.340000000000000000e+02,2.590000000000000000e+02,6.600000000000000311e-01,6.649195900000000000e+09
1.330000000000000000e+02,6.030000000000000000e+02,6.330000000000000000e+02,1.040000000000000000e+02,4.500000000000000000e+01,5.210000000000000000e+02,2.360000000000000000e+02,2.600000000000000000e+02,6.500000000000000222e-01,6.667843000000000000e+09
1.370000000000000000e+02,5.500000000000000000e+02,6.250000000000000000e+02,1.130000000000000000e+02,5.700000000000000000e+01,5.200000000000000000e+02,2.300000000000000000e+02,2.260000000000000000e+02,6.400000000000000133e-01,6.687625200000000000e+09
1.500000000000000000e+02,5.450000000000000000e+02,5.970000000000000000e+02,1.110000000000000000e+02,5.500000000000000000e+01,4.870000000000000000e+02,1.860000000000000000e+02,1.140000000000000000e+02,6.300000000000000044e-01,6.707614500000000000e+09
1.670000000000000000e+02,5.450000000000000000e+02,5.360000000000000000e+02,1.060000000000000000e+02,5.900000000000000000e+01,4.760000000000000000e+02,1.740000000000000000e+02,1.020000000000000000e+02,6.199999999999999956e-01,6.727513200000000000e+09
1.630000000000000000e+02,5.100000000000000000e+02,5.310000000000000000e+02,1.140000000000000000e+02,6.200000000000000000e+01,4.580000000000000000e+02,1.660000000000000000e+02,9.700000000000000000e+01,6.099999999999999867e-01,6.747355800000000000e+09
1.600000000000000000e+02,5.000000000000000000e+02,5.680000000000000000e+02,1.160000000000000000e+02,6.400000000000000000e+01,4.490000000000000000e+02,1.760000000000000000e+02,7.400000000000000000e+01,5.999999999999999778e-01,6.767185900000000000e+09
1.660000000000000000e+02,4.500000000000000000e+02,5.760000000000000000e+02,9.700000000000000000e+01,6.200000000000000000e+01,4.130000000000000000e+02,1.540000000000000000e+02,5.900000000000000000e+01,5.899999999999999689e-01,6.786327700000000000e+09
1.550000000000000000e+02,4.610000000000000000e+02,7.000000000000000000e+02,1.200000000000000000e+02,6.000000000000000000e+01,3.460000000000000000e+02,1.340000000000000000e+02,4.200000000000000000e+01,5.799999999999999600e-01,6.809397400000000000e+09
1.290000000000000000e+02,4.260000000000000000e+02,8.080000000000000000e+02,1.230000000000000000e+02,6.200000000000000000e+01,3.580000000000000000e+02,1.300000000000000000e+02,4.500000000000000000e+01,5.699999999999999512e-01,6.827620600000000000e+09
1.390000000000000000e+02,4.100000000000000000e+02,7.950000000000000000e+02,1.250000000000000000e+02,6.300000000000000000e+01,4.470000000000000000e+02,1.340000000000000000e+02,4.600000000000000000e+01,5.600000000000000533e-01,6.847271700000000000e+09
1.570000000000000000e+02,4.010000000000000000e+02,8.380000000000000000e+02,1.330000000000000000e+02,7.100000000000000000e+01,4.000000000000000000e+02,1.140000000000000000e+02,1.010000000000000000e+02,5.500000000000000444e-01,6.866944800000000000e+09
1.550000000000000000e+02,4.870000000000000000e+02,8.240000000000000000e+02,1.460000000000000000e+02,6.900000000000000000e+01,3.880000000000000000e+02,1.110000000000000000e+02,1.030000000000000000e+02,5.400000000000000355e-01,6.888895600000000000e+09
1.650000000000000000e+02,5.290000000000000000e+02,7.470000000000000000e+02,1.880000000000000000e+02,7.000000000000000000e+01,3.830000000000000000e+02,1.030000000000000000e+02,1.100000000000000000e+02,5.300000000000000266e-01,6.909243500000000000e+09
1.630000000000000000e+02,5.680000000000000000e+02,6.200000000000000000e+02,1.970000000000000000e+02,6.700000000000000000e+01,3.720000000000000000e+02,1.030000000000000000e+02,1.120000000000000000e+02,5.200000000000000178e-01,6.928808000000000000e+09
1.720000000000000000e+02,6.000000000000000000e+02,6.330000000000000000e+02,1.850000000000000000e+02,6.800000000000000000e+01,3.830000000000000000e+02,1.070000000000000000e+02,1.130000000000000000e+02,5.100000000000000089e-01,6.948400100000000000e+09
1.660000000000000000e+02,6.770000000000000000e+02,5.680000000000000000e+02,1.770000000000000000e+02,6.100000000000000000e+01,3.590000000000000000e+02,1.020000000000000000e+02,7.400000000000000000e+01,5.000000000000000000e-01,6.969908300000000000e+09
1.510000000000000000e+02,6.250000000000000000e+02,6.630000000000000000e+02,1.750000000000000000e+02,6.000000000000000000e+01,3.560000000000000000e+02,9.300000000000000000e+01,7.400000000000000000e+01,5.000000000000000000e-01,6.969920100000000000e+09
1.380000000000000000e+02,5.560000000000000000e+02,7.880000000000000000e+02,1.690000000000000000e+02,6.600000000000000000e+01,3.650000000000000000e+02,1.000000000000000000e+02,7.100000000000000000e+01,4.799999999999999822e-01,7.006225600000000000e+09
1.380000000000000000e+02,5.460000000000000000e+02,8.120000000000000000e+02,1.620000000000000000e+02,7.000000000000000000e+01,4.030000000000000000e+02,1.110000000000000000e+02,6.700000000000000000e+01,4.699999999999999734e-01,7.029091700000000000e+09
1.090000000000000000e+02,5.270000000000000000e+02,8.190000000000000000e+02,1.660000000000000000e+02,6.700000000000000000e+01,3.150000000000000000e+02,9.500000000000000000e+01,6.300000000000000000e+01,4.600000000000000200e-01,7.048874000000000000e+09
1.320000000000000000e+02,3.910000000000000000e+02,8.260000000000000000e+02,1.800000000000000000e+02,7.300000000000000000e+01,2.850000000000000000e+02,8.700000000000000000e+01,6.000000000000000000e+01,4.500000000000000111e-01,7.068643300000000000e+09
1.380000000000000000e+02,3.620000000000000000e+02,8.660000000000000000e+02,1.960000000000000000e+02,7.600000000000000000e+01,2.710000000000000000e+02,9.700000000000000000e+01,6.400000000000000000e+01,4.400000000000000022e-01,7.088409200000000000e+09
1.340000000000000000e+02,3.760000000000000000e+02,7.930000000000000000e+02,1.540000000000000000e+02,7.000000000000000000e+01,2.690000000000000000e+02,1.050000000000000000e+02,5.600000000000000000e+01,4.299999999999999933e-01,7.108228400000000000e+09
1.320000000000000000e+02,3.620000000000000000e+02,8.560000000000000000e+02,1.590000000000000000e+02,7.400000000000000000e+01,4.110000000000000000e+02,1.000000000000000000e+02,5.700000000000000000e+01,4.199999999999999845e-01,7.129639400000000000e+09
1.390000000000000000e+02,3.310000000000000000e+02,8.270000000000000000e+02,1.610000000000000000e+02,7.600000000000000000e+01,4.130000000000000000e+02,9.800000000000000000e+01,5.900000000000000000e+01,4.099999999999999756e-01,7.148988100000000000e+09
1.210000000000000000e+02,3.150000000000000000e+02,8.240000000000000000e+02,1.510000000000000000e+02,6.900000000000000000e+01,4.100000000000000000e+02,1.060000000000000000e+02,5.400000000000000000e+01,4.000000000000000222e-01,7.168703000000000000e+09
1.220000000000000000e+02,3.230000000000000000e+02,8.020000000000000000e+02,1.850000000000000000e+02,7.300000000000000000e+01,4.140000000000000000e+02,9.600000000000000000e+01,5.200000000000000000e+01,3.900000000000000133e-01,7.188488000000000000e+09
1.220000000000000000e+02,3.110000000000000000e+02,7.990000000000000000e+02,1.910000000000000000e+02,8.500000000000000000e+01,4.620000000000000000e+02,1.060000000000000000e+02,5.900000000000000000e+01,3.800000000000000044e-01,7.207862100000000000e+09
1.380000000000000000e+02,3.040000000000000000e+02,8.520000000000000000e+02,1.890000000000000000e+02,7.900000000000000000e+01,3.230000000000000000e+02,9.800000000000000000e+01,5.600000000000000000e+01,3.699999999999999956e-01,7.227116100000000000e+09
1.420000000000000000e+02,3.510000000000000000e+02,9.870000000000000000e+02,1.990000000000000000e+02,8.100000000000000000e+01,2.960000000000000000e+02,1.030000000000000000e+02,5.600000000000000000e+01,3.599999999999999867e-01,7.246718400000000000e+09
1.440000000000000000e+02,3.610000000000000000e+02,1.005000000000000000e+03,1.990000000000000000e+02,8.300000000000000000e+01,2.970000000000000000e+02,9.300000000000000000e+01,5.900000000000000000e+01,3.499999999999999778e-01,7.266674900000000000e+09
1.400000000000000000e+02,3.530000000000000000e+02,9.700000000000000000e+02,1.450000000000000000e+02,7.700000000000000000e+01,3.160000000000000000e+02,1.020000000000000000e+02,5.800000000000000000e+01,3.400000000000000244e-01,7.288473200000000000e+09
1.470000000000000000e+02,3.690000000000000000e+02,9.760000000000000000e+02,1.360000000000000000e+02,6.500000000000000000e+01,2.550000000000000000e+02,7.500000000000000000e+01,5.800000000000000000e+01,3.300000000000000155e-01,7.308361000000000000e+09
1.420000000000000000e+02,3.760000000000000000e+02,9.650000000000000000e+02,1.380000000000000000e+02,7.300000000000000000e+01,3.200000000000000000e+02,9.100000000000000000e+01,7.300000000000000000e+01,3.200000000000000067e-01,7.328271800000000000e+09
1.440000000000000000e+02,3.570000000000000000e+02,8.780000000000000000e+02,1.460000000000000000e+02,6.900000000000000000e+01,3.440000000000000000e+02,8.500000000000000000e+01,7.100000000000000000e+01,3.099999999999999978e-01,7.347661500000000000e+09
1.490000000000000000e+02,4.460000000000000000e+02,9.240000000000000000e+02,1.680000000000000000e+02,7.300000000000000000e+01,3.490000000000000000e+02,8.800000000000000000e+01,7.200000000000000000e+01,2.999999999999999889e-01,7.367370600000000000e+09
1.510000000000000000e+02,4.940000000000000000e+02,1.005000000000000000e+03,1.780000000000000000e+02,7.100000000000000000e+01,3.700000000000000000e+02,8.200000000000000000e+01,7.100000000000000000e+01,2.899999999999999800e-01,7.386780500000000000e+09
1.590000000000000000e+02,5.340000000000000000e+02,1.001000000000000000e+03,1.960000000000000000e+02,8.000000000000000000e+01,3.890000000000000000e+02,9.400000000000000000e+01,6.900000000000000000e+01,2.800000000000000266e-01,7.406516700000000000e+09
1.610000000000000000e+02,5.730000000000000000e+02,1.042000000000000000e+03,2.020000000000000000e+02,7.900000000000000000e+01,4.680000000000000000e+02,1.160000000000000000e+02,7.000000000000000000e+01,2.600000000000000089e-01,7.447359700000000000e+09
1.610000000000000000e+02,5.820000000000000000e+02,1.091000000000000000e+03,2.190000000000000000e+02,8.800000000000000000e+01,4.690000000000000000e+02,1.200000000000000000e+02,8.100000000000000000e+01,2.600000000000000089e-01,7.447372300000000000e+09
1.860000000000000000e+02,5.330000000000000000e+02,1.061000000000000000e+03,2.750000000000000000e+02,1.110000000000000000e+02,4.820000000000000000e+02,1.310000000000000000e+02,1.040000000000000000e+02,2.500000000000000000e-01,7.467383100000000000e+09
2.240000000000000000e+02,5.590000000000000000e+02,1.066000000000000000e+03,3.280000000000000000e+02,1.270000000000000000e+02,4.550000000000000000e+02,1.350000000000000000e+02,1.270000000000000000e+02,2.399999999999999911e-01,7.487426300000000000e+09
2.250000000000000000e+02,5.410000000000000000e+02,1.122000000000000000e+03,3.570000000000000000e+02,1.420000000000000000e+02,4.410000000000000000e+02,1.290000000000000000e+02,1.310000000000000000e+02,2.300000000000000100e-01,7.507404500000000000e+09
2.420000000000000000e+02,5.400000000000000000e+02,1.050000000000000000e+03,3.900000000000000000e+02,1.510000000000000000e+02,2.620000000000000000e+02,9.700000000000000000e+01,1.310000000000000000e+02,2.200000000000000011e-01,7.527477600000000000e+09
2.400000000000000000e+02,5.680000000000000000e+02,1.041000000000000000e+03,4.040000000000000000e+02,1.520000000000000000e+02,2.660000000000000000e+02,9.300000000000000000e+01,1.250000000000000000e+02,2.099999999999999922e-01,7.547246400000000000e+09
2.730000000000000000e+02,6.050000000000000000e+02,1.158000000000000000e+03,4.580000000000000000e+02,1.790000000000000000e+02,2.370000000000000000e+02,8.700000000000000000e+01,1.320000000000000000e+02,2.000000000000000111e-01,7.567146200000000000e+09
2.780000000000000000e+02,6.840000000000000000e+02,1.209000000000000000e+03,4.440000000000000000e+02,1.820000000000000000e+02,2.290000000000000000e+02,7.900000000000000000e+01,1.220000000000000000e+02,1.900000000000000022e-01,7.588671300000000000e+09
3.530000000000000000e+02,7.900000000000000000e+02,1.247000000000000000e+03,6.020000000000000000e+02,1.960000000000000000e+02,2.100000000000000000e+02,9.300000000000000000e+01,1.530000000000000000e+02,1.799999999999999933e-01,7.608378200000000000e+09
3.880000000000000000e+02,9.290000000000000000e+02,1.296000000000000000e+03,6.600000000000000000e+02,2.030000000000000000e+02,2.070000000000000000e+02,1.100000000000000000e+02,1.650000000000000000e+02,1.700000000000000122e-01,7.627957800000000000e+09
4.330000000000000000e+02,1.070000000000000000e+03,1.283000000000000000e+03,6.790000000000000000e+02,2.180000000000000000e+02,1.780000000000000000e+02,1.170000000000000000e+02,1.890000000000000000e+02,1.600000000000000033e-01,7.647853700000000000e+09
4.040000000000000000e+02,1.076000000000000000e+03,1.219000000000000000e+03,6.530000000000000000e+02,1.910000000000000000e+02,1.890000000000000000e+02,1.130000000000000000e+02,1.760000000000000000e+02,1.499999999999999944e-01,7.667503200000000000e+09
4.090000000000000000e+02,1.096000000000000000e+03,1.182000000000000000e+03,7.040000000000000000e+02,1.830000000000000000e+02,2.280000000000000000e+02,1.160000000000000000e+02,1.820000000000000000e+02,1.300000000000000044e-01,7.707569200000000000e+09
3.730000000000000000e+02,1.080000000000000000e+03,1.205000000000000000e+03,6.980000000000000000e+02,2.100000000000000000e+02,2.140000000000000000e+02,1.130000000000000000e+02,1.670000000000000000e+02,1.300000000000000044e-01,7.707580300000000000e+09
4.200000000000000000e+02,1.059000000000000000e+03,1.230000000000000000e+03,7.400000000000000000e+02,2.520000000000000000e+02,2.480000000000000000e+02,1.180000000000000000e+02,1.840000000000000000e+02,1.199999999999999956e-01,7.728864200000000000e+09
4.300000000000000000e+02,1.057000000000000000e+03,1.304000000000000000e+03,7.960000000000000000e+02,2.670000000000000000e+02,2.670000000000000000e+02,1.380000000000000000e+02,2.270000000000000000e+02,1.100000000000000006e-01,7.748972400000000000e+09
4.690000000000000000e+02,1.110000000000000000e+03,1.323000000000000000e+03,8.860000000000000000e+02,2.870000000000000000e+02,2.660000000000000000e+02,1.590000000000000000e+02,2.770000000000000000e+02,1.000000000000000056e-01,7.768543500000000000e+09
5.280000000000000000e+02,1.123000000000000000e+03,1.268000000000000000e+03,9.780000000000000000e+02,3.250000000000000000e+02,3.150000000000000000e+02,1.730000000000000000e+02,3.050000000000000000e+02,8.999999999999999667e-02,7.788426700000000000e+09
6.180000000000000000e+02,1.123000000000000000e+03,1.175000000000000000e+03,1.090000000000000000e+03,3.700000000000000000e+02,3.270000000000000000e+02,2.090000000000000000e+02,3.530000000000000000e+02,8.000000000000000167e-02,7.807976200000000000e+09
5.880000000000000000e+02,1.190000000000000000e+03,1.076000000000000000e+03,1.051000000000000000e+03,3.440000000000000000e+02,3.390000000000000000e+02,2.170000000000000000e+02,4.800000000000000000e+02,7.000000000000000666e-02,7.827779500000000000e+09
6.240000000000000000e+02,1.212000000000000000e+03,9.750000000000000000e+02,1.043000000000000000e+03,3.510000000000000000e+02,4.400000000000000000e+02,2.920000000000000000e+02,6.670000000000000000e+02,5.999999999999999778e-02,7.847358700000000000e+09
6.070000000000000000e+02,1.213000000000000000e+03,9.590000000000000000e+02,9.710000000000000000e+02,3.390000000000000000e+02,4.600000000000000000e+02,3.630000000000000000e+02,6.900000000000000000e+02,5.000000000000000278e-02,7.866892100000000000e+09
5.760000000000000000e+02,1.188000000000000000e+03,9.670000000000000000e+02,8.990000000000000000e+02,3.260000000000000000e+02,4.210000000000000000e+02,3.780000000000000000e+02,7.150000000000000000e+02,2.000000000000000042e-02,7.928436400000000000e+09
4.720000000000000000e+02,1.206000000000000000e+03,9.790000000000000000e+02,6.610000000000000000e+02,2.380000000000000000e+02,4.370000000000000000e+02,3.760000000000000000e+02,6.980000000000000000e+02,2.000000000000000042e-02,7.928449200000000000e+09
4.570000000000000000e+02,1.083000000000000000e+03,1.019000000000000000e+03,6.250000000000000000e+02,2.400000000000000000e+02,6.070000000000000000e+02,4.150000000000000000e+02,6.410000000000000000e+02,2.000000000000000042e-02,8.007608100000000000e+09
3.710000000000000000e+02,9.630000000000000000e+02,1.065000000000000000e+03,5.620000000000000000e+02,2.050000000000000000e+02,5.610000000000000000e+02,3.770000000000000000e+02,4.300000000000000000e+02,2.000000000000000042e-02,8.007644500000000000e+09
4.290000000000000000e+02,9.950000000000000000e+02,1.041000000000000000e+03,6.300000000000000000e+02,2.390000000000000000e+02,5.550000000000000000e+02,3.330000000000000000e+02,4.100000000000000000e+02,2.000000000000000042e-02,8.007656600000000000e+09
4.300000000000000000e+02,9.630000000000000000e+02,1.012000000000000000e+03,5.850000000000000000e+02,2.710000000000000000e+02,5.950000000000000000e+02,3.270000000000000000e+02,3.560000000000000000e+02,2.000000000000000042e-02,8.007666400000000000e+09
4.730000000000000000e+02,9.040000000000000000e+02,9.930000000000000000e+02,6.760000000000000000e+02,3.100000000000000000e+02,6.410000000000000000e+02,3.440000000000000000e+02,4.000000000000000000e+02,2.999999999999999889e-02,8.032344000000000000e+09
4.640000000000000000e+02,8.360000000000000000e+02,9.070000000000000000e+02,6.640000000000000000e+02,3.070000000000000000e+02,6.340000000000000000e+02,5.260000000000000000e+02,4.730000000000000000e+02,2.999999999999999889e-02,8.032354100000000000e+09
4.580000000000000000e+02,7.730000000000000000e+02,8.360000000000000000e+02,6.500000000000000000e+02,3.040000000000000000e+02,6.600000000000000000e+02,5.470000000000000000e+02,4.900000000000000000e+02,4.000000000000000083e-02,8.050393500000000000e+09
3.790000000000000000e+02,6.680000000000000000e+02,8.660000000000000000e+02,5.520000000000000000e+02,2.690000000000000000e+02,7.350000000000000000e+02,5.400000000000000000e+02,4.900000000000000000e+02,5.000000000000000278e-02,8.067617600000000000e+09
3.190000000000000000e+02,6.140000000000000000e+02,8.240000000000000000e+02,4.920000000000000000e+02,2.010000000000000000e+02,7.370000000000000000e+02,5.540000000000000000e+02,6.160000000000000000e+02,5.999999999999999778e-02,8.087448900000000000e+09
2.980000000000000000e+02,6.210000000000000000e+02,7.700000000000000000e+02,3.120000000000000000e+02,1.600000000000000000e+02,8.610000000000000000e+02,7.460000000000000000e+02,7.870000000000000000e+02,7.000000000000000666e-02,8.106985700000000000e+09
2.910000000000000000e+02,6.560000000000000000e+02,8.240000000000000000e+02,3.090000000000000000e+02,1.450000000000000000e+02,7.940000000000000000e+02,6.670000000000000000e+02,7.960000000000000000e+02,8.000000000000000167e-02,8.126992900000000000e+09
2.730000000000000000e+02,6.850000000000000000e+02,8.720000000000000000e+02,2.830000000000000000e+02,1.350000000000000000e+02,8.540000000000000000e+02,7.630000000000000000e+02,8.260000000000000000e+02,1.000000000000000056e-01,8.166400400000000000e+09
2.890000000000000000e+02,6.530000000000000000e+02,7.610000000000000000e+02,2.610000000000000000e+02,1.430000000000000000e+02,8.460000000000000000e+02,8.210000000000000000e+02,9.170000000000000000e+02,1.000000000000000056e-01,8.166429700000000000e+09
2.960000000000000000e+02,6.420000000000000000e+02,7.650000000000000000e+02,2.580000000000000000e+02,1.620000000000000000e+02,8.650000000000000000e+02,9.560000000000000000e+02,9.610000000000000000e+02,1.100000000000000006e-01,8.187811400000000000e+09
2.500000000000000000e+02,5.850000000000000000e+02,7.280000000000000000e+02,2.260000000000000000e+02,1.560000000000000000e+02,8.350000000000000000e+02,9.300000000000000000e+02,9.480000000000000000e+02,1.400000000000000133e-01,8.246929400000000000e+09
2.550000000000000000e+02,5.790000000000000000e+02,7.040000000000000000e+02,1.950000000000000000e+02,1.540000000000000000e+02,8.000000000000000000e+02,9.430000000000000000e+02,9.590000000000000000e+02,1.400000000000000133e-01,8.246941900000000000e+09
2.630000000000000000e+02,6.060000000000000000e+02,5.880000000000000000e+02,1.700000000000000000e+02,1.610000000000000000e+02,7.350000000000000000e+02,8.720000000000000000e+02,9.730000000000000000e+02,1.400000000000000133e-01,8.246951200000000000e+09
2.540000000000000000e+02,6.090000000000000000e+02,5.940000000000000000e+02,1.580000000000000000e+02,1.510000000000000000e+02,7.070000000000000000e+02,8.830000000000000000e+02,9.100000000000000000e+02,1.499999999999999944e-01,8.266943000000000000e+09
2.580000000000000000e+02,5.870000000000000000e+02,5.530000000000000000e+02,1.240000000000000000e+02,1.330000000000000000e+02,7.310000000000000000e+02,8.190000000000000000e+02,8.740000000000000000e+02,1.600000000000000033e-01,8.286552200000000000e+09
2.360000000000000000e+02,5.950000000000000000e+02,5.710000000000000000e+02,1.460000000000000000e+02,1.040000000000000000e+02,6.670000000000000000e+02,7.810000000000000000e+02,7.710000000000000000e+02,1.700000000000000122e-01,8.309609200000000000e+09
2.640000000000000000e+02,6.310000000000000000e+02,5.870000000000000000e+02,1.790000000000000000e+02,1.030000000000000000e+02,7.030000000000000000e+02,7.320000000000000000e+02,7.600000000000000000e+02,1.799999999999999933e-01,8.329248400000000000e+09
2.880000000000000000e+02,5.560000000000000000e+02,5.580000000000000000e+02,1.710000000000000000e+02,1.030000000000000000e+02,6.860000000000000000e+02,9.040000000000000000e+02,8.300000000000000000e+02,1.900000000000000022e-01,8.347015900000000000e+09
2.920000000000000000e+02,5.310000000000000000e+02,5.100000000000000000e+02,1.660000000000000000e+02,1.010000000000000000e+02,7.170000000000000000e+02,1.031000000000000000e+03,8.670000000000000000e+02,2.000000000000000111e-01,8.366545100000000000e+09
2.870000000000000000e+02,5.400000000000000000e+02,5.160000000000000000e+02,1.680000000000000000e+02,1.090000000000000000e+02,6.820000000000000000e+02,1.041000000000000000e+03,8.060000000000000000e+02,2.099999999999999922e-01,8.386283500000000000e+09
2.890000000000000000e+02,5.810000000000000000e+02,6.890000000000000000e+02,2.280000000000000000e+02,1.180000000000000000e+02,5.830000000000000000e+02,1.002000000000000000e+03,8.180000000000000000e+02,2.200000000000000011e-01,8.408648600000000000e+09
2.430000000000000000e+02,5.550000000000000000e+02,6.580000000000000000e+02,2.020000000000000000e+02,1.240000000000000000e+02,6.410000000000000000e+02,1.009000000000000000e+03,8.100000000000000000e+02,2.300000000000000100e-01,8.427988100000000000e+09
2.530000000000000000e+02,5.930000000000000000e+02,6.510000000000000000e+02,2.040000000000000000e+02,1.710000000000000000e+02,8.420000000000000000e+02,1.150000000000000000e+03,7.950000000000000000e+02,2.500000000000000000e-01,8.466944400000000000e+09
2.500000000000000000e+02,5.730000000000000000e+02,6.510000000000000000e+02,2.060000000000000000e+02,1.780000000000000000e+02,9.460000000000000000e+02,1.049000000000000000e+03,7.940000000000000000e+02,2.500000000000000000e-01,8.466978900000000000e+09
2.620000000000000000e+02,5.840000000000000000e+02,6.370000000000000000e+02,2.060000000000000000e+02,1.720000000000000000e+02,9.370000000000000000e+02,1.006000000000000000e+03,8.040000000000000000e+02,2.700000000000000178e-01,8.506380400000000000e+09
2.510000000000000000e+02,5.330000000000000000e+02,5.780000000000000000e+02,1.200000000000000000e+02,1.630000000000000000e+02,9.410000000000000000e+02,9.750000000000000000e+02,7.690000000000000000e+02,2.700000000000000178e-01,8.506393300000000000e+09
2.560000000000000000e+02,5.260000000000000000e+02,6.020000000000000000e+02,1.320000000000000000e+02,1.570000000000000000e+02,9.190000000000000000e+02,9.700000000000000000e+02,7.610000000000000000e+02,2.800000000000000266e-01,8.527217200000000000e+09
2.090000000000000000e+02,4.690000000000000000e+02,6.110000000000000000e+02,1.230000000000000000e+02,9.700000000000000000e+01,7.940000000000000000e+02,6.720000000000000000e+02,7.530000000000000000e+02,2.899999999999999800e-01,8.547143500000000000e+09
1.990000000000000000e+02,4.550000000000000000e+02,6.110000000000000000e+02,1.180000000000000000e+02,8.400000000000000000e+01,6.120000000000000000e+02,6.550000000000000000e+02,7.190000000000000000e+02,2.999999999999999889e-01,8.566895100000000000e+09
1.710000000000000000e+02,5.200000000000000000e+02,6.090000000000000000e+02,1.170000000000000000e+02,7.700000000000000000e+01,5.770000000000000000e+02,6.540000000000000000e+02,6.890000000000000000e+02,3.099999999999999978e-01,8.587197900000000000e+09
1.830000000000000000e+02,5.190000000000000000e+02,5.250000000000000000e+02,1.260000000000000000e+02,8.000000000000000000e+01,5.800000000000000000e+02,6.680000000000000000e+02,6.750000000000000000e+02,3.200000000000000067e-01,8.607388700000000000e+09
1.710000000000000000e+02,5.590000000000000000e+02,5.670000000000000000e+02,1.110000000000000000e+02,8.900000000000000000e+01,5.280000000000000000e+02,7.830000000000000000e+02,7.840000000000000000e+02,3.300000000000000155e-01,8.627267800000000000e+09
1.850000000000000000e+02,5.480000000000000000e+02,5.640000000000000000e+02,1.090000000000000000e+02,7.900000000000000000e+01,4.660000000000000000e+02,7.740000000000000000e+02,7.380000000000000000e+02,3.400000000000000244e-01,8.648939400000000000e+09
2.430000000000000000e+02,5.930000000000000000e+02,5.500000000000000000e+02,1.080000000000000000e+02,8.200000000000000000e+01,5.110000000000000000e+02,8.210000000000000000e+02,7.750000000000000000e+02,3.499999999999999778e-01,8.669183200000000000e+09
2.560000000000000000e+02,6.410000000000000000e+02,5.530000000000000000e+02,1.050000000000000000e+02,8.000000000000000000e+01,5.230000000000000000e+02,8.140000000000000000e+02,8.010000000000000000e+02,3.599999999999999867e-01,8.688908200000000000e+09
2.480000000000000000e+02,6.390000000000000000e+02,5.540000000000000000e+02,1.040000000000000000e+02,6.900000000000000000e+01,5.110000000000000000e+02,8.170000000000000000e+02,7.900000000000000000e+02,3.699999999999999956e-01,8.708380800000000000e+09
2.570000000000000000e+02,5.630000000000000000e+02,3.800000000000000000e+02,9.500000000000000000e+01,6.400000000000000000e+01,5.240000000000000000e+02,8.060000000000000000e+02,7.260000000000000000e+02,3.800000000000000044e-01,8.728109000000000000e+09
2.550000000000000000e+02,5.980000000000000000e+02,4.500000000000000000e+02,9.400000000000000000e+01,6.600000000000000000e+01,5.350000000000000000e+02,7.670000000000000000e+02,6.970000000000000000e+02,4.000000000000000222e-01,8.766957600000000000e+09
2.110000000000000000e+02,5.560000000000000000e+02,4.600000000000000000e+02,9.100000000000000000e+01,5.900000000000000000e+01,4.700000000000000000e+02,7.350000000000000000e+02,7.280000000000000000e+02,4.000000000000000222e-01,8.766969600000000000e+09
2.070000000000000000e+02,4.950000000000000000e+02,4.690000000000000000e+02,9.400000000000000000e+01,6.200000000000000000e+01,4.530000000000000000e+02,7.580000000000000000e+02,8.120000000000000000e+02,4.099999999999999756e-01,8.791549800000000000e+09
2.070000000000000000e+02,5.370000000000000000e+02,4.320000000000000000e+02,6.800000000000000000e+01,5.900000000000000000e+01,4.580000000000000000e+02,7.670000000000000000e+02,8.770000000000000000e+02,4.299999999999999933e-01,8.827693400000000000e+09
2.010000000000000000e+02,5.720000000000000000e+02,4.430000000000000000e+02,6.800000000000000000e+01,6.200000000000000000e+01,4.920000000000000000e+02,7.680000000000000000e+02,8.240000000000000000e+02,4.299999999999999933e-01,8.827730500000000000e+09
1.880000000000000000e+02,5.530000000000000000e+02,3.530000000000000000e+02,6.700000000000000000e+01,6.100000000000000000e+01,4.800000000000000000e+02,7.950000000000000000e+02,8.720000000000000000e+02,4.400000000000000022e-01,8.847158500000000000e+09
1.950000000000000000e+02,5.850000000000000000e+02,3.380000000000000000e+02,6.800000000000000000e+01,6.400000000000000000e+01,4.960000000000000000e+02,7.570000000000000000e+02,7.730000000000000000e+02,4.500000000000000111e-01,8.866922400000000000e+09
2.060000000000000000e+02,5.030000000000000000e+02,3.410000000000000000e+02,6.300000000000000000e+01,6.100000000000000000e+01,5.460000000000000000e+02,7.150000000000000000e+02,7.100000000000000000e+02,4.600000000000000200e-01,8.887287000000000000e+09
2.010000000000000000e+02,4.880000000000000000e+02,2.870000000000000000e+02,5.200000000000000000e+01,6.800000000000000000e+01,6.790000000000000000e+02,7.720000000000000000e+02,6.740000000000000000e+02,4.699999999999999734e-01,8.906952600000000000e+09
2.070000000000000000e+02,5.020000000000000000e+02,3.400000000000000000e+02,6.000000000000000000e+01,6.700000000000000000e+01,7.080000000000000000e+02,7.050000000000000000e+02,7.210000000000000000e+02,4.799999999999999822e-01,8.929267100000000000e+09
2.430000000000000000e+02,5.440000000000000000e+02,3.580000000000000000e+02,7.000000000000000000e+01,6.600000000000000000e+01,7.090000000000000000e+02,6.850000000000000000e+02,7.950000000000000000e+02,4.899999999999999911e-01,8.946766000000000000e+09
2.240000000000000000e+02,4.980000000000000000e+02,3.560000000000000000e+02,6.900000000000000000e+01,7.100000000000000000e+01,8.240000000000000000e+02,6.900000000000000000e+02,8.320000000000000000e+02,5.000000000000000000e-01,8.966622700000000000e+09
2.100000000000000000e+02,5.700000000000000000e+02,3.290000000000000000e+02,7.000000000000000000e+01,7.800000000000000000e+01,8.050000000000000000e+02,7.680000000000000000e+02,8.750000000000000000e+02,5.100000000000000089e-01,8.986418100000000000e+09
2.260000000000000000e+02,5.310000000000000000e+02,3.890000000000000000e+02,7.500000000000000000e+01,7.700000000000000000e+01,7.620000000000000000e+02,7.380000000000000000e+02,9.180000000000000000e+02,5.200000000000000178e-01,9.006262200000000000e+09
2.520000000000000000e+02,4.820000000000000000e+02,4.040000000000000000e+02,8.000000000000000000e+01,7.800000000000000000e+01,7.590000000000000000e+02,7.450000000000000000e+02,9.020000000000000000e+02,5.300000000000000266e-01,9.026184500000000000e+09
2.260000000000000000e+02,4.980000000000000000e+02,3.990000000000000000e+02,8.100000000000000000e+01,8.300000000000000000e+01,7.970000000000000000e+02,8.270000000000000000e+02,8.340000000000000000e+02,5.500000000000000444e-01,9.067206500000000000e+09
2.830000000000000000e+02,5.700000000000000000e+02,4.090000000000000000e+02,8.400000000000000000e+01,8.800000000000000000e+01,7.570000000000000000e+02,8.540000000000000000e+02,9.110000000000000000e+02,5.600000000000000533e-01,9.087169600000000000e+09
3.110000000000000000e+02,5.510000000000000000e+02,4.070000000000000000e+02,8.200000000000000000e+01,8.600000000000000000e+01,8.080000000000000000e+02,8.500000000000000000e+02,9.030000000000000000e+02,5.600000000000000533e-01,9.087183000000000000e+09
2.960000000000000000e+02,5.500000000000000000e+02,3.250000000000000000e+02,7.700000000000000000e+01,9.000000000000000000e+01,9.400000000000000000e+02,8.510000000000000000e+02,8.800000000000000000e+02,5.699999999999999512e-01,9.108496300000000000e+09
2.830000000000000000e+02,6.310000000000000000e+02,2.790000000000000000e+02,6.700000000000000000e+01,8.500000000000000000e+01,9.410000000000000000e+02,8.300000000000000000e+02,8.670000000000000000e+02,5.799999999999999600e-01,9.129691200000000000e+09
2.820000000000000000e+02,6.160000000000000000e+02,2.790000000000000000e+02,5.700000000000000000e+01,8.800000000000000000e+01,9.990000000000000000e+02,8.320000000000000000e+02,8.410000000000000000e+02,5.899999999999999689e-01,9.146646400000000000e+09
2.260000000000000000e+02,6.190000000000000000e+02,2.750000000000000000e+02,5.400000000000000000e+01,8.200000000000000000e+01,1.003000000000000000e+03,7.880000000000000000e+02,7.760000000000000000e+02,5.999999999999999778e-01,9.169327300000000000e+09
2.190000000000000000e+02,6.430000000000000000e+02,2.780000000000000000e+02,5.900000000000000000e+01,9.200000000000000000e+01,1.017000000000000000e+03,7.900000000000000000e+02,7.850000000000000000e+02,6.099999999999999867e-01,9.188813500000000000e+09
2.410000000000000000e+02,6.860000000000000000e+02,2.780000000000000000e+02,5.800000000000000000e+01,8.900000000000000000e+01,9.870000000000000000e+02,8.470000000000000000e+02,7.540000000000000000e+02,6.199999999999999956e-01,9.208398800000000000e+09
2.820000000000000000e+02,6.620000000000000000e+02,2.110000000000000000e+02,5.600000000000000000e+01,9.300000000000000000e+01,1.058000000000000000e+03,8.870000000000000000e+02,7.440000000000000000e+02,6.300000000000000044e-01,9.228294900000000000e+09
2.900000000000000000e+02,6.530000000000000000e+02,2.140000000000000000e+02,6.400000000000000000e+01,1.100000000000000000e+02,1.048000000000000000e+03,8.970000000000000000e+02,7.950000000000000000e+02,6.400000000000000133e-01,9.246291600000000000e+09
3.000000000000000000e+02,6.560000000000000000e+02,2.750000000000000000e+02,6.800000000000000000e+01,1.240000000000000000e+02,1.102000000000000000e+03,9.400000000000000000e+02,8.500000000000000000e+02,6.500000000000000222e-01,9.269403000000000000e+09
2.820000000000000000e+02,6.930000000000000000e+02,2.940000000000000000e+02,7.100000000000000000e+01,1.260000000000000000e+02,1.169000000000000000e+03,9.390000000000000000e+02,9.040000000000000000e+02,6.600000000000000311e-01,9.286578500000000000e+09
2.900000000000000000e+02,6.640000000000000000e+02,2.930000000000000000e+02,8.100000000000000000e+01,1.340000000000000000e+02,1.217000000000000000e+03,9.370000000000000000e+02,9.580000000000000000e+02,6.700000000000000400e-01,9.306621400000000000e+09
2.750000000000000000e+02,6.820000000000000000e+02,3.050000000000000000e+02,8.400000000000000000e+01,1.570000000000000000e+02,1.275000000000000000e+03,9.240000000000000000e+02,9.770000000000000000e+02,6.800000000000000488e-01,9.329429700000000000e+09
2.940000000000000000e+02,6.790000000000000000e+02,2.910000000000000000e+02,8.300000000000000000e+01,1.690000000000000000e+02,1.252000000000000000e+03,8.570000000000000000e+02,9.790000000000000000e+02,6.899999999999999467e-01,9.349315900000000000e+09
3.200000000000000000e+02,7.090000000000000000e+02,2.890000000000000000e+02,9.000000000000000000e+01,2.000000000000000000e+02,1.274000000000000000e+03,8.180000000000000000e+02,1.019000000000000000e+03,7.099999999999999645e-01,9.388439000000000000e+09
3.380000000000000000e+02,6.910000000000000000e+02,3.200000000000000000e+02,9.500000000000000000e+01,2.040000000000000000e+02,1.271000000000000000e+03,8.380000000000000000e+02,9.930000000000000000e+02,7.099999999999999645e-01,9.388452500000000000e+09
3.940000000000000000e+02,7.670000000000000000e+02,3.440000000000000000e+02,1.010000000000000000e+02,2.160000000000000000e+02,1.206000000000000000e+03,8.700000000000000000e+02,1.011000000000000000e+03,7.199999999999999734e-01,9.406678900000000000e+09
4.200000000000000000e+02,7.440000000000000000e+02,3.260000000000000000e+02,1.050000000000000000e+02,2.490000000000000000e+02,1.254000000000000000e+03,9.890000000000000000e+02,1.024000000000000000e+03,7.299999999999999822e-01,9.426235400000000000e+09
4.710000000000000000e+02,8.000000000000000000e+02,3.420000000000000000e+02,1.220000000000000000e+02,2.880000000000000000e+02,1.325000000000000000e+03,1.018000000000000000e+03,1.049000000000000000e+03,7.399999999999999911e-01,9.449600000000000000e+09
5.060000000000000000e+02,7.780000000000000000e+02,3.480000000000000000e+02,1.260000000000000000e+02,2.830000000000000000e+02,1.284000000000000000e+03,1.087000000000000000e+03,9.870000000000000000e+02,7.500000000000000000e-01,9.469263300000000000e+09
5.820000000000000000e+02,7.490000000000000000e+02,3.410000000000000000e+02,1.410000000000000000e+02,3.070000000000000000e+02,1.302000000000000000e+03,1.122000000000000000e+03,1.003000000000000000e+03,7.700000000000000178e-01,9.508266800000000000e+09
5.560000000000000000e+02,7.410000000000000000e+02,3.410000000000000000e+02,1.580000000000000000e+02,3.210000000000000000e+02,1.422000000000000000e+03,1.084000000000000000e+03,9.620000000000000000e+02,7.700000000000000178e-01,9.508281100000000000e+09
5.560000000000000000e+02,8.830000000000000000e+02,4.690000000000000000e+02,1.640000000000000000e+02,3.200000000000000000e+02,1.368000000000000000e+03,9.760000000000000000e+02,9.420000000000000000e+02,7.800000000000000266e-01,9.528223500000000000e+09
5.700000000000000000e+02,9.020000000000000000e+02,4.640000000000000000e+02,1.600000000000000000e+02,3.090000000000000000e+02,1.365000000000000000e+03,9.840000000000000000e+02,9.930000000000000000e+02,7.900000000000000355e-01,9.552699400000000000e+09
5.960000000000000000e+02,1.029000000000000000e+03,4.570000000000000000e+02,1.590000000000000000e+02,3.120000000000000000e+02,1.359000000000000000e+03,9.670000000000000000e+02,1.096000000000000000e+03,8.000000000000000444e-01,9.566329900000000000e+09
6.060000000000000000e+02,1.198000000000000000e+03,4.480000000000000000e+02,1.600000000000000000e+02,3.160000000000000000e+02,1.332000000000000000e+03,8.980000000000000000e+02,1.054000000000000000e+03,8.100000000000000533e-01,9.589429600000000000e+09
