7.400000000000000000e+01,3.360000000000000000e+02,7.150000000000000000e+02,9.100000000000000000e+01,4.000000000000000000e+01,1.500000000000000000e+02,8.100000000000000000e+01,1.880000000000000000e+02,2.999999999999999889e-02,1.845600000000000000e+07
7.100000000000000000e+01,3.140000000000000000e+02,7.310000000000000000e+02,8.600000000000000000e+01,3.400000000000000000e+01,1.470000000000000000e+02,8.900000000000000000e+01,1.940000000000000000e+02,4.000000000000000083e-02,3.291678000000000000e+08
7.600000000000000000e+01,2.870000000000000000e+02,7.510000000000000000e+02,8.400000000000000000e+01,3.400000000000000000e+01,1.790000000000000000e+02,1.210000000000000000e+02,2.070000000000000000e+02,4.000000000000000083e-02,3.291777000000000000e+08
7.700000000000000000e+01,2.600000000000000000e+02,7.630000000000000000e+02,7.900000000000000000e+01,4.100000000000000000e+01,2.250000000000000000e+02,1.310000000000000000e+02,3.160000000000000000e+02,4.000000000000000083e-02,3.291856000000000000e+08
6.900000000000000000e+01,2.970000000000000000e+02,6.750000000000000000e+02,8.000000000000000000e+01,4.100000000000000000e+01,2.170000000000000000e+02,1.380000000000000000e+02,3.890000000000000000e+02,4.000000000000000083e-02,3.291927000000000000e+08
8.300000000000000000e+01,3.050000000000000000e+02,7.220000000000000000e+02,9.100000000000000000e+01,4.200000000000000000e+01,2.080000000000000000e+02,1.310000000000000000e+02,3.950000000000000000e+02,4.000000000000000083e-02,3.291999000000000000e+08
8.300000000000000000e+01,3.080000000000000000e+02,7.120000000000000000e+02,9.000000000000000000e+01,4.200000000000000000e+01,2.080000000000000000e+02,1.290000000000000000e+02,4.440000000000000000e+02,4.000000000000000083e-02,3.292069000000000000e+08
7.700000000000000000e+01,2.770000000000000000e+02,7.680000000000000000e+02,8.600000000000000000e+01,3.800000000000000000e+01,1.950000000000000000e+02,1.170000000000000000e+02,4.700000000000000000e+02,4.000000000000000083e-02,3.292177000000000000e+08
7.300000000000000000e+01,2.850000000000000000e+02,7.160000000000000000e+02,8.500000000000000000e+01,3.200000000000000000e+01,1.440000000000000000e+02,1.070000000000000000e+02,4.180000000000000000e+02,4.000000000000000083e-02,3.292253000000000000e+08
7.200000000000000000e+01,2.900000000000000000e+02,8.210000000000000000e+02,9.500000000000000000e+01,3.600000000000000000e+01,1.240000000000000000e+02,9.200000000000000000e+01,3.660000000000000000e+02,4.000000000000000083e-02,3.292384000000000000e+08
7.400000000000000000e+01,3.080000000000000000e+02,8.790000000000000000e+02,1.090000000000000000e+02,4.100000000000000000e+01,1.280000000000000000e+02,9.600000000000000000e+01,3.980000000000000000e+02,4.000000000000000083e-02,3.292452000000000000e+08
7.500000000000000000e+01,3.080000000000000000e+02,9.450000000000000000e+02,1.110000000000000000e+02,4.000000000000000000e+01,1.240000000000000000e+02,9.200000000000000000e+01,3.500000000000000000e+02,4.000000000000000083e-02,3.292517000000000000e+08
8.100000000000000000e+01,3.200000000000000000e+02,8.500000000000000000e+02,1.060000000000000000e+02,4.200000000000000000e+01,9.700000000000000000e+01,7.400000000000000000e+01,3.230000000000000000e+02,4.000000000000000083e-02,3.292583000000000000e+08
9.100000000000000000e+01,3.720000000000000000e+02,8.680000000000000000e+02,1.120000000000000000e+02,4.100000000000000000e+01,1.020000000000000000e+02,8.600000000000000000e+01,3.220000000000000000e+02,4.000000000000000083e-02,3.292649000000000000e+08
1.090000000000000000e+02,4.020000000000000000e+02,8.250000000000000000e+02,1.190000000000000000e+02,4.300000000000000000e+01,1.020000000000000000e+02,1.060000000000000000e+02,3.260000000000000000e+02,4.000000000000000083e-02,3.292714000000000000e+08
1.010000000000000000e+02,3.850000000000000000e+02,9.050000000000000000e+02,1.010000000000000000e+02,3.700000000000000000e+01,9.700000000000000000e+01,1.040000000000000000e+02,2.930000000000000000e+02,4.000000000000000083e-02,3.292780000000000000e+08
1.030000000000000000e+02,3.870000000000000000e+02,8.700000000000000000e+02,1.030000000000000000e+02,4.000000000000000000e+01,1.070000000000000000e+02,1.280000000000000000e+02,3.980000000000000000e+02,4.000000000000000083e-02,3.292853000000000000e+08
1.010000000000000000e+02,3.760000000000000000e+02,9.400000000000000000e+02,1.140000000000000000e+02,4.100000000000000000e+01,1.130000000000000000e+02,1.320000000000000000e+02,4.050000000000000000e+02,2.000000000000000111e-01,3.655224000000000000e+08
1.010000000000000000e+02,3.370000000000000000e+02,9.600000000000000000e+02,1.170000000000000000e+02,5.200000000000000000e+01,1.330000000000000000e+02,1.290000000000000000e+02,4.090000000000000000e+02,2.000000000000000111e-01,3.655372000000000000e+08
7.700000000000000000e+01,2.770000000000000000e+02,1.060000000000000000e+03,1.090000000000000000e+02,4.900000000000000000e+01,1.270000000000000000e+02,1.070000000000000000e+02,3.950000000000000000e+02,2.200000000000000011e-01,3.998813000000000000e+08
8.500000000000000000e+01,2.700000000000000000e+02,9.230000000000000000e+02,1.320000000000000000e+02,5.300000000000000000e+01,1.290000000000000000e+02,1.140000000000000000e+02,4.270000000000000000e+02,2.300000000000000100e-01,4.244688000000000000e+08
8.400000000000000000e+01,2.640000000000000000e+02,9.280000000000000000e+02,1.310000000000000000e+02,5.300000000000000000e+01,1.270000000000000000e+02,1.170000000000000000e+02,3.920000000000000000e+02,2.300000000000000100e-01,4.245022000000000000e+08
8.200000000000000000e+01,2.920000000000000000e+02,8.810000000000000000e+02,1.210000000000000000e+02,5.300000000000000000e+01,1.480000000000000000e+02,1.100000000000000000e+02,3.730000000000000000e+02,2.500000000000000000e-01,4.618391000000000000e+08
9.100000000000000000e+01,3.300000000000000000e+02,1.009000000000000000e+03,1.510000000000000000e+02,6.600000000000000000e+01,2.050000000000000000e+02,1.220000000000000000e+02,3.620000000000000000e+02,2.600000000000000089e-01,4.806377000000000000e+08
9.700000000000000000e+01,3.330000000000000000e+02,9.680000000000000000e+02,1.610000000000000000e+02,7.100000000000000000e+01,2.120000000000000000e+02,1.270000000000000000e+02,3.470000000000000000e+02,2.700000000000000178e-01,4.991879000000000000e+08
1.010000000000000000e+02,4.020000000000000000e+02,9.500000000000000000e+02,1.520000000000000000e+02,7.300000000000000000e+01,2.140000000000000000e+02,1.320000000000000000e+02,3.820000000000000000e+02,2.800000000000000266e-01,5.194489000000000000e+08
1.120000000000000000e+02,4.570000000000000000e+02,9.600000000000000000e+02,1.640000000000000000e+02,7.500000000000000000e+01,2.610000000000000000e+02,3.160000000000000000e+02,4.190000000000000000e+02,2.899999999999999800e-01,5.404661000000000000e+08
1.150000000000000000e+02,4.530000000000000000e+02,9.610000000000000000e+02,1.640000000000000000e+02,8.100000000000000000e+01,3.050000000000000000e+02,4.530000000000000000e+02,5.480000000000000000e+02,2.999999999999999889e-01,5.602703000000000000e+08
1.160000000000000000e+02,4.270000000000000000e+02,8.490000000000000000e+02,1.450000000000000000e+02,6.700000000000000000e+01,3.030000000000000000e+02,5.350000000000000000e+02,6.470000000000000000e+02,3.099999999999999978e-01,5.807087000000000000e+08
1.130000000000000000e+02,4.090000000000000000e+02,7.310000000000000000e+02,1.380000000000000000e+02,7.400000000000000000e+01,4.740000000000000000e+02,6.950000000000000000e+02,6.660000000000000000e+02,3.200000000000000067e-01,5.989902000000000000e+08
1.270000000000000000e+02,3.810000000000000000e+02,7.180000000000000000e+02,1.260000000000000000e+02,8.100000000000000000e+01,5.450000000000000000e+02,9.260000000000000000e+02,7.920000000000000000e+02,3.300000000000000155e-01,6.212224000000000000e+08
1.250000000000000000e+02,3.190000000000000000e+02,6.060000000000000000e+02,1.060000000000000000e+02,8.200000000000000000e+01,5.630000000000000000e+02,9.410000000000000000e+02,8.090000000000000000e+02,3.400000000000000244e-01,6.406511000000000000e+08
1.310000000000000000e+02,2.990000000000000000e+02,4.690000000000000000e+02,1.020000000000000000e+02,8.000000000000000000e+01,6.540000000000000000e+02,9.730000000000000000e+02,8.230000000000000000e+02,3.499999999999999778e-01,6.596922000000000000e+08
1.420000000000000000e+02,3.640000000000000000e+02,3.510000000000000000e+02,9.400000000000000000e+01,8.300000000000000000e+01,7.260000000000000000e+02,1.058000000000000000e+03,8.590000000000000000e+02,3.599999999999999867e-01,6.795030000000000000e+08
1.480000000000000000e+02,4.200000000000000000e+02,4.090000000000000000e+02,8.800000000000000000e+01,8.800000000000000000e+01,7.070000000000000000e+02,1.066000000000000000e+03,8.950000000000000000e+02,3.699999999999999956e-01,7.003421000000000000e+08
1.650000000000000000e+02,4.250000000000000000e+02,4.020000000000000000e+02,8.700000000000000000e+01,8.200000000000000000e+01,6.800000000000000000e+02,9.960000000000000000e+02,8.180000000000000000e+02,3.800000000000000044e-01,7.190058000000000000e+08
2.100000000000000000e+02,4.530000000000000000e+02,4.140000000000000000e+02,8.700000000000000000e+01,8.300000000000000000e+01,6.560000000000000000e+02,1.073000000000000000e+03,8.500000000000000000e+02,3.900000000000000133e-01,7.398381000000000000e+08
2.560000000000000000e+02,4.910000000000000000e+02,5.240000000000000000e+02,1.280000000000000000e+02,1.070000000000000000e+02,6.550000000000000000e+02,1.131000000000000000e+03,8.890000000000000000e+02,4.000000000000000222e-01,7.585816000000000000e+08
2.480000000000000000e+02,4.470000000000000000e+02,5.040000000000000000e+02,1.210000000000000000e+02,1.060000000000000000e+02,6.120000000000000000e+02,1.065000000000000000e+03,7.910000000000000000e+02,4.099999999999999756e-01,7.796512000000000000e+08
2.500000000000000000e+02,4.230000000000000000e+02,4.980000000000000000e+02,1.230000000000000000e+02,9.900000000000000000e+01,5.300000000000000000e+02,1.069000000000000000e+03,7.810000000000000000e+02,4.199999999999999845e-01,8.010469000000000000e+08
2.540000000000000000e+02,4.370000000000000000e+02,4.860000000000000000e+02,1.270000000000000000e+02,1.080000000000000000e+02,5.930000000000000000e+02,1.125000000000000000e+03,7.600000000000000000e+02,4.299999999999999933e-01,8.200695000000000000e+08
2.570000000000000000e+02,4.850000000000000000e+02,5.070000000000000000e+02,1.370000000000000000e+02,1.250000000000000000e+02,7.850000000000000000e+02,1.147000000000000000e+03,7.610000000000000000e+02,4.400000000000000022e-01,8.386969000000000000e+08
2.270000000000000000e+02,4.550000000000000000e+02,4.810000000000000000e+02,1.040000000000000000e+02,1.100000000000000000e+02,7.290000000000000000e+02,1.112000000000000000e+03,6.610000000000000000e+02,4.500000000000000111e-01,8.606224000000000000e+08
2.640000000000000000e+02,4.640000000000000000e+02,4.750000000000000000e+02,1.110000000000000000e+02,1.130000000000000000e+02,7.070000000000000000e+02,1.184000000000000000e+03,8.240000000000000000e+02,4.600000000000000200e-01,8.819071000000000000e+08
2.690000000000000000e+02,4.730000000000000000e+02,4.710000000000000000e+02,1.110000000000000000e+02,1.210000000000000000e+02,7.080000000000000000e+02,1.226000000000000000e+03,8.990000000000000000e+02,4.699999999999999734e-01,8.990900000000000000e+08
2.740000000000000000e+02,4.370000000000000000e+02,6.020000000000000000e+02,1.240000000000000000e+02,1.210000000000000000e+02,7.480000000000000000e+02,1.121000000000000000e+03,9.250000000000000000e+02,4.799999999999999822e-01,9.185912000000000000e+08
2.380000000000000000e+02,3.630000000000000000e+02,6.250000000000000000e+02,1.190000000000000000e+02,1.070000000000000000e+02,6.860000000000000000e+02,1.058000000000000000e+03,9.830000000000000000e+02,4.899999999999999911e-01,9.401113000000000000e+08
2.240000000000000000e+02,4.140000000000000000e+02,5.680000000000000000e+02,1.160000000000000000e+02,1.080000000000000000e+02,6.820000000000000000e+02,1.039000000000000000e+03,1.005000000000000000e+03,5.000000000000000000e-01,9.591267000000000000e+08
1.870000000000000000e+02,4.160000000000000000e+02,5.560000000000000000e+02,1.080000000000000000e+02,1.030000000000000000e+02,6.780000000000000000e+02,9.450000000000000000e+02,9.160000000000000000e+02,5.100000000000000089e-01,9.785887000000000000e+08
1.830000000000000000e+02,4.030000000000000000e+02,7.030000000000000000e+02,1.230000000000000000e+02,9.600000000000000000e+01,7.160000000000000000e+02,9.420000000000000000e+02,9.140000000000000000e+02,5.200000000000000178e-01,1.001593800000000000e+09
1.460000000000000000e+02,4.570000000000000000e+02,6.080000000000000000e+02,1.080000000000000000e+02,8.800000000000000000e+01,6.560000000000000000e+02,1.016000000000000000e+03,9.520000000000000000e+02,5.300000000000000266e-01,1.019258100000000000e+09
1.590000000000000000e+02,4.940000000000000000e+02,5.710000000000000000e+02,1.070000000000000000e+02,9.000000000000000000e+01,6.490000000000000000e+02,1.031000000000000000e+03,9.400000000000000000e+02,5.400000000000000355e-01,1.041857400000000000e+09
1.930000000000000000e+02,4.770000000000000000e+02,5.810000000000000000e+02,1.110000000000000000e+02,9.400000000000000000e+01,7.160000000000000000e+02,1.063000000000000000e+03,9.430000000000000000e+02,5.500000000000000444e-01,1.059467600000000000e+09
2.150000000000000000e+02,4.920000000000000000e+02,5.990000000000000000e+02,1.120000000000000000e+02,1.080000000000000000e+02,8.070000000000000000e+02,1.166000000000000000e+03,1.000000000000000000e+03,5.600000000000000533e-01,1.079002000000000000e+09
2.230000000000000000e+02,4.920000000000000000e+02,4.440000000000000000e+02,9.100000000000000000e+01,1.090000000000000000e+02,8.430000000000000000e+02,1.180000000000000000e+03,9.820000000000000000e+02,5.699999999999999512e-01,1.102691900000000000e+09
2.540000000000000000e+02,4.520000000000000000e+02,4.650000000000000000e+02,8.700000000000000000e+01,1.080000000000000000e+02,8.170000000000000000e+02,1.173000000000000000e+03,9.850000000000000000e+02,5.799999999999999600e-01,1.123843300000000000e+09
2.580000000000000000e+02,4.670000000000000000e+02,5.490000000000000000e+02,9.100000000000000000e+01,1.110000000000000000e+02,8.320000000000000000e+02,1.165000000000000000e+03,9.450000000000000000e+02,5.899999999999999689e-01,1.140060100000000000e+09
2.760000000000000000e+02,4.730000000000000000e+02,6.550000000000000000e+02,9.300000000000000000e+01,1.170000000000000000e+02,8.390000000000000000e+02,1.263000000000000000e+03,1.004000000000000000e+03,5.999999999999999778e-01,1.159309000000000000e+09
2.980000000000000000e+02,5.300000000000000000e+02,6.550000000000000000e+02,1.000000000000000000e+02,1.210000000000000000e+02,8.920000000000000000e+02,1.226000000000000000e+03,1.079000000000000000e+03,6.099999999999999867e-01,1.181854800000000000e+09
3.180000000000000000e+02,5.600000000000000000e+02,5.980000000000000000e+02,9.100000000000000000e+01,1.170000000000000000e+02,8.930000000000000000e+02,1.183000000000000000e+03,1.037000000000000000e+03,6.199999999999999956e-01,1.200766500000000000e+09
3.280000000000000000e+02,6.480000000000000000e+02,7.120000000000000000e+02,1.300000000000000000e+02,1.340000000000000000e+02,9.720000000000000000e+02,1.154000000000000000e+03,1.016000000000000000e+03,6.300000000000000044e-01,1.220393800000000000e+09
3.240000000000000000e+02,6.310000000000000000e+02,6.860000000000000000e+02,1.320000000000000000e+02,1.360000000000000000e+02,9.230000000000000000e+02,1.235000000000000000e+03,1.004000000000000000e+03,6.400000000000000133e-01,1.239599900000000000e+09
3.030000000000000000e+02,6.970000000000000000e+02,6.330000000000000000e+02,1.320000000000000000e+02,1.260000000000000000e+02,9.400000000000000000e+02,1.155000000000000000e+03,9.960000000000000000e+02,6.500000000000000222e-01,1.261428700000000000e+09
2.700000000000000000e+02,6.930000000000000000e+02,8.020000000000000000e+02,1.430000000000000000e+02,1.110000000000000000e+02,8.250000000000000000e+02,1.159000000000000000e+03,9.060000000000000000e+02,6.600000000000000311e-01,1.279774400000000000e+09
2.510000000000000000e+02,6.650000000000000000e+02,8.410000000000000000e+02,1.510000000000000000e+02,1.210000000000000000e+02,8.630000000000000000e+02,1.220000000000000000e+03,1.042000000000000000e+03,6.700000000000000400e-01,1.300813600000000000e+09
2.180000000000000000e+02,5.760000000000000000e+02,7.410000000000000000e+02,1.170000000000000000e+02,1.030000000000000000e+02,8.640000000000000000e+02,1.278000000000000000e+03,1.052000000000000000e+03,6.800000000000000488e-01,1.319740000000000000e+09
2.310000000000000000e+02,5.890000000000000000e+02,7.670000000000000000e+02,1.130000000000000000e+02,1.220000000000000000e+02,8.840000000000000000e+02,1.248000000000000000e+03,1.042000000000000000e+03,6.899999999999999467e-01,1.340615300000000000e+09
2.340000000000000000e+02,6.160000000000000000e+02,7.390000000000000000e+02,1.150000000000000000e+02,1.250000000000000000e+02,8.870000000000000000e+02,1.232000000000000000e+03,1.023000000000000000e+03,6.999999999999999556e-01,1.361807500000000000e+09
2.540000000000000000e+02,5.940000000000000000e+02,5.440000000000000000e+02,9.500000000000000000e+01,1.360000000000000000e+02,9.900000000000000000e+02,1.253000000000000000e+03,9.820000000000000000e+02,7.099999999999999645e-01,1.395377700000000000e+09
2.960000000000000000e+02,6.580000000000000000e+02,5.640000000000000000e+02,1.090000000000000000e+02,1.490000000000000000e+02,9.690000000000000000e+02,1.227000000000000000e+03,9.170000000000000000e+02,7.099999999999999645e-01,1.395388300000000000e+09
2.890000000000000000e+02,6.870000000000000000e+02,6.150000000000000000e+02,1.150000000000000000e+02,1.490000000000000000e+02,9.100000000000000000e+02,1.131000000000000000e+03,8.600000000000000000e+02,7.299999999999999822e-01,1.420286600000000000e+09
2.890000000000000000e+02,6.730000000000000000e+02,5.700000000000000000e+02,1.140000000000000000e+02,1.460000000000000000e+02,1.022000000000000000e+03,1.010000000000000000e+03,8.890000000000000000e+02,7.399999999999999911e-01,1.439566200000000000e+09
3.300000000000000000e+02,7.630000000000000000e+02,6.840000000000000000e+02,1.330000000000000000e+02,1.550000000000000000e+02,1.049000000000000000e+03,1.036000000000000000e+03,1.056000000000000000e+03,7.500000000000000000e-01,1.461361600000000000e+09
3.170000000000000000e+02,9.320000000000000000e+02,7.090000000000000000e+02,1.360000000000000000e+02,1.490000000000000000e+02,9.990000000000000000e+02,1.003000000000000000e+03,1.121000000000000000e+03,7.600000000000000089e-01,1.480705600000000000e+09
2.940000000000000000e+02,9.510000000000000000e+02,6.670000000000000000e+02,1.280000000000000000e+02,1.430000000000000000e+02,1.084000000000000000e+03,9.950000000000000000e+02,1.066000000000000000e+03,7.700000000000000178e-01,1.499931300000000000e+09
3.010000000000000000e+02,9.460000000000000000e+02,5.980000000000000000e+02,1.220000000000000000e+02,1.460000000000000000e+02,1.144000000000000000e+03,1.074000000000000000e+03,1.098000000000000000e+03,7.800000000000000266e-01,1.518659600000000000e+09
3.060000000000000000e+02,9.530000000000000000e+02,5.660000000000000000e+02,1.220000000000000000e+02,1.360000000000000000e+02,1.000000000000000000e+03,1.099000000000000000e+03,1.072000000000000000e+03,7.900000000000000355e-01,1.538771600000000000e+09
2.650000000000000000e+02,8.980000000000000000e+02,3.880000000000000000e+02,9.700000000000000000e+01,1.290000000000000000e+02,1.022000000000000000e+03,1.064000000000000000e+03,8.930000000000000000e+02,8.000000000000000444e-01,1.558645500000000000e+09
2.970000000000000000e+02,7.140000000000000000e+02,3.510000000000000000e+02,9.500000000000000000e+01,1.400000000000000000e+02,1.140000000000000000e+03,1.009000000000000000e+03,7.910000000000000000e+02,8.100000000000000533e-01,1.581154200000000000e+09
3.030000000000000000e+02,6.160000000000000000e+02,3.180000000000000000e+02,9.100000000000000000e+01,1.530000000000000000e+02,1.148000000000000000e+03,9.500000000000000000e+02,9.460000000000000000e+02,8.199999999999999512e-01,1.600391300000000000e+09
3.100000000000000000e+02,6.950000000000000000e+02,3.270000000000000000e+02,9.500000000000000000e+01,1.840000000000000000e+02,1.193000000000000000e+03,1.024000000000000000e+03,1.065000000000000000e+03,8.299999999999999600e-01,1.619435100000000000e+09
3.440000000000000000e+02,6.950000000000000000e+02,4.280000000000000000e+02,9.600000000000000000e+01,1.890000000000000000e+02,1.278000000000000000e+03,1.043000000000000000e+03,1.100000000000000000e+03,8.399999999999999689e-01,1.638674600000000000e+09
3.640000000000000000e+02,6.440000000000000000e+02,4.560000000000000000e+02,1.130000000000000000e+02,2.090000000000000000e+02,1.318000000000000000e+03,1.088000000000000000e+03,1.099000000000000000e+03,8.499999999999999778e-01,1.660035300000000000e+09
4.320000000000000000e+02,6.860000000000000000e+02,5.470000000000000000e+02,1.480000000000000000e+02,2.680000000000000000e+02,1.368000000000000000e+03,1.294000000000000000e+03,1.141000000000000000e+03,8.599999999999999867e-01,1.678773700000000000e+09
4.470000000000000000e+02,7.680000000000000000e+02,5.420000000000000000e+02,1.480000000000000000e+02,2.750000000000000000e+02,1.373000000000000000e+03,1.275000000000000000e+03,1.022000000000000000e+03,8.699999999999999956e-01,1.699983300000000000e+09
4.640000000000000000e+02,7.710000000000000000e+02,5.760000000000000000e+02,1.530000000000000000e+02,2.780000000000000000e+02,1.511000000000000000e+03,1.240000000000000000e+03,9.740000000000000000e+02,8.900000000000000133e-01,1.739823500000000000e+09
4.590000000000000000e+02,8.630000000000000000e+02,5.220000000000000000e+02,1.530000000000000000e+02,2.780000000000000000e+02,1.490000000000000000e+03,1.327000000000000000e+03,9.880000000000000000e+02,8.900000000000000133e-01,1.739834300000000000e+09
4.470000000000000000e+02,8.960000000000000000e+02,5.550000000000000000e+02,1.450000000000000000e+02,2.640000000000000000e+02,1.469000000000000000e+03,1.298000000000000000e+03,1.072000000000000000e+03,9.000000000000000222e-01,1.758630600000000000e+09
4.080000000000000000e+02,8.850000000000000000e+02,4.720000000000000000e+02,1.190000000000000000e+02,2.080000000000000000e+02,1.432000000000000000e+03,1.158000000000000000e+03,1.102000000000000000e+03,9.100000000000000311e-01,1.780272100000000000e+09
4.240000000000000000e+02,9.270000000000000000e+02,5.230000000000000000e+02,1.130000000000000000e+02,1.900000000000000000e+02,1.440000000000000000e+03,1.235000000000000000e+03,1.192000000000000000e+03,9.200000000000000400e-01,1.799119600000000000e+09
4.190000000000000000e+02,9.120000000000000000e+02,5.010000000000000000e+02,1.210000000000000000e+02,2.190000000000000000e+02,1.361000000000000000e+03,1.176000000000000000e+03,1.220000000000000000e+03,9.300000000000000488e-01,1.820469100000000000e+09
5.830000000000000000e+02,9.140000000000000000e+02,4.910000000000000000e+02,1.500000000000000000e+02,2.570000000000000000e+02,1.483000000000000000e+03,1.145000000000000000e+03,1.287000000000000000e+03,9.399999999999999467e-01,1.839460500000000000e+09
6.010000000000000000e+02,9.250000000000000000e+02,4.300000000000000000e+02,1.470000000000000000e+02,2.680000000000000000e+02,1.477000000000000000e+03,1.159000000000000000e+03,1.356000000000000000e+03,9.499999999999999556e-01,1.860720300000000000e+09
6.260000000000000000e+02,9.350000000000000000e+02,3.970000000000000000e+02,1.390000000000000000e+02,2.630000000000000000e+02,1.475000000000000000e+03,1.121000000000000000e+03,1.327000000000000000e+03,9.599999999999999645e-01,1.879712100000000000e+09
6.150000000000000000e+02,8.560000000000000000e+02,3.070000000000000000e+02,1.430000000000000000e+02,2.680000000000000000e+02,1.437000000000000000e+03,1.111000000000000000e+03,1.298000000000000000e+03,9.699999999999999734e-01,1.898610300000000000e+09
6.650000000000000000e+02,8.960000000000000000e+02,2.770000000000000000e+02,1.370000000000000000e+02,2.370000000000000000e+02,1.388000000000000000e+03,1.089000000000000000e+03,1.219000000000000000e+03,9.799999999999999822e-01,1.920612900000000000e+09
5.270000000000000000e+02,8.380000000000000000e+02,3.350000000000000000e+02,1.090000000000000000e+02,2.220000000000000000e+02,1.322000000000000000e+03,1.005000000000000000e+03,1.140000000000000000e+03,9.899999999999999911e-01,1.939466800000000000e+09
5.410000000000000000e+02,8.750000000000000000e+02,3.530000000000000000e+02,1.110000000000000000e+02,2.150000000000000000e+02,1.352000000000000000e+03,1.105000000000000000e+03,1.039000000000000000e+03,9.799999999999999822e-01,1.960734000000000000e+09
5.180000000000000000e+02,8.750000000000000000e+02,3.840000000000000000e+02,1.120000000000000000e+02,2.280000000000000000e+02,1.297000000000000000e+03,1.174000000000000000e+03,1.059000000000000000e+03,9.699999999999999734e-01,1.979652500000000000e+09
5.330000000000000000e+02,8.770000000000000000e+02,4.180000000000000000e+02,1.150000000000000000e+02,2.220000000000000000e+02,1.342000000000000000e+03,1.104000000000000000e+03,9.770000000000000000e+02,9.599999999999999645e-01,2.000875200000000000e+09
4.750000000000000000e+02,7.770000000000000000e+02,4.490000000000000000e+02,1.190000000000000000e+02,2.090000000000000000e+02,1.404000000000000000e+03,1.100000000000000000e+03,9.530000000000000000e+02,9.499999999999999556e-01,2.019447600000000000e+09
4.460000000000000000e+02,8.060000000000000000e+02,4.300000000000000000e+02,1.120000000000000000e+02,1.670000000000000000e+02,1.374000000000000000e+03,1.123000000000000000e+03,9.250000000000000000e+02,9.399999999999999467e-01,2.040934200000000000e+09
3.980000000000000000e+02,6.590000000000000000e+02,6.080000000000000000e+02,1.140000000000000000e+02,1.550000000000000000e+02,1.236000000000000000e+03,8.870000000000000000e+02,7.760000000000000000e+02,9.300000000000000488e-01,2.059904300000000000e+09
3.290000000000000000e+02,5.820000000000000000e+02,9.120000000000000000e+02,2.000000000000000000e+02,1.220000000000000000e+02,1.167000000000000000e+03,7.080000000000000000e+02,6.540000000000000000e+02,9.200000000000000400e-01,2.078579000000000000e+09
2.650000000000000000e+02,6.630000000000000000e+02,9.940000000000000000e+02,2.110000000000000000e+02,1.040000000000000000e+02,1.046000000000000000e+03,6.250000000000000000e+02,6.000000000000000000e+02,9.100000000000000311e-01,2.099870800000000000e+09
2.110000000000000000e+02,6.530000000000000000e+02,1.094000000000000000e+03,2.130000000000000000e+02,8.600000000000000000e+01,8.920000000000000000e+02,5.570000000000000000e+02,5.220000000000000000e+02,9.000000000000000222e-01,2.118790700000000000e+09
2.360000000000000000e+02,5.660000000000000000e+02,1.127000000000000000e+03,2.230000000000000000e+02,8.500000000000000000e+01,8.340000000000000000e+02,3.700000000000000000e+02,4.630000000000000000e+02,8.900000000000000133e-01,2.140194100000000000e+09
2.320000000000000000e+02,5.330000000000000000e+02,1.081000000000000000e+03,2.480000000000000000e+02,7.700000000000000000e+01,8.370000000000000000e+02,3.490000000000000000e+02,4.320000000000000000e+02,8.800000000000000044e-01,2.159354000000000000e+09
2.500000000000000000e+02,5.320000000000000000e+02,8.640000000000000000e+02,2.160000000000000000e+02,8.300000000000000000e+01,7.950000000000000000e+02,3.080000000000000000e+02,4.180000000000000000e+02,8.699999999999999956e-01,2.180904000000000000e+09
2.340000000000000000e+02,3.510000000000000000e+02,9.140000000000000000e+02,2.230000000000000000e+02,8.000000000000000000e+01,8.630000000000000000e+02,2.650000000000000000e+02,4.100000000000000000e+02,8.599999999999999867e-01,2.199944700000000000e+09
2.490000000000000000e+02,3.520000000000000000e+02,8.160000000000000000e+02,2.190000000000000000e+02,6.900000000000000000e+01,7.800000000000000000e+02,2.330000000000000000e+02,3.680000000000000000e+02,8.499999999999999778e-01,2.218746700000000000e+09
2.170000000000000000e+02,4.010000000000000000e+02,7.650000000000000000e+02,2.070000000000000000e+02,6.200000000000000000e+01,7.290000000000000000e+02,2.130000000000000000e+02,1.940000000000000000e+02,8.399999999999999689e-01,2.239998900000000000e+09
2.050000000000000000e+02,4.010000000000000000e+02,7.870000000000000000e+02,1.940000000000000000e+02,6.500000000000000000e+01,7.170000000000000000e+02,2.030000000000000000e+02,1.750000000000000000e+02,8.299999999999999600e-01,2.258887300000000000e+09
1.880000000000000000e+02,4.200000000000000000e+02,8.950000000000000000e+02,1.840000000000000000e+02,6.000000000000000000e+01,7.340000000000000000e+02,1.960000000000000000e+02,1.300000000000000000e+02,8.199999999999999512e-01,2.280509700000000000e+09
1.960000000000000000e+02,4.760000000000000000e+02,7.970000000000000000e+02,1.970000000000000000e+02,6.900000000000000000e+01,5.570000000000000000e+02,1.290000000000000000e+02,1.050000000000000000e+02,8.100000000000000533e-01,2.300134700000000000e+09
1.780000000000000000e+02,4.910000000000000000e+02,8.950000000000000000e+02,2.120000000000000000e+02,8.500000000000000000e+01,5.960000000000000000e+02,1.160000000000000000e+02,9.900000000000000000e+01,8.000000000000000444e-01,2.319028700000000000e+09
1.780000000000000000e+02,4.090000000000000000e+02,9.060000000000000000e+02,2.140000000000000000e+02,8.500000000000000000e+01,5.740000000000000000e+02,9.900000000000000000e+01,7.100000000000000000e+01,7.900000000000000355e-01,2.342659200000000000e+09
1.770000000000000000e+02,4.290000000000000000e+02,9.350000000000000000e+02,2.030000000000000000e+02,8.100000000000000000e+01,5.560000000000000000e+02,1.020000000000000000e+02,6.900000000000000000e+01,7.800000000000000266e-01,2.360877100000000000e+09
1.710000000000000000e+02,4.230000000000000000e+02,9.350000000000000000e+02,2.160000000000000000e+02,8.300000000000000000e+01,5.050000000000000000e+02,1.030000000000000000e+02,7.600000000000000000e+01,7.700000000000000178e-01,2.380813400000000000e+09
1.690000000000000000e+02,3.700000000000000000e+02,9.520000000000000000e+02,2.000000000000000000e+02,8.700000000000000000e+01,5.840000000000000000e+02,1.840000000000000000e+02,7.800000000000000000e+01,7.600000000000000089e-01,2.400273800000000000e+09
1.620000000000000000e+02,3.330000000000000000e+02,9.020000000000000000e+02,1.890000000000000000e+02,7.800000000000000000e+01,4.770000000000000000e+02,1.820000000000000000e+02,7.700000000000000000e+01,7.500000000000000000e-01,2.419496800000000000e+09
1.740000000000000000e+02,3.350000000000000000e+02,9.150000000000000000e+02,1.880000000000000000e+02,7.800000000000000000e+01,3.940000000000000000e+02,1.860000000000000000e+02,7.800000000000000000e+01,7.399999999999999911e-01,2.440876800000000000e+09
1.760000000000000000e+02,3.280000000000000000e+02,8.920000000000000000e+02,2.020000000000000000e+02,8.000000000000000000e+01,3.910000000000000000e+02,1.880000000000000000e+02,7.800000000000000000e+01,7.299999999999999822e-01,2.459506800000000000e+09
2.090000000000000000e+02,3.660000000000000000e+02,8.280000000000000000e+02,1.850000000000000000e+02,8.000000000000000000e+01,3.880000000000000000e+02,1.920000000000000000e+02,9.800000000000000000e+01,7.199999999999999734e-01,2.480796800000000000e+09
2.280000000000000000e+02,3.990000000000000000e+02,9.100000000000000000e+02,1.650000000000000000e+02,6.500000000000000000e+01,2.300000000000000000e+02,1.380000000000000000e+02,1.010000000000000000e+02,6.999999999999999556e-01,2.520367300000000000e+09
2.240000000000000000e+02,4.160000000000000000e+02,8.930000000000000000e+02,1.530000000000000000e+02,5.800000000000000000e+01,1.930000000000000000e+02,1.250000000000000000e+02,1.230000000000000000e+02,6.999999999999999556e-01,2.520378000000000000e+09
2.460000000000000000e+02,4.430000000000000000e+02,9.870000000000000000e+02,1.870000000000000000e+02,7.000000000000000000e+01,1.970000000000000000e+02,1.200000000000000000e+02,1.310000000000000000e+02,6.899999999999999467e-01,2.539227100000000000e+09
2.420000000000000000e+02,4.420000000000000000e+02,9.940000000000000000e+02,1.740000000000000000e+02,6.600000000000000000e+01,1.970000000000000000e+02,1.170000000000000000e+02,1.310000000000000000e+02,6.800000000000000488e-01,2.560298600000000000e+09
2.230000000000000000e+02,4.970000000000000000e+02,1.032000000000000000e+03,1.860000000000000000e+02,7.900000000000000000e+01,3.080000000000000000e+02,1.210000000000000000e+02,1.270000000000000000e+02,6.700000000000000400e-01,2.578929900000000000e+09
1.980000000000000000e+02,4.650000000000000000e+02,9.730000000000000000e+02,1.830000000000000000e+02,7.700000000000000000e+01,3.200000000000000000e+02,8.900000000000000000e+01,1.210000000000000000e+02,6.600000000000000311e-01,2.600320500000000000e+09
2.280000000000000000e+02,4.490000000000000000e+02,1.017000000000000000e+03,2.010000000000000000e+02,8.100000000000000000e+01,3.090000000000000000e+02,8.500000000000000000e+01,1.000000000000000000e+02,6.500000000000000222e-01,2.619220100000000000e+09
2.250000000000000000e+02,4.480000000000000000e+02,1.065000000000000000e+03,1.890000000000000000e+02,7.300000000000000000e+01,3.040000000000000000e+02,8.900000000000000000e+01,9.100000000000000000e+01,6.400000000000000133e-01,2.640299200000000000e+09
2.570000000000000000e+02,5.560000000000000000e+02,1.150000000000000000e+03,2.120000000000000000e+02,9.300000000000000000e+01,3.810000000000000000e+02,1.130000000000000000e+02,1.030000000000000000e+02,6.300000000000000044e-01,2.659074200000000000e+09
2.430000000000000000e+02,4.800000000000000000e+02,1.110000000000000000e+03,1.890000000000000000e+02,7.700000000000000000e+01,3.060000000000000000e+02,1.070000000000000000e+02,8.300000000000000000e+01,6.099999999999999867e-01,2.699367300000000000e+09
2.350000000000000000e+02,5.020000000000000000e+02,1.098000000000000000e+03,1.990000000000000000e+02,8.000000000000000000e+01,2.910000000000000000e+02,1.040000000000000000e+02,8.600000000000000000e+01,6.099999999999999867e-01,2.699378400000000000e+09
2.230000000000000000e+02,5.140000000000000000e+02,1.027000000000000000e+03,1.940000000000000000e+02,8.100000000000000000e+01,2.880000000000000000e+02,1.090000000000000000e+02,9.100000000000000000e+01,5.999999999999999778e-01,2.720264600000000000e+09
1.990000000000000000e+02,4.970000000000000000e+02,8.730000000000000000e+02,1.890000000000000000e+02,8.200000000000000000e+01,3.050000000000000000e+02,1.240000000000000000e+02,9.200000000000000000e+01,5.899999999999999689e-01,2.739359400000000000e+09
1.540000000000000000e+02,3.560000000000000000e+02,8.350000000000000000e+02,1.450000000000000000e+02,5.800000000000000000e+01,1.930000000000000000e+02,1.040000000000000000e+02,8.000000000000000000e+01,5.799999999999999600e-01,2.761276800000000000e+09
1.550000000000000000e+02,3.490000000000000000e+02,8.710000000000000000e+02,1.450000000000000000e+02,5.700000000000000000e+01,2.360000000000000000e+02,1.260000000000000000e+02,8.300000000000000000e+01,5.699999999999999512e-01,2.780058300000000000e+09
1.500000000000000000e+02,3.030000000000000000e+02,9.650000000000000000e+02,1.380000000000000000e+02,5.100000000000000000e+01,2.530000000000000000e+02,1.390000000000000000e+02,1.440000000000000000e+02,5.600000000000000533e-01,2.801232600000000000e+09
1.750000000000000000e+02,3.330000000000000000e+02,1.039000000000000000e+03,1.470000000000000000e+02,5.200000000000000000e+01,2.530000000000000000e+02,1.350000000000000000e+02,1.360000000000000000e+02,5.500000000000000444e-01,2.819926900000000000e+09
1.660000000000000000e+02,3.890000000000000000e+02,1.078000000000000000e+03,1.270000000000000000e+02,4.600000000000000000e+01,2.440000000000000000e+02,1.240000000000000000e+02,1.370000000000000000e+02,5.400000000000000355e-01,2.841001100000000000e+09
1.630000000000000000e+02,3.930000000000000000e+02,9.620000000000000000e+02,1.290000000000000000e+02,4.700000000000000000e+01,2.600000000000000000e+02,1.260000000000000000e+02,1.370000000000000000e+02,5.300000000000000266e-01,2.859435000000000000e+09
1.620000000000000000e+02,3.970000000000000000e+02,9.030000000000000000e+02,1.240000000000000000e+02,4.900000000000000000e+01,2.680000000000000000e+02,1.090000000000000000e+02,1.380000000000000000e+02,5.200000000000000178e-01,2.880708100000000000e+09
1.630000000000000000e+02,4.550000000000000000e+02,8.520000000000000000e+02,1.420000000000000000e+02,5.400000000000000000e+01,2.700000000000000000e+02,1.080000000000000000e+02,8.300000000000000000e+01,5.100000000000000089e-01,2.899395300000000000e+09
1.360000000000000000e+02,4.960000000000000000e+02,9.350000000000000000e+02,1.540000000000000000e+02,6.200000000000000000e+01,2.710000000000000000e+02,1.070000000000000000e+02,9.000000000000000000e+01,5.000000000000000000e-01,2.920644000000000000e+09
1.980000000000000000e+02,5.170000000000000000e+02,9.360000000000000000e+02,2.170000000000000000e+02,8.300000000000000000e+01,2.590000000000000000e+02,1.020000000000000000e+02,1.010000000000000000e+02,4.899999999999999911e-01,2.939287500000000000e+09
2.040000000000000000e+02,5.400000000000000000e+02,1.114000000000000000e+03,2.250000000000000000e+02,8.300000000000000000e+01,2.460000000000000000e+02,9.900000000000000000e+01,9.800000000000000000e+01,4.799999999999999822e-01,2.960943300000000000e+09
2.030000000000000000e+02,5.340000000000000000e+02,1.159000000000000000e+03,2.340000000000000000e+02,8.400000000000000000e+01,1.930000000000000000e+02,8.900000000000000000e+01,9.300000000000000000e+01,4.699999999999999734e-01,2.979518500000000000e+09
2.080000000000000000e+02,4.800000000000000000e+02,1.146000000000000000e+03,2.290000000000000000e+02,8.200000000000000000e+01,2.310000000000000000e+02,1.030000000000000000e+02,8.400000000000000000e+01,4.600000000000000200e-01,3.000815400000000000e+09
1.940000000000000000e+02,3.960000000000000000e+02,1.097000000000000000e+03,2.160000000000000000e+02,7.700000000000000000e+01,2.580000000000000000e+02,1.070000000000000000e+02,9.300000000000000000e+01,4.500000000000000111e-01,3.019553800000000000e+09
1.360000000000000000e+02,3.370000000000000000e+02,1.108000000000000000e+03,1.710000000000000000e+02,5.800000000000000000e+01,2.630000000000000000e+02,1.060000000000000000e+02,8.500000000000000000e+01,4.400000000000000022e-01,3.039482500000000000e+09
1.250000000000000000e+02,2.870000000000000000e+02,1.016000000000000000e+03,1.650000000000000000e+02,6.100000000000000000e+01,2.610000000000000000e+02,1.160000000000000000e+02,8.600000000000000000e+01,4.299999999999999933e-01,3.060867400000000000e+09
1.420000000000000000e+02,2.860000000000000000e+02,1.023000000000000000e+03,1.570000000000000000e+02,6.200000000000000000e+01,2.600000000000000000e+02,1.250000000000000000e+02,8.700000000000000000e+01,4.199999999999999845e-01,3.079929100000000000e+09
1.410000000000000000e+02,3.040000000000000000e+02,9.850000000000000000e+02,1.660000000000000000e+02,6.500000000000000000e+01,2.210000000000000000e+02,1.520000000000000000e+02,1.310000000000000000e+02,4.099999999999999756e-01,3.101137400000000000e+09
1.350000000000000000e+02,3.160000000000000000e+02,9.440000000000000000e+02,1.790000000000000000e+02,6.300000000000000000e+01,2.640000000000000000e+02,1.510000000000000000e+02,1.510000000000000000e+02,4.000000000000000222e-01,3.119924800000000000e+09
1.410000000000000000e+02,2.810000000000000000e+02,9.260000000000000000e+02,1.790000000000000000e+02,6.100000000000000000e+01,2.710000000000000000e+02,1.560000000000000000e+02,1.490000000000000000e+02,3.900000000000000133e-01,3.138931300000000000e+09
1.420000000000000000e+02,2.830000000000000000e+02,9.040000000000000000e+02,1.830000000000000000e+02,6.400000000000000000e+01,2.740000000000000000e+02,1.490000000000000000e+02,1.510000000000000000e+02,3.800000000000000044e-01,3.160145800000000000e+09
1.320000000000000000e+02,2.880000000000000000e+02,8.760000000000000000e+02,1.980000000000000000e+02,7.500000000000000000e+01,2.840000000000000000e+02,1.860000000000000000e+02,1.890000000000000000e+02,3.699999999999999956e-01,3.178918900000000000e+09
1.290000000000000000e+02,3.870000000000000000e+02,1.052000000000000000e+03,1.950000000000000000e+02,7.400000000000000000e+01,3.120000000000000000e+02,1.500000000000000000e+02,1.630000000000000000e+02,3.599999999999999867e-01,3.200498100000000000e+09
1.530000000000000000e+02,3.910000000000000000e+02,1.051000000000000000e+03,1.780000000000000000e+02,7.000000000000000000e+01,2.640000000000000000e+02,1.560000000000000000e+02,1.380000000000000000e+02,3.499999999999999778e-01,3.219349500000000000e+09
1.580000000000000000e+02,4.590000000000000000e+02,1.068000000000000000e+03,1.820000000000000000e+02,7.500000000000000000e+01,2.570000000000000000e+02,1.550000000000000000e+02,1.480000000000000000e+02,3.400000000000000244e-01,3.240553200000000000e+09
1.640000000000000000e+02,4.920000000000000000e+02,1.096000000000000000e+03,1.960000000000000000e+02,7.500000000000000000e+01,2.520000000000000000e+02,2.080000000000000000e+02,1.830000000000000000e+02,3.300000000000000155e-01,3.259479800000000000e+09
1.670000000000000000e+02,4.990000000000000000e+02,1.142000000000000000e+03,1.910000000000000000e+02,6.800000000000000000e+01,2.630000000000000000e+02,1.710000000000000000e+02,1.460000000000000000e+02,3.099999999999999978e-01,3.300029300000000000e+09
1.770000000000000000e+02,4.360000000000000000e+02,1.092000000000000000e+03,2.130000000000000000e+02,9.000000000000000000e+01,3.510000000000000000e+02,1.760000000000000000e+02,1.800000000000000000e+02,3.099999999999999978e-01,3.300042500000000000e+09
1.620000000000000000e+02,4.260000000000000000e+02,1.216000000000000000e+03,2.240000000000000000e+02,9.500000000000000000e+01,3.660000000000000000e+02,1.740000000000000000e+02,2.150000000000000000e+02,2.999999999999999889e-01,3.319007900000000000e+09
2.000000000000000000e+02,3.890000000000000000e+02,1.242000000000000000e+03,2.210000000000000000e+02,9.400000000000000000e+01,3.660000000000000000e+02,1.720000000000000000e+02,2.110000000000000000e+02,2.899999999999999800e-01,3.340304000000000000e+09
2.130000000000000000e+02,3.780000000000000000e+02,1.235000000000000000e+03,2.260000000000000000e+02,9.800000000000000000e+01,3.660000000000000000e+02,1.030000000000000000e+02,1.990000000000000000e+02,2.800000000000000266e-01,3.358564800000000000e+09
2.070000000000000000e+02,3.570000000000000000e+02,1.276000000000000000e+03,2.220000000000000000e+02,1.020000000000000000e+02,3.820000000000000000e+02,1.020000000000000000e+02,1.990000000000000000e+02,2.700000000000000178e-01,3.379500800000000000e+09
2.000000000000000000e+02,3.510000000000000000e+02,1.186000000000000000e+03,1.940000000000000000e+02,8.300000000000000000e+01,3.180000000000000000e+02,9.500000000000000000e+01,1.780000000000000000e+02,2.600000000000000089e-01,3.398609800000000000e+09
2.010000000000000000e+02,3.800000000000000000e+02,1.166000000000000000e+03,2.010000000000000000e+02,8.200000000000000000e+01,2.970000000000000000e+02,9.800000000000000000e+01,1.370000000000000000e+02,2.500000000000000000e-01,3.419963300000000000e+09
1.730000000000000000e+02,3.880000000000000000e+02,1.176000000000000000e+03,1.990000000000000000e+02,8.100000000000000000e+01,2.930000000000000000e+02,9.500000000000000000e+01,1.350000000000000000e+02,2.399999999999999911e-01,3.439281500000000000e+09
1.980000000000000000e+02,5.010000000000000000e+02,1.148000000000000000e+03,2.210000000000000000e+02,9.000000000000000000e+01,2.960000000000000000e+02,1.070000000000000000e+02,1.530000000000000000e+02,2.300000000000000100e-01,3.460700600000000000e+09
2.120000000000000000e+02,5.420000000000000000e+02,1.119000000000000000e+03,2.690000000000000000e+02,9.500000000000000000e+01,2.540000000000000000e+02,1.120000000000000000e+02,1.590000000000000000e+02,2.200000000000000011e-01,3.479501400000000000e+09
2.140000000000000000e+02,5.360000000000000000e+02,1.240000000000000000e+03,2.910000000000000000e+02,1.020000000000000000e+02,1.850000000000000000e+02,1.130000000000000000e+02,1.560000000000000000e+02,2.099999999999999922e-01,3.501071500000000000e+09
2.570000000000000000e+02,6.500000000000000000e+02,1.213000000000000000e+03,3.360000000000000000e+02,1.260000000000000000e+02,1.790000000000000000e+02,1.260000000000000000e+02,1.660000000000000000e+02,2.000000000000000111e-01,3.519517900000000000e+09
2.460000000000000000e+02,6.560000000000000000e+02,1.204000000000000000e+03,3.500000000000000000e+02,1.310000000000000000e+02,1.710000000000000000e+02,1.380000000000000000e+02,1.760000000000000000e+02,1.900000000000000022e-01,3.540665300000000000e+09
2.350000000000000000e+02,6.490000000000000000e+02,1.290000000000000000e+03,3.500000000000000000e+02,1.310000000000000000e+02,2.240000000000000000e+02,1.360000000000000000e+02,1.420000000000000000e+02,1.799999999999999933e-01,3.559426000000000000e+09
2.210000000000000000e+02,6.540000000000000000e+02,1.234000000000000000e+03,3.370000000000000000e+02,1.270000000000000000e+02,3.450000000000000000e+02,1.440000000000000000e+02,1.540000000000000000e+02,1.700000000000000122e-01,3.580964100000000000e+09
2.300000000000000000e+02,6.720000000000000000e+02,1.157000000000000000e+03,3.290000000000000000e+02,1.270000000000000000e+02,3.530000000000000000e+02,1.420000000000000000e+02,1.430000000000000000e+02,1.600000000000000033e-01,3.599733800000000000e+09
1.800000000000000000e+02,5.890000000000000000e+02,1.167000000000000000e+03,3.090000000000000000e+02,1.130000000000000000e+02,3.490000000000000000e+02,1.270000000000000000e+02,1.330000000000000000e+02,1.499999999999999944e-01,3.618767100000000000e+09
2.010000000000000000e+02,6.050000000000000000e+02,1.199000000000000000e+03,3.620000000000000000e+02,1.330000000000000000e+02,3.580000000000000000e+02,1.230000000000000000e+02,1.230000000000000000e+02,1.300000000000000044e-01,3.659755600000000000e+09
2.050000000000000000e+02,5.760000000000000000e+02,1.083000000000000000e+03,4.250000000000000000e+02,1.450000000000000000e+02,4.620000000000000000e+02,1.740000000000000000e+02,1.360000000000000000e+02,1.300000000000000044e-01,3.659792400000000000e+09
2.100000000000000000e+02,5.730000000000000000e+02,1.184000000000000000e+03,4.290000000000000000e+02,1.530000000000000000e+02,4.390000000000000000e+02,1.680000000000000000e+02,1.220000000000000000e+02,1.199999999999999956e-01,3.678641100000000000e+09
2.080000000000000000e+02,5.960000000000000000e+02,1.173000000000000000e+03,4.600000000000000000e+02,1.580000000000000000e+02,4.310000000000000000e+02,1.790000000000000000e+02,1.320000000000000000e+02,1.100000000000000006e-01,3.699883400000000000e+09
2.970000000000000000e+02,7.200000000000000000e+02,1.083000000000000000e+03,4.690000000000000000e+02,1.740000000000000000e+02,4.420000000000000000e+02,1.890000000000000000e+02,1.510000000000000000e+02,8.999999999999999667e-02,3.739520600000000000e+09
3.180000000000000000e+02,7.430000000000000000e+02,1.156000000000000000e+03,4.950000000000000000e+02,1.700000000000000000e+02,4.460000000000000000e+02,1.960000000000000000e+02,1.590000000000000000e+02,8.999999999999999667e-02,3.739531300000000000e+09
3.170000000000000000e+02,7.340000000000000000e+02,1.172000000000000000e+03,4.590000000000000000e+02,1.660000000000000000e+02,3.190000000000000000e+02,1.540000000000000000e+02,1.690000000000000000e+02,8.000000000000000167e-02,3.760895700000000000e+09
3.750000000000000000e+02,8.350000000000000000e+02,1.215000000000000000e+03,4.640000000000000000e+02,1.700000000000000000e+02,2.940000000000000000e+02,1.530000000000000000e+02,1.900000000000000000e+02,7.000000000000000666e-02,3.778602900000000000e+09
4.090000000000000000e+02,9.990000000000000000e+02,1.346000000000000000e+03,5.200000000000000000e+02,1.940000000000000000e+02,3.280000000000000000e+02,1.380000000000000000e+02,2.050000000000000000e+02,5.999999999999999778e-02,3.800026200000000000e+09
4.330000000000000000e+02,1.075000000000000000e+03,1.392000000000000000e+03,5.540000000000000000e+02,2.040000000000000000e+02,3.200000000000000000e+02,1.290000000000000000e+02,2.080000000000000000e+02,5.000000000000000278e-02,3.818750800000000000e+09
4.270000000000000000e+02,1.072000000000000000e+03,1.423000000000000000e+03,5.280000000000000000e+02,2.180000000000000000e+02,3.280000000000000000e+02,1.250000000000000000e+02,2.130000000000000000e+02,4.000000000000000083e-02,3.839903700000000000e+09
4.330000000000000000e+02,1.150000000000000000e+03,1.459000000000000000e+03,5.570000000000000000e+02,2.190000000000000000e+02,3.300000000000000000e+02,1.180000000000000000e+02,2.020000000000000000e+02,2.999999999999999889e-02,3.861073000000000000e+09
4.020000000000000000e+02,1.107000000000000000e+03,1.368000000000000000e+03,6.110000000000000000e+02,2.260000000000000000e+02,3.090000000000000000e+02,1.330000000000000000e+02,2.130000000000000000e+02,2.000000000000000042e-02,3.879382500000000000e+09
3.730000000000000000e+02,9.830000000000000000e+02,1.332000000000000000e+03,5.760000000000000000e+02,2.100000000000000000e+02,2.870000000000000000e+02,1.370000000000000000e+02,2.010000000000000000e+02,1.000000000000000021e-02,3.900376600000000000e+09
2.710000000000000000e+02,7.920000000000000000e+02,1.347000000000000000e+03,5.350000000000000000e+02,1.830000000000000000e+02,2.800000000000000000e+02,1.320000000000000000e+02,1.790000000000000000e+02,0.000000000000000000e+00,3.919003400000000000e+09
2.660000000000000000e+02,8.170000000000000000e+02,1.250000000000000000e+03,5.100000000000000000e+02,1.620000000000000000e+02,4.490000000000000000e+02,1.430000000000000000e+02,1.800000000000000000e+02,1.000000000000000021e-02,3.940501000000000000e+09
2.550000000000000000e+02,7.250000000000000000e+02,1.322000000000000000e+03,4.600000000000000000e+02,1.570000000000000000e+02,4.500000000000000000e+02,1.750000000000000000e+02,3.470000000000000000e+02,2.000000000000000042e-02,3.958924600000000000e+09
2.300000000000000000e+02,7.080000000000000000e+02,1.290000000000000000e+03,3.560000000000000000e+02,1.290000000000000000e+02,4.370000000000000000e+02,1.620000000000000000e+02,3.440000000000000000e+02,2.999999999999999889e-02,3.979920000000000000e+09
2.800000000000000000e+02,7.390000000000000000e+02,1.198000000000000000e+03,4.450000000000000000e+02,1.610000000000000000e+02,4.290000000000000000e+02,1.680000000000000000e+02,3.740000000000000000e+02,4.000000000000000083e-02,3.998583500000000000e+09
2.830000000000000000e+02,7.380000000000000000e+02,1.114000000000000000e+03,4.340000000000000000e+02,1.610000000000000000e+02,4.830000000000000000e+02,1.960000000000000000e+02,4.790000000000000000e+02,5.000000000000000278e-02,4.019873800000000000e+09
2.620000000000000000e+02,6.520000000000000000e+02,1.005000000000000000e+03,4.210000000000000000e+02,1.630000000000000000e+02,3.460000000000000000e+02,4.010000000000000000e+02,6.220000000000000000e+02,5.999999999999999778e-02,4.040260900000000000e+09
2.560000000000000000e+02,5.860000000000000000e+02,7.830000000000000000e+02,3.980000000000000000e+02,1.510000000000000000e+02,3.890000000000000000e+02,6.370000000000000000e+02,6.550000000000000000e+02,8.000000000000000167e-02,4.081018000000000000e+09
2.890000000000000000e+02,5.550000000000000000e+02,8.740000000000000000e+02,4.080000000000000000e+02,1.540000000000000000e+02,4.390000000000000000e+02,7.060000000000000000e+02,7.380000000000000000e+02,8.000000000000000167e-02,4.081030100000000000e+09
2.360000000000000000e+02,4.730000000000000000e+02,8.160000000000000000e+02,2.160000000000000000e+02,9.600000000000000000e+01,5.580000000000000000e+02,7.540000000000000000e+02,8.980000000000000000e+02,8.999999999999999667e-02,4.099252600000000000e+09
2.500000000000000000e+02,4.470000000000000000e+02,8.760000000000000000e+02,2.260000000000000000e+02,9.300000000000000000e+01,5.470000000000000000e+02,7.990000000000000000e+02,9.560000000000000000e+02,1.000000000000000056e-01,4.120562500000000000e+09
2.510000000000000000e+02,4.400000000000000000e+02,8.430000000000000000e+02,2.050000000000000000e+02,7.900000000000000000e+01,7.470000000000000000e+02,8.710000000000000000e+02,9.870000000000000000e+02,1.100000000000000006e-01,4.139303900000000000e+09
2.520000000000000000e+02,4.300000000000000000e+02,8.560000000000000000e+02,2.110000000000000000e+02,1.000000000000000000e+02,7.480000000000000000e+02,7.740000000000000000e+02,9.900000000000000000e+02,1.199999999999999956e-01,4.160773800000000000e+09
2.290000000000000000e+02,4.450000000000000000e+02,8.020000000000000000e+02,1.790000000000000000e+02,1.010000000000000000e+02,7.780000000000000000e+02,7.480000000000000000e+02,9.730000000000000000e+02,1.300000000000000044e-01,4.179218100000000000e+09
2.270000000000000000e+02,4.400000000000000000e+02,8.210000000000000000e+02,1.810000000000000000e+02,1.120000000000000000e+02,8.140000000000000000e+02,8.260000000000000000e+02,9.870000000000000000e+02,1.400000000000000133e-01,4.200621900000000000e+09
2.110000000000000000e+02,4.350000000000000000e+02,7.760000000000000000e+02,1.170000000000000000e+02,1.110000000000000000e+02,8.020000000000000000e+02,8.310000000000000000e+02,1.016000000000000000e+03,1.499999999999999944e-01,4.218988500000000000e+09
2.040000000000000000e+02,4.310000000000000000e+02,7.830000000000000000e+02,1.270000000000000000e+02,1.080000000000000000e+02,6.280000000000000000e+02,7.640000000000000000e+02,9.790000000000000000e+02,1.600000000000000033e-01,4.240729400000000000e+09
2.130000000000000000e+02,4.830000000000000000e+02,8.160000000000000000e+02,1.370000000000000000e+02,9.900000000000000000e+01,8.020000000000000000e+02,7.450000000000000000e+02,1.024000000000000000e+03,1.700000000000000122e-01,4.259362700000000000e+09
2.020000000000000000e+02,4.430000000000000000e+02,7.630000000000000000e+02,1.580000000000000000e+02,9.200000000000000000e+01,7.440000000000000000e+02,8.360000000000000000e+02,1.039000000000000000e+03,1.799999999999999933e-01,4.280663100000000000e+09
1.890000000000000000e+02,4.070000000000000000e+02,6.880000000000000000e+02,1.470000000000000000e+02,7.800000000000000000e+01,6.350000000000000000e+02,7.520000000000000000e+02,9.380000000000000000e+02,2.000000000000000111e-01,4.320951500000000000e+09
1.930000000000000000e+02,4.140000000000000000e+02,5.860000000000000000e+02,1.450000000000000000e+02,8.100000000000000000e+01,6.980000000000000000e+02,7.870000000000000000e+02,8.770000000000000000e+02,2.000000000000000111e-01,4.320981700000000000e+09
2.070000000000000000e+02,4.210000000000000000e+02,6.760000000000000000e+02,1.390000000000000000e+02,8.600000000000000000e+01,7.220000000000000000e+02,7.990000000000000000e+02,8.510000000000000000e+02,2.099999999999999922e-01,4.339914100000000000e+09
1.970000000000000000e+02,3.900000000000000000e+02,7.820000000000000000e+02,1.500000000000000000e+02,8.000000000000000000e+01,5.070000000000000000e+02,8.320000000000000000e+02,7.890000000000000000e+02,2.200000000000000011e-01,4.360981300000000000e+09
2.060000000000000000e+02,4.390000000000000000e+02,7.450000000000000000e+02,1.540000000000000000e+02,8.700000000000000000e+01,5.230000000000000000e+02,7.480000000000000000e+02,7.690000000000000000e+02,2.300000000000000100e-01,4.379741500000000000e+09
2.130000000000000000e+02,4.330000000000000000e+02,7.910000000000000000e+02,1.590000000000000000e+02,9.700000000000000000e+01,6.000000000000000000e+02,7.860000000000000000e+02,8.230000000000000000e+02,2.500000000000000000e-01,4.419633700000000000e+09
2.370000000000000000e+02,4.160000000000000000e+02,7.930000000000000000e+02,1.540000000000000000e+02,8.900000000000000000e+01,5.840000000000000000e+02,7.670000000000000000e+02,7.730000000000000000e+02,2.600000000000000089e-01,4.440846800000000000e+09
2.340000000000000000e+02,4.310000000000000000e+02,7.630000000000000000e+02,1.550000000000000000e+02,8.300000000000000000e+01,5.590000000000000000e+02,7.090000000000000000e+02,8.100000000000000000e+02,2.600000000000000089e-01,4.440888800000000000e+09
2.200000000000000000e+02,4.350000000000000000e+02,7.050000000000000000e+02,1.540000000000000000e+02,8.100000000000000000e+01,5.530000000000000000e+02,6.260000000000000000e+02,8.100000000000000000e+02,2.700000000000000178e-01,4.460025300000000000e+09
1.890000000000000000e+02,3.640000000000000000e+02,6.910000000000000000e+02,1.330000000000000000e+02,7.400000000000000000e+01,5.610000000000000000e+02,6.140000000000000000e+02,8.160000000000000000e+02,2.899999999999999800e-01,4.500037600000000000e+09
1.810000000000000000e+02,3.610000000000000000e+02,6.290000000000000000e+02,1.290000000000000000e+02,7.600000000000000000e+01,5.360000000000000000e+02,6.170000000000000000e+02,7.960000000000000000e+02,2.899999999999999800e-01,4.500049600000000000e+09
1.520000000000000000e+02,3.900000000000000000e+02,6.210000000000000000e+02,1.280000000000000000e+02,7.800000000000000000e+01,5.180000000000000000e+02,5.940000000000000000e+02,7.690000000000000000e+02,2.999999999999999889e-01,4.521178600000000000e+09
1.820000000000000000e+02,3.890000000000000000e+02,7.070000000000000000e+02,1.260000000000000000e+02,7.500000000000000000e+01,4.840000000000000000e+02,5.410000000000000000e+02,6.880000000000000000e+02,3.200000000000000067e-01,4.560621800000000000e+09
1.850000000000000000e+02,3.770000000000000000e+02,6.190000000000000000e+02,9.600000000000000000e+01,7.400000000000000000e+01,4.770000000000000000e+02,6.340000000000000000e+02,6.810000000000000000e+02,3.300000000000000155e-01,4.579711000000000000e+09
1.960000000000000000e+02,3.630000000000000000e+02,6.190000000000000000e+02,8.700000000000000000e+01,7.300000000000000000e+01,5.160000000000000000e+02,7.040000000000000000e+02,6.240000000000000000e+02,3.300000000000000155e-01,4.579749300000000000e+09
2.020000000000000000e+02,3.710000000000000000e+02,6.120000000000000000e+02,8.400000000000000000e+01,5.900000000000000000e+01,4.500000000000000000e+02,7.340000000000000000e+02,5.160000000000000000e+02,3.400000000000000244e-01,4.601202400000000000e+09
2.200000000000000000e+02,3.440000000000000000e+02,6.020000000000000000e+02,8.200000000000000000e+01,6.200000000000000000e+01,4.540000000000000000e+02,8.080000000000000000e+02,5.480000000000000000e+02,3.599999999999999867e-01,4.640652700000000000e+09
2.210000000000000000e+02,3.710000000000000000e+02,5.490000000000000000e+02,8.300000000000000000e+01,6.300000000000000000e+01,4.580000000000000000e+02,8.210000000000000000e+02,5.880000000000000000e+02,3.599999999999999867e-01,4.640664300000000000e+09
2.160000000000000000e+02,4.190000000000000000e+02,5.480000000000000000e+02,7.200000000000000000e+01,5.800000000000000000e+01,4.600000000000000000e+02,7.770000000000000000e+02,6.660000000000000000e+02,3.800000000000000044e-01,4.680550400000000000e+09
2.140000000000000000e+02,4.110000000000000000e+02,5.210000000000000000e+02,7.000000000000000000e+01,6.200000000000000000e+01,4.240000000000000000e+02,7.170000000000000000e+02,6.850000000000000000e+02,3.900000000000000133e-01,4.699121900000000000e+09
2.100000000000000000e+02,3.870000000000000000e+02,5.150000000000000000e+02,6.900000000000000000e+01,6.400000000000000000e+01,4.540000000000000000e+02,8.280000000000000000e+02,6.700000000000000000e+02,3.900000000000000133e-01,4.699133200000000000e+09
1.830000000000000000e+02,3.900000000000000000e+02,5.350000000000000000e+02,7.300000000000000000e+01,5.900000000000000000e+01,3.990000000000000000e+02,7.850000000000000000e+02,8.040000000000000000e+02,4.099999999999999756e-01,4.738882800000000000e+09
1.720000000000000000e+02,3.650000000000000000e+02,4.790000000000000000e+02,6.300000000000000000e+01,5.600000000000000000e+01,3.970000000000000000e+02,8.230000000000000000e+02,7.970000000000000000e+02,4.099999999999999756e-01,4.738896900000000000e+09
1.710000000000000000e+02,2.860000000000000000e+02,5.640000000000000000e+02,6.600000000000000000e+01,5.700000000000000000e+01,3.790000000000000000e+02,8.100000000000000000e+02,6.850000000000000000e+02,4.299999999999999933e-01,4.779267700000000000e+09
1.670000000000000000e+02,3.280000000000000000e+02,5.700000000000000000e+02,6.100000000000000000e+01,5.200000000000000000e+01,3.730000000000000000e+02,8.010000000000000000e+02,8.690000000000000000e+02,4.299999999999999933e-01,4.779280700000000000e+09
1.770000000000000000e+02,3.400000000000000000e+02,5.660000000000000000e+02,6.900000000000000000e+01,6.800000000000000000e+01,3.970000000000000000e+02,7.450000000000000000e+02,9.460000000000000000e+02,4.400000000000000022e-01,4.800798000000000000e+09
1.830000000000000000e+02,4.070000000000000000e+02,6.290000000000000000e+02,8.000000000000000000e+01,7.000000000000000000e+01,4.130000000000000000e+02,7.410000000000000000e+02,8.610000000000000000e+02,4.500000000000000111e-01,4.819432900000000000e+09
1.880000000000000000e+02,4.110000000000000000e+02,5.620000000000000000e+02,7.400000000000000000e+01,6.900000000000000000e+01,4.310000000000000000e+02,7.730000000000000000e+02,8.840000000000000000e+02,4.699999999999999734e-01,4.859586800000000000e+09
1.960000000000000000e+02,4.030000000000000000e+02,4.260000000000000000e+02,6.900000000000000000e+01,6.900000000000000000e+01,4.340000000000000000e+02,8.170000000000000000e+02,8.910000000000000000e+02,4.699999999999999734e-01,4.859609800000000000e+09
2.150000000000000000e+02,4.110000000000000000e+02,4.460000000000000000e+02,7.100000000000000000e+01,7.300000000000000000e+01,5.200000000000000000e+02,8.480000000000000000e+02,7.250000000000000000e+02,4.799999999999999822e-01,4.881045600000000000e+09
2.160000000000000000e+02,4.100000000000000000e+02,5.020000000000000000e+02,6.300000000000000000e+01,5.500000000000000000e+01,4.690000000000000000e+02,7.220000000000000000e+02,6.880000000000000000e+02,4.899999999999999911e-01,4.899922900000000000e+09
2.060000000000000000e+02,3.580000000000000000e+02,4.380000000000000000e+02,4.500000000000000000e+01,5.300000000000000000e+01,4.740000000000000000e+02,7.310000000000000000e+02,7.160000000000000000e+02,5.000000000000000000e-01,4.918933700000000000e+09
1.930000000000000000e+02,3.730000000000000000e+02,4.620000000000000000e+02,5.800000000000000000e+01,6.200000000000000000e+01,5.530000000000000000e+02,7.780000000000000000e+02,7.680000000000000000e+02,5.100000000000000089e-01,4.940639100000000000e+09
2.130000000000000000e+02,3.810000000000000000e+02,4.910000000000000000e+02,6.300000000000000000e+01,6.200000000000000000e+01,5.620000000000000000e+02,7.640000000000000000e+02,8.220000000000000000e+02,5.300000000000000266e-01,4.980003400000000000e+09
2.170000000000000000e+02,3.810000000000000000e+02,5.090000000000000000e+02,6.900000000000000000e+01,6.300000000000000000e+01,5.630000000000000000e+02,8.130000000000000000e+02,9.330000000000000000e+02,5.400000000000000355e-01,4.999053500000000000e+09
2.150000000000000000e+02,3.990000000000000000e+02,4.630000000000000000e+02,7.100000000000000000e+01,6.700000000000000000e+01,6.080000000000000000e+02,8.100000000000000000e+02,9.110000000000000000e+02,5.400000000000000355e-01,4.999063900000000000e+09
2.180000000000000000e+02,3.690000000000000000e+02,4.120000000000000000e+02,7.000000000000000000e+01,6.500000000000000000e+01,5.800000000000000000e+02,8.770000000000000000e+02,9.320000000000000000e+02,5.500000000000000444e-01,5.020473200000000000e+09
1.990000000000000000e+02,3.110000000000000000e+02,4.020000000000000000e+02,6.000000000000000000e+01,5.900000000000000000e+01,5.320000000000000000e+02,8.140000000000000000e+02,9.020000000000000000e+02,5.600000000000000533e-01,5.039464600000000000e+09
2.400000000000000000e+02,3.420000000000000000e+02,4.710000000000000000e+02,7.700000000000000000e+01,7.200000000000000000e+01,5.680000000000000000e+02,8.380000000000000000e+02,8.750000000000000000e+02,5.699999999999999512e-01,5.060713900000000000e+09
2.310000000000000000e+02,3.820000000000000000e+02,4.310000000000000000e+02,7.100000000000000000e+01,7.200000000000000000e+01,4.900000000000000000e+02,8.500000000000000000e+02,7.660000000000000000e+02,5.899999999999999689e-01,5.100989000000000000e+09
2.480000000000000000e+02,4.290000000000000000e+02,4.280000000000000000e+02,7.400000000000000000e+01,7.200000000000000000e+01,4.450000000000000000e+02,8.900000000000000000e+02,8.420000000000000000e+02,5.899999999999999689e-01,5.101001000000000000e+09
2.600000000000000000e+02,4.550000000000000000e+02,4.340000000000000000e+02,7.600000000000000000e+01,8.400000000000000000e+01,5.020000000000000000e+02,9.190000000000000000e+02,8.250000000000000000e+02,5.999999999999999778e-01,5.119307800000000000e+09
2.630000000000000000e+02,4.710000000000000000e+02,5.280000000000000000e+02,8.600000000000000000e+01,8.600000000000000000e+01,4.930000000000000000e+02,8.830000000000000000e+02,8.140000000000000000e+02,6.099999999999999867e-01,5.140777400000000000e+09
2.040000000000000000e+02,4.540000000000000000e+02,4.710000000000000000e+02,7.800000000000000000e+01,8.400000000000000000e+01,5.290000000000000000e+02,8.630000000000000000e+02,8.840000000000000000e+02,6.199999999999999956e-01,5.158956600000000000e+09
2.500000000000000000e+02,4.060000000000000000e+02,5.410000000000000000e+02,9.500000000000000000e+01,9.000000000000000000e+01,5.780000000000000000e+02,8.240000000000000000e+02,9.590000000000000000e+02,6.300000000000000044e-01,5.180646700000000000e+09
2.320000000000000000e+02,3.580000000000000000e+02,5.620000000000000000e+02,9.600000000000000000e+01,9.300000000000000000e+01,6.120000000000000000e+02,8.330000000000000000e+02,1.005000000000000000e+03,6.500000000000000222e-01,5.220496200000000000e+09
2.410000000000000000e+02,3.430000000000000000e+02,5.960000000000000000e+02,9.400000000000000000e+01,8.100000000000000000e+01,5.910000000000000000e+02,6.400000000000000000e+02,9.990000000000000000e+02,6.500000000000000222e-01,5.220509900000000000e+09
2.510000000000000000e+02,3.310000000000000000e+02,5.070000000000000000e+02,8.800000000000000000e+01,8.000000000000000000e+01,5.800000000000000000e+02,7.060000000000000000e+02,1.023000000000000000e+03,6.600000000000000311e-01,5.239497300000000000e+09
2.990000000000000000e+02,3.250000000000000000e+02,4.920000000000000000e+02,8.900000000000000000e+01,8.800000000000000000e+01,6.540000000000000000e+02,8.510000000000000000e+02,1.031000000000000000e+03,6.700000000000000400e-01,5.260742100000000000e+09
2.780000000000000000e+02,3.030000000000000000e+02,4.820000000000000000e+02,9.400000000000000000e+01,1.040000000000000000e+02,6.810000000000000000e+02,8.690000000000000000e+02,1.031000000000000000e+03,6.800000000000000488e-01,5.279398200000000000e+09
3.260000000000000000e+02,2.870000000000000000e+02,5.570000000000000000e+02,1.200000000000000000e+02,1.110000000000000000e+02,6.930000000000000000e+02,9.330000000000000000e+02,9.630000000000000000e+02,6.899999999999999467e-01,5.300299200000000000e+09
3.510000000000000000e+02,3.830000000000000000e+02,5.630000000000000000e+02,1.330000000000000000e+02,1.180000000000000000e+02,7.400000000000000000e+02,9.750000000000000000e+02,1.010000000000000000e+03,7.099999999999999645e-01,5.339942600000000000e+09
3.540000000000000000e+02,3.840000000000000000e+02,5.940000000000000000e+02,1.370000000000000000e+02,1.200000000000000000e+02,8.070000000000000000e+02,9.890000000000000000e+02,1.009000000000000000e+03,7.099999999999999645e-01,5.339955400000000000e+09
3.330000000000000000e+02,4.100000000000000000e+02,5.780000000000000000e+02,1.370000000000000000e+02,1.200000000000000000e+02,7.420000000000000000e+02,9.620000000000000000e+02,9.790000000000000000e+02,7.199999999999999734e-01,5.360725300000000000e+09
3.290000000000000000e+02,3.990000000000000000e+02,5.290000000000000000e+02,1.230000000000000000e+02,9.900000000000000000e+01,7.100000000000000000e+02,9.120000000000000000e+02,1.003000000000000000e+03,7.399999999999999911e-01,5.400341600000000000e+09
3.150000000000000000e+02,4.580000000000000000e+02,4.500000000000000000e+02,1.050000000000000000e+02,9.900000000000000000e+01,6.800000000000000000e+02,9.530000000000000000e+02,9.780000000000000000e+02,7.399999999999999911e-01,5.400353500000000000e+09
2.930000000000000000e+02,3.990000000000000000e+02,4.050000000000000000e+02,9.100000000000000000e+01,9.500000000000000000e+01,6.410000000000000000e+02,9.530000000000000000e+02,9.170000000000000000e+02,7.500000000000000000e-01,5.419870200000000000e+09
2.940000000000000000e+02,4.230000000000000000e+02,4.260000000000000000e+02,8.800000000000000000e+01,9.100000000000000000e+01,5.980000000000000000e+02,9.610000000000000000e+02,9.580000000000000000e+02,7.700000000000000178e-01,5.460179000000000000e+09
3.660000000000000000e+02,4.580000000000000000e+02,4.980000000000000000e+02,1.030000000000000000e+02,9.700000000000000000e+01,6.760000000000000000e+02,9.970000000000000000e+02,1.087000000000000000e+03,7.700000000000000178e-01,5.460192100000000000e+09
3.890000000000000000e+02,5.480000000000000000e+02,4.950000000000000000e+02,1.090000000000000000e+02,1.080000000000000000e+02,7.190000000000000000e+02,1.026000000000000000e+03,1.108000000000000000e+03,7.800000000000000266e-01,5.478772700000000000e+09
4.000000000000000000e+02,5.700000000000000000e+02,4.850000000000000000e+02,1.070000000000000000e+02,1.230000000000000000e+02,7.990000000000000000e+02,1.000000000000000000e+03,1.149000000000000000e+03,8.000000000000000444e-01,5.518830400000000000e+09
4.480000000000000000e+02,5.680000000000000000e+02,5.610000000000000000e+02,1.180000000000000000e+02,1.330000000000000000e+02,9.450000000000000000e+02,9.730000000000000000e+02,1.206000000000000000e+03,8.000000000000000444e-01,5.518867100000000000e+09
4.970000000000000000e+02,6.740000000000000000e+02,6.230000000000000000e+02,1.280000000000000000e+02,1.490000000000000000e+02,1.068000000000000000e+03,1.030000000000000000e+03,1.238000000000000000e+03,8.100000000000000533e-01,5.540300700000000000e+09
5.280000000000000000e+02,7.090000000000000000e+02,6.060000000000000000e+02,1.250000000000000000e+02,1.620000000000000000e+02,1.118000000000000000e+03,9.730000000000000000e+02,1.132000000000000000e+03,8.299999999999999600e-01,5.580190500000000000e+09
5.240000000000000000e+02,7.670000000000000000e+02,6.050000000000000000e+02,1.240000000000000000e+02,1.600000000000000000e+02,1.211000000000000000e+03,1.023000000000000000e+03,1.047000000000000000e+03,8.299999999999999600e-01,5.580240700000000000e+09
5.120000000000000000e+02,7.850000000000000000e+02,5.880000000000000000e+02,1.180000000000000000e+02,1.450000000000000000e+02,1.231000000000000000e+03,9.260000000000000000e+02,1.045000000000000000e+03,8.399999999999999689e-01,5.598922600000000000e+09
5.130000000000000000e+02,8.010000000000000000e+02,5.390000000000000000e+02,1.150000000000000000e+02,1.570000000000000000e+02,1.240000000000000000e+03,9.980000000000000000e+02,1.048000000000000000e+03,8.599999999999999867e-01,5.639161400000000000e+09
5.100000000000000000e+02,7.380000000000000000e+02,3.910000000000000000e+02,1.070000000000000000e+02,1.730000000000000000e+02,1.265000000000000000e+03,1.052000000000000000e+03,9.650000000000000000e+02,8.599999999999999867e-01,5.639172800000000000e+09
4.480000000000000000e+02,7.280000000000000000e+02,3.060000000000000000e+02,9.400000000000000000e+01,1.610000000000000000e+02,1.199000000000000000e+03,1.033000000000000000e+03,1.012000000000000000e+03,8.699999999999999956e-01,5.660376300000000000e+09
4.870000000000000000e+02,6.950000000000000000e+02,3.100000000000000000e+02,9.100000000000000000e+01,1.720000000000000000e+02,1.160000000000000000e+03,1.026000000000000000e+03,1.056000000000000000e+03,8.900000000000000133e-01,5.698526700000000000e+09
5.360000000000000000e+02,6.590000000000000000e+02,3.260000000000000000e+02,1.030000000000000000e+02,2.010000000000000000e+02,1.214000000000000000e+03,1.060000000000000000e+03,1.111000000000000000e+03,8.900000000000000133e-01,5.698539100000000000e+09
6.030000000000000000e+02,7.030000000000000000e+02,2.540000000000000000e+02,1.060000000000000000e+02,2.000000000000000000e+02,1.221000000000000000e+03,1.066000000000000000e+03,1.117000000000000000e+03,9.000000000000000222e-01,5.719588700000000000e+09
5.770000000000000000e+02,7.700000000000000000e+02,4.110000000000000000e+02,1.100000000000000000e+02,2.010000000000000000e+02,1.124000000000000000e+03,9.830000000000000000e+02,1.236000000000000000e+03,9.100000000000000311e-01,5.740785600000000000e+09
5.620000000000000000e+02,7.790000000000000000e+02,5.280000000000000000e+02,1.270000000000000000e+02,2.160000000000000000e+02,1.181000000000000000e+03,9.950000000000000000e+02,1.227000000000000000e+03,9.200000000000000400e-01,5.759262800000000000e+09
5.290000000000000000e+02,7.200000000000000000e+02,5.350000000000000000e+02,1.370000000000000000e+02,2.230000000000000000e+02,1.220000000000000000e+03,9.210000000000000000e+02,1.248000000000000000e+03,9.300000000000000488e-01,5.780377700000000000e+09
4.880000000000000000e+02,7.530000000000000000e+02,5.630000000000000000e+02,1.290000000000000000e+02,2.180000000000000000e+02,1.247000000000000000e+03,9.660000000000000000e+02,1.215000000000000000e+03,9.499999999999999556e-01,5.820354800000000000e+09
3.890000000000000000e+02,6.900000000000000000e+02,5.800000000000000000e+02,1.280000000000000000e+02,2.180000000000000000e+02,1.245000000000000000e+03,1.009000000000000000e+03,1.176000000000000000e+03,9.499999999999999556e-01,5.820365000000000000e+09
4.130000000000000000e+02,7.480000000000000000e+02,5.400000000000000000e+02,1.320000000000000000e+02,2.080000000000000000e+02,1.272000000000000000e+03,9.710000000000000000e+02,1.108000000000000000e+03,9.599999999999999645e-01,5.838709800000000000e+09
4.100000000000000000e+02,7.300000000000000000e+02,6.190000000000000000e+02,1.410000000000000000e+02,1.920000000000000000e+02,1.208000000000000000e+03,9.200000000000000000e+02,1.085000000000000000e+03,9.799999999999999822e-01,5.880792900000000000e+09
4.030000000000000000e+02,7.390000000000000000e+02,6.520000000000000000e+02,1.380000000000000000e+02,1.840000000000000000e+02,1.134000000000000000e+03,9.430000000000000000e+02,1.078000000000000000e+03,9.899999999999999911e-01,5.899253000000000000e+09
3.960000000000000000e+02,7.810000000000000000e+02,6.210000000000000000e+02,1.370000000000000000e+02,1.770000000000000000e+02,1.169000000000000000e+03,8.750000000000000000e+02,1.103000000000000000e+03,9.799999999999999822e-01,5.920144100000000000e+09
3.720000000000000000e+02,7.970000000000000000e+02,6.090000000000000000e+02,1.350000000000000000e+02,1.700000000000000000e+02,1.193000000000000000e+03,8.030000000000000000e+02,1.134000000000000000e+03,9.699999999999999734e-01,5.939021500000000000e+09
3.310000000000000000e+02,6.610000000000000000e+02,6.820000000000000000e+02,1.230000000000000000e+02,1.550000000000000000e+02,1.139000000000000000e+03,7.290000000000000000e+02,1.033000000000000000e+03,9.599999999999999645e-01,5.960013300000000000e+09
3.700000000000000000e+02,6.330000000000000000e+02,6.210000000000000000e+02,9.400000000000000000e+01,1.510000000000000000e+02,1.227000000000000000e+03,6.990000000000000000e+02,1.032000000000000000e+03,9.599999999999999645e-01,5.960024500000000000e+09
4.770000000000000000e+02,6.620000000000000000e+02,6.510000000000000000e+02,8.900000000000000000e+01,1.310000000000000000e+02,1.165000000000000000e+03,6.340000000000000000e+02,9.450000000000000000e+02,9.399999999999999467e-01,6.000092000000000000e+09
4.630000000000000000e+02,5.320000000000000000e+02,7.530000000000000000e+02,9.200000000000000000e+01,9.800000000000000000e+01,9.810000000000000000e+02,5.970000000000000000e+02,8.520000000000000000e+02,9.300000000000000488e-01,6.018614900000000000e+09
4.570000000000000000e+02,5.510000000000000000e+02,7.710000000000000000e+02,8.400000000000000000e+01,7.700000000000000000e+01,8.670000000000000000e+02,4.930000000000000000e+02,7.730000000000000000e+02,9.300000000000000488e-01,6.018625900000000000e+09
4.490000000000000000e+02,5.370000000000000000e+02,7.010000000000000000e+02,8.300000000000000000e+01,7.700000000000000000e+01,9.050000000000000000e+02,5.000000000000000000e+02,7.650000000000000000e+02,9.100000000000000311e-01,6.061223300000000000e+09
4.620000000000000000e+02,5.170000000000000000e+02,6.150000000000000000e+02,7.900000000000000000e+01,5.500000000000000000e+01,7.450000000000000000e+02,4.550000000000000000e+02,6.310000000000000000e+02,9.000000000000000222e-01,6.080046100000000000e+09
3.300000000000000000e+02,4.820000000000000000e+02,7.170000000000000000e+02,9.100000000000000000e+01,6.200000000000000000e+01,7.280000000000000000e+02,5.050000000000000000e+02,5.600000000000000000e+02,9.000000000000000222e-01,6.080057900000000000e+09
3.420000000000000000e+02,4.580000000000000000e+02,6.690000000000000000e+02,1.090000000000000000e+02,5.800000000000000000e+01,7.780000000000000000e+02,4.400000000000000000e+02,4.610000000000000000e+02,8.800000000000000044e-01,6.119892300000000000e+09
3.230000000000000000e+02,4.370000000000000000e+02,7.430000000000000000e+02,1.420000000000000000e+02,6.800000000000000000e+01,7.260000000000000000e+02,4.100000000000000000e+02,3.290000000000000000e+02,8.699999999999999956e-01,6.140887700000000000e+09
3.130000000000000000e+02,4.340000000000000000e+02,8.340000000000000000e+02,1.460000000000000000e+02,6.500000000000000000e+01,8.170000000000000000e+02,3.600000000000000000e+02,2.630000000000000000e+02,8.699999999999999956e-01,6.140899200000000000e+09
2.220000000000000000e+02,4.280000000000000000e+02,8.600000000000000000e+02,1.500000000000000000e+02,6.500000000000000000e+01,8.320000000000000000e+02,3.540000000000000000e+02,2.120000000000000000e+02,8.499999999999999778e-01,6.180856600000000000e+09
2.040000000000000000e+02,3.660000000000000000e+02,8.020000000000000000e+02,1.420000000000000000e+02,6.600000000000000000e+01,8.540000000000000000e+02,2.500000000000000000e+02,1.880000000000000000e+02,8.399999999999999689e-01,6.200113500000000000e+09
1.690000000000000000e+02,3.730000000000000000e+02,8.140000000000000000e+02,1.280000000000000000e+02,6.600000000000000000e+01,7.980000000000000000e+02,2.330000000000000000e+02,1.700000000000000000e+02,8.399999999999999689e-01,6.200128600000000000e+09
1.620000000000000000e+02,3.460000000000000000e+02,7.580000000000000000e+02,9.600000000000000000e+01,5.000000000000000000e+01,7.800000000000000000e+02,1.940000000000000000e+02,1.170000000000000000e+02,8.199999999999999512e-01,6.239768400000000000e+09
2.630000000000000000e+02,3.560000000000000000e+02,6.810000000000000000e+02,1.010000000000000000e+02,4.900000000000000000e+01,7.370000000000000000e+02,1.790000000000000000e+02,7.800000000000000000e+01,8.100000000000000533e-01,6.261389900000000000e+09
3.010000000000000000e+02,3.880000000000000000e+02,6.450000000000000000e+02,9.400000000000000000e+01,4.700000000000000000e+01,7.160000000000000000e+02,1.740000000000000000e+02,7.200000000000000000e+01,8.100000000000000533e-01,6.261414600000000000e+09
3.680000000000000000e+02,4.810000000000000000e+02,6.580000000000000000e+02,9.600000000000000000e+01,4.000000000000000000e+01,6.810000000000000000e+02,1.590000000000000000e+02,7.100000000000000000e+01,7.900000000000000355e-01,6.301024300000000000e+09
3.660000000000000000e+02,4.880000000000000000e+02,6.700000000000000000e+02,1.000000000000000000e+02,3.900000000000000000e+01,6.680000000000000000e+02,1.550000000000000000e+02,6.700000000000000000e+01,7.800000000000000266e-01,6.319907400000000000e+09
3.600000000000000000e+02,4.740000000000000000e+02,7.440000000000000000e+02,1.020000000000000000e+02,4.200000000000000000e+01,6.340000000000000000e+02,1.460000000000000000e+02,8.700000000000000000e+01,7.800000000000000266e-01,6.319926600000000000e+09
3.110000000000000000e+02,4.610000000000000000e+02,7.670000000000000000e+02,1.000000000000000000e+02,4.600000000000000000e+01,5.420000000000000000e+02,1.380000000000000000e+02,9.000000000000000000e+01,7.600000000000000089e-01,6.359577500000000000e+09
2.660000000000000000e+02,4.290000000000000000e+02,8.700000000000000000e+02,1.070000000000000000e+02,4.800000000000000000e+01,5.870000000000000000e+02,1.270000000000000000e+02,8.900000000000000000e+01,7.500000000000000000e-01,6.380814200000000000e+09
1.710000000000000000e+02,3.310000000000000000e+02,9.300000000000000000e+02,1.180000000000000000e+02,5.000000000000000000e+01,5.810000000000000000e+02,1.300000000000000000e+02,8.600000000000000000e+01,7.399999999999999911e-01,6.399305100000000000e+09
1.660000000000000000e+02,3.220000000000000000e+02,8.910000000000000000e+02,1.140000000000000000e+02,5.200000000000000000e+01,5.250000000000000000e+02,1.340000000000000000e+02,8.600000000000000000e+01,7.299999999999999822e-01,6.420698800000000000e+09
1.810000000000000000e+02,3.170000000000000000e+02,8.250000000000000000e+02,1.100000000000000000e+02,5.000000000000000000e+01,5.510000000000000000e+02,1.300000000000000000e+02,5.900000000000000000e+01,7.199999999999999734e-01,6.439173700000000000e+09
1.510000000000000000e+02,3.220000000000000000e+02,7.820000000000000000e+02,1.100000000000000000e+02,5.000000000000000000e+01,4.020000000000000000e+02,1.140000000000000000e+02,5.200000000000000000e+01,7.199999999999999734e-01,6.439204100000000000e+09
1.620000000000000000e+02,3.010000000000000000e+02,7.990000000000000000e+02,1.110000000000000000e+02,5.000000000000000000e+01,2.710000000000000000e+02,1.100000000000000000e+02,4.400000000000000000e+01,7.099999999999999645e-01,6.460998100000000000e+09
2.130000000000000000e+02,3.510000000000000000e+02,6.730000000000000000e+02,1.000000000000000000e+02,5.000000000000000000e+01,2.730000000000000000e+02,1.040000000000000000e+02,4.400000000000000000e+01,6.899999999999999467e-01,6.500761600000000000e+09
2.130000000000000000e+02,3.590000000000000000e+02,6.760000000000000000e+02,1.100000000000000000e+02,5.000000000000000000e+01,2.650000000000000000e+02,9.800000000000000000e+01,4.500000000000000000e+01,6.899999999999999467e-01,6.500775600000000000e+09
1.970000000000000000e+02,3.490000000000000000e+02,6.750000000000000000e+02,1.100000000000000000e+02,4.800000000000000000e+01,1.110000000000000000e+02,5.900000000000000000e+01,4.400000000000000000e+01,6.700000000000000400e-01,6.540679600000000000e+09
1.940000000000000000e+02,4.020000000000000000e+02,7.060000000000000000e+02,1.070000000000000000e+02,4.400000000000000000e+01,1.600000000000000000e+02,5.100000000000000000e+01,3.900000000000000000e+01,6.600000000000000311e-01,6.559010300000000000e+09
1.820000000000000000e+02,4.100000000000000000e+02,5.630000000000000000e+02,1.040000000000000000e+02,4.400000000000000000e+01,1.650000000000000000e+02,4.400000000000000000e+01,3.900000000000000000e+01,6.600000000000000311e-01,6.559034100000000000e+09
1.070000000000000000e+02,3.880000000000000000e+02,5.330000000000000000e+02,1.010000000000000000e+02,4.100000000000000000e+01,1.710000000000000000e+02,3.700000000000000000e+01,3.200000000000000000e+01,6.400000000000000133e-01,6.599448400000000000e+09
1.100000000000000000e+02,3.750000000000000000e+02,5.770000000000000000e+02,9.400000000000000000e+01,3.900000000000000000e+01,1.760000000000000000e+02,3.600000000000000000e+01,3.400000000000000000e+01,6.300000000000000044e-01,6.620785300000000000e+09
1.230000000000000000e+02,3.740000000000000000e+02,6.990000000000000000e+02,9.200000000000000000e+01,3.900000000000000000e+01,1.850000000000000000e+02,7.800000000000000000e+01,3.700000000000000000e+01,6.300000000000000044e-01,6.620796200000000000e+09
1.190000000000000000e+02,2.930000000000000000e+02,7.110000000000000000e+02,9.300000000000000000e+01,4.300000000000000000e+01,1.730000000000000000e+02,9.800000000000000000e+01,3.600000000000000000e+01,6.099999999999999867e-01,6.661036100000000000e+09
1.310000000000000000e+02,3.230000000000000000e+02,7.950000000000000000e+02,9.000000000000000000e+01,4.100000000000000000e+01,1.720000000000000000e+02,1.030000000000000000e+02,4.100000000000000000e+01,5.999999999999999778e-01,6.679559500000000000e+09
1.630000000000000000e+02,2.790000000000000000e+02,8.350000000000000000e+02,1.040000000000000000e+02,4.000000000000000000e+01,1.590000000000000000e+02,1.070000000000000000e+02,4.700000000000000000e+01,5.999999999999999778e-01,6.679589900000000000e+09
1.610000000000000000e+02,2.760000000000000000e+02,8.430000000000000000e+02,1.260000000000000000e+02,4.500000000000000000e+01,1.550000000000000000e+02,1.140000000000000000e+02,4.900000000000000000e+01,5.799999999999999600e-01,6.718752600000000000e+09
1.520000000000000000e+02,2.770000000000000000e+02,8.410000000000000000e+02,1.500000000000000000e+02,5.100000000000000000e+01,1.520000000000000000e+02,9.500000000000000000e+01,4.800000000000000000e+01,5.699999999999999512e-01,6.740365000000000000e+09
1.800000000000000000e+02,3.150000000000000000e+02,8.160000000000000000e+02,1.530000000000000000e+02,5.300000000000000000e+01,1.780000000000000000e+02,8.700000000000000000e+01,4.800000000000000000e+01,5.699999999999999512e-01,6.740377500000000000e+09
1.720000000000000000e+02,2.780000000000000000e+02,7.800000000000000000e+02,1.530000000000000000e+02,5.400000000000000000e+01,1.790000000000000000e+02,8.300000000000000000e+01,4.300000000000000000e+01,5.500000000000000444e-01,6.780569300000000000e+09
1.480000000000000000e+02,2.960000000000000000e+02,7.950000000000000000e+02,1.520000000000000000e+02,5.900000000000000000e+01,1.770000000000000000e+02,8.700000000000000000e+01,4.800000000000000000e+01,5.400000000000000355e-01,6.799489600000000000e+09
1.430000000000000000e+02,2.940000000000000000e+02,8.160000000000000000e+02,1.420000000000000000e+02,5.600000000000000000e+01,1.750000000000000000e+02,7.900000000000000000e+01,4.200000000000000000e+01,5.300000000000000266e-01,6.821007500000000000e+09
1.430000000000000000e+02,3.030000000000000000e+02,7.790000000000000000e+02,1.260000000000000000e+02,5.200000000000000000e+01,1.740000000000000000e+02,7.100000000000000000e+01,4.800000000000000000e+01,5.300000000000000266e-01,6.821018400000000000e+09
1.010000000000000000e+02,3.080000000000000000e+02,7.930000000000000000e+02,1.230000000000000000e+02,4.600000000000000000e+01,1.180000000000000000e+02,8.200000000000000000e+01,4.600000000000000000e+01,5.100000000000000089e-01,6.860927500000000000e+09
1.020000000000000000e+02,3.020000000000000000e+02,7.680000000000000000e+02,1.280000000000000000e+02,4.900000000000000000e+01,1.600000000000000000e+02,1.220000000000000000e+02,5.400000000000000000e+01,5.000000000000000000e-01,6.879278100000000000e+09
8.900000000000000000e+01,3.670000000000000000e+02,8.160000000000000000e+02,1.140000000000000000e+02,4.100000000000000000e+01,1.710000000000000000e+02,1.200000000000000000e+02,4.600000000000000000e+01,4.899999999999999911e-01,6.900215600000000000e+09
8.800000000000000000e+01,3.970000000000000000e+02,8.220000000000000000e+02,1.030000000000000000e+02,4.300000000000000000e+01,1.720000000000000000e+02,1.190000000000000000e+02,4.900000000000000000e+01,4.799999999999999822e-01,6.918951300000000000e+09
7.100000000000000000e+01,4.310000000000000000e+02,8.970000000000000000e+02,8.700000000000000000e+01,4.600000000000000000e+01,1.620000000000000000e+02,1.210000000000000000e+02,4.700000000000000000e+01,4.699999999999999734e-01,6.940100700000000000e+09
8.300000000000000000e+01,4.430000000000000000e+02,9.530000000000000000e+02,9.700000000000000000e+01,4.700000000000000000e+01,1.560000000000000000e+02,1.180000000000000000e+02,5.200000000000000000e+01,4.600000000000000200e-01,6.961053200000000000e+09
8.500000000000000000e+01,4.350000000000000000e+02,9.480000000000000000e+02,8.700000000000000000e+01,5.800000000000000000e+01,2.260000000000000000e+02,9.300000000000000000e+01,7.200000000000000000e+01,4.500000000000000111e-01,6.980870500000000000e+09
1.080000000000000000e+02,4.410000000000000000e+02,9.070000000000000000e+02,1.310000000000000000e+02,7.200000000000000000e+01,2.450000000000000000e+02,9.300000000000000000e+01,8.300000000000000000e+01,4.400000000000000022e-01,6.999954200000000000e+09
1.120000000000000000e+02,4.380000000000000000e+02,9.090000000000000000e+02,1.420000000000000000e+02,7.300000000000000000e+01,2.450000000000000000e+02,9.400000000000000000e+01,8.400000000000000000e+01,4.299999999999999933e-01,7.019227900000000000e+09
1.140000000000000000e+02,4.750000000000000000e+02,8.380000000000000000e+02,1.460000000000000000e+02,7.100000000000000000e+01,2.450000000000000000e+02,9.300000000000000000e+01,8.600000000000000000e+01,4.199999999999999845e-01,7.040568600000000000e+09
1.140000000000000000e+02,4.570000000000000000e+02,7.730000000000000000e+02,1.460000000000000000e+02,7.300000000000000000e+01,2.500000000000000000e+02,9.600000000000000000e+01,8.700000000000000000e+01,4.099999999999999756e-01,7.060114900000000000e+09
1.070000000000000000e+02,4.660000000000000000e+02,8.850000000000000000e+02,1.500000000000000000e+02,6.300000000000000000e+01,1.550000000000000000e+02,1.030000000000000000e+02,6.700000000000000000e+01,4.000000000000000222e-01,7.079622300000000000e+09
8.500000000000000000e+01,3.960000000000000000e+02,8.970000000000000000e+02,1.180000000000000000e+02,4.900000000000000000e+01,1.440000000000000000e+02,1.050000000000000000e+02,6.600000000000000000e+01,3.900000000000000133e-01,7.101085100000000000e+09
8.300000000000000000e+01,4.030000000000000000e+02,8.520000000000000000e+02,1.010000000000000000e+02,4.800000000000000000e+01,1.580000000000000000e+02,1.110000000000000000e+02,6.800000000000000000e+01,3.800000000000000044e-01,7.119639900000000000e+09
8.700000000000000000e+01,3.200000000000000000e+02,8.410000000000000000e+02,1.040000000000000000e+02,4.800000000000000000e+01,1.660000000000000000e+02,1.120000000000000000e+02,6.500000000000000000e+01,3.699999999999999956e-01,7.141020200000000000e+09
9.700000000000000000e+01,3.640000000000000000e+02,8.190000000000000000e+02,1.140000000000000000e+02,5.100000000000000000e+01,1.550000000000000000e+02,9.600000000000000000e+01,6.500000000000000000e+01,3.599999999999999867e-01,7.160066000000000000e+09
1.180000000000000000e+02,3.740000000000000000e+02,8.330000000000000000e+02,1.270000000000000000e+02,5.300000000000000000e+01,1.510000000000000000e+02,8.100000000000000000e+01,6.600000000000000000e+01,3.499999999999999778e-01,7.178692400000000000e+09
1.270000000000000000e+02,3.880000000000000000e+02,9.190000000000000000e+02,1.350000000000000000e+02,5.600000000000000000e+01,1.150000000000000000e+02,9.500000000000000000e+01,5.800000000000000000e+01,3.400000000000000244e-01,7.200475800000000000e+09
1.290000000000000000e+02,3.600000000000000000e+02,9.490000000000000000e+02,1.410000000000000000e+02,5.500000000000000000e+01,1.050000000000000000e+02,9.200000000000000000e+01,5.400000000000000000e+01,3.300000000000000155e-01,7.219222600000000000e+09
1.260000000000000000e+02,3.550000000000000000e+02,9.300000000000000000e+02,1.590000000000000000e+02,5.500000000000000000e+01,9.500000000000000000e+01,9.200000000000000000e+01,5.300000000000000000e+01,3.200000000000000067e-01,7.240655200000000000e+09
1.290000000000000000e+02,3.330000000000000000e+02,1.050000000000000000e+03,1.600000000000000000e+02,5.200000000000000000e+01,9.200000000000000000e+01,9.300000000000000000e+01,5.200000000000000000e+01,3.200000000000000067e-01,7.240666100000000000e+09
1.150000000000000000e+02,3.170000000000000000e+02,9.600000000000000000e+02,1.610000000000000000e+02,5.100000000000000000e+01,9.300000000000000000e+01,9.700000000000000000e+01,5.100000000000000000e+01,2.999999999999999889e-01,7.280732600000000000e+09
1.140000000000000000e+02,3.130000000000000000e+02,8.770000000000000000e+02,1.830000000000000000e+02,6.300000000000000000e+01,1.700000000000000000e+02,9.000000000000000000e+01,5.300000000000000000e+01,2.899999999999999800e-01,7.299402600000000000e+09
1.130000000000000000e+02,3.050000000000000000e+02,9.310000000000000000e+02,1.860000000000000000e+02,6.300000000000000000e+01,1.760000000000000000e+02,9.000000000000000000e+01,5.600000000000000000e+01,2.800000000000000266e-01,7.318752000000000000e+09
1.170000000000000000e+02,3.140000000000000000e+02,9.920000000000000000e+02,2.000000000000000000e+02,6.800000000000000000e+01,1.740000000000000000e+02,9.400000000000000000e+01,5.700000000000000000e+01,2.700000000000000178e-01,7.340145300000000000e+09
1.030000000000000000e+02,2.850000000000000000e+02,8.710000000000000000e+02,1.970000000000000000e+02,6.900000000000000000e+01,1.960000000000000000e+02,1.140000000000000000e+02,5.700000000000000000e+01,2.600000000000000089e-01,7.358784600000000000e+09
1.140000000000000000e+02,3.010000000000000000e+02,9.410000000000000000e+02,2.080000000000000000e+02,7.500000000000000000e+01,2.080000000000000000e+02,1.200000000000000000e+02,6.100000000000000000e+01,2.500000000000000000e-01,7.379856800000000000e+09
1.100000000000000000e+02,3.080000000000000000e+02,9.920000000000000000e+02,1.910000000000000000e+02,6.500000000000000000e+01,1.820000000000000000e+02,1.150000000000000000e+02,5.600000000000000000e+01,2.399999999999999911e-01,7.398751700000000000e+09
1.230000000000000000e+02,4.160000000000000000e+02,1.031000000000000000e+03,2.140000000000000000e+02,6.800000000000000000e+01,1.970000000000000000e+02,1.260000000000000000e+02,6.500000000000000000e+01,2.300000000000000100e-01,7.420172800000000000e+09
1.330000000000000000e+02,4.620000000000000000e+02,9.820000000000000000e+02,2.220000000000000000e+02,7.400000000000000000e+01,2.010000000000000000e+02,1.270000000000000000e+02,6.600000000000000000e+01,2.200000000000000011e-01,7.438914200000000000e+09
1.360000000000000000e+02,5.050000000000000000e+02,1.024000000000000000e+03,2.280000000000000000e+02,7.500000000000000000e+01,1.860000000000000000e+02,1.100000000000000000e+02,6.600000000000000000e+01,2.099999999999999922e-01,7.460649700000000000e+09
1.360000000000000000e+02,5.190000000000000000e+02,9.850000000000000000e+02,2.260000000000000000e+02,7.500000000000000000e+01,1.740000000000000000e+02,9.500000000000000000e+01,6.800000000000000000e+01,2.000000000000000111e-01,7.479512400000000000e+09
1.290000000000000000e+02,5.110000000000000000e+02,9.040000000000000000e+02,2.230000000000000000e+02,7.300000000000000000e+01,1.510000000000000000e+02,9.300000000000000000e+01,6.700000000000000000e+01,1.900000000000000022e-01,7.500502000000000000e+09
1.220000000000000000e+02,4.500000000000000000e+02,8.420000000000000000e+02,2.110000000000000000e+02,7.400000000000000000e+01,1.490000000000000000e+02,9.900000000000000000e+01,6.100000000000000000e+01,1.799999999999999933e-01,7.519108600000000000e+09
1.470000000000000000e+02,4.740000000000000000e+02,9.430000000000000000e+02,2.260000000000000000e+02,8.100000000000000000e+01,1.870000000000000000e+02,1.040000000000000000e+02,6.900000000000000000e+01,1.700000000000000122e-01,7.540512400000000000e+09
1.520000000000000000e+02,4.770000000000000000e+02,1.038000000000000000e+03,2.180000000000000000e+02,7.800000000000000000e+01,1.890000000000000000e+02,1.050000000000000000e+02,6.800000000000000000e+01,1.600000000000000033e-01,7.558977200000000000e+09
1.480000000000000000e+02,4.760000000000000000e+02,1.088000000000000000e+03,2.250000000000000000e+02,7.300000000000000000e+01,1.870000000000000000e+02,1.150000000000000000e+02,6.400000000000000000e+01,1.499999999999999944e-01,7.580193900000000000e+09
1.620000000000000000e+02,4.860000000000000000e+02,1.149000000000000000e+03,2.510000000000000000e+02,7.800000000000000000e+01,1.840000000000000000e+02,1.160000000000000000e+02,7.000000000000000000e+01,1.400000000000000133e-01,7.598928800000000000e+09
1.680000000000000000e+02,5.030000000000000000e+02,1.238000000000000000e+03,2.830000000000000000e+02,8.900000000000000000e+01,1.710000000000000000e+02,1.280000000000000000e+02,7.400000000000000000e+01,1.300000000000000044e-01,7.620049800000000000e+09
1.510000000000000000e+02,4.970000000000000000e+02,1.242000000000000000e+03,2.720000000000000000e+02,8.900000000000000000e+01,1.900000000000000000e+02,1.270000000000000000e+02,7.200000000000000000e+01,1.199999999999999956e-01,7.639078500000000000e+09
1.630000000000000000e+02,4.810000000000000000e+02,1.234000000000000000e+03,3.180000000000000000e+02,1.090000000000000000e+02,1.960000000000000000e+02,1.290000000000000000e+02,8.000000000000000000e+01,1.100000000000000006e-01,7.660561600000000000e+09
1.980000000000000000e+02,5.530000000000000000e+02,1.221000000000000000e+03,3.730000000000000000e+02,1.260000000000000000e+02,1.970000000000000000e+02,1.240000000000000000e+02,9.300000000000000000e+01,1.100000000000000006e-01,7.660572800000000000e+09
2.150000000000000000e+02,5.870000000000000000e+02,1.311000000000000000e+03,4.110000000000000000e+02,1.420000000000000000e+02,1.940000000000000000e+02,1.380000000000000000e+02,9.900000000000000000e+01,8.999999999999999667e-02,7.700404300000000000e+09
2.400000000000000000e+02,5.950000000000000000e+02,1.334000000000000000e+03,4.600000000000000000e+02,1.580000000000000000e+02,1.830000000000000000e+02,1.160000000000000000e+02,1.110000000000000000e+02,8.000000000000000167e-02,7.718997200000000000e+09
2.630000000000000000e+02,6.010000000000000000e+02,1.396000000000000000e+03,5.120000000000000000e+02,1.750000000000000000e+02,1.400000000000000000e+02,1.160000000000000000e+02,1.250000000000000000e+02,7.000000000000000666e-02,7.740373100000000000e+09
2.580000000000000000e+02,6.480000000000000000e+02,1.413000000000000000e+03,4.930000000000000000e+02,1.670000000000000000e+02,1.230000000000000000e+02,1.120000000000000000e+02,1.210000000000000000e+02,5.999999999999999778e-02,7.759166700000000000e+09
2.620000000000000000e+02,6.970000000000000000e+02,1.404000000000000000e+03,4.880000000000000000e+02,1.740000000000000000e+02,1.180000000000000000e+02,1.090000000000000000e+02,1.230000000000000000e+02,5.000000000000000278e-02,7.780681400000000000e+09
2.770000000000000000e+02,6.980000000000000000e+02,1.358000000000000000e+03,4.650000000000000000e+02,1.690000000000000000e+02,1.270000000000000000e+02,9.200000000000000000e+01,1.270000000000000000e+02,4.000000000000000083e-02,7.799206800000000000e+09
2.840000000000000000e+02,7.470000000000000000e+02,1.254000000000000000e+03,4.480000000000000000e+02,1.710000000000000000e+02,1.370000000000000000e+02,8.700000000000000000e+01,1.280000000000000000e+02,2.999999999999999889e-02,7.820685100000000000e+09
3.640000000000000000e+02,1.035000000000000000e+03,1.161000000000000000e+03,4.530000000000000000e+02,1.680000000000000000e+02,1.090000000000000000e+02,9.400000000000000000e+01,1.490000000000000000e+02,2.000000000000000042e-02,7.839456600000000000e+09
3.810000000000000000e+02,1.044000000000000000e+03,1.211000000000000000e+03,4.800000000000000000e+02,1.730000000000000000e+02,1.130000000000000000e+02,9.700000000000000000e+01,1.530000000000000000e+02,1.000000000000000021e-02,7.860344700000000000e+09
3.710000000000000000e+02,9.880000000000000000e+02,1.317000000000000000e+03,5.660000000000000000e+02,1.790000000000000000e+02,1.230000000000000000e+02,9.800000000000000000e+01,1.540000000000000000e+02,0.000000000000000000e+00,7.878798800000000000e+09
3.750000000000000000e+02,1.079000000000000000e+03,1.304000000000000000e+03,6.290000000000000000e+02,1.930000000000000000e+02,1.400000000000000000e+02,1.250000000000000000e+02,1.640000000000000000e+02,1.000000000000000021e-02,7.899859600000000000e+09
3.560000000000000000e+02,1.089000000000000000e+03,1.332000000000000000e+03,6.290000000000000000e+02,1.860000000000000000e+02,1.400000000000000000e+02,1.220000000000000000e+02,1.520000000000000000e+02,2.000000000000000042e-02,7.921078100000000000e+09
2.710000000000000000e+02,7.980000000000000000e+02,1.320000000000000000e+03,6.720000000000000000e+02,2.060000000000000000e+02,1.500000000000000000e+02,1.180000000000000000e+02,1.240000000000000000e+02,2.999999999999999889e-02,7.939332800000000000e+09
2.600000000000000000e+02,7.610000000000000000e+02,1.213000000000000000e+03,6.830000000000000000e+02,2.170000000000000000e+02,1.480000000000000000e+02,1.210000000000000000e+02,1.360000000000000000e+02,4.000000000000000083e-02,7.960518100000000000e+09
2.560000000000000000e+02,8.190000000000000000e+02,1.066000000000000000e+03,5.890000000000000000e+02,2.020000000000000000e+02,1.510000000000000000e+02,1.210000000000000000e+02,1.330000000000000000e+02,5.000000000000000278e-02,7.979044400000000000e+09
2.310000000000000000e+02,6.910000000000000000e+02,9.920000000000000000e+02,5.160000000000000000e+02,1.930000000000000000e+02,2.130000000000000000e+02,1.190000000000000000e+02,1.170000000000000000e+02,5.999999999999999778e-02,7.999922800000000000e+09
2.410000000000000000e+02,6.160000000000000000e+02,9.800000000000000000e+02,4.990000000000000000e+02,1.980000000000000000e+02,2.640000000000000000e+02,1.210000000000000000e+02,1.570000000000000000e+02,7.000000000000000666e-02,8.018626900000000000e+09
2.260000000000000000e+02,6.110000000000000000e+02,9.170000000000000000e+02,3.750000000000000000e+02,1.620000000000000000e+02,2.920000000000000000e+02,1.270000000000000000e+02,1.880000000000000000e+02,8.000000000000000167e-02,8.039517200000000000e+09
2.240000000000000000e+02,6.050000000000000000e+02,9.470000000000000000e+02,3.940000000000000000e+02,1.570000000000000000e+02,3.160000000000000000e+02,1.400000000000000000e+02,2.320000000000000000e+02,8.999999999999999667e-02,8.060941100000000000e+09
2.090000000000000000e+02,5.430000000000000000e+02,9.090000000000000000e+02,3.830000000000000000e+02,1.560000000000000000e+02,3.700000000000000000e+02,1.500000000000000000e+02,4.050000000000000000e+02,1.000000000000000056e-01,8.079519500000000000e+09
1.940000000000000000e+02,5.150000000000000000e+02,1.005000000000000000e+03,3.760000000000000000e+02,1.420000000000000000e+02,4.670000000000000000e+02,2.860000000000000000e+02,6.140000000000000000e+02,1.100000000000000006e-01,8.101233800000000000e+09
1.770000000000000000e+02,4.800000000000000000e+02,8.780000000000000000e+02,3.300000000000000000e+02,1.170000000000000000e+02,4.950000000000000000e+02,3.710000000000000000e+02,7.360000000000000000e+02,1.199999999999999956e-01,8.119404100000000000e+09
1.720000000000000000e+02,4.660000000000000000e+02,8.370000000000000000e+02,3.110000000000000000e+02,1.120000000000000000e+02,6.590000000000000000e+02,4.220000000000000000e+02,7.950000000000000000e+02,1.300000000000000044e-01,8.140969000000000000e+09
1.650000000000000000e+02,4.500000000000000000e+02,7.190000000000000000e+02,2.000000000000000000e+02,1.080000000000000000e+02,7.210000000000000000e+02,4.550000000000000000e+02,8.670000000000000000e+02,1.400000000000000133e-01,8.159629300000000000e+09
1.660000000000000000e+02,3.640000000000000000e+02,7.770000000000000000e+02,2.040000000000000000e+02,1.080000000000000000e+02,7.030000000000000000e+02,4.720000000000000000e+02,8.790000000000000000e+02,1.499999999999999944e-01,8.180568100000000000e+09
1.960000000000000000e+02,4.680000000000000000e+02,5.840000000000000000e+02,2.040000000000000000e+02,1.220000000000000000e+02,6.620000000000000000e+02,5.210000000000000000e+02,8.110000000000000000e+02,1.600000000000000033e-01,8.199520700000000000e+09
1.960000000000000000e+02,5.070000000000000000e+02,6.900000000000000000e+02,2.160000000000000000e+02,1.200000000000000000e+02,6.570000000000000000e+02,5.730000000000000000e+02,8.200000000000000000e+02,1.700000000000000122e-01,8.220530200000000000e+09
1.850000000000000000e+02,4.830000000000000000e+02,7.040000000000000000e+02,2.070000000000000000e+02,1.130000000000000000e+02,5.250000000000000000e+02,5.840000000000000000e+02,8.490000000000000000e+02,1.799999999999999933e-01,8.239039900000000000e+09
1.760000000000000000e+02,4.990000000000000000e+02,7.110000000000000000e+02,1.880000000000000000e+02,9.400000000000000000e+01,5.410000000000000000e+02,5.850000000000000000e+02,7.780000000000000000e+02,1.900000000000000022e-01,8.260463500000000000e+09
1.720000000000000000e+02,5.160000000000000000e+02,6.630000000000000000e+02,1.670000000000000000e+02,8.800000000000000000e+01,6.220000000000000000e+02,5.850000000000000000e+02,7.910000000000000000e+02,2.000000000000000111e-01,8.279391500000000000e+09
1.440000000000000000e+02,4.390000000000000000e+02,6.190000000000000000e+02,1.470000000000000000e+02,7.200000000000000000e+01,6.880000000000000000e+02,5.020000000000000000e+02,9.140000000000000000e+02,2.099999999999999922e-01,8.300541600000000000e+09
1.990000000000000000e+02,4.480000000000000000e+02,5.760000000000000000e+02,1.450000000000000000e+02,8.000000000000000000e+01,6.950000000000000000e+02,3.940000000000000000e+02,8.910000000000000000e+02,2.200000000000000011e-01,8.319415600000000000e+09
2.000000000000000000e+02,4.830000000000000000e+02,5.670000000000000000e+02,1.480000000000000000e+02,8.700000000000000000e+01,7.040000000000000000e+02,3.310000000000000000e+02,8.340000000000000000e+02,2.300000000000000100e-01,8.340308600000000000e+09
2.020000000000000000e+02,4.480000000000000000e+02,5.040000000000000000e+02,1.430000000000000000e+02,8.400000000000000000e+01,6.320000000000000000e+02,3.170000000000000000e+02,9.100000000000000000e+02,2.399999999999999911e-01,8.358687300000000000e+09
2.250000000000000000e+02,4.360000000000000000e+02,5.030000000000000000e+02,1.530000000000000000e+02,8.400000000000000000e+01,5.610000000000000000e+02,3.700000000000000000e+02,8.510000000000000000e+02,2.500000000000000000e-01,8.379884900000000000e+09
2.290000000000000000e+02,4.250000000000000000e+02,5.400000000000000000e+02,1.430000000000000000e+02,8.900000000000000000e+01,5.150000000000000000e+02,4.040000000000000000e+02,7.400000000000000000e+02,2.600000000000000089e-01,8.398717300000000000e+09
1.840000000000000000e+02,4.190000000000000000e+02,5.680000000000000000e+02,1.420000000000000000e+02,8.200000000000000000e+01,5.190000000000000000e+02,3.970000000000000000e+02,7.360000000000000000e+02,2.700000000000000178e-01,8.420297300000000000e+09
2.250000000000000000e+02,4.050000000000000000e+02,5.810000000000000000e+02,1.420000000000000000e+02,7.800000000000000000e+01,5.200000000000000000e+02,4.300000000000000000e+02,7.580000000000000000e+02,2.800000000000000266e-01,8.439153100000000000e+09
2.280000000000000000e+02,3.890000000000000000e+02,6.030000000000000000e+02,1.370000000000000000e+02,8.300000000000000000e+01,5.720000000000000000e+02,5.290000000000000000e+02,8.340000000000000000e+02,2.899999999999999800e-01,8.460315700000000000e+09
2.200000000000000000e+02,4.000000000000000000e+02,7.520000000000000000e+02,1.330000000000000000e+02,8.200000000000000000e+01,5.790000000000000000e+02,5.760000000000000000e+02,8.710000000000000000e+02,2.999999999999999889e-01,8.479311200000000000e+09
2.120000000000000000e+02,3.880000000000000000e+02,7.440000000000000000e+02,1.200000000000000000e+02,6.400000000000000000e+01,4.960000000000000000e+02,5.520000000000000000e+02,8.870000000000000000e+02,3.099999999999999978e-01,8.500333600000000000e+09
2.070000000000000000e+02,3.340000000000000000e+02,6.540000000000000000e+02,8.700000000000000000e+01,6.500000000000000000e+01,4.820000000000000000e+02,6.250000000000000000e+02,8.770000000000000000e+02,3.200000000000000067e-01,8.518812100000000000e+09
1.640000000000000000e+02,3.040000000000000000e+02,6.280000000000000000e+02,7.600000000000000000e+01,6.000000000000000000e+01,4.390000000000000000e+02,6.610000000000000000e+02,8.780000000000000000e+02,3.300000000000000155e-01,8.539818400000000000e+09
1.560000000000000000e+02,3.400000000000000000e+02,6.060000000000000000e+02,8.500000000000000000e+01,6.600000000000000000e+01,4.320000000000000000e+02,6.800000000000000000e+02,7.830000000000000000e+02,3.400000000000000244e-01,8.560642200000000000e+09
1.500000000000000000e+02,3.800000000000000000e+02,4.380000000000000000e+02,9.200000000000000000e+01,6.300000000000000000e+01,4.200000000000000000e+02,6.460000000000000000e+02,8.260000000000000000e+02,3.499999999999999778e-01,8.579366000000000000e+09
1.430000000000000000e+02,3.810000000000000000e+02,6.050000000000000000e+02,1.090000000000000000e+02,6.800000000000000000e+01,4.260000000000000000e+02,6.380000000000000000e+02,7.390000000000000000e+02,3.599999999999999867e-01,8.601182300000000000e+09
1.790000000000000000e+02,4.030000000000000000e+02,6.270000000000000000e+02,1.100000000000000000e+02,6.400000000000000000e+01,3.710000000000000000e+02,5.720000000000000000e+02,6.780000000000000000e+02,3.699999999999999956e-01,8.619515900000000000e+09
1.890000000000000000e+02,4.640000000000000000e+02,6.210000000000000000e+02,1.120000000000000000e+02,6.200000000000000000e+01,3.410000000000000000e+02,5.370000000000000000e+02,7.530000000000000000e+02,3.800000000000000044e-01,8.641047200000000000e+09
1.970000000000000000e+02,4.310000000000000000e+02,6.470000000000000000e+02,1.160000000000000000e+02,5.300000000000000000e+01,2.180000000000000000e+02,4.280000000000000000e+02,7.630000000000000000e+02,3.900000000000000133e-01,8.659416900000000000e+09
2.040000000000000000e+02,4.350000000000000000e+02,6.180000000000000000e+02,1.040000000000000000e+02,5.500000000000000000e+01,2.040000000000000000e+02,5.940000000000000000e+02,6.640000000000000000e+02,4.000000000000000222e-01,8.680336000000000000e+09
2.020000000000000000e+02,4.520000000000000000e+02,4.660000000000000000e+02,1.060000000000000000e+02,6.100000000000000000e+01,2.300000000000000000e+02,6.730000000000000000e+02,7.200000000000000000e+02,4.099999999999999756e-01,8.698793200000000000e+09
1.690000000000000000e+02,4.350000000000000000e+02,4.290000000000000000e+02,1.070000000000000000e+02,6.200000000000000000e+01,2.360000000000000000e+02,6.770000000000000000e+02,7.410000000000000000e+02,4.199999999999999845e-01,8.719846800000000000e+09
1.510000000000000000e+02,3.750000000000000000e+02,4.290000000000000000e+02,1.110000000000000000e+02,6.300000000000000000e+01,2.520000000000000000e+02,7.280000000000000000e+02,6.420000000000000000e+02,4.299999999999999933e-01,8.740719100000000000e+09
1.460000000000000000e+02,3.790000000000000000e+02,4.290000000000000000e+02,1.000000000000000000e+02,5.600000000000000000e+01,2.560000000000000000e+02,7.920000000000000000e+02,5.770000000000000000e+02,4.400000000000000022e-01,8.759455000000000000e+09
1.180000000000000000e+02,3.530000000000000000e+02,4.550000000000000000e+02,8.700000000000000000e+01,5.000000000000000000e+01,2.290000000000000000e+02,6.540000000000000000e+02,5.830000000000000000e+02,4.500000000000000111e-01,8.780524900000000000e+09
1.140000000000000000e+02,3.510000000000000000e+02,4.510000000000000000e+02,6.600000000000000000e+01,4.100000000000000000e+01,1.980000000000000000e+02,6.820000000000000000e+02,5.360000000000000000e+02,4.600000000000000200e-01,8.799108100000000000e+09
1.130000000000000000e+02,3.610000000000000000e+02,4.670000000000000000e+02,6.400000000000000000e+01,4.200000000000000000e+01,1.890000000000000000e+02,7.260000000000000000e+02,5.170000000000000000e+02,4.699999999999999734e-01,8.820438800000000000e+09
1.220000000000000000e+02,4.080000000000000000e+02,4.640000000000000000e+02,5.100000000000000000e+01,4.100000000000000000e+01,1.620000000000000000e+02,7.030000000000000000e+02,5.610000000000000000e+02,4.799999999999999822e-01,8.838979200000000000e+09
1.030000000000000000e+02,4.010000000000000000e+02,4.040000000000000000e+02,5.200000000000000000e+01,4.400000000000000000e+01,2.020000000000000000e+02,7.240000000000000000e+02,5.590000000000000000e+02,4.899999999999999911e-01,8.860438800000000000e+09
1.020000000000000000e+02,3.650000000000000000e+02,3.610000000000000000e+02,5.900000000000000000e+01,4.700000000000000000e+01,2.020000000000000000e+02,7.260000000000000000e+02,5.560000000000000000e+02,5.000000000000000000e-01,8.878903200000000000e+09
1.020000000000000000e+02,3.460000000000000000e+02,3.170000000000000000e+02,5.600000000000000000e+01,4.300000000000000000e+01,1.870000000000000000e+02,6.480000000000000000e+02,5.280000000000000000e+02,5.100000000000000089e-01,8.899800300000000000e+09
1.010000000000000000e+02,3.680000000000000000e+02,3.250000000000000000e+02,5.800000000000000000e+01,4.500000000000000000e+01,1.940000000000000000e+02,6.910000000000000000e+02,5.600000000000000000e+02,5.200000000000000178e-01,8.921244000000000000e+09
9.200000000000000000e+01,3.270000000000000000e+02,4.060000000000000000e+02,6.200000000000000000e+01,4.500000000000000000e+01,1.990000000000000000e+02,7.210000000000000000e+02,6.710000000000000000e+02,5.300000000000000266e-01,8.939237900000000000e+09
8.900000000000000000e+01,3.350000000000000000e+02,3.990000000000000000e+02,5.800000000000000000e+01,4.300000000000000000e+01,2.320000000000000000e+02,7.960000000000000000e+02,7.280000000000000000e+02,5.400000000000000355e-01,8.960202600000000000e+09
8.600000000000000000e+01,3.760000000000000000e+02,3.560000000000000000e+02,4.900000000000000000e+01,4.500000000000000000e+01,2.510000000000000000e+02,8.710000000000000000e+02,7.870000000000000000e+02,5.500000000000000444e-01,8.979111300000000000e+09
1.450000000000000000e+02,3.660000000000000000e+02,4.340000000000000000e+02,7.400000000000000000e+01,5.100000000000000000e+01,2.570000000000000000e+02,8.820000000000000000e+02,8.510000000000000000e+02,5.600000000000000533e-01,9.000217300000000000e+09
1.590000000000000000e+02,3.520000000000000000e+02,4.400000000000000000e+02,7.600000000000000000e+01,5.200000000000000000e+01,2.610000000000000000e+02,9.070000000000000000e+02,8.790000000000000000e+02,5.699999999999999512e-01,9.018988800000000000e+09
1.640000000000000000e+02,3.490000000000000000e+02,3.750000000000000000e+02,7.400000000000000000e+01,5.100000000000000000e+01,2.730000000000000000e+02,9.080000000000000000e+02,8.010000000000000000e+02,5.799999999999999600e-01,9.040573700000000000e+09
1.910000000000000000e+02,3.850000000000000000e+02,4.030000000000000000e+02,7.700000000000000000e+01,5.400000000000000000e+01,2.490000000000000000e+02,7.680000000000000000e+02,7.840000000000000000e+02,5.899999999999999689e-01,9.059282600000000000e+09
1.980000000000000000e+02,3.670000000000000000e+02,4.380000000000000000e+02,7.800000000000000000e+01,5.700000000000000000e+01,2.450000000000000000e+02,7.970000000000000000e+02,8.260000000000000000e+02,5.999999999999999778e-01,9.080578000000000000e+09
1.820000000000000000e+02,3.560000000000000000e+02,4.200000000000000000e+02,6.500000000000000000e+01,5.400000000000000000e+01,2.840000000000000000e+02,8.380000000000000000e+02,8.430000000000000000e+02,6.099999999999999867e-01,9.099720500000000000e+09
1.720000000000000000e+02,3.610000000000000000e+02,4.030000000000000000e+02,6.000000000000000000e+01,5.200000000000000000e+01,3.110000000000000000e+02,7.550000000000000000e+02,9.000000000000000000e+02,6.199999999999999956e-01,9.121250400000000000e+09
1.630000000000000000e+02,3.530000000000000000e+02,3.940000000000000000e+02,6.000000000000000000e+01,5.200000000000000000e+01,3.000000000000000000e+02,6.870000000000000000e+02,8.530000000000000000e+02,6.300000000000000044e-01,9.139748200000000000e+09
1.390000000000000000e+02,3.160000000000000000e+02,3.660000000000000000e+02,5.700000000000000000e+01,4.800000000000000000e+01,2.700000000000000000e+02,7.040000000000000000e+02,8.540000000000000000e+02,6.400000000000000133e-01,9.160512400000000000e+09
1.450000000000000000e+02,3.190000000000000000e+02,3.270000000000000000e+02,5.300000000000000000e+01,4.200000000000000000e+01,2.610000000000000000e+02,6.710000000000000000e+02,7.810000000000000000e+02,6.500000000000000222e-01,9.179321500000000000e+09
1.410000000000000000e+02,3.530000000000000000e+02,3.460000000000000000e+02,4.900000000000000000e+01,5.000000000000000000e+01,3.110000000000000000e+02,7.220000000000000000e+02,7.130000000000000000e+02,6.600000000000000311e-01,9.200665600000000000e+09
1.910000000000000000e+02,3.440000000000000000e+02,3.940000000000000000e+02,6.300000000000000000e+01,5.300000000000000000e+01,2.960000000000000000e+02,7.720000000000000000e+02,6.440000000000000000e+02,6.700000000000000400e-01,9.219012800000000000e+09
2.000000000000000000e+02,3.620000000000000000e+02,4.760000000000000000e+02,6.500000000000000000e+01,5.400000000000000000e+01,3.120000000000000000e+02,8.050000000000000000e+02,7.460000000000000000e+02,6.800000000000000488e-01,9.240160100000000000e+09
2.080000000000000000e+02,3.650000000000000000e+02,4.790000000000000000e+02,6.500000000000000000e+01,5.500000000000000000e+01,3.320000000000000000e+02,8.850000000000000000e+02,7.870000000000000000e+02,6.899999999999999467e-01,9.259092900000000000e+09
2.190000000000000000e+02,3.970000000000000000e+02,4.800000000000000000e+02,6.900000000000000000e+01,6.400000000000000000e+01,4.520000000000000000e+02,8.890000000000000000e+02,8.340000000000000000e+02,6.999999999999999556e-01,9.281154000000000000e+09
2.090000000000000000e+02,3.700000000000000000e+02,4.060000000000000000e+02,6.500000000000000000e+01,6.600000000000000000e+01,4.970000000000000000e+02,8.570000000000000000e+02,8.540000000000000000e+02,7.099999999999999645e-01,9.299851900000000000e+09
1.890000000000000000e+02,4.300000000000000000e+02,4.140000000000000000e+02,7.300000000000000000e+01,6.700000000000000000e+01,4.980000000000000000e+02,8.410000000000000000e+02,8.660000000000000000e+02,7.199999999999999734e-01,9.320861700000000000e+09
1.890000000000000000e+02,4.460000000000000000e+02,3.930000000000000000e+02,7.200000000000000000e+01,6.900000000000000000e+01,5.290000000000000000e+02,8.900000000000000000e+02,9.150000000000000000e+02,7.299999999999999822e-01,9.339602000000000000e+09
1.820000000000000000e+02,4.360000000000000000e+02,4.000000000000000000e+02,7.200000000000000000e+01,7.000000000000000000e+01,5.290000000000000000e+02,8.290000000000000000e+02,8.570000000000000000e+02,7.399999999999999911e-01,9.360891300000000000e+09
1.850000000000000000e+02,4.240000000000000000e+02,4.090000000000000000e+02,7.100000000000000000e+01,6.200000000000000000e+01,5.650000000000000000e+02,7.610000000000000000e+02,8.630000000000000000e+02,7.500000000000000000e-01,9.379363300000000000e+09
1.910000000000000000e+02,4.630000000000000000e+02,4.170000000000000000e+02,7.400000000000000000e+01,5.900000000000000000e+01,4.970000000000000000e+02,7.770000000000000000e+02,8.630000000000000000e+02,7.600000000000000089e-01,9.399426000000000000e+09
1.680000000000000000e+02,4.040000000000000000e+02,4.380000000000000000e+02,5.800000000000000000e+01,5.900000000000000000e+01,5.430000000000000000e+02,8.780000000000000000e+02,8.460000000000000000e+02,7.700000000000000178e-01,9.419419400000000000e+09
1.660000000000000000e+02,4.170000000000000000e+02,3.810000000000000000e+02,6.100000000000000000e+01,6.000000000000000000e+01,5.520000000000000000e+02,8.700000000000000000e+02,8.000000000000000000e+02,7.800000000000000266e-01,9.441005400000000000e+09
1.610000000000000000e+02,4.480000000000000000e+02,3.970000000000000000e+02,6.400000000000000000e+01,6.900000000000000000e+01,5.570000000000000000e+02,8.570000000000000000e+02,8.450000000000000000e+02,7.900000000000000355e-01,9.459757500000000000e+09
1.250000000000000000e+02,4.320000000000000000e+02,3.780000000000000000e+02,6.100000000000000000e+01,7.600000000000000000e+01,5.380000000000000000e+02,9.050000000000000000e+02,9.750000000000000000e+02,8.000000000000000444e-01,9.479193000000000000e+09
1.270000000000000000e+02,4.500000000000000000e+02,3.550000000000000000e+02,5.300000000000000000e+01,7.300000000000000000e+01,5.690000000000000000e+02,8.520000000000000000e+02,1.021000000000000000e+03,8.100000000000000533e-01,9.500377000000000000e+09
1.510000000000000000e+02,4.550000000000000000e+02,3.520000000000000000e+02,5.400000000000000000e+01,7.400000000000000000e+01,5.390000000000000000e+02,7.370000000000000000e+02,1.034000000000000000e+03,8.199999999999999512e-01,9.518701200000000000e+09
1.590000000000000000e+02,4.480000000000000000e+02,3.680000000000000000e+02,5.200000000000000000e+01,7.300000000000000000e+01,5.620000000000000000e+02,7.880000000000000000e+02,1.013000000000000000e+03,8.299999999999999600e-01,9.540024500000000000e+09
1.820000000000000000e+02,4.540000000000000000e+02,3.590000000000000000e+02,5.100000000000000000e+01,6.800000000000000000e+01,6.450000000000000000e+02,7.970000000000000000e+02,1.047000000000000000e+03,8.399999999999999689e-01,9.558783000000000000e+09
2.420000000000000000e+02,4.680000000000000000e+02,3.910000000000000000e+02,5.900000000000000000e+01,7.300000000000000000e+01,7.340000000000000000e+02,7.940000000000000000e+02,9.290000000000000000e+02,8.499999999999999778e-01,9.580432400000000000e+09
