6.400000000000000000e+01,2.280000000000000000e+02,6.510000000000000000e+02,6.300000000000000000e+01,3.100000000000000000e+01,1.280000000000000000e+02,6.000000000000000000e+01,2.260000000000000000e+02,2.999999999999999889e-02,1.795920000000000000e+07
6.500000000000000000e+01,2.620000000000000000e+02,6.420000000000000000e+02,6.700000000000000000e+01,3.000000000000000000e+01,1.240000000000000000e+02,5.700000000000000000e+01,2.040000000000000000e+02,4.000000000000000083e-02,3.238557000000000000e+08
6.300000000000000000e+01,2.560000000000000000e+02,6.210000000000000000e+02,6.700000000000000000e+01,3.200000000000000000e+01,1.460000000000000000e+02,6.100000000000000000e+01,2.220000000000000000e+02,4.000000000000000083e-02,3.238669000000000000e+08
5.600000000000000000e+01,2.170000000000000000e+02,7.380000000000000000e+02,5.800000000000000000e+01,3.300000000000000000e+01,1.460000000000000000e+02,5.800000000000000000e+01,2.730000000000000000e+02,4.000000000000000083e-02,3.238756000000000000e+08
6.000000000000000000e+01,2.500000000000000000e+02,7.950000000000000000e+02,6.400000000000000000e+01,3.300000000000000000e+01,1.460000000000000000e+02,5.900000000000000000e+01,2.420000000000000000e+02,4.000000000000000083e-02,3.238830000000000000e+08
6.800000000000000000e+01,2.630000000000000000e+02,7.460000000000000000e+02,7.600000000000000000e+01,3.800000000000000000e+01,1.480000000000000000e+02,5.900000000000000000e+01,2.420000000000000000e+02,4.000000000000000083e-02,3.238909000000000000e+08
6.300000000000000000e+01,2.390000000000000000e+02,7.860000000000000000e+02,7.600000000000000000e+01,4.100000000000000000e+01,1.470000000000000000e+02,5.500000000000000000e+01,2.440000000000000000e+02,4.000000000000000083e-02,3.238984000000000000e+08
5.600000000000000000e+01,2.290000000000000000e+02,8.150000000000000000e+02,7.600000000000000000e+01,3.800000000000000000e+01,1.360000000000000000e+02,5.200000000000000000e+01,2.260000000000000000e+02,4.000000000000000083e-02,3.239056000000000000e+08
5.900000000000000000e+01,2.450000000000000000e+02,6.930000000000000000e+02,7.700000000000000000e+01,3.900000000000000000e+01,1.280000000000000000e+02,5.500000000000000000e+01,1.500000000000000000e+02,4.000000000000000083e-02,3.239152000000000000e+08
5.900000000000000000e+01,2.510000000000000000e+02,5.990000000000000000e+02,6.900000000000000000e+01,3.700000000000000000e+01,1.250000000000000000e+02,6.600000000000000000e+01,1.690000000000000000e+02,4.000000000000000083e-02,3.239228000000000000e+08
5.700000000000000000e+01,2.510000000000000000e+02,5.910000000000000000e+02,5.700000000000000000e+01,3.100000000000000000e+01,1.210000000000000000e+02,6.500000000000000000e+01,1.870000000000000000e+02,4.000000000000000083e-02,3.239340000000000000e+08
5.900000000000000000e+01,2.820000000000000000e+02,6.120000000000000000e+02,6.700000000000000000e+01,2.900000000000000000e+01,1.090000000000000000e+02,6.600000000000000000e+01,1.670000000000000000e+02,4.000000000000000083e-02,3.239409000000000000e+08
6.400000000000000000e+01,2.910000000000000000e+02,5.850000000000000000e+02,7.200000000000000000e+01,3.100000000000000000e+01,7.800000000000000000e+01,6.700000000000000000e+01,1.670000000000000000e+02,4.000000000000000083e-02,3.239482000000000000e+08
6.500000000000000000e+01,2.800000000000000000e+02,6.510000000000000000e+02,8.500000000000000000e+01,3.600000000000000000e+01,7.200000000000000000e+01,6.600000000000000000e+01,1.630000000000000000e+02,4.000000000000000083e-02,3.239555000000000000e+08
7.900000000000000000e+01,2.920000000000000000e+02,6.420000000000000000e+02,1.000000000000000000e+02,4.100000000000000000e+01,6.900000000000000000e+01,5.700000000000000000e+01,1.610000000000000000e+02,4.000000000000000083e-02,3.239625000000000000e+08
7.900000000000000000e+01,3.050000000000000000e+02,7.580000000000000000e+02,1.060000000000000000e+02,4.700000000000000000e+01,8.300000000000000000e+01,6.600000000000000000e+01,2.210000000000000000e+02,4.000000000000000083e-02,3.239701000000000000e+08
8.700000000000000000e+01,3.130000000000000000e+02,9.020000000000000000e+02,1.270000000000000000e+02,6.200000000000000000e+01,1.260000000000000000e+02,7.600000000000000000e+01,2.320000000000000000e+02,1.900000000000000022e-01,3.443268000000000000e+08
8.800000000000000000e+01,3.230000000000000000e+02,1.027000000000000000e+03,1.290000000000000000e+02,6.000000000000000000e+01,1.270000000000000000e+02,8.000000000000000000e+01,2.530000000000000000e+02,2.099999999999999922e-01,3.808520000000000000e+08
9.400000000000000000e+01,3.650000000000000000e+02,1.023000000000000000e+03,1.300000000000000000e+02,5.900000000000000000e+01,1.520000000000000000e+02,9.300000000000000000e+01,3.000000000000000000e+02,2.099999999999999922e-01,3.808637000000000000e+08
8.100000000000000000e+01,3.340000000000000000e+02,1.078000000000000000e+03,1.230000000000000000e+02,5.700000000000000000e+01,2.020000000000000000e+02,9.900000000000000000e+01,2.960000000000000000e+02,2.200000000000000011e-01,4.004708000000000000e+08
7.800000000000000000e+01,3.420000000000000000e+02,1.052000000000000000e+03,1.180000000000000000e+02,5.700000000000000000e+01,2.270000000000000000e+02,1.270000000000000000e+02,2.600000000000000000e+02,2.399999999999999911e-01,4.409864000000000000e+08
8.200000000000000000e+01,3.220000000000000000e+02,9.850000000000000000e+02,9.800000000000000000e+01,4.400000000000000000e+01,2.120000000000000000e+02,1.360000000000000000e+02,2.890000000000000000e+02,2.399999999999999911e-01,4.409996000000000000e+08
7.700000000000000000e+01,3.090000000000000000e+02,8.770000000000000000e+02,9.200000000000000000e+01,4.700000000000000000e+01,2.490000000000000000e+02,1.510000000000000000e+02,3.100000000000000000e+02,2.500000000000000000e-01,4.626773000000000000e+08
7.100000000000000000e+01,3.040000000000000000e+02,8.250000000000000000e+02,8.000000000000000000e+01,5.300000000000000000e+01,3.700000000000000000e+02,3.440000000000000000e+02,4.290000000000000000e+02,2.700000000000000178e-01,4.989237000000000000e+08
8.500000000000000000e+01,3.300000000000000000e+02,8.250000000000000000e+02,1.060000000000000000e+02,5.500000000000000000e+01,3.730000000000000000e+02,3.590000000000000000e+02,4.290000000000000000e+02,2.700000000000000178e-01,4.989369000000000000e+08
9.400000000000000000e+01,3.370000000000000000e+02,8.030000000000000000e+02,1.230000000000000000e+02,5.500000000000000000e+01,3.830000000000000000e+02,3.690000000000000000e+02,4.500000000000000000e+02,2.899999999999999800e-01,5.403293000000000000e+08
9.200000000000000000e+01,3.610000000000000000e+02,6.990000000000000000e+02,1.380000000000000000e+02,5.800000000000000000e+01,4.010000000000000000e+02,4.160000000000000000e+02,5.760000000000000000e+02,2.999999999999999889e-01,5.594415000000000000e+08
9.900000000000000000e+01,3.720000000000000000e+02,6.460000000000000000e+02,1.460000000000000000e+02,6.400000000000000000e+01,4.830000000000000000e+02,6.440000000000000000e+02,7.000000000000000000e+02,2.999999999999999889e-01,5.594528000000000000e+08
1.620000000000000000e+02,3.970000000000000000e+02,6.340000000000000000e+02,1.530000000000000000e+02,7.800000000000000000e+01,5.830000000000000000e+02,8.360000000000000000e+02,8.870000000000000000e+02,3.099999999999999978e-01,5.801658000000000000e+08
1.620000000000000000e+02,4.020000000000000000e+02,4.750000000000000000e+02,1.340000000000000000e+02,9.200000000000000000e+01,7.410000000000000000e+02,1.157000000000000000e+03,9.520000000000000000e+02,3.300000000000000155e-01,6.195721000000000000e+08
1.760000000000000000e+02,4.150000000000000000e+02,4.130000000000000000e+02,1.240000000000000000e+02,1.050000000000000000e+02,8.080000000000000000e+02,1.261000000000000000e+03,9.930000000000000000e+02,3.300000000000000155e-01,6.195842000000000000e+08
2.000000000000000000e+02,4.540000000000000000e+02,5.030000000000000000e+02,1.290000000000000000e+02,1.140000000000000000e+02,8.170000000000000000e+02,1.320000000000000000e+03,9.560000000000000000e+02,3.499999999999999778e-01,6.607670000000000000e+08
2.070000000000000000e+02,4.760000000000000000e+02,6.530000000000000000e+02,1.450000000000000000e+02,1.350000000000000000e+02,8.810000000000000000e+02,1.326000000000000000e+03,9.770000000000000000e+02,3.599999999999999867e-01,6.798296000000000000e+08
1.770000000000000000e+02,4.600000000000000000e+02,6.980000000000000000e+02,1.470000000000000000e+02,1.410000000000000000e+02,8.800000000000000000e+02,1.423000000000000000e+03,8.560000000000000000e+02,3.599999999999999867e-01,6.798454000000000000e+08
1.850000000000000000e+02,4.260000000000000000e+02,7.000000000000000000e+02,1.460000000000000000e+02,1.510000000000000000e+02,8.750000000000000000e+02,1.296000000000000000e+03,8.580000000000000000e+02,3.699999999999999956e-01,7.005421000000000000e+08
1.940000000000000000e+02,4.370000000000000000e+02,7.500000000000000000e+02,1.510000000000000000e+02,1.460000000000000000e+02,8.760000000000000000e+02,1.235000000000000000e+03,8.550000000000000000e+02,3.900000000000000133e-01,7.386097000000000000e+08
1.950000000000000000e+02,4.470000000000000000e+02,6.970000000000000000e+02,1.440000000000000000e+02,1.570000000000000000e+02,1.012000000000000000e+03,1.197000000000000000e+03,8.960000000000000000e+02,3.900000000000000133e-01,7.386224000000000000e+08
2.070000000000000000e+02,4.930000000000000000e+02,5.520000000000000000e+02,1.250000000000000000e+02,1.430000000000000000e+02,9.670000000000000000e+02,1.206000000000000000e+03,9.460000000000000000e+02,4.000000000000000222e-01,7.601563000000000000e+08
2.610000000000000000e+02,5.180000000000000000e+02,4.890000000000000000e+02,1.230000000000000000e+02,1.740000000000000000e+02,1.040000000000000000e+03,9.820000000000000000e+02,9.170000000000000000e+02,4.199999999999999845e-01,7.997549000000000000e+08
2.710000000000000000e+02,5.300000000000000000e+02,5.100000000000000000e+02,1.280000000000000000e+02,1.700000000000000000e+02,1.033000000000000000e+03,9.610000000000000000e+02,9.420000000000000000e+02,4.199999999999999845e-01,7.997657000000000000e+08
2.790000000000000000e+02,5.560000000000000000e+02,5.100000000000000000e+02,1.340000000000000000e+02,1.850000000000000000e+02,1.119000000000000000e+03,1.049000000000000000e+03,1.000000000000000000e+03,4.400000000000000022e-01,8.398165000000000000e+08
2.650000000000000000e+02,4.960000000000000000e+02,5.270000000000000000e+02,1.250000000000000000e+02,1.730000000000000000e+02,1.089000000000000000e+03,1.156000000000000000e+03,9.960000000000000000e+02,4.500000000000000111e-01,8.586739000000000000e+08
2.740000000000000000e+02,4.560000000000000000e+02,5.820000000000000000e+02,1.210000000000000000e+02,1.830000000000000000e+02,1.185000000000000000e+03,1.103000000000000000e+03,9.060000000000000000e+02,4.500000000000000111e-01,8.586857000000000000e+08
3.330000000000000000e+02,4.140000000000000000e+02,6.010000000000000000e+02,1.180000000000000000e+02,1.680000000000000000e+02,1.160000000000000000e+03,1.109000000000000000e+03,9.770000000000000000e+02,4.600000000000000200e-01,8.806137000000000000e+08
3.470000000000000000e+02,4.500000000000000000e+02,5.890000000000000000e+02,1.140000000000000000e+02,1.620000000000000000e+02,1.212000000000000000e+03,1.056000000000000000e+03,9.500000000000000000e+02,4.799999999999999822e-01,9.195030000000000000e+08
3.460000000000000000e+02,3.880000000000000000e+02,7.040000000000000000e+02,1.140000000000000000e+02,1.590000000000000000e+02,1.161000000000000000e+03,1.094000000000000000e+03,9.240000000000000000e+02,4.799999999999999822e-01,9.195146000000000000e+08
3.830000000000000000e+02,4.280000000000000000e+02,6.890000000000000000e+02,1.110000000000000000e+02,1.650000000000000000e+02,1.129000000000000000e+03,1.026000000000000000e+03,9.280000000000000000e+02,5.000000000000000000e-01,9.597247000000000000e+08
3.940000000000000000e+02,4.030000000000000000e+02,6.410000000000000000e+02,1.130000000000000000e+02,1.700000000000000000e+02,1.128000000000000000e+03,1.019000000000000000e+03,9.130000000000000000e+02,5.100000000000000089e-01,9.785504000000000000e+08
3.290000000000000000e+02,4.760000000000000000e+02,6.390000000000000000e+02,1.100000000000000000e+02,1.560000000000000000e+02,1.100000000000000000e+03,1.047000000000000000e+03,8.900000000000000000e+02,5.100000000000000089e-01,9.785676000000000000e+08
3.200000000000000000e+02,5.980000000000000000e+02,7.000000000000000000e+02,1.160000000000000000e+02,1.510000000000000000e+02,9.830000000000000000e+02,1.078000000000000000e+03,8.710000000000000000e+02,5.200000000000000178e-01,1.000128700000000000e+09
3.130000000000000000e+02,6.230000000000000000e+02,5.370000000000000000e+02,1.200000000000000000e+02,1.390000000000000000e+02,9.360000000000000000e+02,9.310000000000000000e+02,8.020000000000000000e+02,5.400000000000000355e-01,1.039580100000000000e+09
2.770000000000000000e+02,6.550000000000000000e+02,5.560000000000000000e+02,1.260000000000000000e+02,1.340000000000000000e+02,9.070000000000000000e+02,8.930000000000000000e+02,8.650000000000000000e+02,5.500000000000000444e-01,1.058796400000000000e+09
3.110000000000000000e+02,6.790000000000000000e+02,5.850000000000000000e+02,1.260000000000000000e+02,1.290000000000000000e+02,8.400000000000000000e+02,9.110000000000000000e+02,9.300000000000000000e+02,5.600000000000000533e-01,1.080231500000000000e+09
3.390000000000000000e+02,6.340000000000000000e+02,5.650000000000000000e+02,1.250000000000000000e+02,1.500000000000000000e+02,9.260000000000000000e+02,9.570000000000000000e+02,9.490000000000000000e+02,5.699999999999999512e-01,1.099834800000000000e+09
3.530000000000000000e+02,5.850000000000000000e+02,5.610000000000000000e+02,1.270000000000000000e+02,1.730000000000000000e+02,1.157000000000000000e+03,1.060000000000000000e+03,1.023000000000000000e+03,5.799999999999999600e-01,1.122515600000000000e+09
3.610000000000000000e+02,5.770000000000000000e+02,5.550000000000000000e+02,1.160000000000000000e+02,1.760000000000000000e+02,1.288000000000000000e+03,1.063000000000000000e+03,1.039000000000000000e+03,5.899999999999999689e-01,1.140732000000000000e+09
3.690000000000000000e+02,5.850000000000000000e+02,5.750000000000000000e+02,1.090000000000000000e+02,1.760000000000000000e+02,1.345000000000000000e+03,1.105000000000000000e+03,1.002000000000000000e+03,5.999999999999999778e-01,1.159959900000000000e+09
3.630000000000000000e+02,6.440000000000000000e+02,6.230000000000000000e+02,1.140000000000000000e+02,1.740000000000000000e+02,1.374000000000000000e+03,1.099000000000000000e+03,1.045000000000000000e+03,6.099999999999999867e-01,1.179421300000000000e+09
4.100000000000000000e+02,6.460000000000000000e+02,6.340000000000000000e+02,1.210000000000000000e+02,1.720000000000000000e+02,1.370000000000000000e+03,1.048000000000000000e+03,9.970000000000000000e+02,6.199999999999999956e-01,1.198639200000000000e+09
4.430000000000000000e+02,6.400000000000000000e+02,6.140000000000000000e+02,1.290000000000000000e+02,1.810000000000000000e+02,1.329000000000000000e+03,9.290000000000000000e+02,9.970000000000000000e+02,6.300000000000000044e-01,1.219161200000000000e+09
4.510000000000000000e+02,6.280000000000000000e+02,5.780000000000000000e+02,1.200000000000000000e+02,1.810000000000000000e+02,1.304000000000000000e+03,9.470000000000000000e+02,1.036000000000000000e+03,6.400000000000000133e-01,1.239633600000000000e+09
4.840000000000000000e+02,6.140000000000000000e+02,5.130000000000000000e+02,1.160000000000000000e+02,1.970000000000000000e+02,1.390000000000000000e+03,9.060000000000000000e+02,1.053000000000000000e+03,6.500000000000000222e-01,1.258488200000000000e+09
4.920000000000000000e+02,5.340000000000000000e+02,5.230000000000000000e+02,1.090000000000000000e+02,2.090000000000000000e+02,1.404000000000000000e+03,9.380000000000000000e+02,1.032000000000000000e+03,6.600000000000000311e-01,1.280559100000000000e+09
4.280000000000000000e+02,5.550000000000000000e+02,5.290000000000000000e+02,1.140000000000000000e+02,2.290000000000000000e+02,1.414000000000000000e+03,8.980000000000000000e+02,1.060000000000000000e+03,6.700000000000000400e-01,1.299614500000000000e+09
4.060000000000000000e+02,5.010000000000000000e+02,4.750000000000000000e+02,1.000000000000000000e+02,2.330000000000000000e+02,1.415000000000000000e+03,9.460000000000000000e+02,1.084000000000000000e+03,6.800000000000000488e-01,1.318913600000000000e+09
4.260000000000000000e+02,4.980000000000000000e+02,5.270000000000000000e+02,1.170000000000000000e+02,2.530000000000000000e+02,1.385000000000000000e+03,1.032000000000000000e+03,1.107000000000000000e+03,6.899999999999999467e-01,1.340364700000000000e+09
4.190000000000000000e+02,4.340000000000000000e+02,5.160000000000000000e+02,1.260000000000000000e+02,2.460000000000000000e+02,1.304000000000000000e+03,1.067000000000000000e+03,1.075000000000000000e+03,6.999999999999999556e-01,1.359863100000000000e+09
4.410000000000000000e+02,4.470000000000000000e+02,4.540000000000000000e+02,1.390000000000000000e+02,2.360000000000000000e+02,1.347000000000000000e+03,1.121000000000000000e+03,1.079000000000000000e+03,7.099999999999999645e-01,1.378481700000000000e+09
4.710000000000000000e+02,5.390000000000000000e+02,5.080000000000000000e+02,1.430000000000000000e+02,2.370000000000000000e+02,1.375000000000000000e+03,1.086000000000000000e+03,1.065000000000000000e+03,7.199999999999999734e-01,1.399257600000000000e+09
4.800000000000000000e+02,6.350000000000000000e+02,6.140000000000000000e+02,1.570000000000000000e+02,2.720000000000000000e+02,1.420000000000000000e+03,1.002000000000000000e+03,1.030000000000000000e+03,7.299999999999999822e-01,1.420339900000000000e+09
4.750000000000000000e+02,6.610000000000000000e+02,6.360000000000000000e+02,1.560000000000000000e+02,2.930000000000000000e+02,1.569000000000000000e+03,9.590000000000000000e+02,9.690000000000000000e+02,7.299999999999999822e-01,1.420351200000000000e+09
4.600000000000000000e+02,7.130000000000000000e+02,6.270000000000000000e+02,1.530000000000000000e+02,2.990000000000000000e+02,1.595000000000000000e+03,1.007000000000000000e+03,1.029000000000000000e+03,7.500000000000000000e-01,1.460553700000000000e+09
4.480000000000000000e+02,7.230000000000000000e+02,6.040000000000000000e+02,1.490000000000000000e+02,3.220000000000000000e+02,1.554000000000000000e+03,8.870000000000000000e+02,9.710000000000000000e+02,7.600000000000000089e-01,1.479597700000000000e+09
4.760000000000000000e+02,6.810000000000000000e+02,5.590000000000000000e+02,1.490000000000000000e+02,3.220000000000000000e+02,1.518000000000000000e+03,9.260000000000000000e+02,9.550000000000000000e+02,7.700000000000000178e-01,1.498393300000000000e+09
4.770000000000000000e+02,6.250000000000000000e+02,4.660000000000000000e+02,1.390000000000000000e+02,3.160000000000000000e+02,1.526000000000000000e+03,1.024000000000000000e+03,1.003000000000000000e+03,7.800000000000000266e-01,1.520047100000000000e+09
4.960000000000000000e+02,6.270000000000000000e+02,3.800000000000000000e+02,1.240000000000000000e+02,2.840000000000000000e+02,1.389000000000000000e+03,1.020000000000000000e+03,1.027000000000000000e+03,7.900000000000000355e-01,1.538716000000000000e+09
5.240000000000000000e+02,6.600000000000000000e+02,5.060000000000000000e+02,1.290000000000000000e+02,2.950000000000000000e+02,1.393000000000000000e+03,9.930000000000000000e+02,1.023000000000000000e+03,8.000000000000000444e-01,1.560032300000000000e+09
5.000000000000000000e+02,7.050000000000000000e+02,5.080000000000000000e+02,1.250000000000000000e+02,2.740000000000000000e+02,1.392000000000000000e+03,1.148000000000000000e+03,1.041000000000000000e+03,8.100000000000000533e-01,1.578760300000000000e+09
5.120000000000000000e+02,6.960000000000000000e+02,5.120000000000000000e+02,1.210000000000000000e+02,2.580000000000000000e+02,1.412000000000000000e+03,1.175000000000000000e+03,1.130000000000000000e+03,8.299999999999999600e-01,1.618622200000000000e+09
5.320000000000000000e+02,6.830000000000000000e+02,5.350000000000000000e+02,1.290000000000000000e+02,2.410000000000000000e+02,1.418000000000000000e+03,1.147000000000000000e+03,1.107000000000000000e+03,8.299999999999999600e-01,1.618644900000000000e+09
5.930000000000000000e+02,7.150000000000000000e+02,5.360000000000000000e+02,1.360000000000000000e+02,2.490000000000000000e+02,1.518000000000000000e+03,1.160000000000000000e+03,1.093000000000000000e+03,8.399999999999999689e-01,1.639949600000000000e+09
6.750000000000000000e+02,6.700000000000000000e+02,4.890000000000000000e+02,1.410000000000000000e+02,2.450000000000000000e+02,1.507000000000000000e+03,1.170000000000000000e+03,1.048000000000000000e+03,8.499999999999999778e-01,1.663241200000000000e+09
6.970000000000000000e+02,6.160000000000000000e+02,4.900000000000000000e+02,1.460000000000000000e+02,2.680000000000000000e+02,1.518000000000000000e+03,1.078000000000000000e+03,1.145000000000000000e+03,8.499999999999999778e-01,1.663257900000000000e+09
6.730000000000000000e+02,5.990000000000000000e+02,5.070000000000000000e+02,1.560000000000000000e+02,2.920000000000000000e+02,1.561000000000000000e+03,1.100000000000000000e+03,1.119000000000000000e+03,8.699999999999999956e-01,1.704465000000000000e+09
6.700000000000000000e+02,6.300000000000000000e+02,4.840000000000000000e+02,1.480000000000000000e+02,2.950000000000000000e+02,1.466000000000000000e+03,1.089000000000000000e+03,1.118000000000000000e+03,8.800000000000000044e-01,1.719250200000000000e+09
6.150000000000000000e+02,6.610000000000000000e+02,5.110000000000000000e+02,1.560000000000000000e+02,2.900000000000000000e+02,1.398000000000000000e+03,1.054000000000000000e+03,1.108000000000000000e+03,8.900000000000000133e-01,1.738787200000000000e+09
5.280000000000000000e+02,6.590000000000000000e+02,4.530000000000000000e+02,1.480000000000000000e+02,2.910000000000000000e+02,1.471000000000000000e+03,1.017000000000000000e+03,1.165000000000000000e+03,9.000000000000000222e-01,1.758236400000000000e+09
5.970000000000000000e+02,7.230000000000000000e+02,5.370000000000000000e+02,1.620000000000000000e+02,2.900000000000000000e+02,1.474000000000000000e+03,9.810000000000000000e+02,1.036000000000000000e+03,9.100000000000000311e-01,1.780387000000000000e+09
6.400000000000000000e+02,7.460000000000000000e+02,5.260000000000000000e+02,1.500000000000000000e+02,2.800000000000000000e+02,1.426000000000000000e+03,1.025000000000000000e+03,1.058000000000000000e+03,9.100000000000000311e-01,1.780399100000000000e+09
6.300000000000000000e+02,7.520000000000000000e+02,5.520000000000000000e+02,1.580000000000000000e+02,2.670000000000000000e+02,1.381000000000000000e+03,1.027000000000000000e+03,1.120000000000000000e+03,9.300000000000000488e-01,1.818327900000000000e+09
6.130000000000000000e+02,6.940000000000000000e+02,5.500000000000000000e+02,1.550000000000000000e+02,2.760000000000000000e+02,1.413000000000000000e+03,1.036000000000000000e+03,1.162000000000000000e+03,9.399999999999999467e-01,1.840213400000000000e+09
5.820000000000000000e+02,7.130000000000000000e+02,5.660000000000000000e+02,1.620000000000000000e+02,3.030000000000000000e+02,1.398000000000000000e+03,1.059000000000000000e+03,1.134000000000000000e+03,9.399999999999999467e-01,1.840224600000000000e+09
4.780000000000000000e+02,7.140000000000000000e+02,4.860000000000000000e+02,1.540000000000000000e+02,2.970000000000000000e+02,1.465000000000000000e+03,1.053000000000000000e+03,1.263000000000000000e+03,9.599999999999999645e-01,1.878533800000000000e+09
4.610000000000000000e+02,7.130000000000000000e+02,5.490000000000000000e+02,1.570000000000000000e+02,2.720000000000000000e+02,1.455000000000000000e+03,1.038000000000000000e+03,1.220000000000000000e+03,9.699999999999999734e-01,1.898470100000000000e+09
4.530000000000000000e+02,6.720000000000000000e+02,5.250000000000000000e+02,1.490000000000000000e+02,2.680000000000000000e+02,1.501000000000000000e+03,9.780000000000000000e+02,1.107000000000000000e+03,9.799999999999999822e-01,1.920537200000000000e+09
5.340000000000000000e+02,6.730000000000000000e+02,4.980000000000000000e+02,1.570000000000000000e+02,2.710000000000000000e+02,1.449000000000000000e+03,9.750000000000000000e+02,1.114000000000000000e+03,9.899999999999999911e-01,1.940200900000000000e+09
5.440000000000000000e+02,6.430000000000000000e+02,4.780000000000000000e+02,1.430000000000000000e+02,2.160000000000000000e+02,1.424000000000000000e+03,9.720000000000000000e+02,1.114000000000000000e+03,9.799999999999999822e-01,1.959173300000000000e+09
5.490000000000000000e+02,5.740000000000000000e+02,4.990000000000000000e+02,1.420000000000000000e+02,2.030000000000000000e+02,1.312000000000000000e+03,1.019000000000000000e+03,9.810000000000000000e+02,9.699999999999999734e-01,1.978478100000000000e+09
4.950000000000000000e+02,5.290000000000000000e+02,5.020000000000000000e+02,1.350000000000000000e+02,2.120000000000000000e+02,1.345000000000000000e+03,9.830000000000000000e+02,1.035000000000000000e+03,9.599999999999999645e-01,2.000576800000000000e+09
4.840000000000000000e+02,5.260000000000000000e+02,5.110000000000000000e+02,1.320000000000000000e+02,2.020000000000000000e+02,1.313000000000000000e+03,1.005000000000000000e+03,1.067000000000000000e+03,9.499999999999999556e-01,2.019156500000000000e+09
4.390000000000000000e+02,5.760000000000000000e+02,5.020000000000000000e+02,1.230000000000000000e+02,1.800000000000000000e+02,1.319000000000000000e+03,9.790000000000000000e+02,1.070000000000000000e+03,9.399999999999999467e-01,2.038748800000000000e+09
4.260000000000000000e+02,6.410000000000000000e+02,7.450000000000000000e+02,1.450000000000000000e+02,1.760000000000000000e+02,1.263000000000000000e+03,8.930000000000000000e+02,1.036000000000000000e+03,9.300000000000000488e-01,2.061019300000000000e+09
4.030000000000000000e+02,6.190000000000000000e+02,7.700000000000000000e+02,1.490000000000000000e+02,1.580000000000000000e+02,1.316000000000000000e+03,7.530000000000000000e+02,9.950000000000000000e+02,9.200000000000000400e-01,2.079933400000000000e+09
3.810000000000000000e+02,6.150000000000000000e+02,7.890000000000000000e+02,1.460000000000000000e+02,1.430000000000000000e+02,1.252000000000000000e+03,6.390000000000000000e+02,8.470000000000000000e+02,9.100000000000000311e-01,2.098709700000000000e+09
3.780000000000000000e+02,5.830000000000000000e+02,7.770000000000000000e+02,1.440000000000000000e+02,1.390000000000000000e+02,1.303000000000000000e+03,5.900000000000000000e+02,8.000000000000000000e+02,9.000000000000000222e-01,2.118180200000000000e+09
2.850000000000000000e+02,5.220000000000000000e+02,8.590000000000000000e+02,1.350000000000000000e+02,1.230000000000000000e+02,1.243000000000000000e+03,5.950000000000000000e+02,7.180000000000000000e+02,8.900000000000000133e-01,2.139289700000000000e+09
2.670000000000000000e+02,4.010000000000000000e+02,7.490000000000000000e+02,2.220000000000000000e+02,1.370000000000000000e+02,1.180000000000000000e+03,5.440000000000000000e+02,6.170000000000000000e+02,8.800000000000000044e-01,2.161098200000000000e+09
2.560000000000000000e+02,4.160000000000000000e+02,7.790000000000000000e+02,2.310000000000000000e+02,1.330000000000000000e+02,1.107000000000000000e+03,5.220000000000000000e+02,5.660000000000000000e+02,8.699999999999999956e-01,2.180700400000000000e+09
2.400000000000000000e+02,4.290000000000000000e+02,8.610000000000000000e+02,2.330000000000000000e+02,1.290000000000000000e+02,1.221000000000000000e+03,4.710000000000000000e+02,5.030000000000000000e+02,8.599999999999999867e-01,2.199500700000000000e+09
2.020000000000000000e+02,4.820000000000000000e+02,1.032000000000000000e+03,2.450000000000000000e+02,1.140000000000000000e+02,1.391000000000000000e+03,4.300000000000000000e+02,3.750000000000000000e+02,8.499999999999999778e-01,2.218211000000000000e+09
2.050000000000000000e+02,4.560000000000000000e+02,1.018000000000000000e+03,2.690000000000000000e+02,1.110000000000000000e+02,1.403000000000000000e+03,2.730000000000000000e+02,3.210000000000000000e+02,8.399999999999999689e-01,2.240559200000000000e+09
1.830000000000000000e+02,4.650000000000000000e+02,1.040000000000000000e+03,2.080000000000000000e+02,8.900000000000000000e+01,1.394000000000000000e+03,2.650000000000000000e+02,2.890000000000000000e+02,8.299999999999999600e-01,2.259018800000000000e+09
1.750000000000000000e+02,4.580000000000000000e+02,1.073000000000000000e+03,2.010000000000000000e+02,8.400000000000000000e+01,1.376000000000000000e+03,3.220000000000000000e+02,2.630000000000000000e+02,8.199999999999999512e-01,2.280444400000000000e+09
1.710000000000000000e+02,4.360000000000000000e+02,9.990000000000000000e+02,2.140000000000000000e+02,8.700000000000000000e+01,1.204000000000000000e+03,3.190000000000000000e+02,2.530000000000000000e+02,8.100000000000000533e-01,2.299155800000000000e+09
2.040000000000000000e+02,3.580000000000000000e+02,9.280000000000000000e+02,2.380000000000000000e+02,9.600000000000000000e+01,8.290000000000000000e+02,2.840000000000000000e+02,2.470000000000000000e+02,8.000000000000000444e-01,2.320433600000000000e+09
4.630000000000000000e+02,3.740000000000000000e+02,9.220000000000000000e+02,3.220000000000000000e+02,1.230000000000000000e+02,7.120000000000000000e+02,2.970000000000000000e+02,1.830000000000000000e+02,7.900000000000000355e-01,2.339220300000000000e+09
5.930000000000000000e+02,4.210000000000000000e+02,8.870000000000000000e+02,3.580000000000000000e+02,1.460000000000000000e+02,6.910000000000000000e+02,3.080000000000000000e+02,2.690000000000000000e+02,7.800000000000000266e-01,2.360193900000000000e+09
6.270000000000000000e+02,4.320000000000000000e+02,8.530000000000000000e+02,3.550000000000000000e+02,1.470000000000000000e+02,6.050000000000000000e+02,2.400000000000000000e+02,2.820000000000000000e+02,7.700000000000000178e-01,2.378864500000000000e+09
6.330000000000000000e+02,4.390000000000000000e+02,8.090000000000000000e+02,3.610000000000000000e+02,1.440000000000000000e+02,5.620000000000000000e+02,2.400000000000000000e+02,2.950000000000000000e+02,7.600000000000000089e-01,2.400229500000000000e+09
6.270000000000000000e+02,4.410000000000000000e+02,7.980000000000000000e+02,3.590000000000000000e+02,1.370000000000000000e+02,5.030000000000000000e+02,2.390000000000000000e+02,2.940000000000000000e+02,7.500000000000000000e-01,2.418637300000000000e+09
4.750000000000000000e+02,4.230000000000000000e+02,7.760000000000000000e+02,2.720000000000000000e+02,1.150000000000000000e+02,4.780000000000000000e+02,2.430000000000000000e+02,2.870000000000000000e+02,7.399999999999999911e-01,2.438214500000000000e+09
3.150000000000000000e+02,3.930000000000000000e+02,7.670000000000000000e+02,2.210000000000000000e+02,9.100000000000000000e+01,4.850000000000000000e+02,2.200000000000000000e+02,2.510000000000000000e+02,7.299999999999999822e-01,2.459397800000000000e+09
2.470000000000000000e+02,3.520000000000000000e+02,8.330000000000000000e+02,2.490000000000000000e+02,8.700000000000000000e+01,4.580000000000000000e+02,2.100000000000000000e+02,2.280000000000000000e+02,7.199999999999999734e-01,2.478127100000000000e+09
2.430000000000000000e+02,3.720000000000000000e+02,9.340000000000000000e+02,2.660000000000000000e+02,8.900000000000000000e+01,6.050000000000000000e+02,2.030000000000000000e+02,2.080000000000000000e+02,7.099999999999999645e-01,2.503486500000000000e+09
2.430000000000000000e+02,3.940000000000000000e+02,8.980000000000000000e+02,2.380000000000000000e+02,9.100000000000000000e+01,7.560000000000000000e+02,2.380000000000000000e+02,2.130000000000000000e+02,6.999999999999999556e-01,2.520720600000000000e+09
2.330000000000000000e+02,4.000000000000000000e+02,8.990000000000000000e+02,2.330000000000000000e+02,9.000000000000000000e+01,9.060000000000000000e+02,2.260000000000000000e+02,2.160000000000000000e+02,6.899999999999999467e-01,2.540644000000000000e+09
2.150000000000000000e+02,3.870000000000000000e+02,9.170000000000000000e+02,2.250000000000000000e+02,8.000000000000000000e+01,8.780000000000000000e+02,2.200000000000000000e+02,1.770000000000000000e+02,6.800000000000000488e-01,2.560726100000000000e+09
2.370000000000000000e+02,4.390000000000000000e+02,8.130000000000000000e+02,2.060000000000000000e+02,8.300000000000000000e+01,8.790000000000000000e+02,2.420000000000000000e+02,1.720000000000000000e+02,6.700000000000000400e-01,2.579802600000000000e+09
2.220000000000000000e+02,4.590000000000000000e+02,8.530000000000000000e+02,1.750000000000000000e+02,8.100000000000000000e+01,8.720000000000000000e+02,2.780000000000000000e+02,1.820000000000000000e+02,6.600000000000000311e-01,2.598816200000000000e+09
2.160000000000000000e+02,4.480000000000000000e+02,8.530000000000000000e+02,1.710000000000000000e+02,7.700000000000000000e+01,7.870000000000000000e+02,2.450000000000000000e+02,1.790000000000000000e+02,6.500000000000000222e-01,2.620458000000000000e+09
2.190000000000000000e+02,4.410000000000000000e+02,8.690000000000000000e+02,1.710000000000000000e+02,7.800000000000000000e+01,5.770000000000000000e+02,2.380000000000000000e+02,1.510000000000000000e+02,6.400000000000000133e-01,2.638996800000000000e+09
2.260000000000000000e+02,4.200000000000000000e+02,8.290000000000000000e+02,1.620000000000000000e+02,8.700000000000000000e+01,5.730000000000000000e+02,2.370000000000000000e+02,1.300000000000000000e+02,6.300000000000000044e-01,2.660503800000000000e+09
2.040000000000000000e+02,4.080000000000000000e+02,9.070000000000000000e+02,1.540000000000000000e+02,8.100000000000000000e+01,5.800000000000000000e+02,2.490000000000000000e+02,2.300000000000000000e+02,6.199999999999999956e-01,2.679097700000000000e+09
2.060000000000000000e+02,3.690000000000000000e+02,8.100000000000000000e+02,1.360000000000000000e+02,7.100000000000000000e+01,4.290000000000000000e+02,2.070000000000000000e+02,3.010000000000000000e+02,6.099999999999999867e-01,2.700211000000000000e+09
1.790000000000000000e+02,3.590000000000000000e+02,7.890000000000000000e+02,1.480000000000000000e+02,7.000000000000000000e+01,3.770000000000000000e+02,2.030000000000000000e+02,3.190000000000000000e+02,5.999999999999999778e-01,2.718945800000000000e+09
1.670000000000000000e+02,3.860000000000000000e+02,7.950000000000000000e+02,1.580000000000000000e+02,6.900000000000000000e+01,3.790000000000000000e+02,1.980000000000000000e+02,3.190000000000000000e+02,5.899999999999999689e-01,2.740035800000000000e+09
1.530000000000000000e+02,3.990000000000000000e+02,7.720000000000000000e+02,1.580000000000000000e+02,5.800000000000000000e+01,3.950000000000000000e+02,1.950000000000000000e+02,3.230000000000000000e+02,5.799999999999999600e-01,2.759037000000000000e+09
1.540000000000000000e+02,3.610000000000000000e+02,6.690000000000000000e+02,1.440000000000000000e+02,5.900000000000000000e+01,3.820000000000000000e+02,2.090000000000000000e+02,2.910000000000000000e+02,5.699999999999999512e-01,2.780318200000000000e+09
1.560000000000000000e+02,4.450000000000000000e+02,6.460000000000000000e+02,1.320000000000000000e+02,5.100000000000000000e+01,3.440000000000000000e+02,2.200000000000000000e+02,2.150000000000000000e+02,5.600000000000000533e-01,2.799271100000000000e+09
1.620000000000000000e+02,4.910000000000000000e+02,6.140000000000000000e+02,1.260000000000000000e+02,5.300000000000000000e+01,2.940000000000000000e+02,2.220000000000000000e+02,1.830000000000000000e+02,5.500000000000000444e-01,2.818128600000000000e+09
1.610000000000000000e+02,4.870000000000000000e+02,7.020000000000000000e+02,1.030000000000000000e+02,5.200000000000000000e+01,2.840000000000000000e+02,2.260000000000000000e+02,1.790000000000000000e+02,5.400000000000000355e-01,2.839354100000000000e+09
1.460000000000000000e+02,4.790000000000000000e+02,7.090000000000000000e+02,9.700000000000000000e+01,5.900000000000000000e+01,3.040000000000000000e+02,2.460000000000000000e+02,1.750000000000000000e+02,5.300000000000000266e-01,2.860753100000000000e+09
1.290000000000000000e+02,4.780000000000000000e+02,7.080000000000000000e+02,8.900000000000000000e+01,5.600000000000000000e+01,3.540000000000000000e+02,2.110000000000000000e+02,1.230000000000000000e+02,5.200000000000000178e-01,2.879350800000000000e+09
1.150000000000000000e+02,4.060000000000000000e+02,6.860000000000000000e+02,9.000000000000000000e+01,5.300000000000000000e+01,3.270000000000000000e+02,1.880000000000000000e+02,1.120000000000000000e+02,5.100000000000000089e-01,2.900027600000000000e+09
1.580000000000000000e+02,4.310000000000000000e+02,8.190000000000000000e+02,1.570000000000000000e+02,6.500000000000000000e+01,3.230000000000000000e+02,1.850000000000000000e+02,1.120000000000000000e+02,5.000000000000000000e-01,2.918607700000000000e+09
1.570000000000000000e+02,4.140000000000000000e+02,7.440000000000000000e+02,1.760000000000000000e+02,7.000000000000000000e+01,3.410000000000000000e+02,1.840000000000000000e+02,1.100000000000000000e+02,4.899999999999999911e-01,2.939775600000000000e+09
1.570000000000000000e+02,4.170000000000000000e+02,7.430000000000000000e+02,1.780000000000000000e+02,7.300000000000000000e+01,3.190000000000000000e+02,1.630000000000000000e+02,1.200000000000000000e+02,4.799999999999999822e-01,2.960458500000000000e+09
1.540000000000000000e+02,4.080000000000000000e+02,7.560000000000000000e+02,1.820000000000000000e+02,7.400000000000000000e+01,2.670000000000000000e+02,1.540000000000000000e+02,1.380000000000000000e+02,4.699999999999999734e-01,2.979287600000000000e+09
1.660000000000000000e+02,3.810000000000000000e+02,8.260000000000000000e+02,1.980000000000000000e+02,7.600000000000000000e+01,2.660000000000000000e+02,1.570000000000000000e+02,1.380000000000000000e+02,4.600000000000000200e-01,3.000776900000000000e+09
1.290000000000000000e+02,3.490000000000000000e+02,6.740000000000000000e+02,1.550000000000000000e+02,6.200000000000000000e+01,2.910000000000000000e+02,1.750000000000000000e+02,1.350000000000000000e+02,4.500000000000000111e-01,3.019590300000000000e+09
1.520000000000000000e+02,4.560000000000000000e+02,7.330000000000000000e+02,1.700000000000000000e+02,6.600000000000000000e+01,2.730000000000000000e+02,1.940000000000000000e+02,2.110000000000000000e+02,4.400000000000000022e-01,3.038448800000000000e+09
1.650000000000000000e+02,4.820000000000000000e+02,7.520000000000000000e+02,1.730000000000000000e+02,5.600000000000000000e+01,2.340000000000000000e+02,1.870000000000000000e+02,2.080000000000000000e+02,4.299999999999999933e-01,3.059600200000000000e+09
1.650000000000000000e+02,5.150000000000000000e+02,7.760000000000000000e+02,1.700000000000000000e+02,5.400000000000000000e+01,2.200000000000000000e+02,2.050000000000000000e+02,1.940000000000000000e+02,4.199999999999999845e-01,3.078797600000000000e+09
1.610000000000000000e+02,5.240000000000000000e+02,7.810000000000000000e+02,1.760000000000000000e+02,5.400000000000000000e+01,2.160000000000000000e+02,2.030000000000000000e+02,1.920000000000000000e+02,4.099999999999999756e-01,3.099830400000000000e+09
1.640000000000000000e+02,4.910000000000000000e+02,7.940000000000000000e+02,1.790000000000000000e+02,5.800000000000000000e+01,1.870000000000000000e+02,1.960000000000000000e+02,1.890000000000000000e+02,4.000000000000000222e-01,3.118656800000000000e+09
1.400000000000000000e+02,4.080000000000000000e+02,8.150000000000000000e+02,1.730000000000000000e+02,6.100000000000000000e+01,1.990000000000000000e+02,1.780000000000000000e+02,1.130000000000000000e+02,3.900000000000000133e-01,3.140001400000000000e+09
1.270000000000000000e+02,3.970000000000000000e+02,8.400000000000000000e+02,1.710000000000000000e+02,6.100000000000000000e+01,2.050000000000000000e+02,1.780000000000000000e+02,1.010000000000000000e+02,3.800000000000000044e-01,3.158246700000000000e+09
1.330000000000000000e+02,3.590000000000000000e+02,8.570000000000000000e+02,1.740000000000000000e+02,6.200000000000000000e+01,1.640000000000000000e+02,1.440000000000000000e+02,9.000000000000000000e+01,3.699999999999999956e-01,3.179708500000000000e+09
1.340000000000000000e+02,3.840000000000000000e+02,8.270000000000000000e+02,1.620000000000000000e+02,6.500000000000000000e+01,1.770000000000000000e+02,1.520000000000000000e+02,8.700000000000000000e+01,3.599999999999999867e-01,3.198281400000000000e+09
1.180000000000000000e+02,3.670000000000000000e+02,8.870000000000000000e+02,1.700000000000000000e+02,7.100000000000000000e+01,2.510000000000000000e+02,1.490000000000000000e+02,1.100000000000000000e+02,3.499999999999999778e-01,3.219795700000000000e+09
1.140000000000000000e+02,3.410000000000000000e+02,8.120000000000000000e+02,1.450000000000000000e+02,6.000000000000000000e+01,2.570000000000000000e+02,1.260000000000000000e+02,9.600000000000000000e+01,3.400000000000000244e-01,3.238343100000000000e+09
1.140000000000000000e+02,2.940000000000000000e+02,8.260000000000000000e+02,1.470000000000000000e+02,6.300000000000000000e+01,2.490000000000000000e+02,1.180000000000000000e+02,9.500000000000000000e+01,3.300000000000000155e-01,3.260000300000000000e+09
1.210000000000000000e+02,4.910000000000000000e+02,9.290000000000000000e+02,1.500000000000000000e+02,6.600000000000000000e+01,2.720000000000000000e+02,1.660000000000000000e+02,9.900000000000000000e+01,3.200000000000000067e-01,3.278743700000000000e+09
1.220000000000000000e+02,5.170000000000000000e+02,1.054000000000000000e+03,1.480000000000000000e+02,6.700000000000000000e+01,2.860000000000000000e+02,1.710000000000000000e+02,1.020000000000000000e+02,3.099999999999999978e-01,3.299896800000000000e+09
1.450000000000000000e+02,5.880000000000000000e+02,1.059000000000000000e+03,1.600000000000000000e+02,6.400000000000000000e+01,2.210000000000000000e+02,1.640000000000000000e+02,7.500000000000000000e+01,2.999999999999999889e-01,3.318747000000000000e+09
1.430000000000000000e+02,6.120000000000000000e+02,1.131000000000000000e+03,1.590000000000000000e+02,6.500000000000000000e+01,2.050000000000000000e+02,1.700000000000000000e+02,8.600000000000000000e+01,2.899999999999999800e-01,3.339741200000000000e+09
1.510000000000000000e+02,6.340000000000000000e+02,1.096000000000000000e+03,1.590000000000000000e+02,6.300000000000000000e+01,2.260000000000000000e+02,1.770000000000000000e+02,8.900000000000000000e+01,2.800000000000000266e-01,3.358313700000000000e+09
1.460000000000000000e+02,5.090000000000000000e+02,1.030000000000000000e+03,1.710000000000000000e+02,6.900000000000000000e+01,2.740000000000000000e+02,1.540000000000000000e+02,8.800000000000000000e+01,2.700000000000000178e-01,3.379528500000000000e+09
1.440000000000000000e+02,5.810000000000000000e+02,8.650000000000000000e+02,1.810000000000000000e+02,7.200000000000000000e+01,2.520000000000000000e+02,1.350000000000000000e+02,8.600000000000000000e+01,2.600000000000000089e-01,3.398374200000000000e+09
1.220000000000000000e+02,5.450000000000000000e+02,9.410000000000000000e+02,1.570000000000000000e+02,7.000000000000000000e+01,2.490000000000000000e+02,1.270000000000000000e+02,8.500000000000000000e+01,2.500000000000000000e-01,3.419477800000000000e+09
1.290000000000000000e+02,5.240000000000000000e+02,9.230000000000000000e+02,1.570000000000000000e+02,7.400000000000000000e+01,2.430000000000000000e+02,1.160000000000000000e+02,7.200000000000000000e+01,2.399999999999999911e-01,3.438987800000000000e+09
1.290000000000000000e+02,4.990000000000000000e+02,9.490000000000000000e+02,1.510000000000000000e+02,7.700000000000000000e+01,3.230000000000000000e+02,1.400000000000000000e+02,9.600000000000000000e+01,2.300000000000000100e-01,3.459205100000000000e+09
1.250000000000000000e+02,5.150000000000000000e+02,9.730000000000000000e+02,1.320000000000000000e+02,7.700000000000000000e+01,3.920000000000000000e+02,1.280000000000000000e+02,9.900000000000000000e+01,2.200000000000000011e-01,3.478147100000000000e+09
1.190000000000000000e+02,4.310000000000000000e+02,1.027000000000000000e+03,1.140000000000000000e+02,7.400000000000000000e+01,3.980000000000000000e+02,1.260000000000000000e+02,9.900000000000000000e+01,2.099999999999999922e-01,3.499417000000000000e+09
1.150000000000000000e+02,4.960000000000000000e+02,9.270000000000000000e+02,1.230000000000000000e+02,7.400000000000000000e+01,3.990000000000000000e+02,1.350000000000000000e+02,9.600000000000000000e+01,2.000000000000000111e-01,3.520488100000000000e+09
1.250000000000000000e+02,5.710000000000000000e+02,8.700000000000000000e+02,1.580000000000000000e+02,7.700000000000000000e+01,4.180000000000000000e+02,1.350000000000000000e+02,9.400000000000000000e+01,1.900000000000000022e-01,3.538996100000000000e+09
1.260000000000000000e+02,6.660000000000000000e+02,9.130000000000000000e+02,1.650000000000000000e+02,7.600000000000000000e+01,4.590000000000000000e+02,1.480000000000000000e+02,7.100000000000000000e+01,1.799999999999999933e-01,3.560013200000000000e+09
1.290000000000000000e+02,6.600000000000000000e+02,9.230000000000000000e+02,1.740000000000000000e+02,7.400000000000000000e+01,3.820000000000000000e+02,1.410000000000000000e+02,6.800000000000000000e+01,1.700000000000000122e-01,3.579161500000000000e+09
1.340000000000000000e+02,6.520000000000000000e+02,9.240000000000000000e+02,2.060000000000000000e+02,8.200000000000000000e+01,3.760000000000000000e+02,1.440000000000000000e+02,7.200000000000000000e+01,1.600000000000000033e-01,3.600686300000000000e+09
1.540000000000000000e+02,6.270000000000000000e+02,1.009000000000000000e+03,2.170000000000000000e+02,8.300000000000000000e+01,4.120000000000000000e+02,1.350000000000000000e+02,7.300000000000000000e+01,1.499999999999999944e-01,3.619207700000000000e+09
1.440000000000000000e+02,5.730000000000000000e+02,1.037000000000000000e+03,2.120000000000000000e+02,8.800000000000000000e+01,4.460000000000000000e+02,1.530000000000000000e+02,7.800000000000000000e+01,1.400000000000000133e-01,3.640409900000000000e+09
1.450000000000000000e+02,5.310000000000000000e+02,1.136000000000000000e+03,2.300000000000000000e+02,9.200000000000000000e+01,3.900000000000000000e+02,1.110000000000000000e+02,7.500000000000000000e+01,1.300000000000000044e-01,3.659973900000000000e+09
1.690000000000000000e+02,6.370000000000000000e+02,1.136000000000000000e+03,2.370000000000000000e+02,9.700000000000000000e+01,3.740000000000000000e+02,1.150000000000000000e+02,7.100000000000000000e+01,1.199999999999999956e-01,3.678688000000000000e+09
1.750000000000000000e+02,6.920000000000000000e+02,1.111000000000000000e+03,2.090000000000000000e+02,9.200000000000000000e+01,3.780000000000000000e+02,1.130000000000000000e+02,6.700000000000000000e+01,1.100000000000000006e-01,3.700222100000000000e+09
1.620000000000000000e+02,6.740000000000000000e+02,1.121000000000000000e+03,2.040000000000000000e+02,9.400000000000000000e+01,3.670000000000000000e+02,1.210000000000000000e+02,7.600000000000000000e+01,1.000000000000000056e-01,3.719002100000000000e+09
1.760000000000000000e+02,7.330000000000000000e+02,1.182000000000000000e+03,2.650000000000000000e+02,1.150000000000000000e+02,4.030000000000000000e+02,1.040000000000000000e+02,8.100000000000000000e+01,8.999999999999999667e-02,3.741823700000000000e+09
2.240000000000000000e+02,7.580000000000000000e+02,1.204000000000000000e+03,3.580000000000000000e+02,1.500000000000000000e+02,3.550000000000000000e+02,1.080000000000000000e+02,1.080000000000000000e+02,8.000000000000000167e-02,3.758616000000000000e+09
2.420000000000000000e+02,7.400000000000000000e+02,1.211000000000000000e+03,4.590000000000000000e+02,1.650000000000000000e+02,3.880000000000000000e+02,1.300000000000000000e+02,1.220000000000000000e+02,7.000000000000000666e-02,3.780268800000000000e+09
2.740000000000000000e+02,8.060000000000000000e+02,1.332000000000000000e+03,5.130000000000000000e+02,1.850000000000000000e+02,4.030000000000000000e+02,1.380000000000000000e+02,1.350000000000000000e+02,5.999999999999999778e-02,3.798545600000000000e+09
3.220000000000000000e+02,8.720000000000000000e+02,1.317000000000000000e+03,5.810000000000000000e+02,2.130000000000000000e+02,3.820000000000000000e+02,1.380000000000000000e+02,1.520000000000000000e+02,5.000000000000000278e-02,3.820413300000000000e+09
3.620000000000000000e+02,9.170000000000000000e+02,1.318000000000000000e+03,5.950000000000000000e+02,2.240000000000000000e+02,3.020000000000000000e+02,1.450000000000000000e+02,1.680000000000000000e+02,4.000000000000000083e-02,3.839212900000000000e+09
3.780000000000000000e+02,9.640000000000000000e+02,1.196000000000000000e+03,5.780000000000000000e+02,2.370000000000000000e+02,3.280000000000000000e+02,1.610000000000000000e+02,1.770000000000000000e+02,2.999999999999999889e-02,3.858169900000000000e+09
3.670000000000000000e+02,9.790000000000000000e+02,1.177000000000000000e+03,5.190000000000000000e+02,2.300000000000000000e+02,2.840000000000000000e+02,1.440000000000000000e+02,1.710000000000000000e+02,2.000000000000000042e-02,3.879347600000000000e+09
3.800000000000000000e+02,9.190000000000000000e+02,1.150000000000000000e+03,6.190000000000000000e+02,2.550000000000000000e+02,2.780000000000000000e+02,1.510000000000000000e+02,1.860000000000000000e+02,1.000000000000000021e-02,3.900376500000000000e+09
3.730000000000000000e+02,9.090000000000000000e+02,1.192000000000000000e+03,6.120000000000000000e+02,2.500000000000000000e+02,3.050000000000000000e+02,1.810000000000000000e+02,1.820000000000000000e+02,0.000000000000000000e+00,3.919085900000000000e+09
3.870000000000000000e+02,9.330000000000000000e+02,1.260000000000000000e+03,6.270000000000000000e+02,2.520000000000000000e+02,3.230000000000000000e+02,1.780000000000000000e+02,1.890000000000000000e+02,1.000000000000000021e-02,3.940515600000000000e+09
3.580000000000000000e+02,9.120000000000000000e+02,1.377000000000000000e+03,6.330000000000000000e+02,2.300000000000000000e+02,2.930000000000000000e+02,1.600000000000000000e+02,1.780000000000000000e+02,2.000000000000000042e-02,3.959222600000000000e+09
3.780000000000000000e+02,9.110000000000000000e+02,1.379000000000000000e+03,6.500000000000000000e+02,2.400000000000000000e+02,3.110000000000000000e+02,1.650000000000000000e+02,1.850000000000000000e+02,2.999999999999999889e-02,3.978156400000000000e+09
3.520000000000000000e+02,9.170000000000000000e+02,1.377000000000000000e+03,5.350000000000000000e+02,2.020000000000000000e+02,3.060000000000000000e+02,1.770000000000000000e+02,1.700000000000000000e+02,4.000000000000000083e-02,3.999734400000000000e+09
3.900000000000000000e+02,9.410000000000000000e+02,1.347000000000000000e+03,5.570000000000000000e+02,2.170000000000000000e+02,3.120000000000000000e+02,1.750000000000000000e+02,2.170000000000000000e+02,5.000000000000000278e-02,4.018619300000000000e+09
3.450000000000000000e+02,8.910000000000000000e+02,1.197000000000000000e+03,5.070000000000000000e+02,1.980000000000000000e+02,2.960000000000000000e+02,1.710000000000000000e+02,2.060000000000000000e+02,5.999999999999999778e-02,4.039946900000000000e+09
3.400000000000000000e+02,8.390000000000000000e+02,1.087000000000000000e+03,4.920000000000000000e+02,1.890000000000000000e+02,2.890000000000000000e+02,1.880000000000000000e+02,2.030000000000000000e+02,7.000000000000000666e-02,4.058596900000000000e+09
3.080000000000000000e+02,7.540000000000000000e+02,1.046000000000000000e+03,4.640000000000000000e+02,1.710000000000000000e+02,4.210000000000000000e+02,2.110000000000000000e+02,2.430000000000000000e+02,8.000000000000000167e-02,4.079510700000000000e+09
3.180000000000000000e+02,7.160000000000000000e+02,1.032000000000000000e+03,4.540000000000000000e+02,1.710000000000000000e+02,4.410000000000000000e+02,2.020000000000000000e+02,2.950000000000000000e+02,8.999999999999999667e-02,4.098335800000000000e+09
2.320000000000000000e+02,6.860000000000000000e+02,9.320000000000000000e+02,3.520000000000000000e+02,1.220000000000000000e+02,5.790000000000000000e+02,3.690000000000000000e+02,3.130000000000000000e+02,1.000000000000000056e-01,4.120830600000000000e+09
2.380000000000000000e+02,6.620000000000000000e+02,9.140000000000000000e+02,3.550000000000000000e+02,1.260000000000000000e+02,6.790000000000000000e+02,4.360000000000000000e+02,4.040000000000000000e+02,1.100000000000000006e-01,4.138250200000000000e+09
2.330000000000000000e+02,6.370000000000000000e+02,8.290000000000000000e+02,3.030000000000000000e+02,1.170000000000000000e+02,7.310000000000000000e+02,5.110000000000000000e+02,5.170000000000000000e+02,1.199999999999999956e-01,4.158785200000000000e+09
2.310000000000000000e+02,6.480000000000000000e+02,8.360000000000000000e+02,2.690000000000000000e+02,1.430000000000000000e+02,9.290000000000000000e+02,6.880000000000000000e+02,5.340000000000000000e+02,1.300000000000000044e-01,4.179358600000000000e+09
1.950000000000000000e+02,6.100000000000000000e+02,7.590000000000000000e+02,2.280000000000000000e+02,1.450000000000000000e+02,1.060000000000000000e+03,8.020000000000000000e+02,5.950000000000000000e+02,1.400000000000000133e-01,4.199722900000000000e+09
1.840000000000000000e+02,5.770000000000000000e+02,8.560000000000000000e+02,2.110000000000000000e+02,1.440000000000000000e+02,1.088000000000000000e+03,7.960000000000000000e+02,6.960000000000000000e+02,1.499999999999999944e-01,4.220338000000000000e+09
1.900000000000000000e+02,5.380000000000000000e+02,8.710000000000000000e+02,1.610000000000000000e+02,1.280000000000000000e+02,1.102000000000000000e+03,8.030000000000000000e+02,8.950000000000000000e+02,1.600000000000000033e-01,4.238292200000000000e+09
1.860000000000000000e+02,5.490000000000000000e+02,9.270000000000000000e+02,1.620000000000000000e+02,1.380000000000000000e+02,1.179000000000000000e+03,8.370000000000000000e+02,9.950000000000000000e+02,1.700000000000000122e-01,4.258218500000000000e+09
1.950000000000000000e+02,5.690000000000000000e+02,1.000000000000000000e+03,1.940000000000000000e+02,1.210000000000000000e+02,1.001000000000000000e+03,9.100000000000000000e+02,1.049000000000000000e+03,1.799999999999999933e-01,4.280330300000000000e+09
2.070000000000000000e+02,5.890000000000000000e+02,1.008000000000000000e+03,2.090000000000000000e+02,1.110000000000000000e+02,9.110000000000000000e+02,9.270000000000000000e+02,1.040000000000000000e+03,1.900000000000000022e-01,4.298787000000000000e+09
2.060000000000000000e+02,5.520000000000000000e+02,9.450000000000000000e+02,2.000000000000000000e+02,1.060000000000000000e+02,8.360000000000000000e+02,9.080000000000000000e+02,9.860000000000000000e+02,2.000000000000000111e-01,4.319883400000000000e+09
1.740000000000000000e+02,6.000000000000000000e+02,9.770000000000000000e+02,1.980000000000000000e+02,1.080000000000000000e+02,7.500000000000000000e+02,8.930000000000000000e+02,8.140000000000000000e+02,2.099999999999999922e-01,4.338815300000000000e+09
1.660000000000000000e+02,5.880000000000000000e+02,9.160000000000000000e+02,1.820000000000000000e+02,1.120000000000000000e+02,8.160000000000000000e+02,8.530000000000000000e+02,6.890000000000000000e+02,2.200000000000000011e-01,4.360072600000000000e+09
1.500000000000000000e+02,6.350000000000000000e+02,7.570000000000000000e+02,1.620000000000000000e+02,9.800000000000000000e+01,8.390000000000000000e+02,6.810000000000000000e+02,6.020000000000000000e+02,2.300000000000000100e-01,4.378808300000000000e+09
1.640000000000000000e+02,6.270000000000000000e+02,7.230000000000000000e+02,1.690000000000000000e+02,1.020000000000000000e+02,7.810000000000000000e+02,5.460000000000000000e+02,5.870000000000000000e+02,2.399999999999999911e-01,4.399763700000000000e+09
1.750000000000000000e+02,6.070000000000000000e+02,7.080000000000000000e+02,1.640000000000000000e+02,1.070000000000000000e+02,7.930000000000000000e+02,5.130000000000000000e+02,6.980000000000000000e+02,2.600000000000000089e-01,4.439727300000000000e+09
1.710000000000000000e+02,5.060000000000000000e+02,7.610000000000000000e+02,1.600000000000000000e+02,1.070000000000000000e+02,8.600000000000000000e+02,5.910000000000000000e+02,6.980000000000000000e+02,2.600000000000000089e-01,4.439741100000000000e+09
1.800000000000000000e+02,4.890000000000000000e+02,7.470000000000000000e+02,1.720000000000000000e+02,9.500000000000000000e+01,6.570000000000000000e+02,6.010000000000000000e+02,6.510000000000000000e+02,2.700000000000000178e-01,4.458278200000000000e+09
1.890000000000000000e+02,3.860000000000000000e+02,8.620000000000000000e+02,1.750000000000000000e+02,9.700000000000000000e+01,5.990000000000000000e+02,5.740000000000000000e+02,6.420000000000000000e+02,2.800000000000000266e-01,4.479432300000000000e+09
1.740000000000000000e+02,3.910000000000000000e+02,8.540000000000000000e+02,1.580000000000000000e+02,9.100000000000000000e+01,6.390000000000000000e+02,6.020000000000000000e+02,6.440000000000000000e+02,2.899999999999999800e-01,4.498416800000000000e+09
1.900000000000000000e+02,3.430000000000000000e+02,8.460000000000000000e+02,1.520000000000000000e+02,8.300000000000000000e+01,6.210000000000000000e+02,6.860000000000000000e+02,5.630000000000000000e+02,2.999999999999999889e-01,4.519825100000000000e+09
1.860000000000000000e+02,3.220000000000000000e+02,6.960000000000000000e+02,1.450000000000000000e+02,8.200000000000000000e+01,6.040000000000000000e+02,6.660000000000000000e+02,5.350000000000000000e+02,3.099999999999999978e-01,4.538575700000000000e+09
1.880000000000000000e+02,3.260000000000000000e+02,6.960000000000000000e+02,1.360000000000000000e+02,7.600000000000000000e+01,5.870000000000000000e+02,6.500000000000000000e+02,6.090000000000000000e+02,3.200000000000000067e-01,4.559732600000000000e+09
1.880000000000000000e+02,3.590000000000000000e+02,5.910000000000000000e+02,1.470000000000000000e+02,7.700000000000000000e+01,6.100000000000000000e+02,6.340000000000000000e+02,6.630000000000000000e+02,3.300000000000000155e-01,4.578503000000000000e+09
1.890000000000000000e+02,3.990000000000000000e+02,5.210000000000000000e+02,1.370000000000000000e+02,7.300000000000000000e+01,6.080000000000000000e+02,6.920000000000000000e+02,6.290000000000000000e+02,3.400000000000000244e-01,4.599917300000000000e+09
1.710000000000000000e+02,3.990000000000000000e+02,4.560000000000000000e+02,1.410000000000000000e+02,8.600000000000000000e+01,6.030000000000000000e+02,6.920000000000000000e+02,6.200000000000000000e+02,3.499999999999999778e-01,4.618435000000000000e+09
2.040000000000000000e+02,4.040000000000000000e+02,4.550000000000000000e+02,1.390000000000000000e+02,8.600000000000000000e+01,5.860000000000000000e+02,6.820000000000000000e+02,6.730000000000000000e+02,3.599999999999999867e-01,4.639287400000000000e+09
1.990000000000000000e+02,4.360000000000000000e+02,5.420000000000000000e+02,1.410000000000000000e+02,9.200000000000000000e+01,5.980000000000000000e+02,6.750000000000000000e+02,6.070000000000000000e+02,3.699999999999999956e-01,4.658198700000000000e+09
2.090000000000000000e+02,4.470000000000000000e+02,6.390000000000000000e+02,1.490000000000000000e+02,9.300000000000000000e+01,5.760000000000000000e+02,6.850000000000000000e+02,5.860000000000000000e+02,3.800000000000000044e-01,4.679484200000000000e+09
2.080000000000000000e+02,3.720000000000000000e+02,6.890000000000000000e+02,1.720000000000000000e+02,1.050000000000000000e+02,5.480000000000000000e+02,6.080000000000000000e+02,6.780000000000000000e+02,3.900000000000000133e-01,4.698457000000000000e+09
2.170000000000000000e+02,3.780000000000000000e+02,7.020000000000000000e+02,1.710000000000000000e+02,9.300000000000000000e+01,4.820000000000000000e+02,6.690000000000000000e+02,7.370000000000000000e+02,4.000000000000000222e-01,4.719403600000000000e+09
2.120000000000000000e+02,3.930000000000000000e+02,7.290000000000000000e+02,1.710000000000000000e+02,8.800000000000000000e+01,3.830000000000000000e+02,6.890000000000000000e+02,7.210000000000000000e+02,4.099999999999999756e-01,4.740039100000000000e+09
2.070000000000000000e+02,3.750000000000000000e+02,7.270000000000000000e+02,1.780000000000000000e+02,8.400000000000000000e+01,3.620000000000000000e+02,7.270000000000000000e+02,7.000000000000000000e+02,4.199999999999999845e-01,4.758552900000000000e+09
1.920000000000000000e+02,3.130000000000000000e+02,6.580000000000000000e+02,1.610000000000000000e+02,8.300000000000000000e+01,5.900000000000000000e+02,7.890000000000000000e+02,7.570000000000000000e+02,4.299999999999999933e-01,4.779869700000000000e+09
1.850000000000000000e+02,3.220000000000000000e+02,5.490000000000000000e+02,1.290000000000000000e+02,7.300000000000000000e+01,6.980000000000000000e+02,8.840000000000000000e+02,6.980000000000000000e+02,4.400000000000000022e-01,4.798624500000000000e+09
1.950000000000000000e+02,3.440000000000000000e+02,5.250000000000000000e+02,1.240000000000000000e+02,7.100000000000000000e+01,8.090000000000000000e+02,8.120000000000000000e+02,7.990000000000000000e+02,4.500000000000000111e-01,4.819816500000000000e+09
1.770000000000000000e+02,3.230000000000000000e+02,4.910000000000000000e+02,1.230000000000000000e+02,7.200000000000000000e+01,8.000000000000000000e+02,8.170000000000000000e+02,8.110000000000000000e+02,4.600000000000000200e-01,4.838932700000000000e+09
1.990000000000000000e+02,3.730000000000000000e+02,6.650000000000000000e+02,1.630000000000000000e+02,8.800000000000000000e+01,8.190000000000000000e+02,7.800000000000000000e+02,8.540000000000000000e+02,4.699999999999999734e-01,4.859981500000000000e+09
1.970000000000000000e+02,3.740000000000000000e+02,7.110000000000000000e+02,1.610000000000000000e+02,8.000000000000000000e+01,6.850000000000000000e+02,7.640000000000000000e+02,8.050000000000000000e+02,4.799999999999999822e-01,4.878733100000000000e+09
1.940000000000000000e+02,3.710000000000000000e+02,7.400000000000000000e+02,1.660000000000000000e+02,7.800000000000000000e+01,6.730000000000000000e+02,7.520000000000000000e+02,9.000000000000000000e+02,4.899999999999999911e-01,4.899796400000000000e+09
2.140000000000000000e+02,3.440000000000000000e+02,7.540000000000000000e+02,1.670000000000000000e+02,8.200000000000000000e+01,6.540000000000000000e+02,7.670000000000000000e+02,7.660000000000000000e+02,5.000000000000000000e-01,4.918888500000000000e+09
2.090000000000000000e+02,3.840000000000000000e+02,7.680000000000000000e+02,1.690000000000000000e+02,8.500000000000000000e+01,6.530000000000000000e+02,7.450000000000000000e+02,7.160000000000000000e+02,5.100000000000000089e-01,4.940661600000000000e+09
1.840000000000000000e+02,3.270000000000000000e+02,7.120000000000000000e+02,1.160000000000000000e+02,6.500000000000000000e+01,7.220000000000000000e+02,7.370000000000000000e+02,6.780000000000000000e+02,5.200000000000000178e-01,4.959394000000000000e+09
1.830000000000000000e+02,3.050000000000000000e+02,6.080000000000000000e+02,8.600000000000000000e+01,6.000000000000000000e+01,7.880000000000000000e+02,7.330000000000000000e+02,6.990000000000000000e+02,5.300000000000000266e-01,4.978165800000000000e+09
2.120000000000000000e+02,2.970000000000000000e+02,5.750000000000000000e+02,7.400000000000000000e+01,5.700000000000000000e+01,7.140000000000000000e+02,6.840000000000000000e+02,6.060000000000000000e+02,5.400000000000000355e-01,4.999984100000000000e+09
1.910000000000000000e+02,2.970000000000000000e+02,5.530000000000000000e+02,7.400000000000000000e+01,5.800000000000000000e+01,6.070000000000000000e+02,7.750000000000000000e+02,6.320000000000000000e+02,5.500000000000000444e-01,5.018962100000000000e+09
2.020000000000000000e+02,2.740000000000000000e+02,5.260000000000000000e+02,7.100000000000000000e+01,6.000000000000000000e+01,6.470000000000000000e+02,8.100000000000000000e+02,7.160000000000000000e+02,5.600000000000000533e-01,5.040316400000000000e+09
2.130000000000000000e+02,2.510000000000000000e+02,4.180000000000000000e+02,6.600000000000000000e+01,6.100000000000000000e+01,5.470000000000000000e+02,8.620000000000000000e+02,7.790000000000000000e+02,5.699999999999999512e-01,5.059412300000000000e+09
2.570000000000000000e+02,3.120000000000000000e+02,5.410000000000000000e+02,9.200000000000000000e+01,6.500000000000000000e+01,5.010000000000000000e+02,8.230000000000000000e+02,7.240000000000000000e+02,5.899999999999999689e-01,5.100255100000000000e+09
2.430000000000000000e+02,3.370000000000000000e+02,5.630000000000000000e+02,9.400000000000000000e+01,6.100000000000000000e+01,5.320000000000000000e+02,8.660000000000000000e+02,7.480000000000000000e+02,5.899999999999999689e-01,5.100333200000000000e+09
2.280000000000000000e+02,3.360000000000000000e+02,5.690000000000000000e+02,9.300000000000000000e+01,5.700000000000000000e+01,5.330000000000000000e+02,7.900000000000000000e+02,7.600000000000000000e+02,5.999999999999999778e-01,5.119124700000000000e+09
2.260000000000000000e+02,3.440000000000000000e+02,6.460000000000000000e+02,1.050000000000000000e+02,5.400000000000000000e+01,5.200000000000000000e+02,7.710000000000000000e+02,7.920000000000000000e+02,6.099999999999999867e-01,5.140007900000000000e+09
2.180000000000000000e+02,3.710000000000000000e+02,5.520000000000000000e+02,9.700000000000000000e+01,5.300000000000000000e+01,5.400000000000000000e+02,8.360000000000000000e+02,8.780000000000000000e+02,6.199999999999999956e-01,5.158791200000000000e+09
1.690000000000000000e+02,3.380000000000000000e+02,5.320000000000000000e+02,7.600000000000000000e+01,4.400000000000000000e+01,4.710000000000000000e+02,8.550000000000000000e+02,9.220000000000000000e+02,6.300000000000000044e-01,5.180004700000000000e+09
1.560000000000000000e+02,3.170000000000000000e+02,5.510000000000000000e+02,7.800000000000000000e+01,4.900000000000000000e+01,4.190000000000000000e+02,7.700000000000000000e+02,8.720000000000000000e+02,6.400000000000000133e-01,5.198331200000000000e+09
1.470000000000000000e+02,3.250000000000000000e+02,5.780000000000000000e+02,8.200000000000000000e+01,5.000000000000000000e+01,4.030000000000000000e+02,7.610000000000000000e+02,8.890000000000000000e+02,6.500000000000000222e-01,5.219745200000000000e+09
1.290000000000000000e+02,3.160000000000000000e+02,4.960000000000000000e+02,6.500000000000000000e+01,4.700000000000000000e+01,3.730000000000000000e+02,7.160000000000000000e+02,8.130000000000000000e+02,6.600000000000000311e-01,5.238523400000000000e+09
1.500000000000000000e+02,3.360000000000000000e+02,4.820000000000000000e+02,6.600000000000000000e+01,5.700000000000000000e+01,3.960000000000000000e+02,6.890000000000000000e+02,7.330000000000000000e+02,6.800000000000000488e-01,5.278442900000000000e+09
1.490000000000000000e+02,3.470000000000000000e+02,4.000000000000000000e+02,6.400000000000000000e+01,5.700000000000000000e+01,4.730000000000000000e+02,6.860000000000000000e+02,7.470000000000000000e+02,6.800000000000000488e-01,5.278455000000000000e+09
1.740000000000000000e+02,3.400000000000000000e+02,3.770000000000000000e+02,6.300000000000000000e+01,6.300000000000000000e+01,4.980000000000000000e+02,8.850000000000000000e+02,8.430000000000000000e+02,6.899999999999999467e-01,5.299696800000000000e+09
1.990000000000000000e+02,4.220000000000000000e+02,4.410000000000000000e+02,6.400000000000000000e+01,6.700000000000000000e+01,5.700000000000000000e+02,9.080000000000000000e+02,8.250000000000000000e+02,6.999999999999999556e-01,5.318312100000000000e+09
2.080000000000000000e+02,4.280000000000000000e+02,4.610000000000000000e+02,6.400000000000000000e+01,7.200000000000000000e+01,6.510000000000000000e+02,9.930000000000000000e+02,8.680000000000000000e+02,7.199999999999999734e-01,5.358554000000000000e+09
2.270000000000000000e+02,4.000000000000000000e+02,4.850000000000000000e+02,7.700000000000000000e+01,6.800000000000000000e+01,6.320000000000000000e+02,9.760000000000000000e+02,8.720000000000000000e+02,7.199999999999999734e-01,5.358572800000000000e+09
2.560000000000000000e+02,4.180000000000000000e+02,4.550000000000000000e+02,7.200000000000000000e+01,8.600000000000000000e+01,7.040000000000000000e+02,1.098000000000000000e+03,8.740000000000000000e+02,7.299999999999999822e-01,5.380058900000000000e+09
2.690000000000000000e+02,4.680000000000000000e+02,4.200000000000000000e+02,6.900000000000000000e+01,8.400000000000000000e+01,7.490000000000000000e+02,9.630000000000000000e+02,8.370000000000000000e+02,7.399999999999999911e-01,5.398746600000000000e+09
2.730000000000000000e+02,4.490000000000000000e+02,3.720000000000000000e+02,7.400000000000000000e+01,9.400000000000000000e+01,8.230000000000000000e+02,1.002000000000000000e+03,8.260000000000000000e+02,7.500000000000000000e-01,5.419569200000000000e+09
2.680000000000000000e+02,4.500000000000000000e+02,3.590000000000000000e+02,7.700000000000000000e+01,9.700000000000000000e+01,8.090000000000000000e+02,9.410000000000000000e+02,7.890000000000000000e+02,7.600000000000000089e-01,5.440490700000000000e+09
2.790000000000000000e+02,4.580000000000000000e+02,3.670000000000000000e+02,7.400000000000000000e+01,1.090000000000000000e+02,8.190000000000000000e+02,9.680000000000000000e+02,8.120000000000000000e+02,7.700000000000000178e-01,5.458840600000000000e+09
2.640000000000000000e+02,4.670000000000000000e+02,3.730000000000000000e+02,7.300000000000000000e+01,1.030000000000000000e+02,8.660000000000000000e+02,8.250000000000000000e+02,7.910000000000000000e+02,7.800000000000000266e-01,5.479984700000000000e+09
2.590000000000000000e+02,4.390000000000000000e+02,4.290000000000000000e+02,7.600000000000000000e+01,1.090000000000000000e+02,9.450000000000000000e+02,8.160000000000000000e+02,7.780000000000000000e+02,7.900000000000000355e-01,5.498419500000000000e+09
2.620000000000000000e+02,4.820000000000000000e+02,3.900000000000000000e+02,7.600000000000000000e+01,1.040000000000000000e+02,9.750000000000000000e+02,8.440000000000000000e+02,8.190000000000000000e+02,8.000000000000000444e-01,5.519660500000000000e+09
2.630000000000000000e+02,5.080000000000000000e+02,3.930000000000000000e+02,7.700000000000000000e+01,1.050000000000000000e+02,1.059000000000000000e+03,8.640000000000000000e+02,8.440000000000000000e+02,8.100000000000000533e-01,5.538495600000000000e+09
2.480000000000000000e+02,4.930000000000000000e+02,3.730000000000000000e+02,7.700000000000000000e+01,1.030000000000000000e+02,1.149000000000000000e+03,8.720000000000000000e+02,7.710000000000000000e+02,8.199999999999999512e-01,5.559559100000000000e+09
2.550000000000000000e+02,4.790000000000000000e+02,3.750000000000000000e+02,8.000000000000000000e+01,1.070000000000000000e+02,1.100000000000000000e+03,9.040000000000000000e+02,7.590000000000000000e+02,8.299999999999999600e-01,5.578216200000000000e+09
2.370000000000000000e+02,5.040000000000000000e+02,3.380000000000000000e+02,7.600000000000000000e+01,1.010000000000000000e+02,1.028000000000000000e+03,8.830000000000000000e+02,7.510000000000000000e+02,8.399999999999999689e-01,5.599513200000000000e+09
2.440000000000000000e+02,5.330000000000000000e+02,3.140000000000000000e+02,7.500000000000000000e+01,1.190000000000000000e+02,1.022000000000000000e+03,8.810000000000000000e+02,7.960000000000000000e+02,8.499999999999999778e-01,5.618157600000000000e+09
2.680000000000000000e+02,4.980000000000000000e+02,2.900000000000000000e+02,7.400000000000000000e+01,1.250000000000000000e+02,9.770000000000000000e+02,8.990000000000000000e+02,8.970000000000000000e+02,8.599999999999999867e-01,5.639227400000000000e+09
2.720000000000000000e+02,5.470000000000000000e+02,2.630000000000000000e+02,6.600000000000000000e+01,1.300000000000000000e+02,1.000000000000000000e+03,9.550000000000000000e+02,8.950000000000000000e+02,8.699999999999999956e-01,5.658220300000000000e+09
2.650000000000000000e+02,5.660000000000000000e+02,2.860000000000000000e+02,6.600000000000000000e+01,1.320000000000000000e+02,1.066000000000000000e+03,9.460000000000000000e+02,9.400000000000000000e+02,8.800000000000000044e-01,5.679292100000000000e+09
2.780000000000000000e+02,5.770000000000000000e+02,2.520000000000000000e+02,7.000000000000000000e+01,1.490000000000000000e+02,1.248000000000000000e+03,9.880000000000000000e+02,9.560000000000000000e+02,8.900000000000000133e-01,5.698562800000000000e+09
2.850000000000000000e+02,5.080000000000000000e+02,3.600000000000000000e+02,7.800000000000000000e+01,1.560000000000000000e+02,1.233000000000000000e+03,9.880000000000000000e+02,9.520000000000000000e+02,9.000000000000000222e-01,5.720262500000000000e+09
3.670000000000000000e+02,5.090000000000000000e+02,4.810000000000000000e+02,1.030000000000000000e+02,1.710000000000000000e+02,1.280000000000000000e+03,1.020000000000000000e+03,9.820000000000000000e+02,9.100000000000000311e-01,5.739222800000000000e+09
3.790000000000000000e+02,5.290000000000000000e+02,5.180000000000000000e+02,1.200000000000000000e+02,1.840000000000000000e+02,1.283000000000000000e+03,1.024000000000000000e+03,1.002000000000000000e+03,9.200000000000000400e-01,5.760277800000000000e+09
3.800000000000000000e+02,5.670000000000000000e+02,5.170000000000000000e+02,1.210000000000000000e+02,1.830000000000000000e+02,1.240000000000000000e+03,1.046000000000000000e+03,1.019000000000000000e+03,9.300000000000000488e-01,5.778943300000000000e+09
3.790000000000000000e+02,6.050000000000000000e+02,5.410000000000000000e+02,1.290000000000000000e+02,1.850000000000000000e+02,1.095000000000000000e+03,1.071000000000000000e+03,1.023000000000000000e+03,9.399999999999999467e-01,5.799930900000000000e+09
3.630000000000000000e+02,5.920000000000000000e+02,4.940000000000000000e+02,1.250000000000000000e+02,1.820000000000000000e+02,1.167000000000000000e+03,1.058000000000000000e+03,9.910000000000000000e+02,9.499999999999999556e-01,5.818902200000000000e+09
2.770000000000000000e+02,6.350000000000000000e+02,3.950000000000000000e+02,1.050000000000000000e+02,1.660000000000000000e+02,1.178000000000000000e+03,1.070000000000000000e+03,9.320000000000000000e+02,9.599999999999999645e-01,5.840160100000000000e+09
2.880000000000000000e+02,5.980000000000000000e+02,3.690000000000000000e+02,9.500000000000000000e+01,1.920000000000000000e+02,1.169000000000000000e+03,1.062000000000000000e+03,9.190000000000000000e+02,9.699999999999999734e-01,5.858627100000000000e+09
3.150000000000000000e+02,5.720000000000000000e+02,3.810000000000000000e+02,1.010000000000000000e+02,2.150000000000000000e+02,1.282000000000000000e+03,1.071000000000000000e+03,9.300000000000000000e+02,9.799999999999999822e-01,5.879991800000000000e+09
3.870000000000000000e+02,5.300000000000000000e+02,3.430000000000000000e+02,1.070000000000000000e+02,2.310000000000000000e+02,1.330000000000000000e+03,1.128000000000000000e+03,9.660000000000000000e+02,9.899999999999999911e-01,5.898375900000000000e+09
4.140000000000000000e+02,5.520000000000000000e+02,3.430000000000000000e+02,1.170000000000000000e+02,2.440000000000000000e+02,1.407000000000000000e+03,1.089000000000000000e+03,1.065000000000000000e+03,9.799999999999999822e-01,5.919512700000000000e+09
4.280000000000000000e+02,6.480000000000000000e+02,3.780000000000000000e+02,1.180000000000000000e+02,2.530000000000000000e+02,1.467000000000000000e+03,1.069000000000000000e+03,9.980000000000000000e+02,9.699999999999999734e-01,5.938395300000000000e+09
4.190000000000000000e+02,6.550000000000000000e+02,3.880000000000000000e+02,1.120000000000000000e+02,2.420000000000000000e+02,1.570000000000000000e+03,1.046000000000000000e+03,1.005000000000000000e+03,9.599999999999999645e-01,5.959869200000000000e+09
4.090000000000000000e+02,6.460000000000000000e+02,3.490000000000000000e+02,1.120000000000000000e+02,2.480000000000000000e+02,1.561000000000000000e+03,1.027000000000000000e+03,9.690000000000000000e+02,9.499999999999999556e-01,5.978542800000000000e+09
3.840000000000000000e+02,6.840000000000000000e+02,3.760000000000000000e+02,1.010000000000000000e+02,2.330000000000000000e+02,1.592000000000000000e+03,9.390000000000000000e+02,1.008000000000000000e+03,9.399999999999999467e-01,5.999652900000000000e+09
3.820000000000000000e+02,7.130000000000000000e+02,3.610000000000000000e+02,9.200000000000000000e+01,2.180000000000000000e+02,1.471000000000000000e+03,9.870000000000000000e+02,8.780000000000000000e+02,9.300000000000000488e-01,6.018563600000000000e+09
4.160000000000000000e+02,6.430000000000000000e+02,3.270000000000000000e+02,1.090000000000000000e+02,2.250000000000000000e+02,1.406000000000000000e+03,1.003000000000000000e+03,9.080000000000000000e+02,9.200000000000000400e-01,6.040014100000000000e+09
4.390000000000000000e+02,6.620000000000000000e+02,3.500000000000000000e+02,1.170000000000000000e+02,2.110000000000000000e+02,1.244000000000000000e+03,9.990000000000000000e+02,9.260000000000000000e+02,9.100000000000000311e-01,6.059307100000000000e+09
4.730000000000000000e+02,6.960000000000000000e+02,3.710000000000000000e+02,1.180000000000000000e+02,1.990000000000000000e+02,1.265000000000000000e+03,1.023000000000000000e+03,9.150000000000000000e+02,9.000000000000000222e-01,6.080528400000000000e+09
4.420000000000000000e+02,6.860000000000000000e+02,3.750000000000000000e+02,1.170000000000000000e+02,2.150000000000000000e+02,1.324000000000000000e+03,1.102000000000000000e+03,8.950000000000000000e+02,8.900000000000000133e-01,6.099261600000000000e+09
4.110000000000000000e+02,6.550000000000000000e+02,4.810000000000000000e+02,1.150000000000000000e+02,2.060000000000000000e+02,1.304000000000000000e+03,1.042000000000000000e+03,8.470000000000000000e+02,8.800000000000000044e-01,6.118203200000000000e+09
3.490000000000000000e+02,6.210000000000000000e+02,5.760000000000000000e+02,1.210000000000000000e+02,1.860000000000000000e+02,1.206000000000000000e+03,9.580000000000000000e+02,7.840000000000000000e+02,8.699999999999999956e-01,6.139462300000000000e+09
2.850000000000000000e+02,6.010000000000000000e+02,7.490000000000000000e+02,1.220000000000000000e+02,1.670000000000000000e+02,1.149000000000000000e+03,8.270000000000000000e+02,7.120000000000000000e+02,8.599999999999999867e-01,6.160313600000000000e+09
1.880000000000000000e+02,5.300000000000000000e+02,7.910000000000000000e+02,1.400000000000000000e+02,1.390000000000000000e+02,9.750000000000000000e+02,7.080000000000000000e+02,6.390000000000000000e+02,8.499999999999999778e-01,6.179561400000000000e+09
1.490000000000000000e+02,4.410000000000000000e+02,9.030000000000000000e+02,1.600000000000000000e+02,9.800000000000000000e+01,9.190000000000000000e+02,4.630000000000000000e+02,4.170000000000000000e+02,8.399999999999999689e-01,6.200551400000000000e+09
1.520000000000000000e+02,3.790000000000000000e+02,9.150000000000000000e+02,1.740000000000000000e+02,8.900000000000000000e+01,1.190000000000000000e+03,3.200000000000000000e+02,3.400000000000000000e+02,8.299999999999999600e-01,6.219015100000000000e+09
1.360000000000000000e+02,3.150000000000000000e+02,9.350000000000000000e+02,1.610000000000000000e+02,8.200000000000000000e+01,1.328000000000000000e+03,2.720000000000000000e+02,3.480000000000000000e+02,8.199999999999999512e-01,6.238080500000000000e+09
1.500000000000000000e+02,2.900000000000000000e+02,8.230000000000000000e+02,1.580000000000000000e+02,8.300000000000000000e+01,1.482000000000000000e+03,3.000000000000000000e+02,3.630000000000000000e+02,8.100000000000000533e-01,6.259471900000000000e+09
1.420000000000000000e+02,2.910000000000000000e+02,8.290000000000000000e+02,1.420000000000000000e+02,7.900000000000000000e+01,1.452000000000000000e+03,2.980000000000000000e+02,3.490000000000000000e+02,8.000000000000000444e-01,6.278162600000000000e+09
1.430000000000000000e+02,3.150000000000000000e+02,8.200000000000000000e+02,1.560000000000000000e+02,6.200000000000000000e+01,1.353000000000000000e+03,2.850000000000000000e+02,3.400000000000000000e+02,7.900000000000000355e-01,6.299343000000000000e+09
1.340000000000000000e+02,3.280000000000000000e+02,8.550000000000000000e+02,1.520000000000000000e+02,6.200000000000000000e+01,1.124000000000000000e+03,2.790000000000000000e+02,3.350000000000000000e+02,7.800000000000000266e-01,6.320763900000000000e+09
1.410000000000000000e+02,3.430000000000000000e+02,7.790000000000000000e+02,1.550000000000000000e+02,5.600000000000000000e+01,1.060000000000000000e+03,2.740000000000000000e+02,2.330000000000000000e+02,7.700000000000000178e-01,6.339887700000000000e+09
1.240000000000000000e+02,2.990000000000000000e+02,7.450000000000000000e+02,1.500000000000000000e+02,5.500000000000000000e+01,9.620000000000000000e+02,2.670000000000000000e+02,2.230000000000000000e+02,7.600000000000000089e-01,6.358768500000000000e+09
1.400000000000000000e+02,3.390000000000000000e+02,7.840000000000000000e+02,1.540000000000000000e+02,6.000000000000000000e+01,9.560000000000000000e+02,2.720000000000000000e+02,2.150000000000000000e+02,7.500000000000000000e-01,6.380172400000000000e+09
1.370000000000000000e+02,3.330000000000000000e+02,7.180000000000000000e+02,1.230000000000000000e+02,5.200000000000000000e+01,9.050000000000000000e+02,2.790000000000000000e+02,2.210000000000000000e+02,7.299999999999999822e-01,6.419661200000000000e+09
1.520000000000000000e+02,3.600000000000000000e+02,6.950000000000000000e+02,1.330000000000000000e+02,6.000000000000000000e+01,8.520000000000000000e+02,2.770000000000000000e+02,2.250000000000000000e+02,7.299999999999999822e-01,6.419713900000000000e+09
1.440000000000000000e+02,3.810000000000000000e+02,7.450000000000000000e+02,1.360000000000000000e+02,6.200000000000000000e+01,7.010000000000000000e+02,2.110000000000000000e+02,2.250000000000000000e+02,7.199999999999999734e-01,6.440947600000000000e+09
1.350000000000000000e+02,3.740000000000000000e+02,7.970000000000000000e+02,1.350000000000000000e+02,6.000000000000000000e+01,5.370000000000000000e+02,1.800000000000000000e+02,2.100000000000000000e+02,7.099999999999999645e-01,6.459400000000000000e+09
1.370000000000000000e+02,3.570000000000000000e+02,7.260000000000000000e+02,1.310000000000000000e+02,5.800000000000000000e+01,5.310000000000000000e+02,1.730000000000000000e+02,2.200000000000000000e+02,6.999999999999999556e-01,6.478224800000000000e+09
1.540000000000000000e+02,3.770000000000000000e+02,6.870000000000000000e+02,1.450000000000000000e+02,7.400000000000000000e+01,4.440000000000000000e+02,1.620000000000000000e+02,2.140000000000000000e+02,6.899999999999999467e-01,6.499280700000000000e+09
1.310000000000000000e+02,3.510000000000000000e+02,6.260000000000000000e+02,1.260000000000000000e+02,6.700000000000000000e+01,3.800000000000000000e+02,1.590000000000000000e+02,2.060000000000000000e+02,6.800000000000000488e-01,6.518628900000000000e+09
1.310000000000000000e+02,3.100000000000000000e+02,6.070000000000000000e+02,1.200000000000000000e+02,6.400000000000000000e+01,3.530000000000000000e+02,1.670000000000000000e+02,1.980000000000000000e+02,6.700000000000000400e-01,6.539851500000000000e+09
1.320000000000000000e+02,3.320000000000000000e+02,5.820000000000000000e+02,1.270000000000000000e+02,6.400000000000000000e+01,2.470000000000000000e+02,1.290000000000000000e+02,1.290000000000000000e+02,6.600000000000000311e-01,6.558779300000000000e+09
1.190000000000000000e+02,3.190000000000000000e+02,5.720000000000000000e+02,1.170000000000000000e+02,6.200000000000000000e+01,2.290000000000000000e+02,1.360000000000000000e+02,1.070000000000000000e+02,6.500000000000000222e-01,6.580051600000000000e+09
1.060000000000000000e+02,3.100000000000000000e+02,7.370000000000000000e+02,9.500000000000000000e+01,5.100000000000000000e+01,2.200000000000000000e+02,1.320000000000000000e+02,9.200000000000000000e+01,6.400000000000000133e-01,6.598958100000000000e+09
1.080000000000000000e+02,3.100000000000000000e+02,7.670000000000000000e+02,9.000000000000000000e+01,4.900000000000000000e+01,2.110000000000000000e+02,1.440000000000000000e+02,9.200000000000000000e+01,6.300000000000000044e-01,6.620366400000000000e+09
1.030000000000000000e+02,3.290000000000000000e+02,8.060000000000000000e+02,8.200000000000000000e+01,4.900000000000000000e+01,1.930000000000000000e+02,1.270000000000000000e+02,1.010000000000000000e+02,6.199999999999999956e-01,6.639210100000000000e+09
1.090000000000000000e+02,3.050000000000000000e+02,8.320000000000000000e+02,7.900000000000000000e+01,5.100000000000000000e+01,1.710000000000000000e+02,1.210000000000000000e+02,9.100000000000000000e+01,6.099999999999999867e-01,6.658127200000000000e+09
1.080000000000000000e+02,3.230000000000000000e+02,9.260000000000000000e+02,1.130000000000000000e+02,5.600000000000000000e+01,1.730000000000000000e+02,9.200000000000000000e+01,8.800000000000000000e+01,5.999999999999999778e-01,6.679542500000000000e+09
1.060000000000000000e+02,2.970000000000000000e+02,8.060000000000000000e+02,1.210000000000000000e+02,5.200000000000000000e+01,1.690000000000000000e+02,9.200000000000000000e+01,8.200000000000000000e+01,5.899999999999999689e-01,6.698466600000000000e+09
1.030000000000000000e+02,2.920000000000000000e+02,7.640000000000000000e+02,1.240000000000000000e+02,5.200000000000000000e+01,1.280000000000000000e+02,8.800000000000000000e+01,7.900000000000000000e+01,5.799999999999999600e-01,6.719972100000000000e+09
1.080000000000000000e+02,2.730000000000000000e+02,7.130000000000000000e+02,1.260000000000000000e+02,5.500000000000000000e+01,1.780000000000000000e+02,9.000000000000000000e+01,8.000000000000000000e+01,5.699999999999999512e-01,6.738721700000000000e+09
9.900000000000000000e+01,3.850000000000000000e+02,7.940000000000000000e+02,1.290000000000000000e+02,5.900000000000000000e+01,1.980000000000000000e+02,9.900000000000000000e+01,7.100000000000000000e+01,5.500000000000000444e-01,6.778308900000000000e+09
1.040000000000000000e+02,3.780000000000000000e+02,7.900000000000000000e+02,1.120000000000000000e+02,5.500000000000000000e+01,2.010000000000000000e+02,1.040000000000000000e+02,6.900000000000000000e+01,5.500000000000000444e-01,6.778372500000000000e+09
1.040000000000000000e+02,3.700000000000000000e+02,8.070000000000000000e+02,9.700000000000000000e+01,5.100000000000000000e+01,1.990000000000000000e+02,1.030000000000000000e+02,6.500000000000000000e+01,5.400000000000000355e-01,6.799329300000000000e+09
1.150000000000000000e+02,3.750000000000000000e+02,8.520000000000000000e+02,9.200000000000000000e+01,5.100000000000000000e+01,2.010000000000000000e+02,8.800000000000000000e+01,6.300000000000000000e+01,5.200000000000000178e-01,6.839643100000000000e+09
1.140000000000000000e+02,3.760000000000000000e+02,9.450000000000000000e+02,9.200000000000000000e+01,4.900000000000000000e+01,1.780000000000000000e+02,8.100000000000000000e+01,9.100000000000000000e+01,5.200000000000000178e-01,6.839659700000000000e+09
1.180000000000000000e+02,2.980000000000000000e+02,8.700000000000000000e+02,9.700000000000000000e+01,4.700000000000000000e+01,1.870000000000000000e+02,7.300000000000000000e+01,9.300000000000000000e+01,5.000000000000000000e-01,6.879406300000000000e+09
1.390000000000000000e+02,4.050000000000000000e+02,8.430000000000000000e+02,1.100000000000000000e+02,5.500000000000000000e+01,1.900000000000000000e+02,6.600000000000000000e+01,9.900000000000000000e+01,4.899999999999999911e-01,6.898170700000000000e+09
1.370000000000000000e+02,4.360000000000000000e+02,8.670000000000000000e+02,1.140000000000000000e+02,5.500000000000000000e+01,2.100000000000000000e+02,6.700000000000000000e+01,1.000000000000000000e+02,4.899999999999999911e-01,6.898183500000000000e+09
1.270000000000000000e+02,5.910000000000000000e+02,8.700000000000000000e+02,1.310000000000000000e+02,5.600000000000000000e+01,2.100000000000000000e+02,7.100000000000000000e+01,1.000000000000000000e+02,4.799999999999999822e-01,6.919387600000000000e+09
1.270000000000000000e+02,6.590000000000000000e+02,7.720000000000000000e+02,1.340000000000000000e+02,5.900000000000000000e+01,1.980000000000000000e+02,9.800000000000000000e+01,6.700000000000000000e+01,4.600000000000000200e-01,6.958523800000000000e+09
1.250000000000000000e+02,6.970000000000000000e+02,8.730000000000000000e+02,1.300000000000000000e+02,6.100000000000000000e+01,1.770000000000000000e+02,9.700000000000000000e+01,6.500000000000000000e+01,4.600000000000000200e-01,6.958535700000000000e+09
9.700000000000000000e+01,7.420000000000000000e+02,8.200000000000000000e+02,1.110000000000000000e+02,5.400000000000000000e+01,1.760000000000000000e+02,9.700000000000000000e+01,5.500000000000000000e+01,4.500000000000000111e-01,6.980229900000000000e+09
9.600000000000000000e+01,7.580000000000000000e+02,8.680000000000000000e+02,1.230000000000000000e+02,5.600000000000000000e+01,1.470000000000000000e+02,9.800000000000000000e+01,5.700000000000000000e+01,4.299999999999999933e-01,7.019851800000000000e+09
9.900000000000000000e+01,6.400000000000000000e+02,8.340000000000000000e+02,1.170000000000000000e+02,5.800000000000000000e+01,1.470000000000000000e+02,9.200000000000000000e+01,5.700000000000000000e+01,4.299999999999999933e-01,7.019864300000000000e+09
9.400000000000000000e+01,6.670000000000000000e+02,7.960000000000000000e+02,1.160000000000000000e+02,5.400000000000000000e+01,1.150000000000000000e+02,6.300000000000000000e+01,5.900000000000000000e+01,4.199999999999999845e-01,7.039045500000000000e+09
1.080000000000000000e+02,7.220000000000000000e+02,6.870000000000000000e+02,1.300000000000000000e+02,5.400000000000000000e+01,1.450000000000000000e+02,7.500000000000000000e+01,8.600000000000000000e+01,4.000000000000000222e-01,7.079166300000000000e+09
1.080000000000000000e+02,7.010000000000000000e+02,8.860000000000000000e+02,1.450000000000000000e+02,5.600000000000000000e+01,1.480000000000000000e+02,7.400000000000000000e+01,8.900000000000000000e+01,4.000000000000000222e-01,7.079177300000000000e+09
1.000000000000000000e+02,6.770000000000000000e+02,8.770000000000000000e+02,1.340000000000000000e+02,5.300000000000000000e+01,1.530000000000000000e+02,7.200000000000000000e+01,8.900000000000000000e+01,3.900000000000000133e-01,7.098766300000000000e+09
1.060000000000000000e+02,7.310000000000000000e+02,9.280000000000000000e+02,1.380000000000000000e+02,6.400000000000000000e+01,1.590000000000000000e+02,7.800000000000000000e+01,9.000000000000000000e+01,3.699999999999999956e-01,7.139293600000000000e+09
1.070000000000000000e+02,6.630000000000000000e+02,1.026000000000000000e+03,1.360000000000000000e+02,6.300000000000000000e+01,1.640000000000000000e+02,9.400000000000000000e+01,8.400000000000000000e+01,3.699999999999999956e-01,7.139306100000000000e+09
1.090000000000000000e+02,5.450000000000000000e+02,1.006000000000000000e+03,1.220000000000000000e+02,5.800000000000000000e+01,1.200000000000000000e+02,8.800000000000000000e+01,8.000000000000000000e+01,3.599999999999999867e-01,7.159196400000000000e+09
1.030000000000000000e+02,4.640000000000000000e+02,8.500000000000000000e+02,1.150000000000000000e+02,5.400000000000000000e+01,1.050000000000000000e+02,9.200000000000000000e+01,8.000000000000000000e+01,3.400000000000000244e-01,7.198968900000000000e+09
1.100000000000000000e+02,4.660000000000000000e+02,7.740000000000000000e+02,1.350000000000000000e+02,5.800000000000000000e+01,1.000000000000000000e+02,9.500000000000000000e+01,8.500000000000000000e+01,3.400000000000000244e-01,7.198979900000000000e+09
1.020000000000000000e+02,4.290000000000000000e+02,7.930000000000000000e+02,1.240000000000000000e+02,4.300000000000000000e+01,1.330000000000000000e+02,1.000000000000000000e+02,8.600000000000000000e+01,3.300000000000000155e-01,7.220085300000000000e+09
1.020000000000000000e+02,4.040000000000000000e+02,7.520000000000000000e+02,1.330000000000000000e+02,4.700000000000000000e+01,1.270000000000000000e+02,7.800000000000000000e+01,8.500000000000000000e+01,3.099999999999999978e-01,7.259396200000000000e+09
8.200000000000000000e+01,4.140000000000000000e+02,7.750000000000000000e+02,1.370000000000000000e+02,4.800000000000000000e+01,1.240000000000000000e+02,7.200000000000000000e+01,6.100000000000000000e+01,3.099999999999999978e-01,7.259408000000000000e+09
7.200000000000000000e+01,3.600000000000000000e+02,8.390000000000000000e+02,1.350000000000000000e+02,5.100000000000000000e+01,1.370000000000000000e+02,8.400000000000000000e+01,5.900000000000000000e+01,2.999999999999999889e-01,7.279332400000000000e+09
7.200000000000000000e+01,4.370000000000000000e+02,8.800000000000000000e+02,1.220000000000000000e+02,5.800000000000000000e+01,1.450000000000000000e+02,8.100000000000000000e+01,7.300000000000000000e+01,2.800000000000000266e-01,7.319738600000000000e+09
6.800000000000000000e+01,4.490000000000000000e+02,8.640000000000000000e+02,1.230000000000000000e+02,5.600000000000000000e+01,1.050000000000000000e+02,7.700000000000000000e+01,7.300000000000000000e+01,2.800000000000000266e-01,7.319750000000000000e+09
6.800000000000000000e+01,4.630000000000000000e+02,8.770000000000000000e+02,1.180000000000000000e+02,5.500000000000000000e+01,1.110000000000000000e+02,7.800000000000000000e+01,7.500000000000000000e+01,2.700000000000000178e-01,7.338297000000000000e+09
7.400000000000000000e+01,4.580000000000000000e+02,9.340000000000000000e+02,1.210000000000000000e+02,5.400000000000000000e+01,1.200000000000000000e+02,8.200000000000000000e+01,7.500000000000000000e+01,2.500000000000000000e-01,7.378597600000000000e+09
7.800000000000000000e+01,4.500000000000000000e+02,9.610000000000000000e+02,1.140000000000000000e+02,5.600000000000000000e+01,1.560000000000000000e+02,8.200000000000000000e+01,7.500000000000000000e+01,2.500000000000000000e-01,7.378643800000000000e+09
6.900000000000000000e+01,3.560000000000000000e+02,9.150000000000000000e+02,1.080000000000000000e+02,4.500000000000000000e+01,1.530000000000000000e+02,8.500000000000000000e+01,6.300000000000000000e+01,2.399999999999999911e-01,7.399956900000000000e+09
8.000000000000000000e+01,2.790000000000000000e+02,9.560000000000000000e+02,1.510000000000000000e+02,6.700000000000000000e+01,1.830000000000000000e+02,8.400000000000000000e+01,8.000000000000000000e+01,2.200000000000000011e-01,7.439666600000000000e+09
8.900000000000000000e+01,3.290000000000000000e+02,1.028000000000000000e+03,1.530000000000000000e+02,7.100000000000000000e+01,1.820000000000000000e+02,8.400000000000000000e+01,8.200000000000000000e+01,2.200000000000000011e-01,7.439679900000000000e+09
9.700000000000000000e+01,3.230000000000000000e+02,9.530000000000000000e+02,1.700000000000000000e+02,7.900000000000000000e+01,1.890000000000000000e+02,8.900000000000000000e+01,8.300000000000000000e+01,2.099999999999999922e-01,7.458524000000000000e+09
1.000000000000000000e+02,3.350000000000000000e+02,8.770000000000000000e+02,1.780000000000000000e+02,7.700000000000000000e+01,1.630000000000000000e+02,8.100000000000000000e+01,8.000000000000000000e+01,1.900000000000000022e-01,7.498627600000000000e+09
1.130000000000000000e+02,3.460000000000000000e+02,9.320000000000000000e+02,1.840000000000000000e+02,8.100000000000000000e+01,1.620000000000000000e+02,7.600000000000000000e+01,7.800000000000000000e+01,1.900000000000000022e-01,7.498638600000000000e+09
1.110000000000000000e+02,3.740000000000000000e+02,8.330000000000000000e+02,1.510000000000000000e+02,6.700000000000000000e+01,1.270000000000000000e+02,7.400000000000000000e+01,6.200000000000000000e+01,1.799999999999999933e-01,7.519789200000000000e+09
1.120000000000000000e+02,3.350000000000000000e+02,6.710000000000000000e+02,1.660000000000000000e+02,7.100000000000000000e+01,1.290000000000000000e+02,7.900000000000000000e+01,6.000000000000000000e+01,1.600000000000000033e-01,7.559519000000000000e+09
1.050000000000000000e+02,3.240000000000000000e+02,7.070000000000000000e+02,1.520000000000000000e+02,6.500000000000000000e+01,1.100000000000000000e+02,6.600000000000000000e+01,6.000000000000000000e+01,1.499999999999999944e-01,7.578682600000000000e+09
1.020000000000000000e+02,3.310000000000000000e+02,6.780000000000000000e+02,1.570000000000000000e+02,7.000000000000000000e+01,2.080000000000000000e+02,5.700000000000000000e+01,6.200000000000000000e+01,1.499999999999999944e-01,7.578694200000000000e+09
1.000000000000000000e+02,3.180000000000000000e+02,7.210000000000000000e+02,1.730000000000000000e+02,7.600000000000000000e+01,2.460000000000000000e+02,7.600000000000000000e+01,6.000000000000000000e+01,1.300000000000000044e-01,7.618180800000000000e+09
9.900000000000000000e+01,2.830000000000000000e+02,7.250000000000000000e+02,1.850000000000000000e+02,7.800000000000000000e+01,2.470000000000000000e+02,7.500000000000000000e+01,5.500000000000000000e+01,1.300000000000000044e-01,7.618193600000000000e+09
1.070000000000000000e+02,3.450000000000000000e+02,8.100000000000000000e+02,1.800000000000000000e+02,7.500000000000000000e+01,2.910000000000000000e+02,7.300000000000000000e+01,5.600000000000000000e+01,1.199999999999999956e-01,7.639624000000000000e+09
1.060000000000000000e+02,3.850000000000000000e+02,9.390000000000000000e+02,1.890000000000000000e+02,7.400000000000000000e+01,3.070000000000000000e+02,8.400000000000000000e+01,5.200000000000000000e+01,1.000000000000000056e-01,7.680975500000000000e+09
1.270000000000000000e+02,4.450000000000000000e+02,1.030000000000000000e+03,2.220000000000000000e+02,7.900000000000000000e+01,2.500000000000000000e+02,8.700000000000000000e+01,5.700000000000000000e+01,8.999999999999999667e-02,7.699695900000000000e+09
1.310000000000000000e+02,4.780000000000000000e+02,1.091000000000000000e+03,2.290000000000000000e+02,7.600000000000000000e+01,2.150000000000000000e+02,7.100000000000000000e+01,5.400000000000000000e+01,8.999999999999999667e-02,7.699715200000000000e+09
1.430000000000000000e+02,4.980000000000000000e+02,1.126000000000000000e+03,2.430000000000000000e+02,8.800000000000000000e+01,2.190000000000000000e+02,7.100000000000000000e+01,6.100000000000000000e+01,7.000000000000000666e-02,7.740366000000000000e+09
1.580000000000000000e+02,5.210000000000000000e+02,1.124000000000000000e+03,2.820000000000000000e+02,1.040000000000000000e+02,1.590000000000000000e+02,7.400000000000000000e+01,7.200000000000000000e+01,5.999999999999999778e-02,7.759184000000000000e+09
1.840000000000000000e+02,5.400000000000000000e+02,1.110000000000000000e+03,3.040000000000000000e+02,1.160000000000000000e+02,1.360000000000000000e+02,6.600000000000000000e+01,8.400000000000000000e+01,5.999999999999999778e-02,7.759195700000000000e+09
1.790000000000000000e+02,5.480000000000000000e+02,1.176000000000000000e+03,3.020000000000000000e+02,1.170000000000000000e+02,1.280000000000000000e+02,6.400000000000000000e+01,8.200000000000000000e+01,4.000000000000000083e-02,7.798926500000000000e+09
1.830000000000000000e+02,5.510000000000000000e+02,1.131000000000000000e+03,3.150000000000000000e+02,1.210000000000000000e+02,1.260000000000000000e+02,6.500000000000000000e+01,8.600000000000000000e+01,2.999999999999999889e-02,7.820817700000000000e+09
1.760000000000000000e+02,5.460000000000000000e+02,1.230000000000000000e+03,3.050000000000000000e+02,1.150000000000000000e+02,1.140000000000000000e+02,6.200000000000000000e+01,8.200000000000000000e+01,2.999999999999999889e-02,7.820828800000000000e+09
1.770000000000000000e+02,4.930000000000000000e+02,1.245000000000000000e+03,3.020000000000000000e+02,1.140000000000000000e+02,1.180000000000000000e+02,6.300000000000000000e+01,8.100000000000000000e+01,1.000000000000000021e-02,7.860581900000000000e+09
1.790000000000000000e+02,4.870000000000000000e+02,1.246000000000000000e+03,3.820000000000000000e+02,1.290000000000000000e+02,1.070000000000000000e+02,6.400000000000000000e+01,8.500000000000000000e+01,0.000000000000000000e+00,7.879340400000000000e+09
1.970000000000000000e+02,5.210000000000000000e+02,1.147000000000000000e+03,3.760000000000000000e+02,1.270000000000000000e+02,1.000000000000000000e+02,6.300000000000000000e+01,8.800000000000000000e+01,1.000000000000000021e-02,7.898428500000000000e+09
1.990000000000000000e+02,5.650000000000000000e+02,1.134000000000000000e+03,3.830000000000000000e+02,1.360000000000000000e+02,9.600000000000000000e+01,6.400000000000000000e+01,9.000000000000000000e+01,2.000000000000000042e-02,7.919427300000000000e+09
2.090000000000000000e+02,5.910000000000000000e+02,1.099000000000000000e+03,4.110000000000000000e+02,1.400000000000000000e+02,1.100000000000000000e+02,9.500000000000000000e+01,9.200000000000000000e+01,2.999999999999999889e-02,7.940575500000000000e+09
2.040000000000000000e+02,5.860000000000000000e+02,1.100000000000000000e+03,4.160000000000000000e+02,1.380000000000000000e+02,1.400000000000000000e+02,9.300000000000000000e+01,9.100000000000000000e+01,2.999999999999999889e-02,7.940587300000000000e+09
1.970000000000000000e+02,6.170000000000000000e+02,1.031000000000000000e+03,3.290000000000000000e+02,1.210000000000000000e+02,1.360000000000000000e+02,9.600000000000000000e+01,8.400000000000000000e+01,5.000000000000000278e-02,7.980635300000000000e+09
1.830000000000000000e+02,5.960000000000000000e+02,1.056000000000000000e+03,3.340000000000000000e+02,1.290000000000000000e+02,1.420000000000000000e+02,9.900000000000000000e+01,8.500000000000000000e+01,5.999999999999999778e-02,7.999512100000000000e+09
1.710000000000000000e+02,5.300000000000000000e+02,1.062000000000000000e+03,3.100000000000000000e+02,1.230000000000000000e+02,3.590000000000000000e+02,1.700000000000000000e+02,1.310000000000000000e+02,5.999999999999999778e-02,7.999524900000000000e+09
1.590000000000000000e+02,4.880000000000000000e+02,9.540000000000000000e+02,2.650000000000000000e+02,1.180000000000000000e+02,4.230000000000000000e+02,1.990000000000000000e+02,2.600000000000000000e+02,8.000000000000000167e-02,8.039214800000000000e+09
1.460000000000000000e+02,4.970000000000000000e+02,9.550000000000000000e+02,2.290000000000000000e+02,1.090000000000000000e+02,4.460000000000000000e+02,2.420000000000000000e+02,3.530000000000000000e+02,8.999999999999999667e-02,8.058220300000000000e+09
1.230000000000000000e+02,4.510000000000000000e+02,9.320000000000000000e+02,2.170000000000000000e+02,1.070000000000000000e+02,4.600000000000000000e+02,2.430000000000000000e+02,3.770000000000000000e+02,8.999999999999999667e-02,8.058234100000000000e+09
1.100000000000000000e+02,3.710000000000000000e+02,8.510000000000000000e+02,1.800000000000000000e+02,9.300000000000000000e+01,5.140000000000000000e+02,3.350000000000000000e+02,4.860000000000000000e+02,1.100000000000000006e-01,8.098400500000000000e+09
1.150000000000000000e+02,3.590000000000000000e+02,7.230000000000000000e+02,1.530000000000000000e+02,9.300000000000000000e+01,5.470000000000000000e+02,4.950000000000000000e+02,5.930000000000000000e+02,1.199999999999999956e-01,8.120193400000000000e+09
1.510000000000000000e+02,3.910000000000000000e+02,7.390000000000000000e+02,1.540000000000000000e+02,8.900000000000000000e+01,6.630000000000000000e+02,5.180000000000000000e+02,7.290000000000000000e+02,1.199999999999999956e-01,8.120205300000000000e+09
1.550000000000000000e+02,3.710000000000000000e+02,6.240000000000000000e+02,1.340000000000000000e+02,8.300000000000000000e+01,6.620000000000000000e+02,5.210000000000000000e+02,7.190000000000000000e+02,1.400000000000000133e-01,8.160505100000000000e+09
1.780000000000000000e+02,3.570000000000000000e+02,6.240000000000000000e+02,1.420000000000000000e+02,8.300000000000000000e+01,7.170000000000000000e+02,5.640000000000000000e+02,8.080000000000000000e+02,1.499999999999999944e-01,8.178921000000000000e+09
1.790000000000000000e+02,3.540000000000000000e+02,7.230000000000000000e+02,1.730000000000000000e+02,8.800000000000000000e+01,7.500000000000000000e+02,6.830000000000000000e+02,8.300000000000000000e+02,1.499999999999999944e-01,8.178953900000000000e+09
1.800000000000000000e+02,3.810000000000000000e+02,7.410000000000000000e+02,1.870000000000000000e+02,9.400000000000000000e+01,7.640000000000000000e+02,8.200000000000000000e+02,8.940000000000000000e+02,1.700000000000000122e-01,8.220765900000000000e+09
1.610000000000000000e+02,3.800000000000000000e+02,6.830000000000000000e+02,1.870000000000000000e+02,1.100000000000000000e+02,7.090000000000000000e+02,8.900000000000000000e+02,8.300000000000000000e+02,1.799999999999999933e-01,8.238410500000000000e+09
1.730000000000000000e+02,3.630000000000000000e+02,6.870000000000000000e+02,1.830000000000000000e+02,1.100000000000000000e+02,7.290000000000000000e+02,8.790000000000000000e+02,8.670000000000000000e+02,1.799999999999999933e-01,8.238422900000000000e+09
1.520000000000000000e+02,3.290000000000000000e+02,6.760000000000000000e+02,1.690000000000000000e+02,1.020000000000000000e+02,6.800000000000000000e+02,8.910000000000000000e+02,8.110000000000000000e+02,2.000000000000000111e-01,8.278555100000000000e+09
1.690000000000000000e+02,3.180000000000000000e+02,7.030000000000000000e+02,1.490000000000000000e+02,1.060000000000000000e+02,6.460000000000000000e+02,7.990000000000000000e+02,8.170000000000000000e+02,2.099999999999999922e-01,8.299991400000000000e+09
1.780000000000000000e+02,3.540000000000000000e+02,6.830000000000000000e+02,1.590000000000000000e+02,9.200000000000000000e+01,5.980000000000000000e+02,6.340000000000000000e+02,7.610000000000000000e+02,2.099999999999999922e-01,8.300005100000000000e+09
1.670000000000000000e+02,3.530000000000000000e+02,7.330000000000000000e+02,1.560000000000000000e+02,7.200000000000000000e+01,5.570000000000000000e+02,5.770000000000000000e+02,7.300000000000000000e+02,2.300000000000000100e-01,8.340179900000000000e+09
1.450000000000000000e+02,3.560000000000000000e+02,6.950000000000000000e+02,1.520000000000000000e+02,7.300000000000000000e+01,5.370000000000000000e+02,6.390000000000000000e+02,6.990000000000000000e+02,2.399999999999999911e-01,8.358867200000000000e+09
1.420000000000000000e+02,4.030000000000000000e+02,7.130000000000000000e+02,1.490000000000000000e+02,7.700000000000000000e+01,5.560000000000000000e+02,6.070000000000000000e+02,7.120000000000000000e+02,2.399999999999999911e-01,8.358879500000000000e+09
1.180000000000000000e+02,4.290000000000000000e+02,5.590000000000000000e+02,1.310000000000000000e+02,6.500000000000000000e+01,5.240000000000000000e+02,5.950000000000000000e+02,6.460000000000000000e+02,2.600000000000000089e-01,8.398608000000000000e+09
9.600000000000000000e+01,3.940000000000000000e+02,5.500000000000000000e+02,1.030000000000000000e+02,6.600000000000000000e+01,4.550000000000000000e+02,5.970000000000000000e+02,6.060000000000000000e+02,2.700000000000000178e-01,8.420415100000000000e+09
9.600000000000000000e+01,4.100000000000000000e+02,6.360000000000000000e+02,1.220000000000000000e+02,6.800000000000000000e+01,3.980000000000000000e+02,6.780000000000000000e+02,5.660000000000000000e+02,2.700000000000000178e-01,8.420446200000000000e+09
9.800000000000000000e+01,4.290000000000000000e+02,6.460000000000000000e+02,1.270000000000000000e+02,6.900000000000000000e+01,3.790000000000000000e+02,6.580000000000000000e+02,5.670000000000000000e+02,2.899999999999999800e-01,8.460302600000000000e+09
1.240000000000000000e+02,3.950000000000000000e+02,5.850000000000000000e+02,1.250000000000000000e+02,6.900000000000000000e+01,3.420000000000000000e+02,6.590000000000000000e+02,5.530000000000000000e+02,2.999999999999999889e-01,8.479527200000000000e+09
1.690000000000000000e+02,4.160000000000000000e+02,5.770000000000000000e+02,1.270000000000000000e+02,7.000000000000000000e+01,3.530000000000000000e+02,6.960000000000000000e+02,6.850000000000000000e+02,2.999999999999999889e-01,8.479545000000000000e+09
1.740000000000000000e+02,5.200000000000000000e+02,5.830000000000000000e+02,1.200000000000000000e+02,6.300000000000000000e+01,4.110000000000000000e+02,6.950000000000000000e+02,6.780000000000000000e+02,3.200000000000000067e-01,8.519406000000000000e+09
1.740000000000000000e+02,4.880000000000000000e+02,3.720000000000000000e+02,9.000000000000000000e+01,5.700000000000000000e+01,4.190000000000000000e+02,5.550000000000000000e+02,6.880000000000000000e+02,3.300000000000000155e-01,8.538173800000000000e+09
1.780000000000000000e+02,4.800000000000000000e+02,4.360000000000000000e+02,9.700000000000000000e+01,5.900000000000000000e+01,4.120000000000000000e+02,5.730000000000000000e+02,6.670000000000000000e+02,3.300000000000000155e-01,8.538185600000000000e+09
1.610000000000000000e+02,4.840000000000000000e+02,4.020000000000000000e+02,9.100000000000000000e+01,6.000000000000000000e+01,4.110000000000000000e+02,6.220000000000000000e+02,6.350000000000000000e+02,3.499999999999999778e-01,8.580732100000000000e+09
1.430000000000000000e+02,4.650000000000000000e+02,4.440000000000000000e+02,1.000000000000000000e+02,6.500000000000000000e+01,4.760000000000000000e+02,6.170000000000000000e+02,5.300000000000000000e+02,3.599999999999999867e-01,8.599360200000000000e+09
1.390000000000000000e+02,3.320000000000000000e+02,4.320000000000000000e+02,1.000000000000000000e+02,6.100000000000000000e+01,4.070000000000000000e+02,6.350000000000000000e+02,4.860000000000000000e+02,3.599999999999999867e-01,8.599370600000000000e+09
1.360000000000000000e+02,3.120000000000000000e+02,4.470000000000000000e+02,1.020000000000000000e+02,6.200000000000000000e+01,4.070000000000000000e+02,6.930000000000000000e+02,4.540000000000000000e+02,3.800000000000000044e-01,8.639335300000000000e+09
1.310000000000000000e+02,2.930000000000000000e+02,3.450000000000000000e+02,8.300000000000000000e+01,6.300000000000000000e+01,5.170000000000000000e+02,6.690000000000000000e+02,4.540000000000000000e+02,3.900000000000000133e-01,8.658376600000000000e+09
1.280000000000000000e+02,2.730000000000000000e+02,3.500000000000000000e+02,7.400000000000000000e+01,5.600000000000000000e+01,5.510000000000000000e+02,6.360000000000000000e+02,5.090000000000000000e+02,4.000000000000000222e-01,8.679518000000000000e+09
1.310000000000000000e+02,3.160000000000000000e+02,3.260000000000000000e+02,8.100000000000000000e+01,5.500000000000000000e+01,5.050000000000000000e+02,5.970000000000000000e+02,4.750000000000000000e+02,4.099999999999999756e-01,8.698376500000000000e+09
1.420000000000000000e+02,3.070000000000000000e+02,3.730000000000000000e+02,8.900000000000000000e+01,6.300000000000000000e+01,5.350000000000000000e+02,5.490000000000000000e+02,5.140000000000000000e+02,4.199999999999999845e-01,8.720066100000000000e+09
1.500000000000000000e+02,3.140000000000000000e+02,3.610000000000000000e+02,8.700000000000000000e+01,6.300000000000000000e+01,5.220000000000000000e+02,4.930000000000000000e+02,5.450000000000000000e+02,4.299999999999999933e-01,8.738502200000000000e+09
1.650000000000000000e+02,3.130000000000000000e+02,3.430000000000000000e+02,8.700000000000000000e+01,5.900000000000000000e+01,4.080000000000000000e+02,5.580000000000000000e+02,5.700000000000000000e+02,4.400000000000000022e-01,8.759805600000000000e+09
1.670000000000000000e+02,3.300000000000000000e+02,3.430000000000000000e+02,8.700000000000000000e+01,5.900000000000000000e+01,3.840000000000000000e+02,5.320000000000000000e+02,5.780000000000000000e+02,4.500000000000000111e-01,8.778809000000000000e+09
1.470000000000000000e+02,2.590000000000000000e+02,3.470000000000000000e+02,7.400000000000000000e+01,5.300000000000000000e+01,3.710000000000000000e+02,5.440000000000000000e+02,5.660000000000000000e+02,4.600000000000000200e-01,8.800187600000000000e+09
1.430000000000000000e+02,2.740000000000000000e+02,3.230000000000000000e+02,5.800000000000000000e+01,4.100000000000000000e+01,3.030000000000000000e+02,4.800000000000000000e+02,5.590000000000000000e+02,4.699999999999999734e-01,8.818975300000000000e+09
1.380000000000000000e+02,2.710000000000000000e+02,3.180000000000000000e+02,5.700000000000000000e+01,4.400000000000000000e+01,3.320000000000000000e+02,4.810000000000000000e+02,5.790000000000000000e+02,4.799999999999999822e-01,8.840162200000000000e+09
1.270000000000000000e+02,2.640000000000000000e+02,3.170000000000000000e+02,5.400000000000000000e+01,4.100000000000000000e+01,3.430000000000000000e+02,4.560000000000000000e+02,5.730000000000000000e+02,4.899999999999999911e-01,8.858730400000000000e+09
1.290000000000000000e+02,2.570000000000000000e+02,3.010000000000000000e+02,5.500000000000000000e+01,4.500000000000000000e+01,3.090000000000000000e+02,4.530000000000000000e+02,6.240000000000000000e+02,5.000000000000000000e-01,8.879629700000000000e+09
1.230000000000000000e+02,2.840000000000000000e+02,3.420000000000000000e+02,3.900000000000000000e+01,4.700000000000000000e+01,2.950000000000000000e+02,5.150000000000000000e+02,6.240000000000000000e+02,5.100000000000000089e-01,8.898372900000000000e+09
1.150000000000000000e+02,2.630000000000000000e+02,3.370000000000000000e+02,5.600000000000000000e+01,5.100000000000000000e+01,3.520000000000000000e+02,6.060000000000000000e+02,6.040000000000000000e+02,5.200000000000000178e-01,8.919485700000000000e+09
1.080000000000000000e+02,2.570000000000000000e+02,3.720000000000000000e+02,5.800000000000000000e+01,4.900000000000000000e+01,3.220000000000000000e+02,6.030000000000000000e+02,6.120000000000000000e+02,5.300000000000000266e-01,8.940440800000000000e+09
1.070000000000000000e+02,2.620000000000000000e+02,3.790000000000000000e+02,5.900000000000000000e+01,5.100000000000000000e+01,3.450000000000000000e+02,5.950000000000000000e+02,6.510000000000000000e+02,5.400000000000000355e-01,8.959206100000000000e+09
1.020000000000000000e+02,2.420000000000000000e+02,3.690000000000000000e+02,5.600000000000000000e+01,4.700000000000000000e+01,3.660000000000000000e+02,6.370000000000000000e+02,5.930000000000000000e+02,5.500000000000000444e-01,8.980409100000000000e+09
1.040000000000000000e+02,1.850000000000000000e+02,3.000000000000000000e+02,6.200000000000000000e+01,5.000000000000000000e+01,5.070000000000000000e+02,6.920000000000000000e+02,6.030000000000000000e+02,5.600000000000000533e-01,8.999095600000000000e+09
9.700000000000000000e+01,2.040000000000000000e+02,3.630000000000000000e+02,5.800000000000000000e+01,4.900000000000000000e+01,5.030000000000000000e+02,6.150000000000000000e+02,6.530000000000000000e+02,5.699999999999999512e-01,9.020590300000000000e+09
9.700000000000000000e+01,2.250000000000000000e+02,3.570000000000000000e+02,5.600000000000000000e+01,5.000000000000000000e+01,5.120000000000000000e+02,6.580000000000000000e+02,6.830000000000000000e+02,5.799999999999999600e-01,9.039348400000000000e+09
8.700000000000000000e+01,2.470000000000000000e+02,4.330000000000000000e+02,6.400000000000000000e+01,5.200000000000000000e+01,6.130000000000000000e+02,7.210000000000000000e+02,6.640000000000000000e+02,5.899999999999999689e-01,9.058476600000000000e+09
9.300000000000000000e+01,2.480000000000000000e+02,4.280000000000000000e+02,6.600000000000000000e+01,5.100000000000000000e+01,6.180000000000000000e+02,7.340000000000000000e+02,6.890000000000000000e+02,5.999999999999999778e-01,9.080629500000000000e+09
9.800000000000000000e+01,2.500000000000000000e+02,4.060000000000000000e+02,6.400000000000000000e+01,5.200000000000000000e+01,5.590000000000000000e+02,6.900000000000000000e+02,7.510000000000000000e+02,6.099999999999999867e-01,9.099726800000000000e+09
1.030000000000000000e+02,2.390000000000000000e+02,3.670000000000000000e+02,6.400000000000000000e+01,5.900000000000000000e+01,6.420000000000000000e+02,7.700000000000000000e+02,8.740000000000000000e+02,6.199999999999999956e-01,9.119449000000000000e+09
1.110000000000000000e+02,2.410000000000000000e+02,3.450000000000000000e+02,6.300000000000000000e+01,5.800000000000000000e+01,6.410000000000000000e+02,7.950000000000000000e+02,8.750000000000000000e+02,6.300000000000000044e-01,9.138243800000000000e+09
1.130000000000000000e+02,2.550000000000000000e+02,2.300000000000000000e+02,5.500000000000000000e+01,5.400000000000000000e+01,5.460000000000000000e+02,7.100000000000000000e+02,8.530000000000000000e+02,6.400000000000000133e-01,9.159935500000000000e+09
1.200000000000000000e+02,2.700000000000000000e+02,2.680000000000000000e+02,5.700000000000000000e+01,6.000000000000000000e+01,5.930000000000000000e+02,7.120000000000000000e+02,8.350000000000000000e+02,6.500000000000000222e-01,9.178424700000000000e+09
1.300000000000000000e+02,3.120000000000000000e+02,3.400000000000000000e+02,6.000000000000000000e+01,6.000000000000000000e+01,6.110000000000000000e+02,7.330000000000000000e+02,8.120000000000000000e+02,6.600000000000000311e-01,9.198859200000000000e+09
1.300000000000000000e+02,3.220000000000000000e+02,4.120000000000000000e+02,6.600000000000000000e+01,5.400000000000000000e+01,5.700000000000000000e+02,6.590000000000000000e+02,6.920000000000000000e+02,6.700000000000000400e-01,9.218099800000000000e+09
1.320000000000000000e+02,3.320000000000000000e+02,4.240000000000000000e+02,6.500000000000000000e+01,6.100000000000000000e+01,7.020000000000000000e+02,6.110000000000000000e+02,7.010000000000000000e+02,6.800000000000000488e-01,9.239385500000000000e+09
1.390000000000000000e+02,3.940000000000000000e+02,4.600000000000000000e+02,6.900000000000000000e+01,7.600000000000000000e+01,7.710000000000000000e+02,6.940000000000000000e+02,7.480000000000000000e+02,6.899999999999999467e-01,9.258097100000000000e+09
1.310000000000000000e+02,4.330000000000000000e+02,4.670000000000000000e+02,6.700000000000000000e+01,7.500000000000000000e+01,7.880000000000000000e+02,7.010000000000000000e+02,7.520000000000000000e+02,6.999999999999999556e-01,9.279302800000000000e+09
1.330000000000000000e+02,4.270000000000000000e+02,4.240000000000000000e+02,6.200000000000000000e+01,8.000000000000000000e+01,7.920000000000000000e+02,6.750000000000000000e+02,7.350000000000000000e+02,7.099999999999999645e-01,9.298524500000000000e+09
1.440000000000000000e+02,4.560000000000000000e+02,3.220000000000000000e+02,5.300000000000000000e+01,9.100000000000000000e+01,8.310000000000000000e+02,7.560000000000000000e+02,7.860000000000000000e+02,7.199999999999999734e-01,9.320197900000000000e+09
1.550000000000000000e+02,4.620000000000000000e+02,3.120000000000000000e+02,5.400000000000000000e+01,8.800000000000000000e+01,7.680000000000000000e+02,8.100000000000000000e+02,7.460000000000000000e+02,7.299999999999999822e-01,9.339204600000000000e+09
1.650000000000000000e+02,3.960000000000000000e+02,2.810000000000000000e+02,5.500000000000000000e+01,8.000000000000000000e+01,7.320000000000000000e+02,7.710000000000000000e+02,7.460000000000000000e+02,7.399999999999999911e-01,9.358185900000000000e+09
2.120000000000000000e+02,3.720000000000000000e+02,3.130000000000000000e+02,6.500000000000000000e+01,8.600000000000000000e+01,7.480000000000000000e+02,7.930000000000000000e+02,7.610000000000000000e+02,7.500000000000000000e-01,9.379612800000000000e+09
2.210000000000000000e+02,3.710000000000000000e+02,3.420000000000000000e+02,6.900000000000000000e+01,8.800000000000000000e+01,8.190000000000000000e+02,7.960000000000000000e+02,9.090000000000000000e+02,7.600000000000000089e-01,9.398537800000000000e+09
2.230000000000000000e+02,3.590000000000000000e+02,4.030000000000000000e+02,7.200000000000000000e+01,8.100000000000000000e+01,8.790000000000000000e+02,7.490000000000000000e+02,8.660000000000000000e+02,7.700000000000000178e-01,9.419904000000000000e+09
2.250000000000000000e+02,3.250000000000000000e+02,4.000000000000000000e+02,7.200000000000000000e+01,8.200000000000000000e+01,8.830000000000000000e+02,6.730000000000000000e+02,9.020000000000000000e+02,7.800000000000000266e-01,9.438802700000000000e+09
2.420000000000000000e+02,3.410000000000000000e+02,3.960000000000000000e+02,7.000000000000000000e+01,8.800000000000000000e+01,9.140000000000000000e+02,6.780000000000000000e+02,9.720000000000000000e+02,7.900000000000000355e-01,9.459892300000000000e+09
2.260000000000000000e+02,3.420000000000000000e+02,3.470000000000000000e+02,6.500000000000000000e+01,8.800000000000000000e+01,9.720000000000000000e+02,6.980000000000000000e+02,1.025000000000000000e+03,8.000000000000000444e-01,9.478629200000000000e+09
2.230000000000000000e+02,3.540000000000000000e+02,3.140000000000000000e+02,6.300000000000000000e+01,9.400000000000000000e+01,1.037000000000000000e+03,7.200000000000000000e+02,9.520000000000000000e+02,8.100000000000000533e-01,9.499709100000000000e+09
2.370000000000000000e+02,3.580000000000000000e+02,2.420000000000000000e+02,6.100000000000000000e+01,1.050000000000000000e+02,1.020000000000000000e+03,7.430000000000000000e+02,9.470000000000000000e+02,8.199999999999999512e-01,9.518269000000000000e+09
2.580000000000000000e+02,5.000000000000000000e+02,3.210000000000000000e+02,7.200000000000000000e+01,1.460000000000000000e+02,1.165000000000000000e+03,8.490000000000000000e+02,1.087000000000000000e+03,8.299999999999999600e-01,9.539681500000000000e+09
2.790000000000000000e+02,6.070000000000000000e+02,3.200000000000000000e+02,7.800000000000000000e+01,1.770000000000000000e+02,1.298000000000000000e+03,9.170000000000000000e+02,1.068000000000000000e+03,8.399999999999999689e-01,9.558250400000000000e+09
2.850000000000000000e+02,6.120000000000000000e+02,3.460000000000000000e+02,8.400000000000000000e+01,2.010000000000000000e+02,1.404000000000000000e+03,9.100000000000000000e+02,1.061000000000000000e+03,8.499999999999999778e-01,9.579633100000000000e+09
2.980000000000000000e+02,6.300000000000000000e+02,3.780000000000000000e+02,8.400000000000000000e+01,2.100000000000000000e+02,1.370000000000000000e+03,9.670000000000000000e+02,1.108000000000000000e+03,8.599999999999999867e-01,9.598647700000000000e+09
3.070000000000000000e+02,6.560000000000000000e+02,3.720000000000000000e+02,9.000000000000000000e+01,2.120000000000000000e+02,1.363000000000000000e+03,9.830000000000000000e+02,1.152000000000000000e+03,8.699999999999999956e-01,9.619815300000000000e+09
2.980000000000000000e+02,5.850000000000000000e+02,3.200000000000000000e+02,9.200000000000000000e+01,2.130000000000000000e+02,1.287000000000000000e+03,9.950000000000000000e+02,1.155000000000000000e+03,8.800000000000000044e-01,9.638369600000000000e+09
