1.060000000000000000e+02,3.060000000000000000e+02,8.850000000000000000e+02,1.260000000000000000e+02,5.300000000000000000e+01,1.470000000000000000e+02,1.240000000000000000e+02,4.040000000000000000e+02,2.999999999999999889e-02,1.722510000000000000e+07
1.010000000000000000e+02,3.120000000000000000e+02,9.500000000000000000e+02,1.230000000000000000e+02,5.200000000000000000e+01,1.450000000000000000e+02,1.170000000000000000e+02,4.090000000000000000e+02,4.000000000000000083e-02,3.374469000000000000e+08
1.010000000000000000e+02,3.150000000000000000e+02,9.830000000000000000e+02,1.240000000000000000e+02,5.100000000000000000e+01,1.180000000000000000e+02,1.180000000000000000e+02,4.100000000000000000e+02,4.000000000000000083e-02,3.374574000000000000e+08
1.010000000000000000e+02,3.200000000000000000e+02,9.910000000000000000e+02,1.210000000000000000e+02,5.200000000000000000e+01,1.160000000000000000e+02,1.190000000000000000e+02,3.450000000000000000e+02,4.000000000000000083e-02,3.374658000000000000e+08
1.130000000000000000e+02,3.050000000000000000e+02,9.410000000000000000e+02,1.340000000000000000e+02,5.900000000000000000e+01,1.050000000000000000e+02,1.210000000000000000e+02,3.270000000000000000e+02,4.000000000000000083e-02,3.374738000000000000e+08
1.160000000000000000e+02,3.100000000000000000e+02,9.220000000000000000e+02,1.400000000000000000e+02,6.000000000000000000e+01,6.500000000000000000e+01,1.200000000000000000e+02,3.440000000000000000e+02,4.000000000000000083e-02,3.374817000000000000e+08
1.150000000000000000e+02,3.200000000000000000e+02,8.550000000000000000e+02,1.370000000000000000e+02,5.800000000000000000e+01,5.700000000000000000e+01,1.120000000000000000e+02,3.200000000000000000e+02,4.000000000000000083e-02,3.374898000000000000e+08
1.160000000000000000e+02,3.360000000000000000e+02,8.210000000000000000e+02,1.400000000000000000e+02,5.900000000000000000e+01,5.500000000000000000e+01,1.180000000000000000e+02,3.870000000000000000e+02,4.000000000000000083e-02,3.375023000000000000e+08
1.300000000000000000e+02,3.920000000000000000e+02,7.540000000000000000e+02,1.460000000000000000e+02,6.300000000000000000e+01,6.100000000000000000e+01,1.080000000000000000e+02,3.900000000000000000e+02,4.000000000000000083e-02,3.375095000000000000e+08
1.210000000000000000e+02,3.830000000000000000e+02,8.000000000000000000e+02,1.390000000000000000e+02,6.000000000000000000e+01,7.500000000000000000e+01,1.020000000000000000e+02,3.730000000000000000e+02,4.000000000000000083e-02,3.375169000000000000e+08
1.120000000000000000e+02,3.650000000000000000e+02,7.090000000000000000e+02,1.290000000000000000e+02,5.600000000000000000e+01,8.100000000000000000e+01,9.500000000000000000e+01,3.250000000000000000e+02,4.000000000000000083e-02,3.375246000000000000e+08
1.080000000000000000e+02,3.470000000000000000e+02,6.670000000000000000e+02,1.260000000000000000e+02,5.600000000000000000e+01,8.600000000000000000e+01,1.100000000000000000e+02,3.440000000000000000e+02,4.000000000000000083e-02,3.375319000000000000e+08
1.220000000000000000e+02,4.020000000000000000e+02,7.090000000000000000e+02,1.390000000000000000e+02,6.400000000000000000e+01,8.400000000000000000e+01,1.090000000000000000e+02,3.090000000000000000e+02,4.000000000000000083e-02,3.375390000000000000e+08
9.600000000000000000e+01,3.520000000000000000e+02,7.520000000000000000e+02,1.150000000000000000e+02,5.200000000000000000e+01,8.300000000000000000e+01,9.500000000000000000e+01,2.940000000000000000e+02,4.000000000000000083e-02,3.375461000000000000e+08
1.030000000000000000e+02,3.820000000000000000e+02,7.720000000000000000e+02,1.160000000000000000e+02,4.900000000000000000e+01,6.900000000000000000e+01,1.020000000000000000e+02,3.240000000000000000e+02,4.000000000000000083e-02,3.375533000000000000e+08
1.190000000000000000e+02,4.180000000000000000e+02,8.060000000000000000e+02,1.310000000000000000e+02,5.600000000000000000e+01,8.400000000000000000e+01,1.200000000000000000e+02,3.760000000000000000e+02,4.000000000000000083e-02,3.375603000000000000e+08
1.340000000000000000e+02,4.850000000000000000e+02,8.890000000000000000e+02,1.560000000000000000e+02,6.300000000000000000e+01,1.420000000000000000e+02,1.120000000000000000e+02,3.910000000000000000e+02,4.000000000000000083e-02,3.375684000000000000e+08
1.390000000000000000e+02,4.650000000000000000e+02,9.230000000000000000e+02,1.670000000000000000e+02,7.000000000000000000e+01,1.450000000000000000e+02,1.120000000000000000e+02,3.830000000000000000e+02,2.000000000000000111e-01,3.615501000000000000e+08
1.440000000000000000e+02,4.450000000000000000e+02,9.050000000000000000e+02,1.760000000000000000e+02,7.200000000000000000e+01,1.490000000000000000e+02,1.110000000000000000e+02,3.880000000000000000e+02,2.099999999999999922e-01,3.786466000000000000e+08
1.590000000000000000e+02,4.570000000000000000e+02,8.450000000000000000e+02,1.870000000000000000e+02,8.100000000000000000e+01,1.810000000000000000e+02,1.150000000000000000e+02,3.800000000000000000e+02,2.200000000000000011e-01,4.003061000000000000e+08
1.610000000000000000e+02,5.480000000000000000e+02,9.380000000000000000e+02,1.870000000000000000e+02,8.400000000000000000e+01,2.600000000000000000e+02,1.600000000000000000e+02,4.140000000000000000e+02,2.300000000000000100e-01,4.226027000000000000e+08
1.590000000000000000e+02,5.080000000000000000e+02,9.420000000000000000e+02,1.770000000000000000e+02,7.900000000000000000e+01,2.720000000000000000e+02,1.650000000000000000e+02,4.260000000000000000e+02,2.399999999999999911e-01,4.377003000000000000e+08
1.580000000000000000e+02,4.970000000000000000e+02,8.480000000000000000e+02,1.630000000000000000e+02,6.800000000000000000e+01,2.760000000000000000e+02,1.800000000000000000e+02,4.380000000000000000e+02,2.500000000000000000e-01,4.594674000000000000e+08
1.630000000000000000e+02,5.540000000000000000e+02,8.140000000000000000e+02,1.610000000000000000e+02,7.100000000000000000e+01,2.800000000000000000e+02,1.910000000000000000e+02,4.240000000000000000e+02,2.600000000000000089e-01,4.813990000000000000e+08
1.440000000000000000e+02,5.380000000000000000e+02,7.840000000000000000e+02,1.430000000000000000e+02,6.700000000000000000e+01,3.290000000000000000e+02,2.060000000000000000e+02,4.340000000000000000e+02,2.700000000000000178e-01,5.019271000000000000e+08
1.370000000000000000e+02,4.430000000000000000e+02,7.010000000000000000e+02,1.360000000000000000e+02,6.000000000000000000e+01,2.740000000000000000e+02,1.770000000000000000e+02,3.790000000000000000e+02,2.800000000000000266e-01,5.238435000000000000e+08
1.300000000000000000e+02,4.570000000000000000e+02,6.240000000000000000e+02,1.240000000000000000e+02,6.000000000000000000e+01,2.370000000000000000e+02,2.020000000000000000e+02,3.820000000000000000e+02,2.899999999999999800e-01,5.380183000000000000e+08
1.090000000000000000e+02,4.340000000000000000e+02,6.240000000000000000e+02,1.110000000000000000e+02,5.500000000000000000e+01,2.920000000000000000e+02,2.450000000000000000e+02,3.450000000000000000e+02,2.999999999999999889e-01,5.588746000000000000e+08
1.100000000000000000e+02,3.670000000000000000e+02,6.150000000000000000e+02,1.340000000000000000e+02,6.800000000000000000e+01,4.620000000000000000e+02,2.820000000000000000e+02,4.280000000000000000e+02,3.099999999999999978e-01,5.795786000000000000e+08
1.340000000000000000e+02,3.530000000000000000e+02,6.860000000000000000e+02,1.460000000000000000e+02,6.900000000000000000e+01,4.600000000000000000e+02,5.000000000000000000e+02,5.940000000000000000e+02,3.200000000000000067e-01,6.002504000000000000e+08
1.380000000000000000e+02,3.260000000000000000e+02,5.990000000000000000e+02,1.390000000000000000e+02,7.000000000000000000e+01,5.530000000000000000e+02,7.360000000000000000e+02,6.900000000000000000e+02,3.300000000000000155e-01,6.207699000000000000e+08
1.470000000000000000e+02,2.880000000000000000e+02,5.460000000000000000e+02,1.370000000000000000e+02,7.300000000000000000e+01,6.340000000000000000e+02,9.130000000000000000e+02,7.650000000000000000e+02,3.400000000000000244e-01,6.415041000000000000e+08
1.540000000000000000e+02,3.180000000000000000e+02,5.840000000000000000e+02,1.340000000000000000e+02,7.400000000000000000e+01,6.350000000000000000e+02,9.290000000000000000e+02,8.500000000000000000e+02,3.499999999999999778e-01,6.632827000000000000e+08
1.450000000000000000e+02,3.040000000000000000e+02,5.470000000000000000e+02,1.000000000000000000e+02,5.900000000000000000e+01,5.390000000000000000e+02,9.540000000000000000e+02,8.680000000000000000e+02,3.699999999999999956e-01,6.997301000000000000e+08
1.470000000000000000e+02,3.700000000000000000e+02,5.570000000000000000e+02,1.140000000000000000e+02,6.000000000000000000e+01,5.810000000000000000e+02,9.360000000000000000e+02,8.370000000000000000e+02,3.699999999999999956e-01,6.997411000000000000e+08
1.590000000000000000e+02,4.080000000000000000e+02,5.590000000000000000e+02,1.200000000000000000e+02,7.100000000000000000e+01,6.180000000000000000e+02,8.570000000000000000e+02,8.100000000000000000e+02,3.800000000000000044e-01,7.194368000000000000e+08
1.580000000000000000e+02,4.210000000000000000e+02,5.590000000000000000e+02,1.210000000000000000e+02,6.800000000000000000e+01,5.630000000000000000e+02,7.820000000000000000e+02,7.870000000000000000e+02,3.900000000000000133e-01,7.385992000000000000e+08
1.540000000000000000e+02,3.870000000000000000e+02,5.020000000000000000e+02,1.180000000000000000e+02,7.700000000000000000e+01,5.960000000000000000e+02,8.240000000000000000e+02,7.590000000000000000e+02,4.000000000000000222e-01,7.577105000000000000e+08
1.580000000000000000e+02,4.020000000000000000e+02,5.560000000000000000e+02,1.220000000000000000e+02,7.800000000000000000e+01,6.480000000000000000e+02,8.300000000000000000e+02,7.990000000000000000e+02,4.099999999999999756e-01,7.774576000000000000e+08
1.460000000000000000e+02,3.590000000000000000e+02,5.480000000000000000e+02,1.210000000000000000e+02,8.300000000000000000e+01,6.020000000000000000e+02,7.940000000000000000e+02,9.030000000000000000e+02,4.199999999999999845e-01,7.986577000000000000e+08
1.300000000000000000e+02,3.250000000000000000e+02,5.690000000000000000e+02,1.180000000000000000e+02,8.000000000000000000e+01,5.320000000000000000e+02,8.230000000000000000e+02,8.600000000000000000e+02,4.299999999999999933e-01,8.176744000000000000e+08
1.220000000000000000e+02,3.090000000000000000e+02,5.600000000000000000e+02,1.140000000000000000e+02,8.100000000000000000e+01,6.070000000000000000e+02,7.740000000000000000e+02,8.210000000000000000e+02,4.400000000000000022e-01,8.378986000000000000e+08
1.230000000000000000e+02,3.040000000000000000e+02,5.710000000000000000e+02,1.150000000000000000e+02,7.900000000000000000e+01,5.900000000000000000e+02,7.320000000000000000e+02,7.920000000000000000e+02,4.500000000000000111e-01,8.592554000000000000e+08
1.330000000000000000e+02,3.080000000000000000e+02,6.110000000000000000e+02,1.120000000000000000e+02,7.900000000000000000e+01,5.570000000000000000e+02,7.220000000000000000e+02,7.800000000000000000e+02,4.600000000000000200e-01,8.782264000000000000e+08
1.260000000000000000e+02,2.850000000000000000e+02,5.340000000000000000e+02,7.500000000000000000e+01,6.800000000000000000e+01,5.660000000000000000e+02,7.870000000000000000e+02,6.190000000000000000e+02,4.699999999999999734e-01,8.993113000000000000e+08
1.270000000000000000e+02,3.140000000000000000e+02,5.110000000000000000e+02,7.000000000000000000e+01,6.600000000000000000e+01,5.420000000000000000e+02,7.770000000000000000e+02,6.460000000000000000e+02,4.799999999999999822e-01,9.180847000000000000e+08
1.270000000000000000e+02,3.080000000000000000e+02,5.280000000000000000e+02,7.000000000000000000e+01,6.900000000000000000e+01,4.670000000000000000e+02,7.840000000000000000e+02,6.420000000000000000e+02,4.899999999999999911e-01,9.391423000000000000e+08
1.820000000000000000e+02,3.260000000000000000e+02,5.510000000000000000e+02,7.400000000000000000e+01,6.700000000000000000e+01,4.540000000000000000e+02,8.840000000000000000e+02,7.250000000000000000e+02,5.000000000000000000e-01,9.577547000000000000e+08
1.780000000000000000e+02,4.180000000000000000e+02,4.870000000000000000e+02,9.100000000000000000e+01,7.400000000000000000e+01,4.340000000000000000e+02,9.470000000000000000e+02,6.310000000000000000e+02,5.100000000000000089e-01,9.791879000000000000e+08
1.770000000000000000e+02,4.150000000000000000e+02,4.360000000000000000e+02,9.300000000000000000e+01,7.700000000000000000e+01,4.580000000000000000e+02,9.660000000000000000e+02,6.550000000000000000e+02,5.200000000000000178e-01,9.980646000000000000e+08
1.750000000000000000e+02,3.760000000000000000e+02,4.070000000000000000e+02,9.300000000000000000e+01,7.500000000000000000e+01,4.550000000000000000e+02,9.450000000000000000e+02,6.770000000000000000e+02,5.300000000000000266e-01,1.019170800000000000e+09
1.920000000000000000e+02,3.920000000000000000e+02,4.060000000000000000e+02,9.800000000000000000e+01,8.100000000000000000e+01,5.690000000000000000e+02,9.720000000000000000e+02,7.540000000000000000e+02,5.400000000000000355e-01,1.038257900000000000e+09
2.080000000000000000e+02,4.100000000000000000e+02,3.630000000000000000e+02,9.700000000000000000e+01,8.700000000000000000e+01,5.870000000000000000e+02,8.910000000000000000e+02,7.350000000000000000e+02,5.500000000000000444e-01,1.058499200000000000e+09
2.160000000000000000e+02,3.450000000000000000e+02,5.020000000000000000e+02,1.000000000000000000e+02,8.900000000000000000e+01,7.180000000000000000e+02,8.320000000000000000e+02,7.570000000000000000e+02,5.600000000000000533e-01,1.077578100000000000e+09
2.190000000000000000e+02,3.570000000000000000e+02,5.460000000000000000e+02,1.050000000000000000e+02,9.500000000000000000e+01,7.200000000000000000e+02,8.000000000000000000e+02,7.540000000000000000e+02,5.699999999999999512e-01,1.099366900000000000e+09
2.210000000000000000e+02,3.520000000000000000e+02,5.520000000000000000e+02,1.030000000000000000e+02,9.300000000000000000e+01,7.160000000000000000e+02,8.530000000000000000e+02,8.470000000000000000e+02,5.799999999999999600e-01,1.118016900000000000e+09
2.550000000000000000e+02,3.780000000000000000e+02,5.460000000000000000e+02,1.010000000000000000e+02,9.300000000000000000e+01,6.290000000000000000e+02,8.890000000000000000e+02,8.420000000000000000e+02,5.999999999999999778e-01,1.157789600000000000e+09
2.520000000000000000e+02,3.640000000000000000e+02,5.900000000000000000e+02,1.000000000000000000e+02,1.040000000000000000e+02,7.290000000000000000e+02,9.400000000000000000e+02,8.660000000000000000e+02,5.999999999999999778e-01,1.157800400000000000e+09
2.650000000000000000e+02,3.320000000000000000e+02,5.190000000000000000e+02,8.200000000000000000e+01,1.040000000000000000e+02,6.900000000000000000e+02,1.022000000000000000e+03,9.180000000000000000e+02,6.099999999999999867e-01,1.178904500000000000e+09
2.720000000000000000e+02,3.320000000000000000e+02,5.220000000000000000e+02,8.700000000000000000e+01,1.090000000000000000e+02,8.410000000000000000e+02,1.089000000000000000e+03,9.150000000000000000e+02,6.300000000000000044e-01,1.218920500000000000e+09
2.710000000000000000e+02,3.900000000000000000e+02,5.310000000000000000e+02,8.700000000000000000e+01,1.090000000000000000e+02,8.730000000000000000e+02,1.053000000000000000e+03,8.480000000000000000e+02,6.400000000000000133e-01,1.237553100000000000e+09
2.260000000000000000e+02,3.760000000000000000e+02,5.190000000000000000e+02,8.400000000000000000e+01,1.020000000000000000e+02,9.400000000000000000e+02,1.069000000000000000e+03,8.190000000000000000e+02,6.500000000000000222e-01,1.257655100000000000e+09
1.840000000000000000e+02,4.390000000000000000e+02,5.870000000000000000e+02,1.060000000000000000e+02,9.600000000000000000e+01,8.860000000000000000e+02,1.099000000000000000e+03,7.830000000000000000e+02,6.500000000000000222e-01,1.257667300000000000e+09
1.680000000000000000e+02,4.370000000000000000e+02,5.960000000000000000e+02,1.160000000000000000e+02,9.500000000000000000e+01,9.610000000000000000e+02,1.046000000000000000e+03,7.910000000000000000e+02,6.600000000000000311e-01,1.279150100000000000e+09
1.700000000000000000e+02,4.610000000000000000e+02,5.400000000000000000e+02,1.080000000000000000e+02,9.300000000000000000e+01,9.540000000000000000e+02,9.620000000000000000e+02,8.870000000000000000e+02,6.700000000000000400e-01,1.299814500000000000e+09
1.800000000000000000e+02,4.220000000000000000e+02,5.220000000000000000e+02,1.070000000000000000e+02,9.600000000000000000e+01,9.900000000000000000e+02,1.052000000000000000e+03,9.510000000000000000e+02,6.800000000000000488e-01,1.318104800000000000e+09
2.110000000000000000e+02,4.140000000000000000e+02,5.330000000000000000e+02,1.110000000000000000e+02,1.010000000000000000e+02,1.010000000000000000e+03,1.040000000000000000e+03,9.840000000000000000e+02,6.899999999999999467e-01,1.341067300000000000e+09
2.130000000000000000e+02,3.720000000000000000e+02,4.210000000000000000e+02,9.500000000000000000e+01,9.300000000000000000e+01,1.079000000000000000e+03,1.070000000000000000e+03,1.070000000000000000e+03,6.999999999999999556e-01,1.359047500000000000e+09
2.100000000000000000e+02,3.850000000000000000e+02,3.950000000000000000e+02,7.900000000000000000e+01,9.100000000000000000e+01,9.980000000000000000e+02,1.082000000000000000e+03,1.093000000000000000e+03,7.099999999999999645e-01,1.377998500000000000e+09
2.140000000000000000e+02,3.730000000000000000e+02,4.620000000000000000e+02,8.100000000000000000e+01,9.100000000000000000e+01,9.460000000000000000e+02,1.160000000000000000e+03,1.025000000000000000e+03,7.199999999999999734e-01,1.398359200000000000e+09
2.090000000000000000e+02,4.060000000000000000e+02,5.120000000000000000e+02,9.100000000000000000e+01,9.800000000000000000e+01,9.380000000000000000e+02,1.069000000000000000e+03,9.650000000000000000e+02,7.299999999999999822e-01,1.417514200000000000e+09
1.910000000000000000e+02,3.990000000000000000e+02,5.340000000000000000e+02,8.900000000000000000e+01,9.800000000000000000e+01,9.560000000000000000e+02,1.066000000000000000e+03,1.030000000000000000e+03,7.399999999999999911e-01,1.438726500000000000e+09
1.960000000000000000e+02,3.950000000000000000e+02,5.180000000000000000e+02,8.100000000000000000e+01,1.120000000000000000e+02,9.650000000000000000e+02,1.027000000000000000e+03,1.110000000000000000e+03,7.500000000000000000e-01,1.458094500000000000e+09
2.220000000000000000e+02,5.600000000000000000e+02,5.200000000000000000e+02,1.080000000000000000e+02,1.240000000000000000e+02,9.720000000000000000e+02,1.050000000000000000e+03,1.062000000000000000e+03,7.600000000000000089e-01,1.477759100000000000e+09
2.370000000000000000e+02,6.010000000000000000e+02,4.780000000000000000e+02,1.090000000000000000e+02,1.230000000000000000e+02,9.830000000000000000e+02,9.770000000000000000e+02,1.093000000000000000e+03,7.800000000000000266e-01,1.518502400000000000e+09
2.470000000000000000e+02,6.030000000000000000e+02,4.970000000000000000e+02,1.080000000000000000e+02,1.230000000000000000e+02,9.850000000000000000e+02,9.700000000000000000e+02,1.115000000000000000e+03,7.800000000000000266e-01,1.518514800000000000e+09
2.650000000000000000e+02,7.850000000000000000e+02,5.010000000000000000e+02,1.100000000000000000e+02,1.210000000000000000e+02,9.220000000000000000e+02,9.520000000000000000e+02,1.070000000000000000e+03,8.000000000000000444e-01,1.559633700000000000e+09
2.730000000000000000e+02,7.860000000000000000e+02,5.180000000000000000e+02,1.130000000000000000e+02,1.100000000000000000e+02,8.360000000000000000e+02,8.910000000000000000e+02,9.140000000000000000e+02,8.000000000000000444e-01,1.559646000000000000e+09
2.660000000000000000e+02,6.700000000000000000e+02,4.560000000000000000e+02,9.000000000000000000e+01,1.010000000000000000e+02,9.540000000000000000e+02,8.840000000000000000e+02,9.240000000000000000e+02,8.199999999999999512e-01,1.597437200000000000e+09
2.570000000000000000e+02,6.510000000000000000e+02,5.410000000000000000e+02,8.900000000000000000e+01,9.800000000000000000e+01,9.620000000000000000e+02,8.560000000000000000e+02,8.420000000000000000e+02,8.199999999999999512e-01,1.597454200000000000e+09
2.700000000000000000e+02,7.680000000000000000e+02,5.580000000000000000e+02,1.040000000000000000e+02,1.190000000000000000e+02,1.038000000000000000e+03,1.039000000000000000e+03,8.370000000000000000e+02,8.299999999999999600e-01,1.618432100000000000e+09
2.650000000000000000e+02,6.190000000000000000e+02,6.340000000000000000e+02,1.000000000000000000e+02,1.170000000000000000e+02,1.039000000000000000e+03,1.012000000000000000e+03,8.140000000000000000e+02,8.399999999999999689e-01,1.639612700000000000e+09
2.560000000000000000e+02,6.470000000000000000e+02,6.200000000000000000e+02,1.000000000000000000e+02,1.280000000000000000e+02,1.106000000000000000e+03,1.045000000000000000e+03,8.550000000000000000e+02,8.599999999999999867e-01,1.677341100000000000e+09
2.870000000000000000e+02,7.340000000000000000e+02,6.180000000000000000e+02,1.000000000000000000e+02,1.290000000000000000e+02,1.077000000000000000e+03,1.073000000000000000e+03,9.330000000000000000e+02,8.599999999999999867e-01,1.677351900000000000e+09
3.270000000000000000e+02,7.330000000000000000e+02,5.250000000000000000e+02,1.030000000000000000e+02,1.450000000000000000e+02,1.141000000000000000e+03,1.162000000000000000e+03,1.024000000000000000e+03,8.699999999999999956e-01,1.699131600000000000e+09
3.580000000000000000e+02,6.760000000000000000e+02,4.400000000000000000e+02,8.700000000000000000e+01,1.310000000000000000e+02,1.137000000000000000e+03,1.077000000000000000e+03,1.047000000000000000e+03,8.900000000000000133e-01,1.738811900000000000e+09
3.690000000000000000e+02,6.910000000000000000e+02,2.810000000000000000e+02,9.200000000000000000e+01,1.480000000000000000e+02,1.275000000000000000e+03,1.086000000000000000e+03,1.091000000000000000e+03,9.000000000000000222e-01,1.757529400000000000e+09
3.960000000000000000e+02,7.180000000000000000e+02,3.090000000000000000e+02,1.000000000000000000e+02,1.610000000000000000e+02,1.362000000000000000e+03,1.154000000000000000e+03,1.055000000000000000e+03,9.000000000000000222e-01,1.757541900000000000e+09
3.920000000000000000e+02,7.070000000000000000e+02,3.680000000000000000e+02,9.800000000000000000e+01,1.660000000000000000e+02,1.375000000000000000e+03,1.202000000000000000e+03,1.040000000000000000e+03,9.100000000000000311e-01,1.779362300000000000e+09
4.030000000000000000e+02,7.710000000000000000e+02,3.760000000000000000e+02,1.010000000000000000e+02,1.820000000000000000e+02,1.343000000000000000e+03,1.190000000000000000e+03,1.097000000000000000e+03,9.200000000000000400e-01,1.799056900000000000e+09
4.480000000000000000e+02,7.400000000000000000e+02,4.440000000000000000e+02,1.120000000000000000e+02,2.040000000000000000e+02,1.380000000000000000e+03,1.191000000000000000e+03,1.049000000000000000e+03,9.300000000000000488e-01,1.822633400000000000e+09
4.770000000000000000e+02,7.750000000000000000e+02,4.720000000000000000e+02,1.210000000000000000e+02,2.180000000000000000e+02,1.311000000000000000e+03,1.211000000000000000e+03,1.010000000000000000e+03,9.499999999999999556e-01,1.857979200000000000e+09
4.930000000000000000e+02,8.050000000000000000e+02,5.400000000000000000e+02,1.280000000000000000e+02,2.190000000000000000e+02,1.186000000000000000e+03,1.211000000000000000e+03,1.023000000000000000e+03,9.499999999999999556e-01,1.857999300000000000e+09
4.910000000000000000e+02,7.620000000000000000e+02,5.460000000000000000e+02,1.310000000000000000e+02,2.330000000000000000e+02,1.277000000000000000e+03,1.148000000000000000e+03,9.850000000000000000e+02,9.599999999999999645e-01,1.878316300000000000e+09
4.830000000000000000e+02,7.270000000000000000e+02,5.990000000000000000e+02,1.320000000000000000e+02,2.210000000000000000e+02,1.287000000000000000e+03,1.117000000000000000e+03,8.970000000000000000e+02,9.799999999999999822e-01,1.919741200000000000e+09
4.620000000000000000e+02,7.450000000000000000e+02,6.210000000000000000e+02,1.230000000000000000e+02,2.110000000000000000e+02,1.318000000000000000e+03,1.058000000000000000e+03,1.013000000000000000e+03,9.799999999999999822e-01,1.919751900000000000e+09
4.390000000000000000e+02,7.500000000000000000e+02,5.970000000000000000e+02,1.170000000000000000e+02,1.950000000000000000e+02,1.320000000000000000e+03,1.058000000000000000e+03,9.910000000000000000e+02,9.899999999999999911e-01,1.939324200000000000e+09
4.200000000000000000e+02,7.010000000000000000e+02,5.300000000000000000e+02,1.000000000000000000e+02,1.930000000000000000e+02,1.408000000000000000e+03,1.011000000000000000e+03,9.210000000000000000e+02,9.699999999999999734e-01,1.978593700000000000e+09
4.030000000000000000e+02,6.870000000000000000e+02,5.860000000000000000e+02,1.010000000000000000e+02,1.760000000000000000e+02,1.291000000000000000e+03,9.660000000000000000e+02,8.690000000000000000e+02,9.699999999999999734e-01,1.978615400000000000e+09
3.790000000000000000e+02,6.460000000000000000e+02,5.610000000000000000e+02,9.400000000000000000e+01,1.610000000000000000e+02,1.222000000000000000e+03,8.980000000000000000e+02,8.830000000000000000e+02,9.599999999999999645e-01,1.997742700000000000e+09
3.160000000000000000e+02,6.480000000000000000e+02,4.840000000000000000e+02,8.700000000000000000e+01,1.430000000000000000e+02,1.123000000000000000e+03,8.300000000000000000e+02,6.920000000000000000e+02,9.499999999999999556e-01,2.019592100000000000e+09
2.840000000000000000e+02,5.420000000000000000e+02,5.510000000000000000e+02,1.170000000000000000e+02,1.260000000000000000e+02,1.026000000000000000e+03,7.070000000000000000e+02,6.300000000000000000e+02,9.399999999999999467e-01,2.039307800000000000e+09
2.310000000000000000e+02,4.630000000000000000e+02,6.430000000000000000e+02,2.190000000000000000e+02,1.030000000000000000e+02,8.230000000000000000e+02,5.290000000000000000e+02,5.940000000000000000e+02,9.300000000000000488e-01,2.058276200000000000e+09
2.060000000000000000e+02,4.290000000000000000e+02,5.720000000000000000e+02,2.370000000000000000e+02,9.100000000000000000e+01,8.290000000000000000e+02,4.320000000000000000e+02,5.510000000000000000e+02,9.100000000000000311e-01,2.099839900000000000e+09
1.640000000000000000e+02,3.800000000000000000e+02,6.100000000000000000e+02,2.410000000000000000e+02,8.800000000000000000e+01,8.240000000000000000e+02,3.360000000000000000e+02,3.200000000000000000e+02,9.100000000000000311e-01,2.099851700000000000e+09
1.780000000000000000e+02,2.710000000000000000e+02,6.570000000000000000e+02,2.410000000000000000e+02,8.500000000000000000e+01,6.980000000000000000e+02,3.020000000000000000e+02,3.090000000000000000e+02,9.000000000000000222e-01,2.119128700000000000e+09
1.670000000000000000e+02,2.950000000000000000e+02,6.910000000000000000e+02,2.440000000000000000e+02,8.600000000000000000e+01,6.730000000000000000e+02,2.710000000000000000e+02,2.430000000000000000e+02,8.800000000000000044e-01,2.157424200000000000e+09
1.640000000000000000e+02,3.310000000000000000e+02,7.120000000000000000e+02,1.860000000000000000e+02,7.900000000000000000e+01,6.590000000000000000e+02,2.690000000000000000e+02,2.280000000000000000e+02,8.800000000000000044e-01,2.157439000000000000e+09
1.740000000000000000e+02,3.690000000000000000e+02,7.540000000000000000e+02,1.680000000000000000e+02,7.000000000000000000e+01,4.820000000000000000e+02,2.110000000000000000e+02,1.990000000000000000e+02,8.599999999999999867e-01,2.198437500000000000e+09
1.730000000000000000e+02,3.840000000000000000e+02,7.240000000000000000e+02,1.600000000000000000e+02,6.400000000000000000e+01,4.450000000000000000e+02,2.100000000000000000e+02,1.660000000000000000e+02,8.499999999999999778e-01,2.217379300000000000e+09
1.450000000000000000e+02,3.520000000000000000e+02,7.080000000000000000e+02,1.600000000000000000e+02,6.000000000000000000e+01,5.850000000000000000e+02,1.860000000000000000e+02,9.700000000000000000e+01,8.499999999999999778e-01,2.217391000000000000e+09
1.390000000000000000e+02,3.340000000000000000e+02,6.830000000000000000e+02,1.410000000000000000e+02,5.400000000000000000e+01,5.660000000000000000e+02,1.670000000000000000e+02,7.500000000000000000e+01,8.399999999999999689e-01,2.240278500000000000e+09
1.420000000000000000e+02,3.710000000000000000e+02,6.850000000000000000e+02,1.140000000000000000e+02,4.800000000000000000e+01,6.030000000000000000e+02,1.540000000000000000e+02,7.300000000000000000e+01,8.299999999999999600e-01,2.259033400000000000e+09
1.350000000000000000e+02,3.680000000000000000e+02,6.740000000000000000e+02,1.070000000000000000e+02,4.700000000000000000e+01,6.870000000000000000e+02,1.430000000000000000e+02,8.300000000000000000e+01,8.199999999999999512e-01,2.277988000000000000e+09
1.310000000000000000e+02,3.570000000000000000e+02,7.200000000000000000e+02,1.150000000000000000e+02,4.300000000000000000e+01,6.330000000000000000e+02,9.200000000000000000e+01,7.300000000000000000e+01,8.100000000000000533e-01,2.300395600000000000e+09
9.900000000000000000e+01,3.570000000000000000e+02,7.630000000000000000e+02,1.270000000000000000e+02,4.400000000000000000e+01,4.720000000000000000e+02,8.700000000000000000e+01,7.100000000000000000e+01,8.000000000000000444e-01,2.319284400000000000e+09
1.030000000000000000e+02,3.710000000000000000e+02,9.090000000000000000e+02,1.330000000000000000e+02,4.800000000000000000e+01,5.100000000000000000e+02,7.500000000000000000e+01,7.100000000000000000e+01,7.900000000000000355e-01,2.338696900000000000e+09
1.070000000000000000e+02,3.360000000000000000e+02,9.630000000000000000e+02,1.470000000000000000e+02,4.800000000000000000e+01,5.130000000000000000e+02,6.400000000000000000e+01,6.500000000000000000e+01,7.800000000000000266e-01,2.359835200000000000e+09
1.050000000000000000e+02,3.040000000000000000e+02,9.840000000000000000e+02,1.510000000000000000e+02,5.400000000000000000e+01,3.660000000000000000e+02,7.600000000000000000e+01,6.300000000000000000e+01,7.600000000000000089e-01,2.397738200000000000e+09
1.080000000000000000e+02,3.160000000000000000e+02,9.550000000000000000e+02,1.500000000000000000e+02,5.300000000000000000e+01,3.600000000000000000e+02,8.000000000000000000e+01,7.800000000000000000e+01,7.500000000000000000e-01,2.419076400000000000e+09
1.680000000000000000e+02,3.110000000000000000e+02,9.270000000000000000e+02,1.410000000000000000e+02,5.600000000000000000e+01,3.550000000000000000e+02,6.900000000000000000e+01,9.300000000000000000e+01,7.500000000000000000e-01,2.419087200000000000e+09
1.950000000000000000e+02,2.980000000000000000e+02,7.850000000000000000e+02,1.320000000000000000e+02,5.400000000000000000e+01,2.860000000000000000e+02,7.300000000000000000e+01,9.700000000000000000e+01,7.299999999999999822e-01,2.457342100000000000e+09
1.930000000000000000e+02,2.950000000000000000e+02,6.380000000000000000e+02,1.070000000000000000e+02,4.900000000000000000e+01,1.700000000000000000e+02,7.700000000000000000e+01,9.800000000000000000e+01,7.299999999999999822e-01,2.457353400000000000e+09
1.910000000000000000e+02,3.090000000000000000e+02,5.610000000000000000e+02,1.030000000000000000e+02,4.600000000000000000e+01,1.340000000000000000e+02,6.700000000000000000e+01,9.000000000000000000e+01,7.199999999999999734e-01,2.478181000000000000e+09
1.910000000000000000e+02,3.000000000000000000e+02,6.460000000000000000e+02,9.500000000000000000e+01,4.600000000000000000e+01,1.210000000000000000e+02,5.700000000000000000e+01,7.900000000000000000e+01,7.099999999999999645e-01,2.499545700000000000e+09
1.420000000000000000e+02,3.010000000000000000e+02,6.620000000000000000e+02,1.060000000000000000e+02,3.900000000000000000e+01,1.180000000000000000e+02,6.200000000000000000e+01,6.000000000000000000e+01,6.999999999999999556e-01,2.517832400000000000e+09
9.900000000000000000e+01,2.930000000000000000e+02,6.630000000000000000e+02,9.300000000000000000e+01,3.800000000000000000e+01,1.090000000000000000e+02,5.700000000000000000e+01,5.200000000000000000e+01,6.899999999999999467e-01,2.539080600000000000e+09
1.370000000000000000e+02,2.700000000000000000e+02,6.880000000000000000e+02,9.000000000000000000e+01,3.900000000000000000e+01,8.700000000000000000e+01,4.900000000000000000e+01,3.800000000000000000e+01,6.700000000000000400e-01,2.579511700000000000e+09
1.330000000000000000e+02,2.490000000000000000e+02,7.020000000000000000e+02,8.100000000000000000e+01,3.400000000000000000e+01,7.000000000000000000e+01,4.400000000000000000e+01,3.700000000000000000e+01,6.600000000000000311e-01,2.598275900000000000e+09
1.380000000000000000e+02,2.480000000000000000e+02,6.440000000000000000e+02,8.800000000000000000e+01,3.800000000000000000e+01,6.800000000000000000e+01,4.500000000000000000e+01,7.100000000000000000e+01,6.600000000000000311e-01,2.598289500000000000e+09
1.380000000000000000e+02,2.620000000000000000e+02,6.510000000000000000e+02,8.300000000000000000e+01,3.800000000000000000e+01,5.000000000000000000e+01,4.600000000000000000e+01,7.600000000000000000e+01,6.500000000000000222e-01,2.619579900000000000e+09
1.520000000000000000e+02,2.710000000000000000e+02,6.100000000000000000e+02,1.020000000000000000e+02,4.200000000000000000e+01,4.800000000000000000e+01,4.900000000000000000e+01,8.200000000000000000e+01,6.300000000000000044e-01,2.659501300000000000e+09
1.110000000000000000e+02,3.310000000000000000e+02,5.910000000000000000e+02,1.080000000000000000e+02,4.200000000000000000e+01,4.100000000000000000e+01,4.900000000000000000e+01,8.300000000000000000e+01,6.300000000000000044e-01,2.659511300000000000e+09
1.380000000000000000e+02,3.780000000000000000e+02,6.910000000000000000e+02,1.250000000000000000e+02,5.300000000000000000e+01,4.500000000000000000e+01,5.100000000000000000e+01,8.600000000000000000e+01,6.099999999999999867e-01,2.699417500000000000e+09
1.400000000000000000e+02,4.030000000000000000e+02,7.630000000000000000e+02,1.260000000000000000e+02,5.400000000000000000e+01,5.100000000000000000e+01,4.900000000000000000e+01,6.200000000000000000e+01,5.999999999999999778e-01,2.718221500000000000e+09
1.350000000000000000e+02,3.870000000000000000e+02,7.950000000000000000e+02,1.160000000000000000e+02,5.300000000000000000e+01,4.800000000000000000e+01,3.600000000000000000e+01,8.100000000000000000e+01,5.899999999999999689e-01,2.739338500000000000e+09
1.260000000000000000e+02,3.950000000000000000e+02,8.090000000000000000e+02,1.150000000000000000e+02,5.300000000000000000e+01,5.000000000000000000e+01,4.200000000000000000e+01,8.600000000000000000e+01,5.899999999999999689e-01,2.739349600000000000e+09
1.350000000000000000e+02,3.510000000000000000e+02,8.730000000000000000e+02,1.150000000000000000e+02,5.300000000000000000e+01,5.100000000000000000e+01,4.200000000000000000e+01,8.800000000000000000e+01,5.699999999999999512e-01,2.778937800000000000e+09
1.210000000000000000e+02,3.080000000000000000e+02,8.510000000000000000e+02,1.070000000000000000e+02,4.300000000000000000e+01,5.100000000000000000e+01,4.400000000000000000e+01,8.700000000000000000e+01,5.600000000000000533e-01,2.797731700000000000e+09
1.130000000000000000e+02,2.700000000000000000e+02,7.840000000000000000e+02,1.020000000000000000e+02,3.900000000000000000e+01,5.500000000000000000e+01,5.700000000000000000e+01,8.700000000000000000e+01,5.500000000000000444e-01,2.818752200000000000e+09
1.130000000000000000e+02,2.760000000000000000e+02,7.330000000000000000e+02,1.030000000000000000e+02,4.200000000000000000e+01,1.290000000000000000e+02,5.900000000000000000e+01,6.900000000000000000e+01,5.400000000000000355e-01,2.839907100000000000e+09
1.480000000000000000e+02,2.510000000000000000e+02,7.150000000000000000e+02,9.500000000000000000e+01,4.100000000000000000e+01,1.330000000000000000e+02,5.400000000000000000e+01,8.100000000000000000e+01,5.400000000000000355e-01,2.839919800000000000e+09
1.510000000000000000e+02,2.920000000000000000e+02,7.060000000000000000e+02,9.900000000000000000e+01,4.200000000000000000e+01,1.370000000000000000e+02,5.600000000000000000e+01,8.100000000000000000e+01,5.200000000000000178e-01,2.877673500000000000e+09
1.640000000000000000e+02,3.260000000000000000e+02,6.930000000000000000e+02,9.900000000000000000e+01,4.500000000000000000e+01,1.370000000000000000e+02,5.500000000000000000e+01,8.400000000000000000e+01,5.100000000000000089e-01,2.899264200000000000e+09
1.730000000000000000e+02,3.400000000000000000e+02,7.910000000000000000e+02,1.090000000000000000e+02,5.000000000000000000e+01,1.410000000000000000e+02,5.400000000000000000e+01,8.500000000000000000e+01,5.100000000000000089e-01,2.899296300000000000e+09
1.860000000000000000e+02,3.580000000000000000e+02,9.090000000000000000e+02,2.000000000000000000e+02,7.100000000000000000e+01,9.800000000000000000e+01,5.700000000000000000e+01,8.400000000000000000e+01,4.899999999999999911e-01,2.939904200000000000e+09
1.590000000000000000e+02,3.570000000000000000e+02,9.480000000000000000e+02,2.140000000000000000e+02,7.600000000000000000e+01,1.220000000000000000e+02,6.500000000000000000e+01,9.400000000000000000e+01,4.799999999999999822e-01,2.958313000000000000e+09
1.550000000000000000e+02,3.630000000000000000e+02,9.780000000000000000e+02,2.220000000000000000e+02,8.000000000000000000e+01,1.410000000000000000e+02,8.500000000000000000e+01,1.220000000000000000e+02,4.799999999999999822e-01,2.958323300000000000e+09
1.670000000000000000e+02,3.370000000000000000e+02,1.003000000000000000e+03,2.270000000000000000e+02,7.800000000000000000e+01,1.500000000000000000e+02,8.500000000000000000e+01,1.210000000000000000e+02,4.600000000000000200e-01,2.998876900000000000e+09
1.760000000000000000e+02,3.580000000000000000e+02,1.034000000000000000e+03,2.730000000000000000e+02,9.100000000000000000e+01,1.430000000000000000e+02,8.900000000000000000e+01,1.320000000000000000e+02,4.500000000000000111e-01,3.017974700000000000e+09
1.750000000000000000e+02,3.910000000000000000e+02,1.018000000000000000e+03,2.260000000000000000e+02,7.700000000000000000e+01,1.350000000000000000e+02,9.400000000000000000e+01,1.300000000000000000e+02,4.400000000000000022e-01,3.039111800000000000e+09
1.760000000000000000e+02,3.980000000000000000e+02,1.060000000000000000e+03,2.210000000000000000e+02,7.400000000000000000e+01,1.430000000000000000e+02,1.010000000000000000e+02,1.100000000000000000e+02,4.400000000000000022e-01,3.039123000000000000e+09
1.740000000000000000e+02,4.050000000000000000e+02,1.011000000000000000e+03,2.120000000000000000e+02,7.300000000000000000e+01,1.300000000000000000e+02,1.010000000000000000e+02,1.030000000000000000e+02,4.199999999999999845e-01,3.078975600000000000e+09
1.480000000000000000e+02,4.360000000000000000e+02,1.007000000000000000e+03,2.090000000000000000e+02,7.700000000000000000e+01,1.710000000000000000e+02,1.090000000000000000e+02,1.570000000000000000e+02,4.199999999999999845e-01,3.078986800000000000e+09
1.230000000000000000e+02,4.150000000000000000e+02,1.055000000000000000e+03,1.490000000000000000e+02,6.100000000000000000e+01,1.800000000000000000e+02,1.020000000000000000e+02,1.550000000000000000e+02,3.900000000000000133e-01,3.137752100000000000e+09
1.290000000000000000e+02,4.070000000000000000e+02,1.055000000000000000e+03,1.430000000000000000e+02,6.000000000000000000e+01,1.790000000000000000e+02,1.070000000000000000e+02,1.550000000000000000e+02,3.900000000000000133e-01,3.137763700000000000e+09
1.390000000000000000e+02,4.060000000000000000e+02,1.078000000000000000e+03,1.480000000000000000e+02,6.100000000000000000e+01,1.570000000000000000e+02,9.700000000000000000e+01,1.590000000000000000e+02,3.900000000000000133e-01,3.137772700000000000e+09
1.550000000000000000e+02,3.630000000000000000e+02,1.062000000000000000e+03,1.650000000000000000e+02,6.600000000000000000e+01,1.670000000000000000e+02,9.500000000000000000e+01,1.440000000000000000e+02,3.699999999999999956e-01,3.178204200000000000e+09
1.670000000000000000e+02,3.580000000000000000e+02,1.080000000000000000e+03,1.880000000000000000e+02,6.700000000000000000e+01,1.330000000000000000e+02,8.900000000000000000e+01,8.800000000000000000e+01,3.599999999999999867e-01,3.199229500000000000e+09
1.820000000000000000e+02,4.680000000000000000e+02,9.780000000000000000e+02,1.980000000000000000e+02,7.000000000000000000e+01,1.290000000000000000e+02,8.800000000000000000e+01,9.900000000000000000e+01,3.599999999999999867e-01,3.199242300000000000e+09
1.710000000000000000e+02,4.660000000000000000e+02,9.340000000000000000e+02,1.970000000000000000e+02,7.200000000000000000e+01,1.480000000000000000e+02,9.400000000000000000e+01,1.020000000000000000e+02,3.400000000000000244e-01,3.239051400000000000e+09
1.590000000000000000e+02,4.960000000000000000e+02,8.910000000000000000e+02,1.890000000000000000e+02,6.900000000000000000e+01,1.490000000000000000e+02,9.900000000000000000e+01,9.600000000000000000e+01,3.300000000000000155e-01,3.258024400000000000e+09
1.600000000000000000e+02,5.130000000000000000e+02,8.900000000000000000e+02,1.770000000000000000e+02,6.600000000000000000e+01,1.380000000000000000e+02,8.600000000000000000e+01,9.700000000000000000e+01,3.300000000000000155e-01,3.258036000000000000e+09
1.500000000000000000e+02,5.150000000000000000e+02,8.410000000000000000e+02,1.870000000000000000e+02,7.500000000000000000e+01,1.630000000000000000e+02,9.600000000000000000e+01,9.200000000000000000e+01,3.200000000000000067e-01,3.279371900000000000e+09
1.330000000000000000e+02,4.080000000000000000e+02,8.160000000000000000e+02,1.780000000000000000e+02,7.000000000000000000e+01,1.580000000000000000e+02,1.020000000000000000e+02,7.700000000000000000e+01,2.999999999999999889e-01,3.319117700000000000e+09
1.390000000000000000e+02,3.940000000000000000e+02,7.710000000000000000e+02,1.930000000000000000e+02,7.100000000000000000e+01,1.400000000000000000e+02,8.900000000000000000e+01,9.200000000000000000e+01,2.999999999999999889e-01,3.319129200000000000e+09
1.510000000000000000e+02,4.350000000000000000e+02,8.170000000000000000e+02,2.020000000000000000e+02,7.700000000000000000e+01,1.550000000000000000e+02,8.300000000000000000e+01,1.010000000000000000e+02,2.800000000000000266e-01,3.360151700000000000e+09
1.430000000000000000e+02,4.290000000000000000e+02,8.420000000000000000e+02,2.130000000000000000e+02,7.600000000000000000e+01,1.700000000000000000e+02,9.000000000000000000e+01,1.060000000000000000e+02,2.700000000000000178e-01,3.378790300000000000e+09
1.320000000000000000e+02,4.100000000000000000e+02,9.060000000000000000e+02,1.790000000000000000e+02,6.000000000000000000e+01,1.330000000000000000e+02,9.300000000000000000e+01,1.020000000000000000e+02,2.700000000000000178e-01,3.378801500000000000e+09
1.390000000000000000e+02,4.420000000000000000e+02,9.570000000000000000e+02,1.980000000000000000e+02,7.300000000000000000e+01,1.410000000000000000e+02,1.110000000000000000e+02,1.150000000000000000e+02,2.500000000000000000e-01,3.419153200000000000e+09
1.380000000000000000e+02,4.600000000000000000e+02,1.054000000000000000e+03,2.110000000000000000e+02,7.800000000000000000e+01,1.430000000000000000e+02,1.090000000000000000e+02,1.270000000000000000e+02,2.399999999999999911e-01,3.438072300000000000e+09
1.530000000000000000e+02,4.990000000000000000e+02,1.101000000000000000e+03,2.810000000000000000e+02,9.600000000000000000e+01,1.500000000000000000e+02,1.120000000000000000e+02,1.280000000000000000e+02,2.300000000000000100e-01,3.459197500000000000e+09
1.820000000000000000e+02,5.320000000000000000e+02,1.193000000000000000e+03,3.370000000000000000e+02,1.200000000000000000e+02,1.410000000000000000e+02,1.120000000000000000e+02,1.330000000000000000e+02,2.300000000000000100e-01,3.459230100000000000e+09
1.920000000000000000e+02,5.370000000000000000e+02,1.212000000000000000e+03,3.690000000000000000e+02,1.270000000000000000e+02,1.420000000000000000e+02,1.150000000000000000e+02,1.370000000000000000e+02,2.099999999999999922e-01,3.499688200000000000e+09
1.980000000000000000e+02,5.890000000000000000e+02,1.268000000000000000e+03,3.650000000000000000e+02,1.240000000000000000e+02,2.230000000000000000e+02,1.010000000000000000e+02,1.360000000000000000e+02,2.000000000000000111e-01,3.518338400000000000e+09
2.120000000000000000e+02,6.660000000000000000e+02,1.256000000000000000e+03,3.830000000000000000e+02,1.330000000000000000e+02,2.360000000000000000e+02,1.050000000000000000e+02,1.190000000000000000e+02,1.900000000000000022e-01,3.539307400000000000e+09
1.950000000000000000e+02,5.920000000000000000e+02,1.176000000000000000e+03,3.590000000000000000e+02,1.280000000000000000e+02,2.250000000000000000e+02,1.060000000000000000e+02,1.130000000000000000e+02,1.799999999999999933e-01,3.558210500000000000e+09
1.800000000000000000e+02,6.230000000000000000e+02,1.212000000000000000e+03,3.450000000000000000e+02,1.230000000000000000e+02,2.210000000000000000e+02,1.060000000000000000e+02,1.120000000000000000e+02,1.700000000000000122e-01,3.578029900000000000e+09
2.070000000000000000e+02,7.210000000000000000e+02,1.252000000000000000e+03,3.930000000000000000e+02,1.410000000000000000e+02,2.220000000000000000e+02,9.300000000000000000e+01,1.180000000000000000e+02,1.600000000000000033e-01,3.599727100000000000e+09
2.200000000000000000e+02,6.900000000000000000e+02,1.247000000000000000e+03,4.890000000000000000e+02,1.600000000000000000e+02,1.400000000000000000e+02,8.600000000000000000e+01,1.120000000000000000e+02,1.499999999999999944e-01,3.618365900000000000e+09
2.010000000000000000e+02,7.010000000000000000e+02,1.291000000000000000e+03,4.840000000000000000e+02,1.550000000000000000e+02,1.150000000000000000e+02,7.900000000000000000e+01,1.040000000000000000e+02,1.400000000000000133e-01,3.639912600000000000e+09
2.110000000000000000e+02,7.560000000000000000e+02,1.277000000000000000e+03,4.690000000000000000e+02,1.480000000000000000e+02,1.060000000000000000e+02,7.500000000000000000e+01,1.030000000000000000e+02,1.400000000000000133e-01,3.639932300000000000e+09
2.130000000000000000e+02,7.600000000000000000e+02,1.261000000000000000e+03,4.870000000000000000e+02,1.550000000000000000e+02,1.010000000000000000e+02,7.200000000000000000e+01,1.010000000000000000e+02,1.199999999999999956e-01,3.677282600000000000e+09
2.470000000000000000e+02,8.470000000000000000e+02,1.273000000000000000e+03,4.880000000000000000e+02,1.630000000000000000e+02,1.000000000000000000e+02,8.000000000000000000e+01,1.100000000000000000e+02,1.100000000000000006e-01,3.698731100000000000e+09
2.390000000000000000e+02,8.970000000000000000e+02,1.265000000000000000e+03,4.170000000000000000e+02,1.510000000000000000e+02,9.200000000000000000e+01,7.800000000000000000e+01,1.050000000000000000e+02,1.000000000000000056e-01,3.717554600000000000e+09
2.750000000000000000e+02,9.010000000000000000e+02,1.198000000000000000e+03,4.520000000000000000e+02,1.800000000000000000e+02,1.110000000000000000e+02,8.700000000000000000e+01,1.200000000000000000e+02,8.999999999999999667e-02,3.738492900000000000e+09
3.070000000000000000e+02,9.250000000000000000e+02,1.233000000000000000e+03,5.110000000000000000e+02,1.940000000000000000e+02,1.240000000000000000e+02,9.700000000000000000e+01,1.340000000000000000e+02,8.000000000000000167e-02,3.759691700000000000e+09
4.120000000000000000e+02,9.740000000000000000e+02,1.274000000000000000e+03,6.050000000000000000e+02,2.360000000000000000e+02,1.420000000000000000e+02,1.160000000000000000e+02,1.800000000000000000e+02,8.000000000000000167e-02,3.759702700000000000e+09
4.110000000000000000e+02,9.660000000000000000e+02,1.201000000000000000e+03,6.200000000000000000e+02,2.360000000000000000e+02,1.550000000000000000e+02,1.170000000000000000e+02,1.810000000000000000e+02,5.999999999999999778e-02,3.798551700000000000e+09
4.210000000000000000e+02,9.420000000000000000e+02,1.235000000000000000e+03,6.670000000000000000e+02,2.480000000000000000e+02,1.730000000000000000e+02,1.240000000000000000e+02,1.970000000000000000e+02,5.000000000000000278e-02,3.818472400000000000e+09
4.680000000000000000e+02,9.650000000000000000e+02,1.401000000000000000e+03,6.830000000000000000e+02,2.520000000000000000e+02,1.830000000000000000e+02,1.330000000000000000e+02,2.070000000000000000e+02,4.000000000000000083e-02,3.837399100000000000e+09
4.950000000000000000e+02,9.640000000000000000e+02,1.456000000000000000e+03,7.400000000000000000e+02,2.690000000000000000e+02,1.960000000000000000e+02,1.360000000000000000e+02,2.170000000000000000e+02,2.999999999999999889e-02,3.858867800000000000e+09
4.480000000000000000e+02,9.040000000000000000e+02,1.384000000000000000e+03,6.820000000000000000e+02,2.350000000000000000e+02,2.440000000000000000e+02,1.310000000000000000e+02,1.950000000000000000e+02,2.000000000000000042e-02,3.877411800000000000e+09
5.120000000000000000e+02,9.200000000000000000e+02,1.402000000000000000e+03,7.380000000000000000e+02,2.670000000000000000e+02,2.640000000000000000e+02,1.520000000000000000e+02,2.300000000000000000e+02,1.000000000000000021e-02,3.897947600000000000e+09
5.390000000000000000e+02,1.078000000000000000e+03,1.352000000000000000e+03,7.180000000000000000e+02,2.650000000000000000e+02,2.560000000000000000e+02,1.640000000000000000e+02,2.330000000000000000e+02,0.000000000000000000e+00,3.919585400000000000e+09
4.930000000000000000e+02,1.002000000000000000e+03,1.236000000000000000e+03,6.850000000000000000e+02,2.480000000000000000e+02,2.860000000000000000e+02,1.630000000000000000e+02,2.250000000000000000e+02,1.000000000000000021e-02,3.938170200000000000e+09
4.470000000000000000e+02,9.880000000000000000e+02,1.159000000000000000e+03,6.200000000000000000e+02,2.330000000000000000e+02,2.920000000000000000e+02,1.700000000000000000e+02,2.080000000000000000e+02,2.000000000000000042e-02,3.959852300000000000e+09
4.300000000000000000e+02,9.890000000000000000e+02,1.175000000000000000e+03,5.990000000000000000e+02,2.280000000000000000e+02,2.880000000000000000e+02,1.670000000000000000e+02,2.140000000000000000e+02,2.999999999999999889e-02,3.978500200000000000e+09
3.240000000000000000e+02,8.920000000000000000e+02,1.189000000000000000e+03,4.720000000000000000e+02,1.750000000000000000e+02,2.690000000000000000e+02,1.570000000000000000e+02,2.560000000000000000e+02,4.000000000000000083e-02,3.999526400000000000e+09
2.570000000000000000e+02,6.490000000000000000e+02,1.138000000000000000e+03,4.220000000000000000e+02,1.730000000000000000e+02,4.510000000000000000e+02,2.550000000000000000e+02,4.010000000000000000e+02,4.000000000000000083e-02,3.999537600000000000e+09
2.550000000000000000e+02,6.830000000000000000e+02,1.119000000000000000e+03,4.560000000000000000e+02,1.960000000000000000e+02,5.790000000000000000e+02,3.150000000000000000e+02,4.410000000000000000e+02,5.999999999999999778e-02,4.037331600000000000e+09
2.500000000000000000e+02,6.320000000000000000e+02,1.096000000000000000e+03,3.930000000000000000e+02,1.810000000000000000e+02,6.420000000000000000e+02,3.210000000000000000e+02,4.840000000000000000e+02,7.000000000000000666e-02,4.058873800000000000e+09
2.200000000000000000e+02,5.760000000000000000e+02,9.730000000000000000e+02,3.600000000000000000e+02,1.790000000000000000e+02,6.560000000000000000e+02,3.610000000000000000e+02,6.090000000000000000e+02,8.000000000000000167e-02,4.077735400000000000e+09
2.840000000000000000e+02,4.790000000000000000e+02,8.250000000000000000e+02,3.350000000000000000e+02,2.110000000000000000e+02,8.590000000000000000e+02,6.090000000000000000e+02,6.440000000000000000e+02,8.999999999999999667e-02,4.099247900000000000e+09
3.930000000000000000e+02,4.930000000000000000e+02,7.450000000000000000e+02,3.160000000000000000e+02,2.200000000000000000e+02,9.470000000000000000e+02,6.880000000000000000e+02,8.460000000000000000e+02,1.000000000000000056e-01,4.118193200000000000e+09
4.140000000000000000e+02,4.520000000000000000e+02,6.510000000000000000e+02,2.320000000000000000e+02,1.960000000000000000e+02,9.280000000000000000e+02,8.280000000000000000e+02,8.640000000000000000e+02,1.100000000000000006e-01,4.139396700000000000e+09
4.110000000000000000e+02,4.530000000000000000e+02,6.040000000000000000e+02,2.070000000000000000e+02,1.950000000000000000e+02,9.460000000000000000e+02,8.780000000000000000e+02,9.200000000000000000e+02,1.199999999999999956e-01,4.158406300000000000e+09
4.020000000000000000e+02,4.660000000000000000e+02,6.010000000000000000e+02,1.650000000000000000e+02,1.940000000000000000e+02,1.027000000000000000e+03,9.170000000000000000e+02,8.950000000000000000e+02,1.300000000000000044e-01,4.179775500000000000e+09
3.550000000000000000e+02,5.030000000000000000e+02,6.340000000000000000e+02,1.500000000000000000e+02,1.560000000000000000e+02,9.200000000000000000e+02,8.590000000000000000e+02,9.190000000000000000e+02,1.300000000000000044e-01,4.179786300000000000e+09
2.300000000000000000e+02,4.860000000000000000e+02,6.190000000000000000e+02,1.430000000000000000e+02,1.190000000000000000e+02,8.710000000000000000e+02,8.700000000000000000e+02,7.200000000000000000e+02,1.499999999999999944e-01,4.217414300000000000e+09
2.390000000000000000e+02,4.650000000000000000e+02,4.980000000000000000e+02,1.060000000000000000e+02,1.070000000000000000e+02,8.360000000000000000e+02,7.370000000000000000e+02,7.370000000000000000e+02,1.600000000000000033e-01,4.239610900000000000e+09
2.420000000000000000e+02,5.170000000000000000e+02,5.910000000000000000e+02,1.390000000000000000e+02,1.070000000000000000e+02,7.780000000000000000e+02,7.160000000000000000e+02,7.210000000000000000e+02,1.600000000000000033e-01,4.239622000000000000e+09
2.870000000000000000e+02,4.990000000000000000e+02,5.820000000000000000e+02,1.340000000000000000e+02,8.900000000000000000e+01,7.230000000000000000e+02,7.940000000000000000e+02,7.000000000000000000e+02,1.799999999999999933e-01,4.279488700000000000e+09
2.850000000000000000e+02,4.410000000000000000e+02,5.190000000000000000e+02,1.210000000000000000e+02,7.800000000000000000e+01,7.080000000000000000e+02,7.590000000000000000e+02,7.190000000000000000e+02,1.900000000000000022e-01,4.298144000000000000e+09
2.800000000000000000e+02,4.400000000000000000e+02,5.260000000000000000e+02,1.210000000000000000e+02,7.300000000000000000e+01,5.520000000000000000e+02,6.970000000000000000e+02,7.940000000000000000e+02,2.000000000000000111e-01,4.319828800000000000e+09
2.460000000000000000e+02,4.440000000000000000e+02,5.700000000000000000e+02,1.370000000000000000e+02,7.400000000000000000e+01,5.350000000000000000e+02,7.830000000000000000e+02,7.470000000000000000e+02,2.099999999999999922e-01,4.338535000000000000e+09
2.440000000000000000e+02,3.500000000000000000e+02,5.670000000000000000e+02,1.230000000000000000e+02,6.900000000000000000e+01,5.870000000000000000e+02,7.710000000000000000e+02,6.980000000000000000e+02,2.200000000000000011e-01,4.358858700000000000e+09
2.060000000000000000e+02,3.290000000000000000e+02,5.480000000000000000e+02,1.200000000000000000e+02,6.800000000000000000e+01,5.080000000000000000e+02,6.480000000000000000e+02,6.640000000000000000e+02,2.300000000000000100e-01,4.380841100000000000e+09
2.020000000000000000e+02,3.280000000000000000e+02,5.470000000000000000e+02,1.230000000000000000e+02,6.600000000000000000e+01,5.030000000000000000e+02,7.630000000000000000e+02,6.920000000000000000e+02,2.399999999999999911e-01,4.398290900000000000e+09
2.020000000000000000e+02,3.030000000000000000e+02,5.460000000000000000e+02,1.260000000000000000e+02,7.000000000000000000e+01,5.350000000000000000e+02,7.870000000000000000e+02,7.040000000000000000e+02,2.500000000000000000e-01,4.421084300000000000e+09
1.830000000000000000e+02,2.560000000000000000e+02,5.260000000000000000e+02,1.220000000000000000e+02,6.800000000000000000e+01,5.140000000000000000e+02,6.960000000000000000e+02,7.270000000000000000e+02,2.500000000000000000e-01,4.421118500000000000e+09
1.910000000000000000e+02,2.260000000000000000e+02,3.620000000000000000e+02,1.040000000000000000e+02,6.200000000000000000e+01,4.440000000000000000e+02,6.880000000000000000e+02,7.300000000000000000e+02,2.700000000000000178e-01,4.459309900000000000e+09
2.050000000000000000e+02,2.250000000000000000e+02,4.050000000000000000e+02,1.070000000000000000e+02,6.900000000000000000e+01,4.570000000000000000e+02,7.530000000000000000e+02,7.420000000000000000e+02,2.800000000000000266e-01,4.478814300000000000e+09
1.960000000000000000e+02,2.170000000000000000e+02,4.020000000000000000e+02,1.040000000000000000e+02,7.600000000000000000e+01,4.990000000000000000e+02,6.250000000000000000e+02,7.270000000000000000e+02,2.899999999999999800e-01,4.497371700000000000e+09
1.970000000000000000e+02,2.390000000000000000e+02,4.060000000000000000e+02,9.300000000000000000e+01,7.200000000000000000e+01,4.850000000000000000e+02,6.480000000000000000e+02,6.830000000000000000e+02,2.999999999999999889e-01,4.518687300000000000e+09
2.090000000000000000e+02,2.490000000000000000e+02,3.840000000000000000e+02,7.500000000000000000e+01,6.900000000000000000e+01,4.800000000000000000e+02,6.360000000000000000e+02,6.830000000000000000e+02,3.099999999999999978e-01,4.540158500000000000e+09
2.110000000000000000e+02,2.960000000000000000e+02,3.890000000000000000e+02,7.800000000000000000e+01,8.100000000000000000e+01,5.710000000000000000e+02,6.650000000000000000e+02,6.920000000000000000e+02,3.300000000000000155e-01,4.577367700000000000e+09
1.760000000000000000e+02,2.920000000000000000e+02,3.140000000000000000e+02,6.500000000000000000e+01,7.000000000000000000e+01,5.360000000000000000e+02,6.300000000000000000e+02,6.820000000000000000e+02,3.300000000000000155e-01,4.577378900000000000e+09
1.860000000000000000e+02,3.100000000000000000e+02,3.710000000000000000e+02,7.700000000000000000e+01,6.200000000000000000e+01,4.940000000000000000e+02,6.840000000000000000e+02,6.370000000000000000e+02,3.400000000000000244e-01,4.598790200000000000e+09
1.930000000000000000e+02,3.430000000000000000e+02,4.530000000000000000e+02,8.800000000000000000e+01,7.500000000000000000e+01,5.550000000000000000e+02,6.720000000000000000e+02,5.800000000000000000e+02,3.499999999999999778e-01,4.617554800000000000e+09
1.830000000000000000e+02,3.770000000000000000e+02,4.650000000000000000e+02,8.600000000000000000e+01,8.600000000000000000e+01,5.880000000000000000e+02,7.410000000000000000e+02,6.110000000000000000e+02,3.599999999999999867e-01,4.639182400000000000e+09
1.690000000000000000e+02,3.380000000000000000e+02,4.480000000000000000e+02,7.900000000000000000e+01,7.500000000000000000e+01,5.050000000000000000e+02,7.510000000000000000e+02,6.490000000000000000e+02,3.699999999999999956e-01,4.657992400000000000e+09
1.810000000000000000e+02,3.500000000000000000e+02,5.230000000000000000e+02,8.300000000000000000e+01,8.000000000000000000e+01,5.450000000000000000e+02,7.110000000000000000e+02,7.130000000000000000e+02,3.800000000000000044e-01,4.679587200000000000e+09
1.810000000000000000e+02,3.450000000000000000e+02,4.830000000000000000e+02,7.000000000000000000e+01,8.000000000000000000e+01,4.920000000000000000e+02,7.510000000000000000e+02,7.900000000000000000e+02,3.900000000000000133e-01,4.698361400000000000e+09
1.750000000000000000e+02,3.450000000000000000e+02,4.310000000000000000e+02,7.000000000000000000e+01,7.400000000000000000e+01,4.450000000000000000e+02,7.480000000000000000e+02,7.790000000000000000e+02,4.000000000000000222e-01,4.719654300000000000e+09
1.690000000000000000e+02,3.420000000000000000e+02,4.360000000000000000e+02,6.800000000000000000e+01,6.400000000000000000e+01,4.020000000000000000e+02,7.040000000000000000e+02,7.530000000000000000e+02,4.099999999999999756e-01,4.738459300000000000e+09
1.770000000000000000e+02,3.460000000000000000e+02,4.460000000000000000e+02,7.100000000000000000e+01,6.400000000000000000e+01,4.350000000000000000e+02,7.900000000000000000e+02,7.730000000000000000e+02,4.199999999999999845e-01,4.757381800000000000e+09
1.620000000000000000e+02,3.480000000000000000e+02,3.510000000000000000e+02,6.800000000000000000e+01,6.200000000000000000e+01,4.630000000000000000e+02,9.190000000000000000e+02,7.330000000000000000e+02,4.299999999999999933e-01,4.778772600000000000e+09
1.630000000000000000e+02,4.580000000000000000e+02,3.550000000000000000e+02,6.900000000000000000e+01,6.000000000000000000e+01,4.660000000000000000e+02,8.580000000000000000e+02,5.990000000000000000e+02,4.400000000000000022e-01,4.797601300000000000e+09
1.780000000000000000e+02,4.310000000000000000e+02,3.070000000000000000e+02,5.900000000000000000e+01,5.700000000000000000e+01,5.070000000000000000e+02,8.510000000000000000e+02,6.900000000000000000e+02,4.500000000000000111e-01,4.819363200000000000e+09
1.960000000000000000e+02,3.940000000000000000e+02,2.440000000000000000e+02,5.500000000000000000e+01,5.600000000000000000e+01,5.110000000000000000e+02,8.940000000000000000e+02,7.080000000000000000e+02,4.600000000000000200e-01,4.839525500000000000e+09
1.990000000000000000e+02,3.880000000000000000e+02,2.350000000000000000e+02,4.900000000000000000e+01,5.700000000000000000e+01,5.310000000000000000e+02,8.520000000000000000e+02,7.350000000000000000e+02,4.699999999999999734e-01,4.858597400000000000e+09
2.030000000000000000e+02,3.760000000000000000e+02,3.530000000000000000e+02,5.800000000000000000e+01,6.700000000000000000e+01,5.550000000000000000e+02,8.210000000000000000e+02,7.300000000000000000e+02,4.799999999999999822e-01,4.879753700000000000e+09
2.290000000000000000e+02,2.850000000000000000e+02,3.860000000000000000e+02,6.400000000000000000e+01,7.500000000000000000e+01,6.460000000000000000e+02,8.850000000000000000e+02,7.800000000000000000e+02,4.899999999999999911e-01,4.898347700000000000e+09
2.110000000000000000e+02,2.730000000000000000e+02,3.790000000000000000e+02,6.100000000000000000e+01,7.200000000000000000e+01,6.050000000000000000e+02,8.710000000000000000e+02,7.410000000000000000e+02,5.000000000000000000e-01,4.919469500000000000e+09
2.120000000000000000e+02,3.480000000000000000e+02,3.840000000000000000e+02,6.000000000000000000e+01,7.200000000000000000e+01,6.190000000000000000e+02,8.620000000000000000e+02,7.820000000000000000e+02,5.100000000000000089e-01,4.938596800000000000e+09
2.030000000000000000e+02,4.080000000000000000e+02,4.040000000000000000e+02,6.500000000000000000e+01,7.600000000000000000e+01,5.890000000000000000e+02,8.850000000000000000e+02,7.540000000000000000e+02,5.200000000000000178e-01,4.957838800000000000e+09
2.190000000000000000e+02,4.250000000000000000e+02,3.420000000000000000e+02,6.300000000000000000e+01,7.100000000000000000e+01,5.560000000000000000e+02,8.250000000000000000e+02,7.610000000000000000e+02,5.300000000000000266e-01,4.979156700000000000e+09
1.830000000000000000e+02,3.880000000000000000e+02,2.880000000000000000e+02,6.100000000000000000e+01,6.700000000000000000e+01,5.850000000000000000e+02,7.680000000000000000e+02,7.470000000000000000e+02,5.400000000000000355e-01,4.998391600000000000e+09
2.030000000000000000e+02,4.270000000000000000e+02,3.040000000000000000e+02,6.300000000000000000e+01,6.800000000000000000e+01,6.620000000000000000e+02,7.430000000000000000e+02,7.520000000000000000e+02,5.500000000000000444e-01,5.019777200000000000e+09
2.040000000000000000e+02,3.940000000000000000e+02,3.400000000000000000e+02,7.800000000000000000e+01,6.800000000000000000e+01,7.140000000000000000e+02,7.390000000000000000e+02,6.870000000000000000e+02,5.600000000000000533e-01,5.038100300000000000e+09
2.020000000000000000e+02,3.450000000000000000e+02,4.280000000000000000e+02,8.100000000000000000e+01,6.300000000000000000e+01,7.250000000000000000e+02,7.140000000000000000e+02,6.290000000000000000e+02,5.699999999999999512e-01,5.059285900000000000e+09
1.920000000000000000e+02,3.370000000000000000e+02,4.360000000000000000e+02,8.100000000000000000e+01,6.300000000000000000e+01,7.000000000000000000e+02,7.510000000000000000e+02,6.850000000000000000e+02,5.799999999999999600e-01,5.078207100000000000e+09
1.920000000000000000e+02,3.740000000000000000e+02,4.710000000000000000e+02,7.700000000000000000e+01,7.200000000000000000e+01,7.570000000000000000e+02,7.860000000000000000e+02,6.400000000000000000e+02,5.899999999999999689e-01,5.099815900000000000e+09
2.230000000000000000e+02,4.160000000000000000e+02,4.580000000000000000e+02,7.700000000000000000e+01,7.600000000000000000e+01,7.700000000000000000e+02,7.810000000000000000e+02,6.890000000000000000e+02,5.999999999999999778e-01,5.118502900000000000e+09
2.010000000000000000e+02,4.480000000000000000e+02,4.260000000000000000e+02,6.300000000000000000e+01,7.800000000000000000e+01,7.850000000000000000e+02,8.590000000000000000e+02,8.290000000000000000e+02,6.099999999999999867e-01,5.137696700000000000e+09
2.140000000000000000e+02,4.610000000000000000e+02,3.680000000000000000e+02,6.800000000000000000e+01,8.500000000000000000e+01,8.350000000000000000e+02,8.440000000000000000e+02,9.660000000000000000e+02,6.199999999999999956e-01,5.158725300000000000e+09
2.030000000000000000e+02,5.340000000000000000e+02,3.780000000000000000e+02,6.400000000000000000e+01,8.100000000000000000e+01,8.730000000000000000e+02,8.490000000000000000e+02,9.970000000000000000e+02,6.300000000000000044e-01,5.179654900000000000e+09
2.240000000000000000e+02,5.090000000000000000e+02,3.380000000000000000e+02,6.400000000000000000e+01,7.200000000000000000e+01,7.520000000000000000e+02,8.080000000000000000e+02,1.010000000000000000e+03,6.400000000000000133e-01,5.198277400000000000e+09
1.990000000000000000e+02,4.630000000000000000e+02,3.320000000000000000e+02,6.500000000000000000e+01,7.000000000000000000e+01,7.420000000000000000e+02,8.620000000000000000e+02,9.870000000000000000e+02,6.500000000000000222e-01,5.219449000000000000e+09
1.950000000000000000e+02,4.570000000000000000e+02,3.400000000000000000e+02,6.800000000000000000e+01,7.700000000000000000e+01,6.980000000000000000e+02,7.590000000000000000e+02,9.180000000000000000e+02,6.600000000000000311e-01,5.238149000000000000e+09
2.020000000000000000e+02,4.720000000000000000e+02,3.610000000000000000e+02,6.400000000000000000e+01,8.000000000000000000e+01,6.880000000000000000e+02,7.410000000000000000e+02,8.110000000000000000e+02,6.700000000000000400e-01,5.259543400000000000e+09
2.260000000000000000e+02,4.670000000000000000e+02,3.710000000000000000e+02,7.500000000000000000e+01,9.500000000000000000e+01,7.490000000000000000e+02,7.410000000000000000e+02,8.230000000000000000e+02,6.800000000000000488e-01,5.278316300000000000e+09
2.270000000000000000e+02,5.380000000000000000e+02,3.960000000000000000e+02,7.600000000000000000e+01,9.900000000000000000e+01,8.470000000000000000e+02,8.180000000000000000e+02,8.350000000000000000e+02,6.899999999999999467e-01,5.299396600000000000e+09
2.200000000000000000e+02,5.650000000000000000e+02,4.320000000000000000e+02,7.600000000000000000e+01,9.700000000000000000e+01,8.550000000000000000e+02,8.430000000000000000e+02,8.270000000000000000e+02,6.999999999999999556e-01,5.317769200000000000e+09
2.360000000000000000e+02,5.640000000000000000e+02,5.430000000000000000e+02,7.500000000000000000e+01,9.600000000000000000e+01,8.740000000000000000e+02,8.810000000000000000e+02,8.550000000000000000e+02,7.099999999999999645e-01,5.338917700000000000e+09
2.420000000000000000e+02,5.800000000000000000e+02,5.140000000000000000e+02,8.200000000000000000e+01,9.200000000000000000e+01,8.460000000000000000e+02,9.000000000000000000e+02,8.540000000000000000e+02,7.199999999999999734e-01,5.357663700000000000e+09
2.250000000000000000e+02,5.500000000000000000e+02,4.920000000000000000e+02,7.200000000000000000e+01,7.900000000000000000e+01,8.170000000000000000e+02,9.070000000000000000e+02,7.960000000000000000e+02,7.299999999999999822e-01,5.379030500000000000e+09
2.240000000000000000e+02,5.420000000000000000e+02,5.100000000000000000e+02,7.500000000000000000e+01,7.700000000000000000e+01,7.350000000000000000e+02,8.350000000000000000e+02,7.940000000000000000e+02,7.399999999999999911e-01,5.397609300000000000e+09
2.230000000000000000e+02,5.090000000000000000e+02,5.640000000000000000e+02,8.100000000000000000e+01,7.700000000000000000e+01,7.020000000000000000e+02,9.110000000000000000e+02,8.310000000000000000e+02,7.500000000000000000e-01,5.417891900000000000e+09
2.200000000000000000e+02,5.730000000000000000e+02,5.860000000000000000e+02,9.800000000000000000e+01,7.800000000000000000e+01,7.940000000000000000e+02,9.180000000000000000e+02,9.050000000000000000e+02,7.600000000000000089e-01,5.437364200000000000e+09
2.220000000000000000e+02,5.420000000000000000e+02,6.300000000000000000e+02,9.500000000000000000e+01,7.700000000000000000e+01,8.840000000000000000e+02,9.490000000000000000e+02,8.740000000000000000e+02,7.700000000000000178e-01,5.459248800000000000e+09
2.350000000000000000e+02,5.220000000000000000e+02,6.640000000000000000e+02,9.400000000000000000e+01,8.200000000000000000e+01,8.640000000000000000e+02,9.670000000000000000e+02,9.940000000000000000e+02,7.800000000000000266e-01,5.477974700000000000e+09
2.250000000000000000e+02,5.350000000000000000e+02,6.450000000000000000e+02,9.000000000000000000e+01,8.300000000000000000e+01,9.750000000000000000e+02,9.980000000000000000e+02,9.870000000000000000e+02,7.900000000000000355e-01,5.499810400000000000e+09
2.240000000000000000e+02,5.650000000000000000e+02,6.630000000000000000e+02,9.000000000000000000e+01,8.300000000000000000e+01,9.600000000000000000e+02,9.440000000000000000e+02,9.140000000000000000e+02,8.000000000000000444e-01,5.518317200000000000e+09
2.360000000000000000e+02,5.740000000000000000e+02,6.170000000000000000e+02,7.800000000000000000e+01,9.300000000000000000e+01,1.024000000000000000e+03,9.730000000000000000e+02,8.180000000000000000e+02,8.100000000000000533e-01,5.539685700000000000e+09
2.140000000000000000e+02,6.450000000000000000e+02,5.680000000000000000e+02,7.300000000000000000e+01,1.030000000000000000e+02,1.042000000000000000e+03,9.440000000000000000e+02,8.490000000000000000e+02,8.199999999999999512e-01,5.558557400000000000e+09
2.470000000000000000e+02,7.110000000000000000e+02,5.430000000000000000e+02,8.100000000000000000e+01,1.070000000000000000e+02,1.038000000000000000e+03,9.200000000000000000e+02,8.360000000000000000e+02,8.299999999999999600e-01,5.577600700000000000e+09
2.750000000000000000e+02,7.690000000000000000e+02,5.370000000000000000e+02,8.700000000000000000e+01,1.230000000000000000e+02,1.043000000000000000e+03,9.740000000000000000e+02,1.000000000000000000e+03,8.399999999999999689e-01,5.599507300000000000e+09
2.860000000000000000e+02,7.360000000000000000e+02,4.620000000000000000e+02,8.600000000000000000e+01,1.300000000000000000e+02,1.139000000000000000e+03,9.670000000000000000e+02,1.068000000000000000e+03,8.499999999999999778e-01,5.618697100000000000e+09
2.740000000000000000e+02,6.950000000000000000e+02,3.890000000000000000e+02,8.500000000000000000e+01,1.350000000000000000e+02,1.116000000000000000e+03,1.023000000000000000e+03,1.143000000000000000e+03,8.599999999999999867e-01,5.637358500000000000e+09
3.190000000000000000e+02,6.790000000000000000e+02,3.720000000000000000e+02,8.800000000000000000e+01,1.410000000000000000e+02,1.257000000000000000e+03,1.052000000000000000e+03,1.140000000000000000e+03,8.699999999999999956e-01,5.658815500000000000e+09
3.690000000000000000e+02,6.900000000000000000e+02,3.590000000000000000e+02,9.700000000000000000e+01,1.700000000000000000e+02,1.394000000000000000e+03,1.121000000000000000e+03,1.106000000000000000e+03,8.800000000000000044e-01,5.677439100000000000e+09
3.560000000000000000e+02,5.770000000000000000e+02,4.160000000000000000e+02,1.060000000000000000e+02,1.660000000000000000e+02,1.383000000000000000e+03,1.056000000000000000e+03,1.025000000000000000e+03,8.900000000000000133e-01,5.699241800000000000e+09
3.670000000000000000e+02,6.440000000000000000e+02,4.960000000000000000e+02,1.080000000000000000e+02,1.830000000000000000e+02,1.356000000000000000e+03,1.100000000000000000e+03,1.064000000000000000e+03,9.000000000000000222e-01,5.717740500000000000e+09
4.280000000000000000e+02,6.550000000000000000e+02,5.160000000000000000e+02,1.150000000000000000e+02,1.950000000000000000e+02,1.340000000000000000e+03,1.077000000000000000e+03,1.048000000000000000e+03,9.100000000000000311e-01,5.738777100000000000e+09
4.320000000000000000e+02,6.690000000000000000e+02,5.480000000000000000e+02,1.260000000000000000e+02,2.070000000000000000e+02,1.213000000000000000e+03,1.200000000000000000e+03,1.157000000000000000e+03,9.200000000000000400e-01,5.758243600000000000e+09
4.250000000000000000e+02,7.150000000000000000e+02,6.090000000000000000e+02,1.330000000000000000e+02,1.950000000000000000e+02,1.201000000000000000e+03,1.130000000000000000e+03,1.152000000000000000e+03,9.300000000000000488e-01,5.779713000000000000e+09
4.460000000000000000e+02,7.890000000000000000e+02,6.290000000000000000e+02,1.360000000000000000e+02,2.090000000000000000e+02,1.287000000000000000e+03,1.193000000000000000e+03,1.168000000000000000e+03,9.399999999999999467e-01,5.798338800000000000e+09
5.070000000000000000e+02,8.020000000000000000e+02,5.720000000000000000e+02,1.430000000000000000e+02,2.090000000000000000e+02,1.334000000000000000e+03,1.169000000000000000e+03,1.101000000000000000e+03,9.499999999999999556e-01,5.817367300000000000e+09
4.610000000000000000e+02,7.860000000000000000e+02,5.910000000000000000e+02,1.370000000000000000e+02,2.050000000000000000e+02,1.371000000000000000e+03,1.122000000000000000e+03,1.029000000000000000e+03,9.599999999999999645e-01,5.839390500000000000e+09
4.500000000000000000e+02,7.810000000000000000e+02,6.220000000000000000e+02,1.250000000000000000e+02,1.960000000000000000e+02,1.370000000000000000e+03,1.061000000000000000e+03,1.004000000000000000e+03,9.699999999999999734e-01,5.858156300000000000e+09
4.430000000000000000e+02,7.090000000000000000e+02,5.460000000000000000e+02,1.070000000000000000e+02,1.940000000000000000e+02,1.328000000000000000e+03,1.122000000000000000e+03,9.630000000000000000e+02,9.799999999999999822e-01,5.879172400000000000e+09
4.910000000000000000e+02,7.370000000000000000e+02,5.170000000000000000e+02,9.400000000000000000e+01,1.830000000000000000e+02,1.241000000000000000e+03,1.126000000000000000e+03,9.470000000000000000e+02,9.899999999999999911e-01,5.897658600000000000e+09
4.310000000000000000e+02,7.360000000000000000e+02,6.140000000000000000e+02,8.600000000000000000e+01,1.950000000000000000e+02,1.394000000000000000e+03,1.105000000000000000e+03,1.036000000000000000e+03,9.799999999999999822e-01,5.919257800000000000e+09
4.610000000000000000e+02,8.080000000000000000e+02,6.450000000000000000e+02,9.200000000000000000e+01,1.950000000000000000e+02,1.329000000000000000e+03,1.166000000000000000e+03,1.114000000000000000e+03,9.699999999999999734e-01,5.938202000000000000e+09
4.420000000000000000e+02,7.840000000000000000e+02,6.570000000000000000e+02,1.140000000000000000e+02,1.970000000000000000e+02,1.347000000000000000e+03,1.035000000000000000e+03,1.012000000000000000e+03,9.599999999999999645e-01,5.959755500000000000e+09
4.130000000000000000e+02,7.540000000000000000e+02,7.120000000000000000e+02,1.250000000000000000e+02,1.840000000000000000e+02,1.325000000000000000e+03,9.210000000000000000e+02,9.600000000000000000e+02,9.499999999999999556e-01,5.978204600000000000e+09
3.400000000000000000e+02,6.400000000000000000e+02,6.930000000000000000e+02,1.240000000000000000e+02,1.740000000000000000e+02,1.289000000000000000e+03,8.330000000000000000e+02,8.950000000000000000e+02,9.399999999999999467e-01,5.999373900000000000e+09
3.120000000000000000e+02,5.750000000000000000e+02,6.190000000000000000e+02,1.210000000000000000e+02,1.340000000000000000e+02,9.910000000000000000e+02,7.380000000000000000e+02,7.270000000000000000e+02,9.300000000000000488e-01,6.017946700000000000e+09
2.540000000000000000e+02,5.030000000000000000e+02,6.130000000000000000e+02,1.220000000000000000e+02,1.050000000000000000e+02,9.270000000000000000e+02,5.250000000000000000e+02,5.130000000000000000e+02,9.200000000000000400e-01,6.039868300000000000e+09
2.420000000000000000e+02,4.850000000000000000e+02,5.790000000000000000e+02,9.800000000000000000e+01,8.400000000000000000e+01,8.530000000000000000e+02,5.550000000000000000e+02,4.680000000000000000e+02,9.100000000000000311e-01,6.058585800000000000e+09
1.990000000000000000e+02,4.580000000000000000e+02,5.680000000000000000e+02,9.000000000000000000e+01,7.600000000000000000e+01,7.940000000000000000e+02,5.220000000000000000e+02,4.250000000000000000e+02,9.000000000000000222e-01,6.077308300000000000e+09
1.690000000000000000e+02,4.650000000000000000e+02,6.340000000000000000e+02,9.000000000000000000e+01,7.100000000000000000e+01,7.350000000000000000e+02,4.070000000000000000e+02,3.040000000000000000e+02,8.900000000000000133e-01,6.098741700000000000e+09
1.570000000000000000e+02,4.460000000000000000e+02,7.210000000000000000e+02,1.280000000000000000e+02,7.000000000000000000e+01,7.890000000000000000e+02,3.870000000000000000e+02,2.530000000000000000e+02,8.800000000000000044e-01,6.117376500000000000e+09
1.450000000000000000e+02,3.660000000000000000e+02,7.500000000000000000e+02,1.240000000000000000e+02,6.300000000000000000e+01,7.720000000000000000e+02,3.650000000000000000e+02,2.310000000000000000e+02,8.699999999999999956e-01,6.138921200000000000e+09
1.410000000000000000e+02,3.160000000000000000e+02,7.190000000000000000e+02,1.310000000000000000e+02,3.900000000000000000e+01,6.580000000000000000e+02,2.190000000000000000e+02,8.900000000000000000e+01,8.599999999999999867e-01,6.157593600000000000e+09
1.320000000000000000e+02,3.190000000000000000e+02,6.920000000000000000e+02,1.280000000000000000e+02,4.100000000000000000e+01,5.720000000000000000e+02,1.650000000000000000e+02,5.900000000000000000e+01,8.499999999999999778e-01,6.178768800000000000e+09
1.230000000000000000e+02,3.120000000000000000e+02,6.960000000000000000e+02,1.340000000000000000e+02,4.500000000000000000e+01,6.200000000000000000e+02,1.440000000000000000e+02,5.800000000000000000e+01,8.399999999999999689e-01,6.197349100000000000e+09
1.190000000000000000e+02,2.990000000000000000e+02,6.670000000000000000e+02,1.070000000000000000e+02,4.700000000000000000e+01,5.160000000000000000e+02,9.100000000000000000e+01,5.400000000000000000e+01,8.299999999999999600e-01,6.218626500000000000e+09
1.520000000000000000e+02,2.860000000000000000e+02,6.600000000000000000e+02,1.010000000000000000e+02,4.800000000000000000e+01,5.790000000000000000e+02,8.100000000000000000e+01,4.300000000000000000e+01,8.199999999999999512e-01,6.237378000000000000e+09
1.540000000000000000e+02,3.140000000000000000e+02,7.090000000000000000e+02,1.000000000000000000e+02,5.000000000000000000e+01,5.650000000000000000e+02,7.900000000000000000e+01,4.000000000000000000e+01,8.100000000000000533e-01,6.258697000000000000e+09
1.620000000000000000e+02,3.340000000000000000e+02,7.460000000000000000e+02,1.080000000000000000e+02,4.800000000000000000e+01,5.360000000000000000e+02,6.200000000000000000e+01,3.800000000000000000e+01,8.000000000000000444e-01,6.277386700000000000e+09
1.450000000000000000e+02,2.990000000000000000e+02,6.870000000000000000e+02,9.700000000000000000e+01,4.200000000000000000e+01,4.350000000000000000e+02,6.300000000000000000e+01,3.600000000000000000e+01,7.800000000000000266e-01,6.317654600000000000e+09
1.410000000000000000e+02,2.950000000000000000e+02,6.560000000000000000e+02,8.200000000000000000e+01,3.500000000000000000e+01,4.680000000000000000e+02,6.200000000000000000e+01,3.500000000000000000e+01,7.800000000000000266e-01,6.317665100000000000e+09
1.550000000000000000e+02,2.810000000000000000e+02,6.370000000000000000e+02,9.800000000000000000e+01,3.700000000000000000e+01,3.520000000000000000e+02,6.400000000000000000e+01,4.000000000000000000e+01,7.700000000000000178e-01,6.339625900000000000e+09
1.560000000000000000e+02,3.110000000000000000e+02,5.990000000000000000e+02,1.030000000000000000e+02,4.300000000000000000e+01,3.410000000000000000e+02,6.200000000000000000e+01,4.000000000000000000e+01,7.600000000000000089e-01,6.358480800000000000e+09
1.620000000000000000e+02,3.040000000000000000e+02,6.080000000000000000e+02,9.800000000000000000e+01,4.500000000000000000e+01,3.260000000000000000e+02,5.400000000000000000e+01,4.400000000000000000e+01,7.500000000000000000e-01,6.379707900000000000e+09
1.630000000000000000e+02,3.130000000000000000e+02,6.460000000000000000e+02,1.070000000000000000e+02,4.800000000000000000e+01,2.760000000000000000e+02,3.800000000000000000e+01,4.400000000000000000e+01,7.399999999999999911e-01,6.398330700000000000e+09
1.630000000000000000e+02,3.130000000000000000e+02,6.390000000000000000e+02,1.180000000000000000e+02,5.300000000000000000e+01,1.630000000000000000e+02,3.800000000000000000e+01,4.300000000000000000e+01,7.299999999999999822e-01,6.419711600000000000e+09
1.120000000000000000e+02,3.000000000000000000e+02,6.720000000000000000e+02,1.130000000000000000e+02,5.500000000000000000e+01,9.500000000000000000e+01,3.300000000000000000e+01,3.900000000000000000e+01,7.199999999999999734e-01,6.438816900000000000e+09
1.130000000000000000e+02,2.640000000000000000e+02,8.480000000000000000e+02,1.380000000000000000e+02,5.900000000000000000e+01,8.600000000000000000e+01,3.500000000000000000e+01,4.400000000000000000e+01,7.099999999999999645e-01,6.458095500000000000e+09
9.300000000000000000e+01,2.370000000000000000e+02,8.710000000000000000e+02,1.450000000000000000e+02,5.800000000000000000e+01,6.600000000000000000e+01,3.500000000000000000e+01,4.300000000000000000e+01,6.999999999999999556e-01,6.479527100000000000e+09
8.900000000000000000e+01,2.360000000000000000e+02,8.700000000000000000e+02,1.430000000000000000e+02,5.800000000000000000e+01,6.400000000000000000e+01,3.300000000000000000e+01,4.200000000000000000e+01,6.899999999999999467e-01,6.497953400000000000e+09
9.400000000000000000e+01,2.710000000000000000e+02,9.420000000000000000e+02,1.490000000000000000e+02,6.200000000000000000e+01,7.300000000000000000e+01,3.600000000000000000e+01,4.700000000000000000e+01,6.800000000000000488e-01,6.519009400000000000e+09
9.400000000000000000e+01,3.070000000000000000e+02,8.770000000000000000e+02,1.500000000000000000e+02,5.700000000000000000e+01,6.700000000000000000e+01,3.600000000000000000e+01,5.000000000000000000e+01,6.700000000000000400e-01,6.538430600000000000e+09
8.100000000000000000e+01,2.890000000000000000e+02,7.510000000000000000e+02,1.240000000000000000e+02,4.800000000000000000e+01,6.200000000000000000e+01,3.000000000000000000e+01,4.500000000000000000e+01,6.600000000000000311e-01,6.557563600000000000e+09
8.100000000000000000e+01,2.910000000000000000e+02,7.280000000000000000e+02,1.210000000000000000e+02,5.200000000000000000e+01,5.800000000000000000e+01,3.000000000000000000e+01,4.200000000000000000e+01,6.500000000000000222e-01,6.579342300000000000e+09
8.100000000000000000e+01,3.120000000000000000e+02,7.690000000000000000e+02,1.250000000000000000e+02,5.300000000000000000e+01,5.400000000000000000e+01,3.000000000000000000e+01,4.400000000000000000e+01,6.400000000000000133e-01,6.598092500000000000e+09
8.500000000000000000e+01,3.130000000000000000e+02,6.730000000000000000e+02,1.360000000000000000e+02,5.500000000000000000e+01,4.800000000000000000e+01,2.700000000000000000e+01,4.600000000000000000e+01,6.300000000000000044e-01,6.619264800000000000e+09
8.400000000000000000e+01,2.700000000000000000e+02,7.540000000000000000e+02,1.360000000000000000e+02,5.600000000000000000e+01,4.700000000000000000e+01,2.800000000000000000e+01,4.400000000000000000e+01,6.199999999999999956e-01,6.637934900000000000e+09
9.200000000000000000e+01,3.110000000000000000e+02,8.110000000000000000e+02,1.420000000000000000e+02,6.000000000000000000e+01,4.300000000000000000e+01,3.100000000000000000e+01,4.700000000000000000e+01,6.099999999999999867e-01,6.659068200000000000e+09
1.250000000000000000e+02,3.310000000000000000e+02,8.300000000000000000e+02,1.440000000000000000e+02,5.800000000000000000e+01,4.000000000000000000e+01,3.000000000000000000e+01,4.700000000000000000e+01,5.999999999999999778e-01,6.678265000000000000e+09
1.270000000000000000e+02,3.150000000000000000e+02,7.970000000000000000e+02,1.470000000000000000e+02,5.700000000000000000e+01,4.200000000000000000e+01,2.900000000000000000e+01,4.500000000000000000e+01,5.899999999999999689e-01,6.697508100000000000e+09
1.240000000000000000e+02,2.940000000000000000e+02,8.280000000000000000e+02,1.260000000000000000e+02,4.700000000000000000e+01,3.400000000000000000e+01,2.700000000000000000e+01,4.100000000000000000e+01,5.799999999999999600e-01,6.719061900000000000e+09
1.240000000000000000e+02,3.130000000000000000e+02,8.540000000000000000e+02,1.230000000000000000e+02,4.600000000000000000e+01,7.200000000000000000e+01,5.400000000000000000e+01,3.900000000000000000e+01,5.699999999999999512e-01,6.738014600000000000e+09
1.220000000000000000e+02,2.690000000000000000e+02,7.710000000000000000e+02,1.150000000000000000e+02,4.200000000000000000e+01,7.500000000000000000e+01,5.300000000000000000e+01,3.500000000000000000e+01,5.600000000000000533e-01,6.759526700000000000e+09
9.300000000000000000e+01,3.360000000000000000e+02,7.950000000000000000e+02,1.330000000000000000e+02,4.800000000000000000e+01,8.000000000000000000e+01,5.700000000000000000e+01,4.300000000000000000e+01,5.500000000000000444e-01,6.778373400000000000e+09
8.800000000000000000e+01,3.300000000000000000e+02,8.210000000000000000e+02,1.300000000000000000e+02,4.700000000000000000e+01,8.000000000000000000e+01,5.800000000000000000e+01,4.500000000000000000e+01,5.400000000000000355e-01,6.799548800000000000e+09
9.600000000000000000e+01,3.690000000000000000e+02,9.690000000000000000e+02,1.510000000000000000e+02,5.500000000000000000e+01,9.000000000000000000e+01,6.100000000000000000e+01,4.600000000000000000e+01,5.300000000000000266e-01,6.817980300000000000e+09
9.900000000000000000e+01,3.720000000000000000e+02,1.007000000000000000e+03,1.580000000000000000e+02,5.800000000000000000e+01,7.900000000000000000e+01,5.600000000000000000e+01,4.800000000000000000e+01,5.200000000000000178e-01,6.839507600000000000e+09
1.020000000000000000e+02,3.760000000000000000e+02,1.117000000000000000e+03,1.650000000000000000e+02,5.900000000000000000e+01,9.400000000000000000e+01,6.500000000000000000e+01,5.100000000000000000e+01,5.100000000000000089e-01,6.857975800000000000e+09
1.020000000000000000e+02,3.170000000000000000e+02,1.076000000000000000e+03,1.620000000000000000e+02,5.500000000000000000e+01,9.100000000000000000e+01,6.400000000000000000e+01,6.800000000000000000e+01,5.000000000000000000e-01,6.879134800000000000e+09
1.200000000000000000e+02,3.960000000000000000e+02,1.152000000000000000e+03,1.770000000000000000e+02,6.200000000000000000e+01,9.700000000000000000e+01,6.800000000000000000e+01,7.800000000000000000e+01,4.899999999999999911e-01,6.897864300000000000e+09
1.090000000000000000e+02,3.610000000000000000e+02,1.028000000000000000e+03,1.600000000000000000e+02,5.400000000000000000e+01,8.900000000000000000e+01,6.500000000000000000e+01,7.700000000000000000e+01,4.799999999999999822e-01,6.919089500000000000e+09
1.120000000000000000e+02,3.710000000000000000e+02,1.028000000000000000e+03,1.620000000000000000e+02,5.400000000000000000e+01,7.700000000000000000e+01,5.400000000000000000e+01,8.000000000000000000e+01,4.699999999999999734e-01,6.938041100000000000e+09
1.100000000000000000e+02,3.630000000000000000e+02,8.990000000000000000e+02,1.590000000000000000e+02,5.100000000000000000e+01,5.400000000000000000e+01,4.500000000000000000e+01,7.900000000000000000e+01,4.600000000000000200e-01,6.959501300000000000e+09
1.020000000000000000e+02,3.400000000000000000e+02,9.470000000000000000e+02,1.440000000000000000e+02,4.900000000000000000e+01,5.000000000000000000e+01,4.200000000000000000e+01,6.100000000000000000e+01,4.500000000000000111e-01,6.978126100000000000e+09
9.100000000000000000e+01,2.580000000000000000e+02,8.530000000000000000e+02,1.340000000000000000e+02,4.300000000000000000e+01,4.700000000000000000e+01,4.900000000000000000e+01,5.100000000000000000e+01,4.400000000000000022e-01,6.999072600000000000e+09
9.700000000000000000e+01,2.600000000000000000e+02,9.000000000000000000e+02,1.550000000000000000e+02,5.600000000000000000e+01,5.500000000000000000e+01,5.000000000000000000e+01,5.300000000000000000e+01,4.299999999999999933e-01,7.019827200000000000e+09
1.220000000000000000e+02,3.430000000000000000e+02,9.390000000000000000e+02,1.920000000000000000e+02,6.700000000000000000e+01,7.700000000000000000e+01,6.100000000000000000e+01,8.000000000000000000e+01,4.199999999999999845e-01,7.038411700000000000e+09
1.430000000000000000e+02,3.950000000000000000e+02,9.620000000000000000e+02,2.130000000000000000e+02,8.200000000000000000e+01,8.900000000000000000e+01,6.800000000000000000e+01,9.500000000000000000e+01,4.099999999999999756e-01,7.057482900000000000e+09
1.450000000000000000e+02,4.180000000000000000e+02,9.200000000000000000e+02,2.150000000000000000e+02,8.600000000000000000e+01,9.200000000000000000e+01,7.000000000000000000e+01,9.600000000000000000e+01,4.000000000000000222e-01,7.078614500000000000e+09
1.440000000000000000e+02,4.330000000000000000e+02,9.340000000000000000e+02,2.180000000000000000e+02,8.900000000000000000e+01,9.500000000000000000e+01,6.400000000000000000e+01,9.700000000000000000e+01,3.900000000000000133e-01,7.097855800000000000e+09
1.730000000000000000e+02,5.060000000000000000e+02,9.840000000000000000e+02,2.370000000000000000e+02,9.100000000000000000e+01,1.100000000000000000e+02,7.900000000000000000e+01,1.070000000000000000e+02,3.800000000000000044e-01,7.119440300000000000e+09
1.780000000000000000e+02,5.450000000000000000e+02,9.710000000000000000e+02,2.330000000000000000e+02,9.500000000000000000e+01,1.040000000000000000e+02,8.400000000000000000e+01,9.000000000000000000e+01,3.699999999999999956e-01,7.137585100000000000e+09
1.880000000000000000e+02,5.710000000000000000e+02,1.006000000000000000e+03,2.600000000000000000e+02,1.050000000000000000e+02,1.010000000000000000e+02,8.500000000000000000e+01,8.800000000000000000e+01,3.599999999999999867e-01,7.159000000000000000e+09
2.000000000000000000e+02,5.790000000000000000e+02,1.061000000000000000e+03,2.790000000000000000e+02,1.110000000000000000e+02,1.310000000000000000e+02,9.600000000000000000e+01,9.200000000000000000e+01,3.499999999999999778e-01,7.178686500000000000e+09
2.070000000000000000e+02,6.110000000000000000e+02,1.056000000000000000e+03,2.870000000000000000e+02,1.140000000000000000e+02,1.290000000000000000e+02,9.700000000000000000e+01,9.500000000000000000e+01,3.400000000000000244e-01,7.197283900000000000e+09
2.010000000000000000e+02,5.960000000000000000e+02,9.960000000000000000e+02,3.040000000000000000e+02,1.230000000000000000e+02,1.190000000000000000e+02,9.000000000000000000e+01,9.100000000000000000e+01,3.300000000000000155e-01,7.218262600000000000e+09
1.960000000000000000e+02,5.700000000000000000e+02,1.018000000000000000e+03,2.960000000000000000e+02,1.220000000000000000e+02,1.160000000000000000e+02,8.300000000000000000e+01,9.300000000000000000e+01,3.200000000000000067e-01,7.239772000000000000e+09
1.790000000000000000e+02,5.570000000000000000e+02,1.069000000000000000e+03,2.780000000000000000e+02,1.090000000000000000e+02,1.160000000000000000e+02,8.500000000000000000e+01,8.200000000000000000e+01,3.099999999999999978e-01,7.258293000000000000e+09
1.710000000000000000e+02,5.430000000000000000e+02,1.165000000000000000e+03,2.940000000000000000e+02,1.080000000000000000e+02,8.700000000000000000e+01,7.800000000000000000e+01,8.000000000000000000e+01,2.999999999999999889e-01,7.279751600000000000e+09
1.810000000000000000e+02,5.530000000000000000e+02,1.184000000000000000e+03,2.970000000000000000e+02,1.080000000000000000e+02,9.100000000000000000e+01,8.700000000000000000e+01,1.010000000000000000e+02,2.899999999999999800e-01,7.298730400000000000e+09
1.630000000000000000e+02,5.110000000000000000e+02,1.220000000000000000e+03,2.560000000000000000e+02,9.500000000000000000e+01,1.050000000000000000e+02,8.500000000000000000e+01,1.030000000000000000e+02,2.800000000000000266e-01,7.317387000000000000e+09
1.720000000000000000e+02,4.930000000000000000e+02,1.172000000000000000e+03,2.760000000000000000e+02,1.110000000000000000e+02,1.130000000000000000e+02,9.100000000000000000e+01,1.050000000000000000e+02,2.600000000000000089e-01,7.358265300000000000e+09
1.910000000000000000e+02,4.830000000000000000e+02,1.180000000000000000e+03,3.050000000000000000e+02,1.310000000000000000e+02,1.190000000000000000e+02,9.300000000000000000e+01,1.140000000000000000e+02,2.600000000000000089e-01,7.358299300000000000e+09
2.440000000000000000e+02,6.010000000000000000e+02,1.131000000000000000e+03,4.020000000000000000e+02,1.670000000000000000e+02,1.220000000000000000e+02,9.700000000000000000e+01,1.320000000000000000e+02,2.500000000000000000e-01,7.379714900000000000e+09
2.440000000000000000e+02,6.460000000000000000e+02,1.299000000000000000e+03,4.130000000000000000e+02,1.690000000000000000e+02,1.250000000000000000e+02,9.300000000000000000e+01,1.170000000000000000e+02,2.399999999999999911e-01,7.398646700000000000e+09
2.720000000000000000e+02,6.860000000000000000e+02,1.287000000000000000e+03,4.660000000000000000e+02,1.840000000000000000e+02,1.250000000000000000e+02,1.060000000000000000e+02,1.250000000000000000e+02,2.300000000000000100e-01,7.419819400000000000e+09
2.790000000000000000e+02,7.270000000000000000e+02,1.351000000000000000e+03,5.080000000000000000e+02,1.880000000000000000e+02,1.160000000000000000e+02,1.020000000000000000e+02,1.300000000000000000e+02,2.200000000000000011e-01,7.438199500000000000e+09
2.680000000000000000e+02,7.710000000000000000e+02,1.419000000000000000e+03,4.950000000000000000e+02,1.830000000000000000e+02,1.160000000000000000e+02,9.500000000000000000e+01,1.240000000000000000e+02,2.099999999999999922e-01,7.459588600000000000e+09
2.440000000000000000e+02,7.510000000000000000e+02,1.416000000000000000e+03,4.240000000000000000e+02,1.510000000000000000e+02,1.320000000000000000e+02,9.200000000000000000e+01,1.120000000000000000e+02,1.900000000000000022e-01,7.498241400000000000e+09
2.290000000000000000e+02,6.980000000000000000e+02,1.317000000000000000e+03,4.190000000000000000e+02,1.500000000000000000e+02,1.260000000000000000e+02,8.600000000000000000e+01,1.080000000000000000e+02,1.900000000000000022e-01,7.498252800000000000e+09
2.180000000000000000e+02,8.310000000000000000e+02,1.397000000000000000e+03,4.140000000000000000e+02,1.490000000000000000e+02,1.240000000000000000e+02,8.300000000000000000e+01,9.800000000000000000e+01,1.799999999999999933e-01,7.517272400000000000e+09
2.320000000000000000e+02,8.240000000000000000e+02,1.369000000000000000e+03,4.160000000000000000e+02,1.560000000000000000e+02,1.390000000000000000e+02,9.200000000000000000e+01,1.070000000000000000e+02,1.700000000000000122e-01,7.539115500000000000e+09
2.480000000000000000e+02,8.420000000000000000e+02,1.259000000000000000e+03,4.930000000000000000e+02,1.690000000000000000e+02,1.490000000000000000e+02,1.070000000000000000e+02,1.150000000000000000e+02,1.600000000000000033e-01,7.557653800000000000e+09
3.160000000000000000e+02,8.870000000000000000e+02,1.263000000000000000e+03,5.520000000000000000e+02,2.020000000000000000e+02,1.700000000000000000e+02,1.220000000000000000e+02,1.380000000000000000e+02,1.499999999999999944e-01,7.578824000000000000e+09
3.700000000000000000e+02,1.018000000000000000e+03,1.365000000000000000e+03,6.020000000000000000e+02,2.210000000000000000e+02,1.810000000000000000e+02,1.350000000000000000e+02,1.610000000000000000e+02,1.400000000000000133e-01,7.597767500000000000e+09
3.880000000000000000e+02,9.180000000000000000e+02,1.225000000000000000e+03,6.290000000000000000e+02,2.340000000000000000e+02,1.950000000000000000e+02,1.370000000000000000e+02,1.700000000000000000e+02,1.300000000000000044e-01,7.617422900000000000e+09
3.920000000000000000e+02,9.630000000000000000e+02,1.195000000000000000e+03,6.280000000000000000e+02,2.190000000000000000e+02,1.890000000000000000e+02,1.300000000000000000e+02,1.680000000000000000e+02,1.199999999999999956e-01,7.638763100000000000e+09
4.450000000000000000e+02,9.410000000000000000e+02,1.342000000000000000e+03,7.150000000000000000e+02,2.500000000000000000e+02,1.910000000000000000e+02,1.380000000000000000e+02,1.960000000000000000e+02,1.100000000000000006e-01,7.659722200000000000e+09
4.730000000000000000e+02,1.040000000000000000e+03,1.329000000000000000e+03,7.630000000000000000e+02,2.780000000000000000e+02,1.870000000000000000e+02,1.460000000000000000e+02,2.140000000000000000e+02,1.000000000000000056e-01,7.678331900000000000e+09
4.590000000000000000e+02,9.780000000000000000e+02,1.211000000000000000e+03,7.580000000000000000e+02,2.720000000000000000e+02,1.860000000000000000e+02,1.440000000000000000e+02,2.090000000000000000e+02,8.999999999999999667e-02,7.699474000000000000e+09
4.410000000000000000e+02,1.014000000000000000e+03,1.247000000000000000e+03,7.210000000000000000e+02,2.660000000000000000e+02,1.680000000000000000e+02,1.360000000000000000e+02,2.020000000000000000e+02,8.000000000000000167e-02,7.717762400000000000e+09
4.440000000000000000e+02,9.490000000000000000e+02,1.226000000000000000e+03,7.310000000000000000e+02,2.880000000000000000e+02,1.690000000000000000e+02,1.390000000000000000e+02,2.070000000000000000e+02,7.000000000000000666e-02,7.739030200000000000e+09
3.930000000000000000e+02,9.860000000000000000e+02,1.126000000000000000e+03,6.160000000000000000e+02,2.610000000000000000e+02,1.580000000000000000e+02,1.250000000000000000e+02,1.810000000000000000e+02,5.999999999999999778e-02,7.757501700000000000e+09
2.920000000000000000e+02,8.670000000000000000e+02,1.292000000000000000e+03,4.880000000000000000e+02,2.080000000000000000e+02,1.340000000000000000e+02,1.060000000000000000e+02,1.410000000000000000e+02,5.000000000000000278e-02,7.779431600000000000e+09
3.140000000000000000e+02,8.160000000000000000e+02,1.271000000000000000e+03,5.160000000000000000e+02,2.230000000000000000e+02,1.350000000000000000e+02,1.120000000000000000e+02,1.460000000000000000e+02,4.000000000000000083e-02,7.798007000000000000e+09
3.280000000000000000e+02,7.700000000000000000e+02,1.365000000000000000e+03,5.360000000000000000e+02,2.240000000000000000e+02,1.520000000000000000e+02,1.180000000000000000e+02,1.550000000000000000e+02,2.999999999999999889e-02,7.819159300000000000e+09
2.980000000000000000e+02,7.910000000000000000e+02,1.343000000000000000e+03,4.830000000000000000e+02,1.970000000000000000e+02,1.700000000000000000e+02,1.160000000000000000e+02,1.380000000000000000e+02,2.000000000000000042e-02,7.838039900000000000e+09
2.840000000000000000e+02,7.100000000000000000e+02,1.279000000000000000e+03,4.370000000000000000e+02,1.770000000000000000e+02,1.970000000000000000e+02,1.180000000000000000e+02,1.750000000000000000e+02,1.000000000000000021e-02,7.859311100000000000e+09
2.770000000000000000e+02,6.460000000000000000e+02,1.117000000000000000e+03,4.310000000000000000e+02,1.670000000000000000e+02,2.400000000000000000e+02,1.230000000000000000e+02,2.850000000000000000e+02,0.000000000000000000e+00,7.878193200000000000e+09
2.030000000000000000e+02,6.070000000000000000e+02,1.096000000000000000e+03,3.100000000000000000e+02,1.330000000000000000e+02,2.630000000000000000e+02,1.280000000000000000e+02,3.250000000000000000e+02,1.000000000000000021e-02,7.899343400000000000e+09
1.660000000000000000e+02,5.730000000000000000e+02,1.014000000000000000e+03,2.600000000000000000e+02,1.150000000000000000e+02,2.610000000000000000e+02,1.560000000000000000e+02,3.930000000000000000e+02,2.000000000000000042e-02,7.917985500000000000e+09
1.490000000000000000e+02,5.280000000000000000e+02,1.037000000000000000e+03,2.160000000000000000e+02,1.010000000000000000e+02,2.490000000000000000e+02,1.560000000000000000e+02,4.340000000000000000e+02,2.999999999999999889e-02,7.938945300000000000e+09
1.540000000000000000e+02,5.120000000000000000e+02,1.012000000000000000e+03,2.390000000000000000e+02,1.170000000000000000e+02,3.310000000000000000e+02,1.890000000000000000e+02,5.480000000000000000e+02,4.000000000000000083e-02,7.957630600000000000e+09
1.510000000000000000e+02,4.480000000000000000e+02,8.650000000000000000e+02,2.230000000000000000e+02,1.180000000000000000e+02,3.240000000000000000e+02,2.110000000000000000e+02,5.820000000000000000e+02,5.000000000000000278e-02,7.978682300000000000e+09
1.520000000000000000e+02,4.090000000000000000e+02,8.130000000000000000e+02,2.150000000000000000e+02,1.050000000000000000e+02,3.290000000000000000e+02,2.080000000000000000e+02,6.630000000000000000e+02,5.999999999999999778e-02,7.999710600000000000e+09
1.540000000000000000e+02,3.910000000000000000e+02,7.680000000000000000e+02,1.750000000000000000e+02,8.900000000000000000e+01,3.850000000000000000e+02,2.410000000000000000e+02,7.340000000000000000e+02,7.000000000000000666e-02,8.018265100000000000e+09
1.640000000000000000e+02,3.500000000000000000e+02,7.650000000000000000e+02,1.890000000000000000e+02,8.900000000000000000e+01,4.080000000000000000e+02,2.680000000000000000e+02,7.710000000000000000e+02,8.000000000000000167e-02,8.039552400000000000e+09
1.460000000000000000e+02,3.420000000000000000e+02,7.430000000000000000e+02,1.540000000000000000e+02,6.600000000000000000e+01,4.740000000000000000e+02,2.690000000000000000e+02,7.240000000000000000e+02,8.999999999999999667e-02,8.057933200000000000e+09
1.600000000000000000e+02,3.180000000000000000e+02,7.610000000000000000e+02,1.460000000000000000e+02,9.000000000000000000e+01,6.290000000000000000e+02,3.180000000000000000e+02,6.980000000000000000e+02,1.000000000000000056e-01,8.078713100000000000e+09
1.820000000000000000e+02,3.090000000000000000e+02,7.030000000000000000e+02,1.440000000000000000e+02,9.400000000000000000e+01,7.090000000000000000e+02,3.280000000000000000e+02,6.150000000000000000e+02,1.100000000000000006e-01,8.097604200000000000e+09
1.740000000000000000e+02,2.960000000000000000e+02,6.680000000000000000e+02,1.530000000000000000e+02,9.300000000000000000e+01,7.000000000000000000e+02,3.150000000000000000e+02,5.020000000000000000e+02,1.199999999999999956e-01,8.119253200000000000e+09
1.780000000000000000e+02,3.370000000000000000e+02,6.670000000000000000e+02,1.480000000000000000e+02,9.000000000000000000e+01,7.170000000000000000e+02,2.920000000000000000e+02,4.300000000000000000e+02,1.300000000000000044e-01,8.137534800000000000e+09
2.130000000000000000e+02,3.030000000000000000e+02,6.590000000000000000e+02,1.260000000000000000e+02,8.800000000000000000e+01,7.040000000000000000e+02,2.980000000000000000e+02,3.980000000000000000e+02,1.499999999999999944e-01,8.179196700000000000e+09
2.160000000000000000e+02,2.970000000000000000e+02,6.300000000000000000e+02,1.230000000000000000e+02,6.200000000000000000e+01,6.060000000000000000e+02,2.810000000000000000e+02,4.930000000000000000e+02,1.499999999999999944e-01,8.179246800000000000e+09
2.010000000000000000e+02,3.760000000000000000e+02,6.350000000000000000e+02,1.190000000000000000e+02,5.400000000000000000e+01,5.490000000000000000e+02,2.660000000000000000e+02,5.000000000000000000e+02,1.600000000000000033e-01,8.197559100000000000e+09
2.270000000000000000e+02,3.940000000000000000e+02,5.940000000000000000e+02,1.210000000000000000e+02,6.600000000000000000e+01,5.740000000000000000e+02,2.460000000000000000e+02,4.890000000000000000e+02,1.700000000000000122e-01,8.218903700000000000e+09
2.260000000000000000e+02,4.410000000000000000e+02,4.800000000000000000e+02,1.210000000000000000e+02,7.700000000000000000e+01,5.850000000000000000e+02,2.500000000000000000e+02,4.870000000000000000e+02,1.799999999999999933e-01,8.237610000000000000e+09
2.060000000000000000e+02,4.470000000000000000e+02,4.490000000000000000e+02,1.150000000000000000e+02,7.500000000000000000e+01,5.070000000000000000e+02,2.390000000000000000e+02,4.650000000000000000e+02,1.900000000000000022e-01,8.258919300000000000e+09
1.890000000000000000e+02,4.440000000000000000e+02,4.490000000000000000e+02,1.120000000000000000e+02,7.200000000000000000e+01,4.650000000000000000e+02,2.530000000000000000e+02,3.590000000000000000e+02,2.000000000000000111e-01,8.277492000000000000e+09
2.100000000000000000e+02,4.120000000000000000e+02,5.240000000000000000e+02,1.390000000000000000e+02,7.600000000000000000e+01,4.120000000000000000e+02,3.030000000000000000e+02,4.990000000000000000e+02,2.099999999999999922e-01,8.298717000000000000e+09
1.970000000000000000e+02,4.110000000000000000e+02,6.080000000000000000e+02,1.170000000000000000e+02,6.200000000000000000e+01,3.450000000000000000e+02,3.200000000000000000e+02,5.110000000000000000e+02,2.200000000000000011e-01,8.317610500000000000e+09
1.900000000000000000e+02,3.160000000000000000e+02,5.930000000000000000e+02,9.800000000000000000e+01,4.600000000000000000e+01,2.570000000000000000e+02,3.260000000000000000e+02,5.190000000000000000e+02,2.300000000000000100e-01,8.338784600000000000e+09
1.700000000000000000e+02,2.980000000000000000e+02,5.870000000000000000e+02,9.900000000000000000e+01,4.500000000000000000e+01,2.580000000000000000e+02,3.390000000000000000e+02,5.280000000000000000e+02,2.399999999999999911e-01,8.357406300000000000e+09
1.730000000000000000e+02,3.070000000000000000e+02,6.000000000000000000e+02,1.000000000000000000e+02,4.600000000000000000e+01,3.120000000000000000e+02,3.570000000000000000e+02,5.350000000000000000e+02,2.500000000000000000e-01,8.378961100000000000e+09
1.380000000000000000e+02,2.770000000000000000e+02,6.180000000000000000e+02,6.600000000000000000e+01,3.700000000000000000e+01,3.130000000000000000e+02,3.620000000000000000e+02,4.410000000000000000e+02,2.600000000000000089e-01,8.397390200000000000e+09
1.150000000000000000e+02,2.500000000000000000e+02,5.750000000000000000e+02,6.800000000000000000e+01,4.000000000000000000e+01,3.040000000000000000e+02,3.540000000000000000e+02,4.500000000000000000e+02,2.700000000000000178e-01,8.418454900000000000e+09
1.640000000000000000e+02,2.610000000000000000e+02,6.130000000000000000e+02,7.000000000000000000e+01,4.200000000000000000e+01,3.270000000000000000e+02,4.080000000000000000e+02,4.350000000000000000e+02,2.800000000000000266e-01,8.439417200000000000e+09
1.630000000000000000e+02,2.800000000000000000e+02,6.080000000000000000e+02,7.300000000000000000e+01,4.900000000000000000e+01,4.250000000000000000e+02,4.210000000000000000e+02,4.810000000000000000e+02,2.899999999999999800e-01,8.459947300000000000e+09
1.630000000000000000e+02,2.670000000000000000e+02,5.870000000000000000e+02,7.000000000000000000e+01,4.600000000000000000e+01,4.060000000000000000e+02,3.990000000000000000e+02,4.930000000000000000e+02,3.099999999999999978e-01,8.499111700000000000e+09
1.680000000000000000e+02,2.930000000000000000e+02,5.270000000000000000e+02,6.100000000000000000e+01,4.800000000000000000e+01,4.170000000000000000e+02,3.630000000000000000e+02,4.700000000000000000e+02,3.099999999999999978e-01,8.499133000000000000e+09
1.660000000000000000e+02,3.070000000000000000e+02,4.220000000000000000e+02,5.700000000000000000e+01,4.800000000000000000e+01,4.240000000000000000e+02,3.740000000000000000e+02,4.600000000000000000e+02,3.200000000000000067e-01,8.517719600000000000e+09
1.230000000000000000e+02,3.180000000000000000e+02,4.080000000000000000e+02,5.400000000000000000e+01,4.600000000000000000e+01,4.180000000000000000e+02,3.420000000000000000e+02,4.620000000000000000e+02,3.400000000000000244e-01,8.558563700000000000e+09
1.600000000000000000e+02,3.180000000000000000e+02,4.170000000000000000e+02,6.000000000000000000e+01,4.200000000000000000e+01,3.650000000000000000e+02,3.550000000000000000e+02,4.260000000000000000e+02,3.400000000000000244e-01,8.558579200000000000e+09
1.530000000000000000e+02,3.380000000000000000e+02,4.270000000000000000e+02,6.300000000000000000e+01,4.500000000000000000e+01,3.830000000000000000e+02,3.440000000000000000e+02,3.930000000000000000e+02,3.499999999999999778e-01,8.577232000000000000e+09
1.480000000000000000e+02,3.390000000000000000e+02,4.350000000000000000e+02,7.400000000000000000e+01,5.300000000000000000e+01,4.000000000000000000e+02,3.940000000000000000e+02,4.000000000000000000e+02,3.599999999999999867e-01,8.598614100000000000e+09
1.510000000000000000e+02,3.070000000000000000e+02,4.140000000000000000e+02,7.300000000000000000e+01,5.500000000000000000e+01,4.790000000000000000e+02,3.810000000000000000e+02,4.440000000000000000e+02,3.699999999999999956e-01,8.619666000000000000e+09
1.490000000000000000e+02,3.220000000000000000e+02,3.760000000000000000e+02,7.200000000000000000e+01,6.500000000000000000e+01,6.280000000000000000e+02,4.880000000000000000e+02,4.620000000000000000e+02,3.800000000000000044e-01,8.638515800000000000e+09
1.380000000000000000e+02,3.350000000000000000e+02,3.830000000000000000e+02,6.800000000000000000e+01,6.400000000000000000e+01,6.280000000000000000e+02,4.830000000000000000e+02,5.110000000000000000e+02,3.900000000000000133e-01,8.659289900000000000e+09
1.360000000000000000e+02,3.730000000000000000e+02,4.670000000000000000e+02,6.900000000000000000e+01,6.900000000000000000e+01,6.480000000000000000e+02,6.110000000000000000e+02,5.110000000000000000e+02,4.000000000000000222e-01,8.677770900000000000e+09
1.430000000000000000e+02,3.510000000000000000e+02,4.230000000000000000e+02,5.400000000000000000e+01,6.200000000000000000e+01,6.530000000000000000e+02,6.900000000000000000e+02,4.960000000000000000e+02,4.099999999999999756e-01,8.698960100000000000e+09
1.370000000000000000e+02,3.700000000000000000e+02,4.230000000000000000e+02,5.800000000000000000e+01,6.200000000000000000e+01,6.250000000000000000e+02,7.550000000000000000e+02,4.500000000000000000e+02,4.199999999999999845e-01,8.717619300000000000e+09
1.280000000000000000e+02,3.330000000000000000e+02,3.700000000000000000e+02,5.300000000000000000e+01,5.100000000000000000e+01,4.840000000000000000e+02,6.790000000000000000e+02,4.690000000000000000e+02,4.299999999999999933e-01,8.738849500000000000e+09
1.000000000000000000e+02,3.110000000000000000e+02,3.460000000000000000e+02,4.700000000000000000e+01,5.100000000000000000e+01,4.830000000000000000e+02,7.160000000000000000e+02,4.140000000000000000e+02,4.400000000000000022e-01,8.757404700000000000e+09
1.590000000000000000e+02,2.800000000000000000e+02,2.050000000000000000e+02,4.300000000000000000e+01,4.300000000000000000e+01,4.250000000000000000e+02,7.010000000000000000e+02,4.350000000000000000e+02,4.500000000000000111e-01,8.779105700000000000e+09
1.500000000000000000e+02,2.910000000000000000e+02,3.830000000000000000e+02,4.900000000000000000e+01,4.500000000000000000e+01,4.440000000000000000e+02,6.270000000000000000e+02,4.390000000000000000e+02,4.600000000000000200e-01,8.797769400000000000e+09
1.570000000000000000e+02,2.660000000000000000e+02,4.070000000000000000e+02,5.500000000000000000e+01,4.200000000000000000e+01,4.030000000000000000e+02,5.570000000000000000e+02,4.300000000000000000e+02,4.699999999999999734e-01,8.819245800000000000e+09
1.670000000000000000e+02,2.800000000000000000e+02,4.190000000000000000e+02,5.600000000000000000e+01,4.200000000000000000e+01,4.120000000000000000e+02,6.150000000000000000e+02,4.060000000000000000e+02,4.799999999999999822e-01,8.837559100000000000e+09
1.720000000000000000e+02,3.530000000000000000e+02,4.180000000000000000e+02,5.800000000000000000e+01,4.000000000000000000e+01,3.720000000000000000e+02,6.210000000000000000e+02,4.080000000000000000e+02,4.899999999999999911e-01,8.858928700000000000e+09
1.470000000000000000e+02,4.010000000000000000e+02,4.240000000000000000e+02,5.700000000000000000e+01,4.000000000000000000e+01,3.610000000000000000e+02,5.570000000000000000e+02,4.740000000000000000e+02,5.000000000000000000e-01,8.877281700000000000e+09
1.490000000000000000e+02,3.880000000000000000e+02,3.250000000000000000e+02,5.600000000000000000e+01,3.800000000000000000e+01,3.060000000000000000e+02,5.580000000000000000e+02,4.820000000000000000e+02,5.200000000000000178e-01,8.917367800000000000e+09
1.510000000000000000e+02,3.990000000000000000e+02,3.270000000000000000e+02,4.900000000000000000e+01,3.900000000000000000e+01,3.310000000000000000e+02,6.440000000000000000e+02,6.180000000000000000e+02,5.200000000000000178e-01,8.917378400000000000e+09
1.400000000000000000e+02,3.950000000000000000e+02,3.100000000000000000e+02,4.900000000000000000e+01,4.500000000000000000e+01,3.320000000000000000e+02,6.220000000000000000e+02,6.780000000000000000e+02,5.300000000000000266e-01,8.938332800000000000e+09
1.320000000000000000e+02,3.730000000000000000e+02,3.170000000000000000e+02,4.700000000000000000e+01,4.500000000000000000e+01,3.410000000000000000e+02,5.780000000000000000e+02,6.750000000000000000e+02,5.400000000000000355e-01,8.959502100000000000e+09
1.490000000000000000e+02,3.310000000000000000e+02,3.370000000000000000e+02,4.600000000000000000e+01,4.500000000000000000e+01,3.690000000000000000e+02,6.030000000000000000e+02,6.810000000000000000e+02,5.500000000000000444e-01,8.978597300000000000e+09
1.430000000000000000e+02,3.950000000000000000e+02,3.090000000000000000e+02,4.200000000000000000e+01,4.900000000000000000e+01,3.680000000000000000e+02,6.370000000000000000e+02,7.740000000000000000e+02,5.600000000000000533e-01,8.999296000000000000e+09
1.490000000000000000e+02,4.010000000000000000e+02,2.840000000000000000e+02,3.700000000000000000e+01,4.700000000000000000e+01,3.420000000000000000e+02,5.590000000000000000e+02,6.700000000000000000e+02,5.699999999999999512e-01,9.017883200000000000e+09
1.650000000000000000e+02,4.100000000000000000e+02,3.370000000000000000e+02,4.600000000000000000e+01,4.600000000000000000e+01,3.310000000000000000e+02,6.040000000000000000e+02,6.020000000000000000e+02,5.799999999999999600e-01,9.038989500000000000e+09
1.740000000000000000e+02,3.790000000000000000e+02,3.620000000000000000e+02,4.500000000000000000e+01,5.300000000000000000e+01,4.890000000000000000e+02,6.140000000000000000e+02,6.970000000000000000e+02,5.899999999999999689e-01,9.059925400000000000e+09
1.400000000000000000e+02,3.490000000000000000e+02,3.760000000000000000e+02,5.100000000000000000e+01,5.000000000000000000e+01,4.970000000000000000e+02,6.180000000000000000e+02,6.710000000000000000e+02,5.999999999999999778e-01,9.077711200000000000e+09
1.700000000000000000e+02,3.050000000000000000e+02,3.490000000000000000e+02,4.800000000000000000e+01,4.400000000000000000e+01,4.810000000000000000e+02,5.700000000000000000e+02,5.530000000000000000e+02,6.099999999999999867e-01,9.099544400000000000e+09
1.990000000000000000e+02,3.570000000000000000e+02,3.430000000000000000e+02,5.000000000000000000e+01,5.200000000000000000e+01,5.600000000000000000e+02,6.350000000000000000e+02,7.060000000000000000e+02,6.199999999999999956e-01,9.118574400000000000e+09
1.990000000000000000e+02,3.490000000000000000e+02,3.770000000000000000e+02,4.300000000000000000e+01,5.100000000000000000e+01,5.780000000000000000e+02,5.780000000000000000e+02,7.620000000000000000e+02,6.300000000000000044e-01,9.139869500000000000e+09
2.150000000000000000e+02,3.480000000000000000e+02,4.720000000000000000e+02,4.900000000000000000e+01,5.300000000000000000e+01,5.160000000000000000e+02,6.580000000000000000e+02,6.820000000000000000e+02,6.400000000000000133e-01,9.158424000000000000e+09
2.240000000000000000e+02,3.680000000000000000e+02,4.550000000000000000e+02,4.400000000000000000e+01,5.700000000000000000e+01,5.140000000000000000e+02,6.800000000000000000e+02,7.110000000000000000e+02,6.500000000000000222e-01,9.179449600000000000e+09
2.170000000000000000e+02,3.790000000000000000e+02,4.610000000000000000e+02,4.500000000000000000e+01,6.100000000000000000e+01,5.360000000000000000e+02,7.150000000000000000e+02,7.950000000000000000e+02,6.600000000000000311e-01,9.198038600000000000e+09
1.970000000000000000e+02,4.070000000000000000e+02,4.720000000000000000e+02,4.400000000000000000e+01,6.300000000000000000e+01,4.940000000000000000e+02,6.770000000000000000e+02,8.220000000000000000e+02,6.800000000000000488e-01,9.238350900000000000e+09
2.180000000000000000e+02,4.340000000000000000e+02,4.280000000000000000e+02,4.300000000000000000e+01,6.400000000000000000e+01,4.870000000000000000e+02,7.470000000000000000e+02,8.330000000000000000e+02,6.800000000000000488e-01,9.238362000000000000e+09
2.220000000000000000e+02,4.920000000000000000e+02,2.850000000000000000e+02,4.000000000000000000e+01,7.100000000000000000e+01,6.070000000000000000e+02,6.550000000000000000e+02,8.710000000000000000e+02,6.899999999999999467e-01,9.259692700000000000e+09
2.200000000000000000e+02,4.870000000000000000e+02,2.810000000000000000e+02,4.000000000000000000e+01,7.300000000000000000e+01,7.170000000000000000e+02,6.060000000000000000e+02,8.290000000000000000e+02,7.099999999999999645e-01,9.299727200000000000e+09
2.290000000000000000e+02,5.510000000000000000e+02,2.660000000000000000e+02,5.100000000000000000e+01,8.000000000000000000e+01,7.810000000000000000e+02,5.850000000000000000e+02,8.270000000000000000e+02,7.099999999999999645e-01,9.299738800000000000e+09
2.160000000000000000e+02,4.860000000000000000e+02,2.620000000000000000e+02,5.100000000000000000e+01,7.600000000000000000e+01,7.890000000000000000e+02,6.410000000000000000e+02,7.420000000000000000e+02,7.199999999999999734e-01,9.318316200000000000e+09
1.990000000000000000e+02,4.560000000000000000e+02,2.560000000000000000e+02,5.000000000000000000e+01,7.500000000000000000e+01,8.060000000000000000e+02,6.350000000000000000e+02,6.870000000000000000e+02,7.399999999999999911e-01,9.357881300000000000e+09
1.920000000000000000e+02,3.910000000000000000e+02,2.900000000000000000e+02,5.300000000000000000e+01,7.000000000000000000e+01,7.720000000000000000e+02,6.860000000000000000e+02,6.890000000000000000e+02,7.399999999999999911e-01,9.357892900000000000e+09
2.060000000000000000e+02,4.800000000000000000e+02,2.720000000000000000e+02,5.300000000000000000e+01,6.800000000000000000e+01,7.110000000000000000e+02,6.880000000000000000e+02,7.550000000000000000e+02,7.500000000000000000e-01,9.379073500000000000e+09
2.000000000000000000e+02,3.880000000000000000e+02,2.710000000000000000e+02,4.600000000000000000e+01,6.700000000000000000e+01,6.970000000000000000e+02,7.790000000000000000e+02,7.820000000000000000e+02,7.700000000000000178e-01,9.419493100000000000e+09
2.450000000000000000e+02,5.120000000000000000e+02,2.640000000000000000e+02,5.000000000000000000e+01,8.500000000000000000e+01,8.360000000000000000e+02,7.820000000000000000e+02,8.020000000000000000e+02,7.700000000000000178e-01,9.419505100000000000e+09
2.370000000000000000e+02,5.410000000000000000e+02,2.600000000000000000e+02,5.400000000000000000e+01,8.800000000000000000e+01,8.640000000000000000e+02,7.840000000000000000e+02,8.600000000000000000e+02,7.800000000000000266e-01,9.437890500000000000e+09
2.590000000000000000e+02,5.750000000000000000e+02,2.300000000000000000e+02,5.200000000000000000e+01,9.200000000000000000e+01,8.480000000000000000e+02,7.810000000000000000e+02,8.680000000000000000e+02,8.000000000000000444e-01,9.478186800000000000e+09
2.570000000000000000e+02,5.190000000000000000e+02,3.230000000000000000e+02,6.200000000000000000e+01,1.060000000000000000e+02,8.690000000000000000e+02,8.640000000000000000e+02,9.430000000000000000e+02,8.000000000000000444e-01,9.478228200000000000e+09
2.580000000000000000e+02,5.760000000000000000e+02,3.360000000000000000e+02,5.900000000000000000e+01,1.030000000000000000e+02,9.010000000000000000e+02,7.730000000000000000e+02,9.500000000000000000e+02,8.100000000000000533e-01,9.499374500000000000e+09
2.400000000000000000e+02,4.930000000000000000e+02,3.230000000000000000e+02,5.700000000000000000e+01,9.400000000000000000e+01,8.970000000000000000e+02,7.430000000000000000e+02,9.680000000000000000e+02,8.299999999999999600e-01,9.539314000000000000e+09
2.600000000000000000e+02,5.440000000000000000e+02,3.130000000000000000e+02,7.400000000000000000e+01,1.020000000000000000e+02,9.020000000000000000e+02,7.830000000000000000e+02,9.920000000000000000e+02,8.299999999999999600e-01,9.539336200000000000e+09
2.370000000000000000e+02,5.190000000000000000e+02,4.100000000000000000e+02,8.100000000000000000e+01,1.100000000000000000e+02,1.002000000000000000e+03,8.400000000000000000e+02,1.059000000000000000e+03,8.399999999999999689e-01,9.558306300000000000e+09
2.380000000000000000e+02,5.500000000000000000e+02,3.540000000000000000e+02,7.500000000000000000e+01,1.020000000000000000e+02,1.032000000000000000e+03,8.180000000000000000e+02,9.540000000000000000e+02,8.599999999999999867e-01,9.598355600000000000e+09
2.700000000000000000e+02,6.390000000000000000e+02,3.720000000000000000e+02,8.300000000000000000e+01,1.170000000000000000e+02,9.920000000000000000e+02,9.830000000000000000e+02,9.690000000000000000e+02,8.599999999999999867e-01,9.598408400000000000e+09
2.740000000000000000e+02,6.300000000000000000e+02,4.090000000000000000e+02,8.800000000000000000e+01,1.200000000000000000e+02,9.430000000000000000e+02,1.014000000000000000e+03,9.750000000000000000e+02,8.699999999999999956e-01,9.617414600000000000e+09
