6.200000000000000000e+01,2.210000000000000000e+02,5.610000000000000000e+02,8.000000000000000000e+01,3.900000000000000000e+01,1.180000000000000000e+02,9.800000000000000000e+01,2.460000000000000000e+02,2.999999999999999889e-02,1.780190000000000000e+07
6.600000000000000000e+01,2.460000000000000000e+02,4.640000000000000000e+02,8.200000000000000000e+01,4.000000000000000000e+01,1.130000000000000000e+02,8.800000000000000000e+01,2.190000000000000000e+02,4.000000000000000083e-02,3.322153000000000000e+08
7.000000000000000000e+01,2.140000000000000000e+02,4.660000000000000000e+02,8.300000000000000000e+01,4.000000000000000000e+01,1.260000000000000000e+02,8.600000000000000000e+01,2.180000000000000000e+02,4.000000000000000083e-02,3.322250000000000000e+08
8.100000000000000000e+01,2.200000000000000000e+02,5.000000000000000000e+02,9.200000000000000000e+01,4.300000000000000000e+01,1.170000000000000000e+02,8.500000000000000000e+01,2.230000000000000000e+02,4.000000000000000083e-02,3.322325000000000000e+08
7.600000000000000000e+01,2.240000000000000000e+02,5.220000000000000000e+02,8.400000000000000000e+01,4.100000000000000000e+01,9.000000000000000000e+01,8.000000000000000000e+01,2.390000000000000000e+02,4.000000000000000083e-02,3.322401000000000000e+08
7.700000000000000000e+01,2.220000000000000000e+02,5.190000000000000000e+02,7.800000000000000000e+01,3.900000000000000000e+01,1.070000000000000000e+02,9.500000000000000000e+01,2.350000000000000000e+02,4.000000000000000083e-02,3.322471000000000000e+08
7.500000000000000000e+01,1.900000000000000000e+02,5.820000000000000000e+02,8.000000000000000000e+01,3.600000000000000000e+01,1.120000000000000000e+02,9.400000000000000000e+01,2.280000000000000000e+02,4.000000000000000083e-02,3.322544000000000000e+08
7.800000000000000000e+01,2.310000000000000000e+02,6.010000000000000000e+02,8.300000000000000000e+01,3.500000000000000000e+01,9.600000000000000000e+01,9.600000000000000000e+01,2.270000000000000000e+02,4.000000000000000083e-02,3.322617000000000000e+08
6.700000000000000000e+01,2.330000000000000000e+02,6.300000000000000000e+02,7.500000000000000000e+01,3.100000000000000000e+01,9.600000000000000000e+01,9.600000000000000000e+01,2.220000000000000000e+02,4.000000000000000083e-02,3.322683000000000000e+08
7.000000000000000000e+01,2.230000000000000000e+02,6.220000000000000000e+02,7.300000000000000000e+01,3.600000000000000000e+01,1.820000000000000000e+02,9.800000000000000000e+01,2.110000000000000000e+02,4.000000000000000083e-02,3.322757000000000000e+08
6.800000000000000000e+01,2.360000000000000000e+02,5.800000000000000000e+02,7.600000000000000000e+01,3.900000000000000000e+01,1.820000000000000000e+02,6.200000000000000000e+01,1.840000000000000000e+02,4.000000000000000083e-02,3.322833000000000000e+08
6.300000000000000000e+01,2.720000000000000000e+02,5.460000000000000000e+02,6.100000000000000000e+01,3.800000000000000000e+01,1.820000000000000000e+02,6.000000000000000000e+01,1.720000000000000000e+02,4.000000000000000083e-02,3.323030000000000000e+08
5.900000000000000000e+01,2.430000000000000000e+02,7.140000000000000000e+02,7.000000000000000000e+01,4.100000000000000000e+01,1.840000000000000000e+02,5.900000000000000000e+01,1.770000000000000000e+02,4.000000000000000083e-02,3.323097000000000000e+08
7.100000000000000000e+01,3.250000000000000000e+02,8.410000000000000000e+02,8.600000000000000000e+01,4.600000000000000000e+01,1.870000000000000000e+02,6.900000000000000000e+01,2.360000000000000000e+02,4.000000000000000083e-02,3.323168000000000000e+08
8.400000000000000000e+01,3.630000000000000000e+02,8.930000000000000000e+02,1.150000000000000000e+02,4.800000000000000000e+01,1.180000000000000000e+02,8.100000000000000000e+01,2.240000000000000000e+02,4.000000000000000083e-02,3.323232000000000000e+08
1.080000000000000000e+02,3.940000000000000000e+02,9.530000000000000000e+02,1.490000000000000000e+02,5.400000000000000000e+01,1.130000000000000000e+02,1.000000000000000000e+02,2.230000000000000000e+02,4.000000000000000083e-02,3.323301000000000000e+08
1.110000000000000000e+02,3.880000000000000000e+02,9.920000000000000000e+02,1.540000000000000000e+02,5.600000000000000000e+01,1.110000000000000000e+02,1.040000000000000000e+02,2.270000000000000000e+02,4.000000000000000083e-02,3.323376000000000000e+08
1.120000000000000000e+02,3.950000000000000000e+02,8.990000000000000000e+02,1.490000000000000000e+02,5.400000000000000000e+01,1.200000000000000000e+02,1.050000000000000000e+02,2.460000000000000000e+02,1.900000000000000022e-01,3.519676000000000000e+08
1.110000000000000000e+02,3.660000000000000000e+02,8.190000000000000000e+02,1.540000000000000000e+02,6.000000000000000000e+01,2.260000000000000000e+02,1.250000000000000000e+02,1.980000000000000000e+02,2.000000000000000111e-01,3.652085000000000000e+08
1.040000000000000000e+02,3.350000000000000000e+02,7.640000000000000000e+02,1.360000000000000000e+02,5.800000000000000000e+01,2.570000000000000000e+02,1.330000000000000000e+02,2.580000000000000000e+02,2.200000000000000011e-01,4.002432000000000000e+08
9.100000000000000000e+01,3.350000000000000000e+02,7.410000000000000000e+02,1.130000000000000000e+02,5.700000000000000000e+01,3.180000000000000000e+02,1.700000000000000000e+02,3.500000000000000000e+02,2.300000000000000100e-01,4.228858000000000000e+08
9.200000000000000000e+01,3.210000000000000000e+02,6.700000000000000000e+02,1.050000000000000000e+02,6.100000000000000000e+01,3.940000000000000000e+02,2.610000000000000000e+02,4.660000000000000000e+02,2.399999999999999911e-01,4.455613000000000000e+08
1.100000000000000000e+02,3.270000000000000000e+02,6.050000000000000000e+02,1.060000000000000000e+02,8.000000000000000000e+01,5.310000000000000000e+02,5.540000000000000000e+02,5.960000000000000000e+02,2.500000000000000000e-01,4.592699000000000000e+08
1.040000000000000000e+02,3.050000000000000000e+02,5.050000000000000000e+02,9.100000000000000000e+01,8.000000000000000000e+01,5.280000000000000000e+02,6.120000000000000000e+02,6.220000000000000000e+02,2.600000000000000089e-01,4.826083000000000000e+08
1.190000000000000000e+02,3.090000000000000000e+02,5.020000000000000000e+02,8.700000000000000000e+01,8.400000000000000000e+01,6.020000000000000000e+02,7.170000000000000000e+02,7.090000000000000000e+02,2.700000000000000178e-01,5.036699000000000000e+08
1.180000000000000000e+02,2.610000000000000000e+02,4.340000000000000000e+02,7.600000000000000000e+01,9.200000000000000000e+01,7.200000000000000000e+02,7.660000000000000000e+02,7.410000000000000000e+02,2.800000000000000266e-01,5.186109000000000000e+08
1.270000000000000000e+02,2.610000000000000000e+02,4.940000000000000000e+02,8.900000000000000000e+01,9.700000000000000000e+01,7.210000000000000000e+02,8.430000000000000000e+02,8.680000000000000000e+02,2.899999999999999800e-01,5.402022000000000000e+08
1.280000000000000000e+02,3.490000000000000000e+02,5.210000000000000000e+02,8.800000000000000000e+01,9.000000000000000000e+01,7.060000000000000000e+02,8.110000000000000000e+02,8.320000000000000000e+02,2.999999999999999889e-01,5.624551000000000000e+08
1.410000000000000000e+02,3.490000000000000000e+02,5.450000000000000000e+02,9.200000000000000000e+01,9.100000000000000000e+01,7.480000000000000000e+02,8.940000000000000000e+02,9.500000000000000000e+02,3.099999999999999978e-01,5.786364000000000000e+08
1.410000000000000000e+02,3.580000000000000000e+02,5.300000000000000000e+02,9.900000000000000000e+01,1.110000000000000000e+02,7.630000000000000000e+02,1.012000000000000000e+03,9.920000000000000000e+02,3.200000000000000067e-01,6.003096000000000000e+08
1.460000000000000000e+02,3.750000000000000000e+02,5.370000000000000000e+02,1.010000000000000000e+02,1.070000000000000000e+02,7.190000000000000000e+02,1.240000000000000000e+03,9.920000000000000000e+02,3.300000000000000155e-01,6.195064000000000000e+08
1.490000000000000000e+02,3.890000000000000000e+02,4.670000000000000000e+02,1.070000000000000000e+02,1.160000000000000000e+02,8.030000000000000000e+02,1.309000000000000000e+03,8.990000000000000000e+02,3.400000000000000244e-01,6.397510000000000000e+08
1.550000000000000000e+02,3.300000000000000000e+02,4.220000000000000000e+02,1.110000000000000000e+02,1.150000000000000000e+02,8.210000000000000000e+02,1.293000000000000000e+03,9.380000000000000000e+02,3.499999999999999778e-01,6.584395000000000000e+08
1.490000000000000000e+02,3.790000000000000000e+02,3.690000000000000000e+02,1.060000000000000000e+02,1.160000000000000000e+02,8.840000000000000000e+02,1.309000000000000000e+03,8.460000000000000000e+02,3.599999999999999867e-01,6.803904000000000000e+08
1.390000000000000000e+02,3.620000000000000000e+02,3.600000000000000000e+02,1.020000000000000000e+02,1.000000000000000000e+02,8.740000000000000000e+02,1.258000000000000000e+03,8.070000000000000000e+02,3.699999999999999956e-01,6.999236000000000000e+08
1.360000000000000000e+02,3.400000000000000000e+02,2.970000000000000000e+02,8.800000000000000000e+01,9.600000000000000000e+01,8.350000000000000000e+02,1.072000000000000000e+03,8.520000000000000000e+02,3.800000000000000044e-01,7.187552000000000000e+08
1.370000000000000000e+02,3.770000000000000000e+02,3.760000000000000000e+02,7.800000000000000000e+01,8.100000000000000000e+01,7.870000000000000000e+02,1.010000000000000000e+03,8.760000000000000000e+02,3.900000000000000133e-01,7.397921000000000000e+08
1.610000000000000000e+02,4.160000000000000000e+02,4.400000000000000000e+02,9.700000000000000000e+01,8.900000000000000000e+01,7.960000000000000000e+02,1.096000000000000000e+03,9.010000000000000000e+02,4.000000000000000222e-01,7.584999000000000000e+08
1.750000000000000000e+02,3.790000000000000000e+02,4.710000000000000000e+02,1.040000000000000000e+02,9.700000000000000000e+01,8.320000000000000000e+02,1.151000000000000000e+03,8.970000000000000000e+02,4.099999999999999756e-01,7.799826000000000000e+08
2.340000000000000000e+02,3.980000000000000000e+02,4.790000000000000000e+02,1.090000000000000000e+02,1.040000000000000000e+02,8.260000000000000000e+02,1.163000000000000000e+03,8.790000000000000000e+02,4.199999999999999845e-01,7.998347000000000000e+08
2.380000000000000000e+02,4.220000000000000000e+02,5.350000000000000000e+02,1.150000000000000000e+02,1.050000000000000000e+02,8.500000000000000000e+02,1.176000000000000000e+03,8.490000000000000000e+02,4.299999999999999933e-01,8.184266000000000000e+08
2.420000000000000000e+02,4.120000000000000000e+02,6.120000000000000000e+02,1.240000000000000000e+02,1.090000000000000000e+02,9.220000000000000000e+02,1.225000000000000000e+03,7.900000000000000000e+02,4.400000000000000022e-01,8.398948000000000000e+08
2.180000000000000000e+02,3.630000000000000000e+02,6.090000000000000000e+02,1.070000000000000000e+02,1.030000000000000000e+02,8.950000000000000000e+02,1.147000000000000000e+03,7.280000000000000000e+02,4.500000000000000111e-01,8.588864000000000000e+08
2.410000000000000000e+02,3.690000000000000000e+02,6.090000000000000000e+02,1.190000000000000000e+02,1.450000000000000000e+02,9.200000000000000000e+02,1.115000000000000000e+03,7.690000000000000000e+02,4.600000000000000200e-01,8.798719000000000000e+08
1.960000000000000000e+02,3.740000000000000000e+02,6.380000000000000000e+02,1.160000000000000000e+02,1.450000000000000000e+02,9.770000000000000000e+02,1.065000000000000000e+03,7.300000000000000000e+02,4.699999999999999734e-01,8.988496000000000000e+08
1.980000000000000000e+02,3.680000000000000000e+02,6.100000000000000000e+02,1.170000000000000000e+02,1.640000000000000000e+02,1.089000000000000000e+03,1.028000000000000000e+03,7.100000000000000000e+02,4.799999999999999822e-01,9.206928000000000000e+08
2.160000000000000000e+02,4.650000000000000000e+02,5.260000000000000000e+02,1.040000000000000000e+02,1.720000000000000000e+02,1.121000000000000000e+03,1.002000000000000000e+03,7.820000000000000000e+02,4.899999999999999911e-01,9.381138000000000000e+08
2.350000000000000000e+02,4.840000000000000000e+02,5.040000000000000000e+02,1.040000000000000000e+02,1.720000000000000000e+02,1.139000000000000000e+03,1.126000000000000000e+03,8.350000000000000000e+02,5.000000000000000000e-01,9.594703000000000000e+08
2.200000000000000000e+02,4.880000000000000000e+02,4.960000000000000000e+02,9.200000000000000000e+01,1.420000000000000000e+02,1.115000000000000000e+03,1.081000000000000000e+03,8.330000000000000000e+02,5.100000000000000089e-01,9.784980000000000000e+08
2.270000000000000000e+02,4.980000000000000000e+02,4.840000000000000000e+02,9.800000000000000000e+01,1.420000000000000000e+02,1.130000000000000000e+03,1.065000000000000000e+03,9.090000000000000000e+02,5.200000000000000178e-01,9.996482000000000000e+08
2.280000000000000000e+02,5.070000000000000000e+02,4.750000000000000000e+02,9.400000000000000000e+01,1.310000000000000000e+02,1.042000000000000000e+03,1.137000000000000000e+03,1.001000000000000000e+03,5.300000000000000266e-01,1.018471900000000000e+09
2.360000000000000000e+02,4.040000000000000000e+02,4.440000000000000000e+02,9.600000000000000000e+01,1.230000000000000000e+02,9.560000000000000000e+02,1.090000000000000000e+03,1.018000000000000000e+03,5.400000000000000355e-01,1.040024600000000000e+09
2.390000000000000000e+02,3.840000000000000000e+02,4.190000000000000000e+02,8.900000000000000000e+01,1.280000000000000000e+02,9.460000000000000000e+02,9.730000000000000000e+02,1.016000000000000000e+03,5.500000000000000444e-01,1.059489600000000000e+09
2.350000000000000000e+02,3.630000000000000000e+02,4.020000000000000000e+02,7.600000000000000000e+01,1.250000000000000000e+02,9.990000000000000000e+02,9.500000000000000000e+02,9.860000000000000000e+02,5.600000000000000533e-01,1.078228500000000000e+09
2.260000000000000000e+02,3.930000000000000000e+02,3.760000000000000000e+02,7.200000000000000000e+01,1.300000000000000000e+02,1.027000000000000000e+03,1.065000000000000000e+03,9.480000000000000000e+02,5.699999999999999512e-01,1.099362200000000000e+09
2.370000000000000000e+02,4.160000000000000000e+02,4.900000000000000000e+02,7.700000000000000000e+01,1.250000000000000000e+02,1.045000000000000000e+03,1.026000000000000000e+03,8.900000000000000000e+02,5.799999999999999600e-01,1.118505300000000000e+09
2.240000000000000000e+02,4.150000000000000000e+02,5.530000000000000000e+02,7.700000000000000000e+01,1.290000000000000000e+02,1.172000000000000000e+03,1.016000000000000000e+03,8.930000000000000000e+02,5.899999999999999689e-01,1.139917000000000000e+09
2.490000000000000000e+02,4.220000000000000000e+02,5.270000000000000000e+02,8.100000000000000000e+01,1.300000000000000000e+02,1.307000000000000000e+03,1.040000000000000000e+03,9.160000000000000000e+02,5.999999999999999778e-01,1.158586500000000000e+09
2.520000000000000000e+02,4.270000000000000000e+02,5.070000000000000000e+02,1.020000000000000000e+02,1.580000000000000000e+02,1.296000000000000000e+03,1.127000000000000000e+03,1.068000000000000000e+03,6.099999999999999867e-01,1.179861600000000000e+09
2.720000000000000000e+02,4.060000000000000000e+02,5.050000000000000000e+02,1.040000000000000000e+02,1.540000000000000000e+02,1.322000000000000000e+03,1.049000000000000000e+03,1.043000000000000000e+03,6.199999999999999956e-01,1.198399900000000000e+09
2.900000000000000000e+02,4.100000000000000000e+02,3.750000000000000000e+02,1.070000000000000000e+02,1.640000000000000000e+02,1.362000000000000000e+03,1.029000000000000000e+03,1.035000000000000000e+03,6.300000000000000044e-01,1.220067300000000000e+09
3.020000000000000000e+02,4.900000000000000000e+02,1.910000000000000000e+02,1.070000000000000000e+02,1.700000000000000000e+02,1.303000000000000000e+03,1.123000000000000000e+03,1.029000000000000000e+03,6.400000000000000133e-01,1.238852300000000000e+09
3.290000000000000000e+02,5.470000000000000000e+02,2.340000000000000000e+02,1.110000000000000000e+02,1.800000000000000000e+02,1.236000000000000000e+03,1.133000000000000000e+03,9.710000000000000000e+02,6.500000000000000222e-01,1.259945900000000000e+09
3.160000000000000000e+02,5.740000000000000000e+02,2.670000000000000000e+02,9.100000000000000000e+01,1.530000000000000000e+02,1.245000000000000000e+03,1.017000000000000000e+03,8.030000000000000000e+02,6.600000000000000311e-01,1.278361000000000000e+09
3.150000000000000000e+02,5.720000000000000000e+02,2.700000000000000000e+02,8.900000000000000000e+01,1.630000000000000000e+02,1.206000000000000000e+03,9.920000000000000000e+02,9.090000000000000000e+02,6.700000000000000400e-01,1.299533300000000000e+09
3.550000000000000000e+02,5.890000000000000000e+02,3.220000000000000000e+02,8.600000000000000000e+01,1.720000000000000000e+02,1.172000000000000000e+03,9.940000000000000000e+02,8.990000000000000000e+02,6.800000000000000488e-01,1.318129000000000000e+09
3.830000000000000000e+02,5.450000000000000000e+02,3.310000000000000000e+02,8.200000000000000000e+01,1.640000000000000000e+02,1.155000000000000000e+03,9.660000000000000000e+02,9.510000000000000000e+02,6.899999999999999467e-01,1.338948100000000000e+09
3.390000000000000000e+02,5.310000000000000000e+02,3.190000000000000000e+02,8.300000000000000000e+01,1.540000000000000000e+02,1.163000000000000000e+03,8.940000000000000000e+02,9.440000000000000000e+02,6.999999999999999556e-01,1.360346900000000000e+09
3.540000000000000000e+02,5.020000000000000000e+02,3.430000000000000000e+02,9.400000000000000000e+01,1.630000000000000000e+02,1.188000000000000000e+03,9.760000000000000000e+02,9.930000000000000000e+02,7.099999999999999645e-01,1.378706400000000000e+09
3.540000000000000000e+02,5.450000000000000000e+02,3.290000000000000000e+02,9.100000000000000000e+01,1.580000000000000000e+02,1.281000000000000000e+03,9.960000000000000000e+02,8.740000000000000000e+02,7.199999999999999734e-01,1.399275800000000000e+09
3.280000000000000000e+02,5.090000000000000000e+02,3.250000000000000000e+02,9.300000000000000000e+01,1.690000000000000000e+02,1.340000000000000000e+03,1.028000000000000000e+03,9.370000000000000000e+02,7.299999999999999822e-01,1.420488200000000000e+09
3.020000000000000000e+02,4.830000000000000000e+02,3.680000000000000000e+02,1.030000000000000000e+02,1.850000000000000000e+02,1.352000000000000000e+03,9.810000000000000000e+02,8.480000000000000000e+02,7.399999999999999911e-01,1.439656300000000000e+09
3.220000000000000000e+02,4.420000000000000000e+02,3.780000000000000000e+02,1.050000000000000000e+02,2.100000000000000000e+02,1.402000000000000000e+03,1.035000000000000000e+03,8.510000000000000000e+02,7.500000000000000000e-01,1.458192600000000000e+09
3.790000000000000000e+02,5.400000000000000000e+02,3.570000000000000000e+02,1.080000000000000000e+02,2.240000000000000000e+02,1.392000000000000000e+03,1.021000000000000000e+03,8.630000000000000000e+02,7.600000000000000089e-01,1.479640400000000000e+09
3.710000000000000000e+02,4.990000000000000000e+02,3.930000000000000000e+02,1.140000000000000000e+02,2.390000000000000000e+02,1.373000000000000000e+03,1.030000000000000000e+03,9.610000000000000000e+02,7.700000000000000178e-01,1.498066300000000000e+09
3.550000000000000000e+02,5.090000000000000000e+02,4.120000000000000000e+02,1.140000000000000000e+02,2.340000000000000000e+02,1.388000000000000000e+03,1.016000000000000000e+03,9.170000000000000000e+02,7.800000000000000266e-01,1.519431900000000000e+09
3.550000000000000000e+02,5.200000000000000000e+02,3.940000000000000000e+02,1.190000000000000000e+02,2.480000000000000000e+02,1.395000000000000000e+03,1.073000000000000000e+03,9.310000000000000000e+02,7.900000000000000355e-01,1.540169300000000000e+09
3.640000000000000000e+02,5.450000000000000000e+02,4.790000000000000000e+02,1.210000000000000000e+02,2.310000000000000000e+02,1.398000000000000000e+03,1.003000000000000000e+03,9.790000000000000000e+02,8.000000000000000444e-01,1.558994900000000000e+09
3.260000000000000000e+02,4.860000000000000000e+02,4.650000000000000000e+02,1.150000000000000000e+02,2.310000000000000000e+02,1.371000000000000000e+03,9.560000000000000000e+02,9.310000000000000000e+02,8.100000000000000533e-01,1.580179200000000000e+09
3.630000000000000000e+02,4.850000000000000000e+02,4.540000000000000000e+02,1.180000000000000000e+02,2.340000000000000000e+02,1.266000000000000000e+03,1.008000000000000000e+03,9.330000000000000000e+02,8.199999999999999512e-01,1.598384200000000000e+09
3.740000000000000000e+02,4.660000000000000000e+02,4.170000000000000000e+02,1.190000000000000000e+02,2.250000000000000000e+02,1.192000000000000000e+03,9.880000000000000000e+02,9.600000000000000000e+02,8.299999999999999600e-01,1.619391300000000000e+09
3.670000000000000000e+02,4.660000000000000000e+02,4.250000000000000000e+02,1.090000000000000000e+02,2.180000000000000000e+02,1.242000000000000000e+03,9.030000000000000000e+02,9.950000000000000000e+02,8.399999999999999689e-01,1.638137400000000000e+09
3.380000000000000000e+02,4.320000000000000000e+02,2.930000000000000000e+02,1.040000000000000000e+02,2.390000000000000000e+02,1.215000000000000000e+03,9.550000000000000000e+02,1.006000000000000000e+03,8.499999999999999778e-01,1.659161100000000000e+09
3.400000000000000000e+02,4.360000000000000000e+02,3.120000000000000000e+02,1.060000000000000000e+02,2.310000000000000000e+02,1.163000000000000000e+03,1.006000000000000000e+03,1.044000000000000000e+03,8.599999999999999867e-01,1.680184900000000000e+09
3.380000000000000000e+02,4.090000000000000000e+02,2.840000000000000000e+02,1.040000000000000000e+02,2.220000000000000000e+02,1.193000000000000000e+03,1.022000000000000000e+03,9.810000000000000000e+02,8.699999999999999956e-01,1.698650300000000000e+09
3.480000000000000000e+02,4.480000000000000000e+02,3.070000000000000000e+02,1.030000000000000000e+02,2.420000000000000000e+02,1.195000000000000000e+03,1.000000000000000000e+03,9.420000000000000000e+02,8.800000000000000044e-01,1.719732100000000000e+09
3.440000000000000000e+02,4.900000000000000000e+02,3.570000000000000000e+02,1.120000000000000000e+02,2.320000000000000000e+02,1.098000000000000000e+03,1.015000000000000000e+03,9.330000000000000000e+02,8.900000000000000133e-01,1.738370500000000000e+09
3.730000000000000000e+02,5.230000000000000000e+02,3.710000000000000000e+02,1.130000000000000000e+02,2.140000000000000000e+02,1.020000000000000000e+03,9.820000000000000000e+02,9.440000000000000000e+02,9.000000000000000222e-01,1.759341000000000000e+09
3.670000000000000000e+02,5.190000000000000000e+02,3.510000000000000000e+02,1.150000000000000000e+02,2.400000000000000000e+02,1.232000000000000000e+03,9.560000000000000000e+02,9.630000000000000000e+02,9.100000000000000311e-01,1.780067000000000000e+09
3.710000000000000000e+02,5.610000000000000000e+02,3.590000000000000000e+02,1.210000000000000000e+02,2.450000000000000000e+02,1.352000000000000000e+03,8.890000000000000000e+02,1.005000000000000000e+03,9.200000000000000400e-01,1.804973700000000000e+09
3.760000000000000000e+02,5.670000000000000000e+02,3.940000000000000000e+02,1.400000000000000000e+02,2.470000000000000000e+02,1.351000000000000000e+03,9.310000000000000000e+02,1.035000000000000000e+03,9.300000000000000488e-01,1.820529100000000000e+09
3.900000000000000000e+02,5.380000000000000000e+02,3.090000000000000000e+02,1.370000000000000000e+02,2.440000000000000000e+02,1.366000000000000000e+03,8.900000000000000000e+02,1.020000000000000000e+03,9.399999999999999467e-01,1.841042500000000000e+09
4.120000000000000000e+02,5.630000000000000000e+02,3.110000000000000000e+02,1.410000000000000000e+02,2.520000000000000000e+02,1.448000000000000000e+03,9.560000000000000000e+02,9.840000000000000000e+02,9.499999999999999556e-01,1.861599700000000000e+09
4.130000000000000000e+02,5.370000000000000000e+02,3.440000000000000000e+02,1.350000000000000000e+02,2.140000000000000000e+02,1.304000000000000000e+03,9.330000000000000000e+02,9.420000000000000000e+02,9.599999999999999645e-01,1.881304100000000000e+09
3.830000000000000000e+02,5.170000000000000000e+02,3.690000000000000000e+02,1.260000000000000000e+02,1.890000000000000000e+02,1.145000000000000000e+03,8.570000000000000000e+02,8.710000000000000000e+02,9.699999999999999734e-01,1.900403500000000000e+09
3.430000000000000000e+02,4.560000000000000000e+02,3.270000000000000000e+02,9.600000000000000000e+01,1.460000000000000000e+02,1.153000000000000000e+03,7.900000000000000000e+02,7.530000000000000000e+02,9.799999999999999822e-01,1.919169200000000000e+09
3.090000000000000000e+02,4.200000000000000000e+02,4.580000000000000000e+02,9.700000000000000000e+01,1.300000000000000000e+02,1.085000000000000000e+03,7.400000000000000000e+02,6.260000000000000000e+02,9.899999999999999911e-01,1.941541500000000000e+09
2.310000000000000000e+02,3.880000000000000000e+02,5.190000000000000000e+02,9.100000000000000000e+01,8.800000000000000000e+01,9.050000000000000000e+02,6.230000000000000000e+02,5.100000000000000000e+02,9.799999999999999822e-01,1.960726600000000000e+09
1.970000000000000000e+02,3.980000000000000000e+02,5.080000000000000000e+02,9.500000000000000000e+01,8.800000000000000000e+01,8.560000000000000000e+02,6.400000000000000000e+02,5.600000000000000000e+02,9.699999999999999734e-01,1.978521200000000000e+09
2.270000000000000000e+02,3.860000000000000000e+02,4.900000000000000000e+02,1.160000000000000000e+02,9.200000000000000000e+01,8.980000000000000000e+02,7.270000000000000000e+02,5.600000000000000000e+02,9.599999999999999645e-01,1.998103800000000000e+09
2.790000000000000000e+02,4.080000000000000000e+02,5.850000000000000000e+02,1.800000000000000000e+02,1.300000000000000000e+02,8.620000000000000000e+02,7.960000000000000000e+02,7.010000000000000000e+02,9.499999999999999556e-01,2.020752600000000000e+09
3.150000000000000000e+02,4.670000000000000000e+02,5.670000000000000000e+02,2.440000000000000000e+02,1.410000000000000000e+02,9.020000000000000000e+02,9.050000000000000000e+02,7.100000000000000000e+02,9.399999999999999467e-01,2.039932000000000000e+09
3.200000000000000000e+02,4.550000000000000000e+02,5.480000000000000000e+02,4.310000000000000000e+02,1.780000000000000000e+02,9.430000000000000000e+02,9.780000000000000000e+02,7.380000000000000000e+02,9.200000000000000400e-01,2.079383800000000000e+09
3.450000000000000000e+02,4.690000000000000000e+02,6.640000000000000000e+02,5.840000000000000000e+02,2.370000000000000000e+02,9.080000000000000000e+02,1.032000000000000000e+03,7.110000000000000000e+02,9.200000000000000400e-01,2.079399700000000000e+09
3.310000000000000000e+02,4.800000000000000000e+02,6.690000000000000000e+02,6.450000000000000000e+02,2.460000000000000000e+02,7.950000000000000000e+02,9.630000000000000000e+02,6.820000000000000000e+02,9.100000000000000311e-01,2.098752700000000000e+09
3.190000000000000000e+02,4.820000000000000000e+02,6.600000000000000000e+02,6.630000000000000000e+02,2.430000000000000000e+02,6.880000000000000000e+02,8.950000000000000000e+02,5.440000000000000000e+02,9.000000000000000222e-01,2.120794300000000000e+09
3.020000000000000000e+02,4.360000000000000000e+02,7.050000000000000000e+02,6.850000000000000000e+02,2.430000000000000000e+02,6.120000000000000000e+02,7.840000000000000000e+02,5.340000000000000000e+02,8.900000000000000133e-01,2.140028400000000000e+09
3.110000000000000000e+02,4.100000000000000000e+02,7.080000000000000000e+02,5.920000000000000000e+02,2.220000000000000000e+02,5.750000000000000000e+02,6.950000000000000000e+02,4.840000000000000000e+02,8.800000000000000044e-01,2.159819800000000000e+09
3.120000000000000000e+02,4.160000000000000000e+02,6.400000000000000000e+02,4.550000000000000000e+02,1.570000000000000000e+02,5.370000000000000000e+02,5.480000000000000000e+02,3.300000000000000000e+02,8.699999999999999956e-01,2.178608000000000000e+09
2.990000000000000000e+02,4.330000000000000000e+02,6.610000000000000000e+02,3.740000000000000000e+02,1.380000000000000000e+02,5.040000000000000000e+02,5.560000000000000000e+02,3.250000000000000000e+02,8.599999999999999867e-01,2.198727600000000000e+09
2.610000000000000000e+02,4.340000000000000000e+02,6.510000000000000000e+02,3.330000000000000000e+02,1.090000000000000000e+02,5.000000000000000000e+02,5.340000000000000000e+02,2.960000000000000000e+02,8.499999999999999778e-01,2.218055000000000000e+09
2.490000000000000000e+02,4.300000000000000000e+02,5.460000000000000000e+02,2.320000000000000000e+02,8.700000000000000000e+01,5.310000000000000000e+02,5.400000000000000000e+02,2.750000000000000000e+02,8.399999999999999689e-01,2.238382500000000000e+09
2.420000000000000000e+02,4.040000000000000000e+02,6.590000000000000000e+02,2.160000000000000000e+02,6.700000000000000000e+01,4.830000000000000000e+02,4.850000000000000000e+02,2.090000000000000000e+02,8.299999999999999600e-01,2.259671800000000000e+09
1.980000000000000000e+02,3.700000000000000000e+02,8.150000000000000000e+02,2.320000000000000000e+02,7.300000000000000000e+01,4.500000000000000000e+02,4.260000000000000000e+02,1.410000000000000000e+02,8.199999999999999512e-01,2.278516700000000000e+09
2.140000000000000000e+02,3.090000000000000000e+02,8.290000000000000000e+02,2.070000000000000000e+02,7.100000000000000000e+01,4.500000000000000000e+02,4.110000000000000000e+02,1.150000000000000000e+02,8.100000000000000533e-01,2.299834000000000000e+09
2.110000000000000000e+02,3.100000000000000000e+02,8.870000000000000000e+02,2.100000000000000000e+02,7.300000000000000000e+01,4.410000000000000000e+02,3.680000000000000000e+02,8.900000000000000000e+01,8.000000000000000444e-01,2.318407900000000000e+09
1.950000000000000000e+02,2.940000000000000000e+02,9.130000000000000000e+02,2.080000000000000000e+02,6.900000000000000000e+01,3.680000000000000000e+02,3.350000000000000000e+02,8.400000000000000000e+01,7.900000000000000355e-01,2.339612700000000000e+09
1.960000000000000000e+02,3.150000000000000000e+02,8.770000000000000000e+02,2.040000000000000000e+02,6.900000000000000000e+01,2.580000000000000000e+02,3.250000000000000000e+02,7.500000000000000000e+01,7.800000000000000266e-01,2.358517000000000000e+09
2.330000000000000000e+02,3.460000000000000000e+02,8.270000000000000000e+02,1.600000000000000000e+02,5.700000000000000000e+01,1.960000000000000000e+02,2.830000000000000000e+02,7.400000000000000000e+01,7.700000000000000178e-01,2.379845500000000000e+09
2.260000000000000000e+02,3.850000000000000000e+02,8.620000000000000000e+02,1.710000000000000000e+02,5.300000000000000000e+01,1.810000000000000000e+02,2.300000000000000000e+02,7.600000000000000000e+01,7.600000000000000089e-01,2.398436300000000000e+09
2.170000000000000000e+02,3.600000000000000000e+02,7.770000000000000000e+02,1.250000000000000000e+02,4.700000000000000000e+01,1.980000000000000000e+02,3.090000000000000000e+02,8.900000000000000000e+01,7.500000000000000000e-01,2.418797300000000000e+09
2.260000000000000000e+02,3.670000000000000000e+02,7.730000000000000000e+02,1.330000000000000000e+02,5.600000000000000000e+01,1.890000000000000000e+02,2.910000000000000000e+02,8.600000000000000000e+01,7.399999999999999911e-01,2.440357800000000000e+09
2.180000000000000000e+02,3.520000000000000000e+02,7.180000000000000000e+02,1.590000000000000000e+02,6.100000000000000000e+01,2.040000000000000000e+02,2.910000000000000000e+02,8.900000000000000000e+01,7.299999999999999822e-01,2.459140200000000000e+09
1.700000000000000000e+02,2.880000000000000000e+02,6.670000000000000000e+02,1.520000000000000000e+02,5.900000000000000000e+01,2.030000000000000000e+02,2.880000000000000000e+02,1.600000000000000000e+02,7.199999999999999734e-01,2.478203500000000000e+09
1.590000000000000000e+02,2.250000000000000000e+02,6.690000000000000000e+02,1.410000000000000000e+02,6.300000000000000000e+01,1.920000000000000000e+02,2.670000000000000000e+02,1.590000000000000000e+02,7.099999999999999645e-01,2.499304300000000000e+09
1.710000000000000000e+02,2.260000000000000000e+02,7.280000000000000000e+02,1.560000000000000000e+02,6.200000000000000000e+01,1.570000000000000000e+02,1.660000000000000000e+02,1.540000000000000000e+02,6.999999999999999556e-01,2.517946700000000000e+09
1.790000000000000000e+02,2.530000000000000000e+02,7.660000000000000000e+02,1.790000000000000000e+02,7.200000000000000000e+01,1.730000000000000000e+02,1.480000000000000000e+02,1.590000000000000000e+02,6.899999999999999467e-01,2.539314400000000000e+09
1.840000000000000000e+02,2.660000000000000000e+02,7.580000000000000000e+02,1.600000000000000000e+02,7.100000000000000000e+01,1.310000000000000000e+02,1.430000000000000000e+02,1.530000000000000000e+02,6.800000000000000488e-01,2.558005400000000000e+09
1.850000000000000000e+02,2.720000000000000000e+02,7.170000000000000000e+02,1.550000000000000000e+02,6.700000000000000000e+01,1.270000000000000000e+02,1.360000000000000000e+02,8.000000000000000000e+01,6.700000000000000400e-01,2.580208000000000000e+09
1.840000000000000000e+02,2.780000000000000000e+02,6.440000000000000000e+02,1.490000000000000000e+02,6.600000000000000000e+01,1.280000000000000000e+02,1.290000000000000000e+02,7.800000000000000000e+01,6.600000000000000311e-01,2.598995000000000000e+09
1.740000000000000000e+02,2.890000000000000000e+02,6.830000000000000000e+02,1.320000000000000000e+02,6.500000000000000000e+01,1.330000000000000000e+02,1.190000000000000000e+02,7.000000000000000000e+01,6.500000000000000222e-01,2.620030100000000000e+09
1.660000000000000000e+02,2.690000000000000000e+02,6.400000000000000000e+02,1.160000000000000000e+02,4.700000000000000000e+01,9.400000000000000000e+01,1.140000000000000000e+02,6.000000000000000000e+01,6.400000000000000133e-01,2.640019700000000000e+09
1.440000000000000000e+02,2.580000000000000000e+02,6.700000000000000000e+02,1.240000000000000000e+02,5.000000000000000000e+01,9.500000000000000000e+01,1.010000000000000000e+02,5.800000000000000000e+01,6.300000000000000044e-01,2.659429600000000000e+09
1.370000000000000000e+02,2.870000000000000000e+02,6.860000000000000000e+02,1.250000000000000000e+02,5.000000000000000000e+01,1.180000000000000000e+02,9.300000000000000000e+01,4.700000000000000000e+01,6.199999999999999956e-01,2.678187800000000000e+09
1.300000000000000000e+02,2.860000000000000000e+02,7.500000000000000000e+02,1.450000000000000000e+02,5.200000000000000000e+01,1.210000000000000000e+02,1.120000000000000000e+02,7.000000000000000000e+01,6.099999999999999867e-01,2.699506200000000000e+09
1.370000000000000000e+02,3.040000000000000000e+02,7.390000000000000000e+02,1.530000000000000000e+02,5.500000000000000000e+01,1.140000000000000000e+02,1.140000000000000000e+02,7.600000000000000000e+01,5.999999999999999778e-01,2.718126300000000000e+09
1.370000000000000000e+02,3.510000000000000000e+02,7.630000000000000000e+02,1.460000000000000000e+02,5.600000000000000000e+01,1.140000000000000000e+02,1.190000000000000000e+02,7.700000000000000000e+01,5.899999999999999689e-01,2.739273400000000000e+09
1.420000000000000000e+02,3.460000000000000000e+02,7.500000000000000000e+02,1.390000000000000000e+02,5.000000000000000000e+01,1.340000000000000000e+02,1.270000000000000000e+02,7.800000000000000000e+01,5.799999999999999600e-01,2.757903400000000000e+09
1.420000000000000000e+02,3.320000000000000000e+02,8.560000000000000000e+02,1.750000000000000000e+02,6.400000000000000000e+01,1.610000000000000000e+02,1.150000000000000000e+02,8.600000000000000000e+01,5.699999999999999512e-01,2.779245000000000000e+09
1.340000000000000000e+02,4.220000000000000000e+02,9.190000000000000000e+02,1.680000000000000000e+02,6.500000000000000000e+01,1.650000000000000000e+02,9.100000000000000000e+01,6.900000000000000000e+01,5.600000000000000533e-01,2.797933600000000000e+09
1.240000000000000000e+02,4.160000000000000000e+02,8.570000000000000000e+02,1.580000000000000000e+02,6.000000000000000000e+01,1.660000000000000000e+02,9.500000000000000000e+01,5.900000000000000000e+01,5.500000000000000444e-01,2.819683000000000000e+09
1.190000000000000000e+02,3.810000000000000000e+02,8.300000000000000000e+02,1.430000000000000000e+02,5.700000000000000000e+01,1.780000000000000000e+02,1.010000000000000000e+02,5.800000000000000000e+01,5.400000000000000355e-01,2.839661800000000000e+09
1.180000000000000000e+02,3.870000000000000000e+02,9.070000000000000000e+02,1.570000000000000000e+02,6.000000000000000000e+01,2.120000000000000000e+02,8.900000000000000000e+01,5.700000000000000000e+01,5.300000000000000266e-01,2.858254900000000000e+09
1.060000000000000000e+02,4.010000000000000000e+02,8.040000000000000000e+02,1.150000000000000000e+02,4.700000000000000000e+01,1.980000000000000000e+02,8.200000000000000000e+01,7.100000000000000000e+01,5.200000000000000178e-01,2.879700100000000000e+09
1.230000000000000000e+02,3.130000000000000000e+02,7.270000000000000000e+02,1.140000000000000000e+02,4.700000000000000000e+01,1.930000000000000000e+02,8.200000000000000000e+01,7.100000000000000000e+01,5.000000000000000000e-01,2.918262200000000000e+09
1.280000000000000000e+02,2.870000000000000000e+02,7.050000000000000000e+02,1.110000000000000000e+02,4.500000000000000000e+01,1.930000000000000000e+02,8.200000000000000000e+01,7.300000000000000000e+01,4.899999999999999911e-01,2.939523600000000000e+09
1.390000000000000000e+02,2.710000000000000000e+02,7.910000000000000000e+02,1.140000000000000000e+02,4.600000000000000000e+01,1.910000000000000000e+02,6.200000000000000000e+01,7.700000000000000000e+01,4.899999999999999911e-01,2.939548800000000000e+09
1.360000000000000000e+02,2.800000000000000000e+02,8.290000000000000000e+02,1.010000000000000000e+02,4.600000000000000000e+01,1.840000000000000000e+02,6.300000000000000000e+01,8.300000000000000000e+01,4.699999999999999734e-01,2.979925600000000000e+09
1.360000000000000000e+02,2.580000000000000000e+02,8.380000000000000000e+02,1.020000000000000000e+02,4.500000000000000000e+01,1.730000000000000000e+02,9.400000000000000000e+01,6.700000000000000000e+01,4.699999999999999734e-01,2.979937400000000000e+09
1.230000000000000000e+02,2.680000000000000000e+02,8.680000000000000000e+02,9.500000000000000000e+01,3.800000000000000000e+01,1.810000000000000000e+02,1.150000000000000000e+02,6.400000000000000000e+01,4.600000000000000200e-01,2.998575900000000000e+09
1.270000000000000000e+02,3.200000000000000000e+02,9.750000000000000000e+02,1.390000000000000000e+02,5.300000000000000000e+01,1.870000000000000000e+02,1.140000000000000000e+02,6.800000000000000000e+01,4.500000000000000111e-01,3.019242300000000000e+09
1.120000000000000000e+02,3.220000000000000000e+02,9.460000000000000000e+02,1.420000000000000000e+02,5.100000000000000000e+01,1.810000000000000000e+02,1.150000000000000000e+02,6.200000000000000000e+01,4.299999999999999933e-01,3.058629100000000000e+09
1.070000000000000000e+02,3.190000000000000000e+02,8.960000000000000000e+02,1.440000000000000000e+02,5.000000000000000000e+01,1.900000000000000000e+02,1.180000000000000000e+02,5.400000000000000000e+01,4.299999999999999933e-01,3.058640000000000000e+09
1.050000000000000000e+02,3.080000000000000000e+02,9.240000000000000000e+02,1.510000000000000000e+02,5.300000000000000000e+01,1.940000000000000000e+02,1.150000000000000000e+02,4.700000000000000000e+01,4.199999999999999845e-01,3.080059000000000000e+09
1.040000000000000000e+02,2.870000000000000000e+02,9.970000000000000000e+02,1.530000000000000000e+02,5.500000000000000000e+01,1.840000000000000000e+02,9.800000000000000000e+01,5.100000000000000000e+01,4.099999999999999756e-01,3.098853200000000000e+09
9.400000000000000000e+01,2.430000000000000000e+02,9.060000000000000000e+02,1.220000000000000000e+02,4.600000000000000000e+01,1.980000000000000000e+02,9.400000000000000000e+01,4.300000000000000000e+01,4.000000000000000222e-01,3.119644600000000000e+09
1.230000000000000000e+02,2.880000000000000000e+02,9.710000000000000000e+02,1.340000000000000000e+02,5.500000000000000000e+01,1.940000000000000000e+02,9.400000000000000000e+01,5.000000000000000000e+01,3.900000000000000133e-01,3.138084700000000000e+09
1.870000000000000000e+02,3.730000000000000000e+02,9.620000000000000000e+02,1.290000000000000000e+02,5.500000000000000000e+01,1.400000000000000000e+02,8.600000000000000000e+01,5.100000000000000000e+01,3.699999999999999956e-01,3.178161300000000000e+09
2.000000000000000000e+02,3.970000000000000000e+02,9.840000000000000000e+02,1.420000000000000000e+02,5.800000000000000000e+01,1.280000000000000000e+02,6.500000000000000000e+01,5.600000000000000000e+01,3.699999999999999956e-01,3.178172800000000000e+09
2.050000000000000000e+02,3.970000000000000000e+02,8.550000000000000000e+02,1.480000000000000000e+02,6.100000000000000000e+01,1.340000000000000000e+02,6.200000000000000000e+01,5.800000000000000000e+01,3.599999999999999867e-01,3.199551600000000000e+09
2.040000000000000000e+02,3.860000000000000000e+02,8.380000000000000000e+02,1.430000000000000000e+02,5.800000000000000000e+01,9.600000000000000000e+01,6.000000000000000000e+01,5.500000000000000000e+01,3.499999999999999778e-01,3.218457700000000000e+09
1.840000000000000000e+02,3.530000000000000000e+02,7.670000000000000000e+02,1.490000000000000000e+02,5.600000000000000000e+01,9.800000000000000000e+01,6.100000000000000000e+01,5.400000000000000000e+01,3.400000000000000244e-01,3.240294100000000000e+09
1.230000000000000000e+02,2.840000000000000000e+02,7.520000000000000000e+02,1.480000000000000000e+02,5.800000000000000000e+01,1.000000000000000000e+02,7.000000000000000000e+01,5.700000000000000000e+01,3.300000000000000155e-01,3.260595300000000000e+09
1.200000000000000000e+02,2.900000000000000000e+02,8.930000000000000000e+02,2.040000000000000000e+02,6.500000000000000000e+01,9.300000000000000000e+01,6.600000000000000000e+01,5.900000000000000000e+01,3.200000000000000067e-01,3.280625900000000000e+09
1.440000000000000000e+02,3.870000000000000000e+02,9.940000000000000000e+02,2.490000000000000000e+02,7.900000000000000000e+01,9.800000000000000000e+01,8.700000000000000000e+01,7.200000000000000000e+01,3.099999999999999978e-01,3.300204000000000000e+09
1.530000000000000000e+02,4.020000000000000000e+02,1.045000000000000000e+03,2.680000000000000000e+02,8.600000000000000000e+01,1.350000000000000000e+02,9.000000000000000000e+01,7.700000000000000000e+01,2.999999999999999889e-01,3.319067200000000000e+09
1.510000000000000000e+02,4.090000000000000000e+02,1.057000000000000000e+03,2.710000000000000000e+02,8.600000000000000000e+01,1.530000000000000000e+02,1.050000000000000000e+02,7.600000000000000000e+01,2.800000000000000266e-01,3.359795700000000000e+09
1.550000000000000000e+02,4.130000000000000000e+02,1.061000000000000000e+03,2.830000000000000000e+02,9.000000000000000000e+01,1.600000000000000000e+02,1.030000000000000000e+02,7.600000000000000000e+01,2.800000000000000266e-01,3.359807100000000000e+09
1.730000000000000000e+02,4.480000000000000000e+02,8.910000000000000000e+02,2.800000000000000000e+02,9.500000000000000000e+01,2.180000000000000000e+02,1.120000000000000000e+02,8.600000000000000000e+01,2.700000000000000178e-01,3.378632400000000000e+09
1.520000000000000000e+02,3.990000000000000000e+02,8.120000000000000000e+02,2.480000000000000000e+02,8.900000000000000000e+01,2.290000000000000000e+02,9.900000000000000000e+01,7.700000000000000000e+01,2.600000000000000089e-01,3.400137000000000000e+09
1.550000000000000000e+02,4.440000000000000000e+02,9.600000000000000000e+02,2.530000000000000000e+02,9.200000000000000000e+01,2.120000000000000000e+02,9.900000000000000000e+01,8.000000000000000000e+01,2.500000000000000000e-01,3.418669200000000000e+09
1.570000000000000000e+02,4.750000000000000000e+02,9.520000000000000000e+02,2.430000000000000000e+02,9.200000000000000000e+01,2.050000000000000000e+02,7.900000000000000000e+01,7.800000000000000000e+01,2.399999999999999911e-01,3.440130700000000000e+09
1.520000000000000000e+02,4.750000000000000000e+02,1.000000000000000000e+03,2.330000000000000000e+02,8.900000000000000000e+01,2.510000000000000000e+02,9.700000000000000000e+01,7.700000000000000000e+01,2.300000000000000100e-01,3.460112500000000000e+09
1.520000000000000000e+02,4.620000000000000000e+02,1.053000000000000000e+03,2.110000000000000000e+02,8.300000000000000000e+01,2.120000000000000000e+02,9.300000000000000000e+01,7.000000000000000000e+01,2.099999999999999922e-01,3.499858700000000000e+09
1.550000000000000000e+02,4.460000000000000000e+02,1.024000000000000000e+03,2.070000000000000000e+02,7.800000000000000000e+01,1.990000000000000000e+02,9.000000000000000000e+01,6.800000000000000000e+01,2.099999999999999922e-01,3.499869800000000000e+09
1.600000000000000000e+02,4.000000000000000000e+02,9.620000000000000000e+02,2.100000000000000000e+02,7.600000000000000000e+01,1.980000000000000000e+02,9.500000000000000000e+01,6.500000000000000000e+01,2.000000000000000111e-01,3.530552400000000000e+09
1.590000000000000000e+02,3.660000000000000000e+02,9.980000000000000000e+02,2.090000000000000000e+02,7.700000000000000000e+01,2.050000000000000000e+02,1.030000000000000000e+02,6.500000000000000000e+01,1.900000000000000022e-01,3.539670100000000000e+09
1.590000000000000000e+02,3.730000000000000000e+02,9.570000000000000000e+02,2.010000000000000000e+02,7.400000000000000000e+01,1.750000000000000000e+02,9.100000000000000000e+01,6.100000000000000000e+01,1.799999999999999933e-01,3.560305600000000000e+09
1.450000000000000000e+02,3.590000000000000000e+02,9.360000000000000000e+02,1.990000000000000000e+02,8.000000000000000000e+01,1.720000000000000000e+02,8.200000000000000000e+01,6.400000000000000000e+01,1.600000000000000033e-01,3.598240800000000000e+09
1.470000000000000000e+02,3.790000000000000000e+02,1.026000000000000000e+03,2.070000000000000000e+02,8.100000000000000000e+01,1.820000000000000000e+02,1.000000000000000000e+02,6.800000000000000000e+01,1.600000000000000033e-01,3.598252400000000000e+09
1.510000000000000000e+02,4.570000000000000000e+02,1.021000000000000000e+03,2.370000000000000000e+02,8.300000000000000000e+01,2.120000000000000000e+02,9.900000000000000000e+01,7.100000000000000000e+01,1.400000000000000133e-01,3.638410400000000000e+09
1.860000000000000000e+02,5.210000000000000000e+02,1.118000000000000000e+03,3.200000000000000000e+02,1.280000000000000000e+02,2.730000000000000000e+02,1.110000000000000000e+02,9.900000000000000000e+01,1.400000000000000133e-01,3.638423600000000000e+09
1.920000000000000000e+02,5.390000000000000000e+02,1.184000000000000000e+03,3.300000000000000000e+02,1.300000000000000000e+02,2.580000000000000000e+02,1.180000000000000000e+02,1.030000000000000000e+02,1.300000000000000044e-01,3.659850000000000000e+09
1.920000000000000000e+02,5.790000000000000000e+02,1.263000000000000000e+03,3.330000000000000000e+02,1.270000000000000000e+02,2.670000000000000000e+02,1.390000000000000000e+02,1.000000000000000000e+02,1.100000000000000006e-01,3.698331500000000000e+09
2.050000000000000000e+02,6.760000000000000000e+02,1.249000000000000000e+03,3.690000000000000000e+02,1.410000000000000000e+02,2.670000000000000000e+02,1.370000000000000000e+02,1.060000000000000000e+02,1.000000000000000056e-01,3.719689400000000000e+09
2.120000000000000000e+02,6.620000000000000000e+02,1.212000000000000000e+03,3.510000000000000000e+02,1.540000000000000000e+02,3.190000000000000000e+02,1.470000000000000000e+02,1.150000000000000000e+02,8.999999999999999667e-02,3.739072900000000000e+09
2.030000000000000000e+02,7.050000000000000000e+02,1.152000000000000000e+03,3.050000000000000000e+02,1.330000000000000000e+02,2.660000000000000000e+02,1.380000000000000000e+02,1.100000000000000000e+02,8.999999999999999667e-02,3.739139200000000000e+09
2.220000000000000000e+02,7.280000000000000000e+02,1.180000000000000000e+03,3.200000000000000000e+02,1.430000000000000000e+02,2.600000000000000000e+02,1.310000000000000000e+02,1.140000000000000000e+02,7.000000000000000666e-02,3.779836100000000000e+09
2.130000000000000000e+02,7.290000000000000000e+02,1.128000000000000000e+03,3.220000000000000000e+02,1.450000000000000000e+02,2.500000000000000000e+02,1.110000000000000000e+02,1.140000000000000000e+02,7.000000000000000666e-02,3.779847800000000000e+09
2.080000000000000000e+02,6.790000000000000000e+02,1.158000000000000000e+03,3.130000000000000000e+02,1.430000000000000000e+02,2.560000000000000000e+02,1.160000000000000000e+02,1.090000000000000000e+02,5.999999999999999778e-02,3.798858300000000000e+09
2.120000000000000000e+02,6.780000000000000000e+02,1.165000000000000000e+03,3.460000000000000000e+02,1.440000000000000000e+02,1.680000000000000000e+02,1.030000000000000000e+02,1.050000000000000000e+02,5.000000000000000278e-02,3.818524200000000000e+09
2.090000000000000000e+02,6.680000000000000000e+02,1.098000000000000000e+03,3.790000000000000000e+02,1.470000000000000000e+02,1.580000000000000000e+02,9.900000000000000000e+01,9.700000000000000000e+01,2.999999999999999889e-02,3.860253700000000000e+09
2.320000000000000000e+02,7.300000000000000000e+02,1.089000000000000000e+03,4.000000000000000000e+02,1.600000000000000000e+02,1.540000000000000000e+02,1.040000000000000000e+02,1.030000000000000000e+02,2.999999999999999889e-02,3.860311800000000000e+09
2.690000000000000000e+02,7.920000000000000000e+02,1.031000000000000000e+03,4.430000000000000000e+02,1.860000000000000000e+02,1.570000000000000000e+02,1.160000000000000000e+02,1.140000000000000000e+02,2.000000000000000042e-02,3.879208600000000000e+09
3.150000000000000000e+02,8.850000000000000000e+02,1.033000000000000000e+03,4.930000000000000000e+02,2.060000000000000000e+02,1.400000000000000000e+02,1.060000000000000000e+02,1.360000000000000000e+02,1.000000000000000021e-02,3.897890300000000000e+09
3.220000000000000000e+02,9.960000000000000000e+02,1.166000000000000000e+03,5.310000000000000000e+02,2.160000000000000000e+02,1.260000000000000000e+02,1.040000000000000000e+02,1.430000000000000000e+02,0.000000000000000000e+00,3.919149900000000000e+09
3.470000000000000000e+02,1.025000000000000000e+03,1.227000000000000000e+03,5.600000000000000000e+02,2.310000000000000000e+02,1.380000000000000000e+02,1.100000000000000000e+02,1.580000000000000000e+02,1.000000000000000021e-02,3.940187900000000000e+09
3.310000000000000000e+02,9.940000000000000000e+02,1.213000000000000000e+03,5.680000000000000000e+02,2.280000000000000000e+02,1.510000000000000000e+02,1.100000000000000000e+02,1.520000000000000000e+02,2.000000000000000042e-02,3.958531100000000000e+09
3.610000000000000000e+02,9.970000000000000000e+02,1.296000000000000000e+03,6.080000000000000000e+02,2.430000000000000000e+02,1.600000000000000000e+02,1.170000000000000000e+02,1.700000000000000000e+02,2.999999999999999889e-02,3.980358700000000000e+09
3.480000000000000000e+02,1.013000000000000000e+03,1.381000000000000000e+03,5.850000000000000000e+02,2.360000000000000000e+02,1.570000000000000000e+02,1.200000000000000000e+02,1.660000000000000000e+02,4.000000000000000083e-02,3.999775800000000000e+09
3.680000000000000000e+02,9.820000000000000000e+02,1.407000000000000000e+03,5.910000000000000000e+02,2.500000000000000000e+02,1.660000000000000000e+02,1.250000000000000000e+02,1.770000000000000000e+02,5.999999999999999778e-02,4.039632100000000000e+09
3.440000000000000000e+02,9.930000000000000000e+02,1.399000000000000000e+03,5.570000000000000000e+02,2.390000000000000000e+02,1.720000000000000000e+02,1.220000000000000000e+02,1.660000000000000000e+02,7.000000000000000666e-02,4.058430300000000000e+09
3.870000000000000000e+02,1.025000000000000000e+03,1.371000000000000000e+03,5.980000000000000000e+02,2.530000000000000000e+02,1.750000000000000000e+02,1.240000000000000000e+02,1.800000000000000000e+02,7.000000000000000666e-02,4.058442700000000000e+09
3.350000000000000000e+02,9.580000000000000000e+02,1.308000000000000000e+03,5.300000000000000000e+02,2.230000000000000000e+02,1.580000000000000000e+02,1.050000000000000000e+02,1.560000000000000000e+02,8.000000000000000167e-02,4.079993400000000000e+09
3.510000000000000000e+02,9.500000000000000000e+02,1.280000000000000000e+03,5.980000000000000000e+02,2.450000000000000000e+02,1.740000000000000000e+02,1.120000000000000000e+02,1.660000000000000000e+02,1.000000000000000056e-01,4.119931600000000000e+09
3.160000000000000000e+02,8.530000000000000000e+02,1.107000000000000000e+03,5.460000000000000000e+02,2.170000000000000000e+02,2.110000000000000000e+02,1.110000000000000000e+02,1.500000000000000000e+02,1.000000000000000056e-01,4.119943100000000000e+09
3.350000000000000000e+02,7.410000000000000000e+02,1.049000000000000000e+03,5.320000000000000000e+02,2.130000000000000000e+02,3.280000000000000000e+02,1.410000000000000000e+02,2.270000000000000000e+02,1.100000000000000006e-01,4.138573200000000000e+09
2.760000000000000000e+02,6.600000000000000000e+02,9.920000000000000000e+02,4.440000000000000000e+02,1.820000000000000000e+02,3.420000000000000000e+02,1.430000000000000000e+02,2.930000000000000000e+02,1.300000000000000044e-01,4.178479300000000000e+09
2.880000000000000000e+02,6.590000000000000000e+02,1.060000000000000000e+03,4.440000000000000000e+02,1.840000000000000000e+02,5.490000000000000000e+02,1.850000000000000000e+02,3.220000000000000000e+02,1.300000000000000044e-01,4.178506700000000000e+09
2.280000000000000000e+02,4.840000000000000000e+02,9.020000000000000000e+02,2.970000000000000000e+02,1.270000000000000000e+02,6.570000000000000000e+02,2.130000000000000000e+02,3.590000000000000000e+02,1.499999999999999944e-01,4.218072400000000000e+09
2.530000000000000000e+02,4.780000000000000000e+02,8.710000000000000000e+02,2.670000000000000000e+02,1.360000000000000000e+02,8.110000000000000000e+02,3.870000000000000000e+02,5.410000000000000000e+02,1.600000000000000033e-01,4.239674400000000000e+09
2.400000000000000000e+02,5.140000000000000000e+02,8.560000000000000000e+02,2.490000000000000000e+02,1.290000000000000000e+02,8.790000000000000000e+02,5.420000000000000000e+02,5.880000000000000000e+02,1.600000000000000033e-01,4.239688800000000000e+09
2.470000000000000000e+02,4.810000000000000000e+02,8.350000000000000000e+02,2.550000000000000000e+02,1.360000000000000000e+02,1.036000000000000000e+03,6.340000000000000000e+02,7.210000000000000000e+02,1.799999999999999933e-01,4.279100700000000000e+09
2.380000000000000000e+02,4.840000000000000000e+02,7.050000000000000000e+02,2.100000000000000000e+02,1.260000000000000000e+02,1.015000000000000000e+03,6.670000000000000000e+02,8.510000000000000000e+02,1.900000000000000022e-01,4.298264100000000000e+09
2.620000000000000000e+02,4.620000000000000000e+02,7.130000000000000000e+02,1.850000000000000000e+02,1.270000000000000000e+02,9.870000000000000000e+02,7.000000000000000000e+02,9.920000000000000000e+02,1.900000000000000022e-01,4.298275700000000000e+09
2.370000000000000000e+02,4.340000000000000000e+02,7.000000000000000000e+02,1.790000000000000000e+02,1.110000000000000000e+02,9.540000000000000000e+02,7.210000000000000000e+02,1.018000000000000000e+03,2.000000000000000111e-01,4.319613100000000000e+09
2.160000000000000000e+02,4.160000000000000000e+02,7.080000000000000000e+02,1.890000000000000000e+02,1.150000000000000000e+02,8.950000000000000000e+02,7.600000000000000000e+02,1.052000000000000000e+03,2.200000000000000011e-01,4.359760100000000000e+09
2.170000000000000000e+02,4.170000000000000000e+02,7.630000000000000000e+02,1.840000000000000000e+02,1.040000000000000000e+02,7.530000000000000000e+02,7.320000000000000000e+02,1.002000000000000000e+03,2.200000000000000011e-01,4.359771400000000000e+09
2.270000000000000000e+02,3.630000000000000000e+02,7.370000000000000000e+02,1.820000000000000000e+02,9.600000000000000000e+01,7.740000000000000000e+02,7.210000000000000000e+02,9.580000000000000000e+02,2.300000000000000100e-01,4.378466800000000000e+09
2.100000000000000000e+02,3.320000000000000000e+02,6.800000000000000000e+02,1.680000000000000000e+02,9.500000000000000000e+01,7.720000000000000000e+02,7.400000000000000000e+02,8.760000000000000000e+02,2.399999999999999911e-01,4.399515400000000000e+09
2.100000000000000000e+02,3.370000000000000000e+02,6.520000000000000000e+02,1.610000000000000000e+02,9.600000000000000000e+01,7.460000000000000000e+02,7.130000000000000000e+02,8.060000000000000000e+02,2.500000000000000000e-01,4.418422700000000000e+09
2.070000000000000000e+02,2.880000000000000000e+02,5.730000000000000000e+02,1.200000000000000000e+02,8.400000000000000000e+01,7.730000000000000000e+02,6.300000000000000000e+02,8.080000000000000000e+02,2.600000000000000089e-01,4.439671100000000000e+09
2.240000000000000000e+02,4.030000000000000000e+02,6.260000000000000000e+02,1.370000000000000000e+02,9.200000000000000000e+01,7.230000000000000000e+02,6.770000000000000000e+02,8.070000000000000000e+02,2.800000000000000266e-01,4.479617800000000000e+09
2.100000000000000000e+02,4.360000000000000000e+02,6.340000000000000000e+02,1.510000000000000000e+02,9.900000000000000000e+01,6.190000000000000000e+02,6.880000000000000000e+02,8.500000000000000000e+02,2.800000000000000266e-01,4.479637100000000000e+09
2.000000000000000000e+02,4.320000000000000000e+02,6.000000000000000000e+02,1.500000000000000000e+02,9.500000000000000000e+01,6.230000000000000000e+02,6.760000000000000000e+02,8.610000000000000000e+02,3.099999999999999978e-01,4.537876800000000000e+09
1.940000000000000000e+02,4.280000000000000000e+02,5.780000000000000000e+02,1.440000000000000000e+02,8.400000000000000000e+01,5.510000000000000000e+02,6.590000000000000000e+02,8.230000000000000000e+02,3.099999999999999978e-01,4.537888800000000000e+09
1.940000000000000000e+02,4.800000000000000000e+02,6.710000000000000000e+02,1.510000000000000000e+02,8.100000000000000000e+01,4.570000000000000000e+02,6.050000000000000000e+02,8.130000000000000000e+02,3.099999999999999978e-01,4.537897300000000000e+09
1.880000000000000000e+02,3.950000000000000000e+02,5.520000000000000000e+02,1.130000000000000000e+02,6.900000000000000000e+01,4.520000000000000000e+02,5.060000000000000000e+02,8.240000000000000000e+02,3.200000000000000067e-01,4.559108700000000000e+09
1.860000000000000000e+02,3.710000000000000000e+02,5.110000000000000000e+02,8.600000000000000000e+01,5.800000000000000000e+01,4.320000000000000000e+02,5.110000000000000000e+02,7.070000000000000000e+02,3.400000000000000244e-01,4.599304500000000000e+09
1.870000000000000000e+02,3.610000000000000000e+02,5.010000000000000000e+02,8.600000000000000000e+01,5.400000000000000000e+01,3.800000000000000000e+02,4.710000000000000000e+02,6.220000000000000000e+02,3.400000000000000244e-01,4.599340600000000000e+09
2.660000000000000000e+02,3.800000000000000000e+02,5.540000000000000000e+02,9.700000000000000000e+01,5.500000000000000000e+01,3.010000000000000000e+02,4.400000000000000000e+02,6.700000000000000000e+02,3.599999999999999867e-01,4.640044500000000000e+09
3.030000000000000000e+02,3.280000000000000000e+02,5.660000000000000000e+02,8.600000000000000000e+01,5.000000000000000000e+01,2.970000000000000000e+02,4.340000000000000000e+02,6.150000000000000000e+02,3.599999999999999867e-01,4.640055600000000000e+09
3.000000000000000000e+02,2.990000000000000000e+02,5.670000000000000000e+02,1.050000000000000000e+02,6.500000000000000000e+01,3.090000000000000000e+02,4.590000000000000000e+02,5.880000000000000000e+02,3.699999999999999956e-01,4.658538700000000000e+09
3.010000000000000000e+02,2.790000000000000000e+02,5.650000000000000000e+02,1.040000000000000000e+02,6.700000000000000000e+01,3.580000000000000000e+02,4.300000000000000000e+02,6.090000000000000000e+02,3.800000000000000044e-01,4.680461900000000000e+09
2.980000000000000000e+02,2.790000000000000000e+02,5.680000000000000000e+02,1.040000000000000000e+02,6.600000000000000000e+01,3.620000000000000000e+02,5.030000000000000000e+02,5.900000000000000000e+02,3.900000000000000133e-01,4.699545700000000000e+09
2.450000000000000000e+02,2.820000000000000000e+02,5.740000000000000000e+02,1.020000000000000000e+02,6.500000000000000000e+01,3.680000000000000000e+02,5.020000000000000000e+02,5.490000000000000000e+02,4.000000000000000222e-01,4.720168600000000000e+09
2.400000000000000000e+02,3.100000000000000000e+02,5.210000000000000000e+02,1.080000000000000000e+02,7.100000000000000000e+01,3.620000000000000000e+02,5.030000000000000000e+02,5.260000000000000000e+02,4.099999999999999756e-01,4.740715800000000000e+09
2.190000000000000000e+02,2.870000000000000000e+02,4.660000000000000000e+02,8.500000000000000000e+01,5.600000000000000000e+01,3.620000000000000000e+02,6.170000000000000000e+02,5.360000000000000000e+02,4.199999999999999845e-01,4.763287700000000000e+09
2.240000000000000000e+02,3.110000000000000000e+02,4.450000000000000000e+02,8.400000000000000000e+01,5.300000000000000000e+01,3.000000000000000000e+02,6.260000000000000000e+02,5.750000000000000000e+02,4.299999999999999933e-01,4.779944300000000000e+09
2.240000000000000000e+02,3.250000000000000000e+02,4.410000000000000000e+02,8.500000000000000000e+01,5.000000000000000000e+01,2.210000000000000000e+02,5.830000000000000000e+02,6.060000000000000000e+02,4.400000000000000022e-01,4.799163400000000000e+09
2.020000000000000000e+02,3.120000000000000000e+02,4.370000000000000000e+02,8.200000000000000000e+01,5.000000000000000000e+01,2.290000000000000000e+02,6.900000000000000000e+02,6.780000000000000000e+02,4.500000000000000111e-01,4.820215200000000000e+09
1.580000000000000000e+02,2.680000000000000000e+02,4.330000000000000000e+02,6.300000000000000000e+01,4.200000000000000000e+01,3.340000000000000000e+02,7.040000000000000000e+02,6.700000000000000000e+02,4.600000000000000200e-01,4.839213000000000000e+09
1.480000000000000000e+02,2.850000000000000000e+02,4.810000000000000000e+02,6.600000000000000000e+01,4.400000000000000000e+01,3.440000000000000000e+02,6.440000000000000000e+02,6.590000000000000000e+02,4.699999999999999734e-01,4.859256400000000000e+09
1.440000000000000000e+02,2.720000000000000000e+02,4.790000000000000000e+02,6.500000000000000000e+01,4.600000000000000000e+01,3.710000000000000000e+02,7.430000000000000000e+02,6.740000000000000000e+02,4.899999999999999911e-01,4.899725800000000000e+09
1.850000000000000000e+02,2.720000000000000000e+02,5.610000000000000000e+02,7.400000000000000000e+01,4.900000000000000000e+01,3.770000000000000000e+02,7.730000000000000000e+02,6.980000000000000000e+02,4.899999999999999911e-01,4.899737500000000000e+09
1.910000000000000000e+02,2.700000000000000000e+02,5.460000000000000000e+02,7.800000000000000000e+01,4.700000000000000000e+01,4.230000000000000000e+02,7.030000000000000000e+02,6.370000000000000000e+02,5.000000000000000000e-01,4.918662100000000000e+09
1.730000000000000000e+02,2.710000000000000000e+02,5.090000000000000000e+02,8.100000000000000000e+01,4.600000000000000000e+01,3.450000000000000000e+02,6.880000000000000000e+02,6.720000000000000000e+02,5.100000000000000089e-01,4.939960000000000000e+09
1.860000000000000000e+02,2.470000000000000000e+02,4.770000000000000000e+02,7.900000000000000000e+01,5.000000000000000000e+01,3.820000000000000000e+02,6.530000000000000000e+02,7.450000000000000000e+02,5.200000000000000178e-01,4.958744900000000000e+09
1.820000000000000000e+02,2.710000000000000000e+02,4.880000000000000000e+02,7.800000000000000000e+01,5.600000000000000000e+01,4.400000000000000000e+02,5.300000000000000000e+02,7.960000000000000000e+02,5.300000000000000266e-01,4.979930000000000000e+09
1.570000000000000000e+02,2.450000000000000000e+02,3.860000000000000000e+02,6.800000000000000000e+01,5.300000000000000000e+01,4.430000000000000000e+02,5.810000000000000000e+02,7.590000000000000000e+02,5.500000000000000444e-01,5.019816000000000000e+09
1.500000000000000000e+02,2.280000000000000000e+02,3.240000000000000000e+02,5.800000000000000000e+01,5.700000000000000000e+01,4.060000000000000000e+02,5.540000000000000000e+02,7.360000000000000000e+02,5.500000000000000444e-01,5.019831000000000000e+09
1.750000000000000000e+02,2.100000000000000000e+02,3.430000000000000000e+02,4.800000000000000000e+01,5.800000000000000000e+01,4.670000000000000000e+02,6.510000000000000000e+02,7.200000000000000000e+02,5.600000000000000533e-01,5.038671300000000000e+09
1.740000000000000000e+02,2.880000000000000000e+02,4.220000000000000000e+02,8.400000000000000000e+01,5.500000000000000000e+01,4.550000000000000000e+02,7.130000000000000000e+02,5.940000000000000000e+02,5.699999999999999512e-01,5.059718600000000000e+09
1.770000000000000000e+02,2.650000000000000000e+02,4.480000000000000000e+02,9.100000000000000000e+01,5.100000000000000000e+01,3.980000000000000000e+02,7.870000000000000000e+02,4.480000000000000000e+02,5.899999999999999689e-01,5.099997100000000000e+09
1.730000000000000000e+02,2.730000000000000000e+02,4.500000000000000000e+02,9.100000000000000000e+01,5.100000000000000000e+01,4.220000000000000000e+02,7.150000000000000000e+02,4.640000000000000000e+02,5.999999999999999778e-01,5.118719500000000000e+09
1.860000000000000000e+02,3.180000000000000000e+02,4.690000000000000000e+02,9.200000000000000000e+01,5.100000000000000000e+01,4.160000000000000000e+02,7.240000000000000000e+02,6.150000000000000000e+02,6.099999999999999867e-01,5.137863200000000000e+09
1.760000000000000000e+02,3.410000000000000000e+02,4.260000000000000000e+02,9.100000000000000000e+01,4.900000000000000000e+01,3.440000000000000000e+02,6.510000000000000000e+02,6.690000000000000000e+02,6.199999999999999956e-01,5.159741600000000000e+09
1.810000000000000000e+02,2.940000000000000000e+02,3.710000000000000000e+02,6.700000000000000000e+01,5.400000000000000000e+01,3.290000000000000000e+02,6.060000000000000000e+02,7.230000000000000000e+02,6.199999999999999956e-01,5.159753000000000000e+09
1.780000000000000000e+02,3.500000000000000000e+02,3.250000000000000000e+02,6.000000000000000000e+01,5.900000000000000000e+01,3.270000000000000000e+02,5.840000000000000000e+02,7.300000000000000000e+02,6.400000000000000133e-01,5.200387100000000000e+09
1.810000000000000000e+02,3.540000000000000000e+02,3.200000000000000000e+02,6.400000000000000000e+01,7.300000000000000000e+01,3.760000000000000000e+02,5.900000000000000000e+02,8.150000000000000000e+02,6.500000000000000222e-01,5.218711300000000000e+09
1.780000000000000000e+02,3.410000000000000000e+02,3.100000000000000000e+02,6.100000000000000000e+01,7.800000000000000000e+01,4.520000000000000000e+02,5.940000000000000000e+02,7.310000000000000000e+02,6.500000000000000222e-01,5.218725200000000000e+09
1.670000000000000000e+02,3.240000000000000000e+02,2.990000000000000000e+02,6.000000000000000000e+01,8.300000000000000000e+01,4.780000000000000000e+02,6.640000000000000000e+02,7.160000000000000000e+02,6.600000000000000311e-01,5.240048200000000000e+09
1.570000000000000000e+02,3.260000000000000000e+02,3.310000000000000000e+02,5.700000000000000000e+01,8.100000000000000000e+01,5.290000000000000000e+02,7.120000000000000000e+02,7.120000000000000000e+02,6.800000000000000488e-01,5.279531300000000000e+09
1.530000000000000000e+02,2.520000000000000000e+02,3.570000000000000000e+02,5.700000000000000000e+01,8.200000000000000000e+01,6.570000000000000000e+02,6.770000000000000000e+02,7.240000000000000000e+02,6.899999999999999467e-01,5.298113800000000000e+09
1.310000000000000000e+02,2.790000000000000000e+02,3.560000000000000000e+02,5.400000000000000000e+01,7.600000000000000000e+01,7.570000000000000000e+02,6.610000000000000000e+02,6.030000000000000000e+02,6.999999999999999556e-01,5.319413100000000000e+09
1.210000000000000000e+02,2.560000000000000000e+02,3.360000000000000000e+02,5.300000000000000000e+01,7.300000000000000000e+01,7.670000000000000000e+02,6.810000000000000000e+02,6.160000000000000000e+02,7.099999999999999645e-01,5.338249700000000000e+09
1.350000000000000000e+02,2.470000000000000000e+02,3.360000000000000000e+02,5.200000000000000000e+01,7.500000000000000000e+01,8.740000000000000000e+02,6.560000000000000000e+02,5.810000000000000000e+02,7.099999999999999645e-01,5.338262400000000000e+09
1.230000000000000000e+02,2.660000000000000000e+02,2.830000000000000000e+02,5.100000000000000000e+01,7.800000000000000000e+01,8.420000000000000000e+02,5.810000000000000000e+02,5.590000000000000000e+02,7.299999999999999822e-01,5.377954200000000000e+09
1.360000000000000000e+02,2.910000000000000000e+02,2.500000000000000000e+02,4.900000000000000000e+01,7.700000000000000000e+01,8.750000000000000000e+02,5.640000000000000000e+02,5.730000000000000000e+02,7.399999999999999911e-01,5.399460100000000000e+09
1.480000000000000000e+02,2.870000000000000000e+02,2.600000000000000000e+02,5.200000000000000000e+01,8.300000000000000000e+01,8.860000000000000000e+02,6.720000000000000000e+02,6.880000000000000000e+02,7.399999999999999911e-01,5.399502200000000000e+09
1.460000000000000000e+02,2.940000000000000000e+02,2.540000000000000000e+02,5.200000000000000000e+01,8.200000000000000000e+01,8.800000000000000000e+02,6.250000000000000000e+02,6.660000000000000000e+02,7.600000000000000089e-01,5.439632100000000000e+09
1.410000000000000000e+02,2.930000000000000000e+02,2.290000000000000000e+02,5.100000000000000000e+01,7.400000000000000000e+01,9.300000000000000000e+02,6.030000000000000000e+02,6.780000000000000000e+02,7.700000000000000178e-01,5.458554300000000000e+09
1.550000000000000000e+02,2.830000000000000000e+02,1.860000000000000000e+02,4.900000000000000000e+01,9.100000000000000000e+01,1.039000000000000000e+03,6.400000000000000000e+02,7.200000000000000000e+02,7.700000000000000178e-01,5.458565400000000000e+09
1.640000000000000000e+02,2.750000000000000000e+02,2.300000000000000000e+02,4.700000000000000000e+01,8.700000000000000000e+01,9.920000000000000000e+02,6.610000000000000000e+02,7.500000000000000000e+02,7.800000000000000266e-01,5.479725100000000000e+09
1.530000000000000000e+02,2.430000000000000000e+02,2.250000000000000000e+02,4.600000000000000000e+01,8.700000000000000000e+01,9.750000000000000000e+02,6.050000000000000000e+02,6.900000000000000000e+02,8.000000000000000444e-01,5.519593500000000000e+09
1.720000000000000000e+02,2.410000000000000000e+02,2.430000000000000000e+02,4.700000000000000000e+01,9.800000000000000000e+01,1.055000000000000000e+03,6.130000000000000000e+02,6.860000000000000000e+02,8.000000000000000444e-01,5.519604300000000000e+09
1.920000000000000000e+02,2.820000000000000000e+02,3.690000000000000000e+02,6.300000000000000000e+01,1.020000000000000000e+02,1.009000000000000000e+03,6.220000000000000000e+02,7.170000000000000000e+02,8.199999999999999512e-01,5.559681600000000000e+09
1.960000000000000000e+02,2.720000000000000000e+02,4.120000000000000000e+02,6.400000000000000000e+01,8.700000000000000000e+01,9.830000000000000000e+02,5.950000000000000000e+02,6.700000000000000000e+02,8.299999999999999600e-01,5.578631400000000000e+09
1.880000000000000000e+02,2.590000000000000000e+02,3.770000000000000000e+02,6.700000000000000000e+01,1.000000000000000000e+02,9.700000000000000000e+02,5.850000000000000000e+02,7.330000000000000000e+02,8.299999999999999600e-01,5.578642700000000000e+09
2.040000000000000000e+02,2.800000000000000000e+02,3.750000000000000000e+02,6.800000000000000000e+01,9.800000000000000000e+01,9.460000000000000000e+02,5.490000000000000000e+02,7.340000000000000000e+02,8.399999999999999689e-01,5.600015700000000000e+09
1.940000000000000000e+02,2.720000000000000000e+02,3.730000000000000000e+02,6.900000000000000000e+01,9.200000000000000000e+01,9.290000000000000000e+02,5.610000000000000000e+02,8.600000000000000000e+02,8.599999999999999867e-01,5.640033000000000000e+09
1.870000000000000000e+02,2.600000000000000000e+02,2.710000000000000000e+02,5.700000000000000000e+01,9.700000000000000000e+01,9.890000000000000000e+02,6.870000000000000000e+02,8.350000000000000000e+02,8.599999999999999867e-01,5.640060700000000000e+09
2.120000000000000000e+02,2.770000000000000000e+02,2.860000000000000000e+02,7.100000000000000000e+01,1.120000000000000000e+02,1.038000000000000000e+03,7.800000000000000000e+02,8.570000000000000000e+02,8.800000000000000044e-01,5.678113200000000000e+09
2.420000000000000000e+02,3.320000000000000000e+02,2.900000000000000000e+02,7.100000000000000000e+01,1.210000000000000000e+02,1.110000000000000000e+03,8.300000000000000000e+02,8.360000000000000000e+02,8.900000000000000133e-01,5.699240000000000000e+09
2.400000000000000000e+02,4.110000000000000000e+02,3.050000000000000000e+02,7.000000000000000000e+01,1.190000000000000000e+02,1.105000000000000000e+03,8.950000000000000000e+02,8.810000000000000000e+02,8.900000000000000133e-01,5.699252100000000000e+09
2.450000000000000000e+02,4.790000000000000000e+02,3.400000000000000000e+02,7.300000000000000000e+01,1.150000000000000000e+02,1.116000000000000000e+03,9.390000000000000000e+02,8.060000000000000000e+02,9.000000000000000222e-01,5.720062400000000000e+09
2.740000000000000000e+02,6.020000000000000000e+02,5.110000000000000000e+02,1.110000000000000000e+02,1.470000000000000000e+02,1.052000000000000000e+03,9.390000000000000000e+02,8.290000000000000000e+02,9.200000000000000400e-01,5.759325600000000000e+09
2.940000000000000000e+02,6.220000000000000000e+02,4.970000000000000000e+02,1.050000000000000000e+02,1.470000000000000000e+02,1.054000000000000000e+03,1.018000000000000000e+03,9.160000000000000000e+02,9.300000000000000488e-01,5.780319800000000000e+09
2.960000000000000000e+02,6.520000000000000000e+02,4.970000000000000000e+02,1.100000000000000000e+02,1.470000000000000000e+02,9.690000000000000000e+02,1.075000000000000000e+03,8.790000000000000000e+02,9.399999999999999467e-01,5.799215000000000000e+09
3.070000000000000000e+02,6.300000000000000000e+02,4.960000000000000000e+02,1.140000000000000000e+02,1.620000000000000000e+02,9.920000000000000000e+02,1.156000000000000000e+03,9.030000000000000000e+02,9.499999999999999556e-01,5.819064700000000000e+09
3.430000000000000000e+02,6.380000000000000000e+02,4.940000000000000000e+02,1.270000000000000000e+02,2.130000000000000000e+02,1.101000000000000000e+03,1.210000000000000000e+03,9.340000000000000000e+02,9.499999999999999556e-01,5.819076900000000000e+09
3.690000000000000000e+02,5.460000000000000000e+02,4.230000000000000000e+02,1.120000000000000000e+02,2.300000000000000000e+02,1.270000000000000000e+03,1.250000000000000000e+03,9.430000000000000000e+02,9.699999999999999734e-01,5.859444900000000000e+09
3.850000000000000000e+02,6.150000000000000000e+02,4.880000000000000000e+02,1.330000000000000000e+02,2.440000000000000000e+02,1.332000000000000000e+03,1.179000000000000000e+03,8.900000000000000000e+02,9.799999999999999822e-01,5.878717000000000000e+09
3.800000000000000000e+02,6.070000000000000000e+02,5.040000000000000000e+02,1.300000000000000000e+02,2.440000000000000000e+02,1.494000000000000000e+03,1.170000000000000000e+03,9.450000000000000000e+02,9.799999999999999822e-01,5.878729100000000000e+09
4.260000000000000000e+02,6.030000000000000000e+02,5.190000000000000000e+02,1.310000000000000000e+02,2.450000000000000000e+02,1.540000000000000000e+03,1.125000000000000000e+03,1.041000000000000000e+03,9.799999999999999822e-01,5.919429600000000000e+09
4.250000000000000000e+02,6.340000000000000000e+02,6.100000000000000000e+02,1.280000000000000000e+02,2.230000000000000000e+02,1.510000000000000000e+03,1.100000000000000000e+03,1.052000000000000000e+03,9.699999999999999734e-01,5.938371200000000000e+09
4.210000000000000000e+02,6.620000000000000000e+02,6.290000000000000000e+02,1.430000000000000000e+02,2.190000000000000000e+02,1.496000000000000000e+03,1.055000000000000000e+03,1.069000000000000000e+03,9.699999999999999734e-01,5.938382400000000000e+09
3.840000000000000000e+02,6.060000000000000000e+02,5.780000000000000000e+02,1.240000000000000000e+02,2.070000000000000000e+02,1.466000000000000000e+03,1.074000000000000000e+03,1.143000000000000000e+03,9.599999999999999645e-01,5.959747200000000000e+09
4.110000000000000000e+02,5.890000000000000000e+02,5.840000000000000000e+02,1.390000000000000000e+02,2.290000000000000000e+02,1.351000000000000000e+03,1.048000000000000000e+03,1.198000000000000000e+03,9.399999999999999467e-01,5.999690400000000000e+09
3.960000000000000000e+02,6.450000000000000000e+02,6.340000000000000000e+02,1.410000000000000000e+02,2.320000000000000000e+02,1.354000000000000000e+03,1.066000000000000000e+03,1.075000000000000000e+03,9.399999999999999467e-01,5.999702900000000000e+09
3.880000000000000000e+02,6.440000000000000000e+02,5.570000000000000000e+02,1.400000000000000000e+02,2.200000000000000000e+02,1.349000000000000000e+03,1.000000000000000000e+03,1.022000000000000000e+03,9.300000000000000488e-01,6.020528500000000000e+09
4.000000000000000000e+02,6.620000000000000000e+02,4.930000000000000000e+02,1.240000000000000000e+02,2.290000000000000000e+02,1.354000000000000000e+03,9.670000000000000000e+02,1.045000000000000000e+03,9.100000000000000311e-01,6.058442000000000000e+09
4.000000000000000000e+02,6.480000000000000000e+02,4.740000000000000000e+02,1.220000000000000000e+02,2.190000000000000000e+02,1.265000000000000000e+03,8.680000000000000000e+02,9.130000000000000000e+02,9.000000000000000222e-01,6.079641100000000000e+09
3.580000000000000000e+02,6.270000000000000000e+02,4.920000000000000000e+02,1.030000000000000000e+02,1.860000000000000000e+02,1.197000000000000000e+03,7.680000000000000000e+02,7.210000000000000000e+02,9.000000000000000222e-01,6.079652400000000000e+09
3.170000000000000000e+02,5.450000000000000000e+02,4.630000000000000000e+02,9.600000000000000000e+01,1.670000000000000000e+02,1.059000000000000000e+03,5.670000000000000000e+02,6.520000000000000000e+02,8.800000000000000044e-01,6.119508400000000000e+09
2.820000000000000000e+02,4.590000000000000000e+02,4.560000000000000000e+02,9.700000000000000000e+01,1.610000000000000000e+02,9.130000000000000000e+02,5.110000000000000000e+02,5.920000000000000000e+02,8.699999999999999956e-01,6.140358700000000000e+09
1.940000000000000000e+02,3.460000000000000000e+02,5.750000000000000000e+02,9.900000000000000000e+01,7.600000000000000000e+01,6.330000000000000000e+02,3.020000000000000000e+02,3.650000000000000000e+02,8.699999999999999956e-01,6.140369800000000000e+09
1.770000000000000000e+02,3.390000000000000000e+02,6.740000000000000000e+02,1.140000000000000000e+02,7.400000000000000000e+01,6.460000000000000000e+02,2.470000000000000000e+02,2.700000000000000000e+02,8.499999999999999778e-01,6.178172700000000000e+09
1.970000000000000000e+02,3.660000000000000000e+02,7.540000000000000000e+02,1.240000000000000000e+02,6.900000000000000000e+01,6.260000000000000000e+02,1.840000000000000000e+02,2.110000000000000000e+02,8.399999999999999689e-01,6.199054700000000000e+09
1.900000000000000000e+02,3.790000000000000000e+02,7.990000000000000000e+02,1.210000000000000000e+02,6.300000000000000000e+01,6.120000000000000000e+02,1.620000000000000000e+02,1.660000000000000000e+02,8.299999999999999600e-01,6.220472900000000000e+09
1.880000000000000000e+02,3.840000000000000000e+02,8.830000000000000000e+02,1.180000000000000000e+02,5.400000000000000000e+01,5.670000000000000000e+02,1.360000000000000000e+02,1.320000000000000000e+02,8.199999999999999512e-01,6.238829500000000000e+09
1.830000000000000000e+02,3.800000000000000000e+02,9.540000000000000000e+02,1.240000000000000000e+02,5.900000000000000000e+01,4.620000000000000000e+02,1.310000000000000000e+02,1.130000000000000000e+02,8.100000000000000533e-01,6.259999400000000000e+09
1.750000000000000000e+02,3.530000000000000000e+02,1.001000000000000000e+03,1.070000000000000000e+02,5.000000000000000000e+01,2.880000000000000000e+02,1.210000000000000000e+02,9.800000000000000000e+01,8.100000000000000533e-01,6.260015200000000000e+09
1.320000000000000000e+02,3.270000000000000000e+02,9.440000000000000000e+02,9.400000000000000000e+01,4.600000000000000000e+01,3.380000000000000000e+02,9.700000000000000000e+01,8.400000000000000000e+01,7.900000000000000355e-01,6.300206800000000000e+09
1.320000000000000000e+02,3.110000000000000000e+02,8.800000000000000000e+02,1.000000000000000000e+02,4.900000000000000000e+01,3.500000000000000000e+02,9.200000000000000000e+01,7.600000000000000000e+01,7.800000000000000266e-01,6.318983700000000000e+09
1.440000000000000000e+02,3.460000000000000000e+02,9.330000000000000000e+02,1.010000000000000000e+02,4.400000000000000000e+01,3.290000000000000000e+02,8.400000000000000000e+01,7.400000000000000000e+01,7.700000000000000178e-01,6.340046900000000000e+09
1.370000000000000000e+02,3.780000000000000000e+02,7.950000000000000000e+02,7.300000000000000000e+01,3.500000000000000000e+01,3.440000000000000000e+02,7.000000000000000000e+01,7.000000000000000000e+01,7.600000000000000089e-01,6.358720400000000000e+09
1.530000000000000000e+02,3.870000000000000000e+02,7.000000000000000000e+02,7.900000000000000000e+01,4.000000000000000000e+01,3.460000000000000000e+02,6.700000000000000000e+01,5.400000000000000000e+01,7.500000000000000000e-01,6.380076800000000000e+09
1.510000000000000000e+02,3.600000000000000000e+02,6.930000000000000000e+02,8.000000000000000000e+01,3.900000000000000000e+01,2.310000000000000000e+02,6.500000000000000000e+01,4.400000000000000000e+01,7.399999999999999911e-01,6.398826600000000000e+09
1.560000000000000000e+02,3.680000000000000000e+02,7.140000000000000000e+02,7.600000000000000000e+01,3.700000000000000000e+01,2.380000000000000000e+02,6.300000000000000000e+01,4.200000000000000000e+01,7.299999999999999822e-01,6.420211000000000000e+09
1.400000000000000000e+02,3.230000000000000000e+02,5.730000000000000000e+02,6.900000000000000000e+01,3.800000000000000000e+01,2.500000000000000000e+02,6.200000000000000000e+01,3.300000000000000000e+01,7.199999999999999734e-01,6.439153000000000000e+09
1.570000000000000000e+02,2.800000000000000000e+02,6.010000000000000000e+02,7.500000000000000000e+01,3.900000000000000000e+01,2.080000000000000000e+02,3.300000000000000000e+01,3.500000000000000000e+01,7.099999999999999645e-01,6.457987200000000000e+09
2.110000000000000000e+02,2.720000000000000000e+02,6.430000000000000000e+02,8.100000000000000000e+01,3.700000000000000000e+01,1.710000000000000000e+02,3.300000000000000000e+01,3.400000000000000000e+01,6.999999999999999556e-01,6.479293700000000000e+09
2.140000000000000000e+02,2.910000000000000000e+02,7.980000000000000000e+02,1.080000000000000000e+02,5.000000000000000000e+01,1.620000000000000000e+02,3.300000000000000000e+01,3.800000000000000000e+01,6.899999999999999467e-01,6.498185500000000000e+09
2.020000000000000000e+02,2.790000000000000000e+02,8.510000000000000000e+02,1.110000000000000000e+02,5.000000000000000000e+01,1.170000000000000000e+02,3.000000000000000000e+01,3.900000000000000000e+01,6.800000000000000488e-01,6.519445400000000000e+09
2.030000000000000000e+02,2.660000000000000000e+02,8.300000000000000000e+02,1.060000000000000000e+02,5.100000000000000000e+01,7.700000000000000000e+01,3.100000000000000000e+01,4.200000000000000000e+01,6.700000000000000400e-01,6.538062100000000000e+09
2.030000000000000000e+02,2.980000000000000000e+02,8.530000000000000000e+02,1.200000000000000000e+02,5.600000000000000000e+01,7.400000000000000000e+01,3.200000000000000000e+01,4.200000000000000000e+01,6.600000000000000311e-01,6.559456400000000000e+09
1.490000000000000000e+02,3.030000000000000000e+02,7.920000000000000000e+02,1.110000000000000000e+02,5.400000000000000000e+01,5.900000000000000000e+01,3.100000000000000000e+01,4.000000000000000000e+01,6.600000000000000311e-01,6.559468900000000000e+09
1.570000000000000000e+02,2.890000000000000000e+02,6.850000000000000000e+02,1.000000000000000000e+02,4.800000000000000000e+01,6.400000000000000000e+01,3.100000000000000000e+01,4.000000000000000000e+01,6.400000000000000133e-01,6.600355100000000000e+09
1.440000000000000000e+02,2.960000000000000000e+02,6.320000000000000000e+02,9.600000000000000000e+01,4.700000000000000000e+01,6.000000000000000000e+01,3.200000000000000000e+01,4.100000000000000000e+01,6.300000000000000044e-01,6.619048400000000000e+09
1.500000000000000000e+02,2.830000000000000000e+02,6.220000000000000000e+02,1.060000000000000000e+02,4.800000000000000000e+01,6.500000000000000000e+01,2.900000000000000000e+01,3.900000000000000000e+01,6.199999999999999956e-01,6.638089400000000000e+09
1.550000000000000000e+02,2.510000000000000000e+02,6.620000000000000000e+02,9.500000000000000000e+01,3.900000000000000000e+01,6.400000000000000000e+01,2.900000000000000000e+01,3.600000000000000000e+01,6.099999999999999867e-01,6.659629800000000000e+09
1.510000000000000000e+02,2.340000000000000000e+02,6.990000000000000000e+02,1.020000000000000000e+02,4.000000000000000000e+01,6.400000000000000000e+01,2.800000000000000000e+01,3.700000000000000000e+01,5.999999999999999778e-01,6.678320800000000000e+09
1.680000000000000000e+02,2.740000000000000000e+02,6.750000000000000000e+02,1.030000000000000000e+02,4.100000000000000000e+01,5.800000000000000000e+01,3.000000000000000000e+01,4.200000000000000000e+01,5.899999999999999689e-01,6.700326700000000000e+09
1.790000000000000000e+02,2.990000000000000000e+02,7.110000000000000000e+02,1.350000000000000000e+02,5.200000000000000000e+01,5.400000000000000000e+01,3.500000000000000000e+01,4.800000000000000000e+01,5.799999999999999600e-01,6.719042100000000000e+09
2.080000000000000000e+02,2.910000000000000000e+02,7.910000000000000000e+02,1.290000000000000000e+02,5.200000000000000000e+01,4.400000000000000000e+01,3.600000000000000000e+01,4.700000000000000000e+01,5.699999999999999512e-01,6.740142600000000000e+09
1.890000000000000000e+02,2.960000000000000000e+02,7.660000000000000000e+02,1.260000000000000000e+02,5.100000000000000000e+01,4.600000000000000000e+01,3.600000000000000000e+01,4.600000000000000000e+01,5.699999999999999512e-01,6.740155500000000000e+09
1.930000000000000000e+02,3.330000000000000000e+02,7.900000000000000000e+02,1.400000000000000000e+02,5.900000000000000000e+01,4.800000000000000000e+01,4.100000000000000000e+01,5.200000000000000000e+01,5.500000000000000444e-01,6.779743700000000000e+09
1.680000000000000000e+02,3.400000000000000000e+02,8.030000000000000000e+02,1.390000000000000000e+02,5.500000000000000000e+01,4.700000000000000000e+01,3.800000000000000000e+01,4.600000000000000000e+01,5.400000000000000355e-01,6.798379400000000000e+09
1.580000000000000000e+02,3.080000000000000000e+02,7.730000000000000000e+02,1.070000000000000000e+02,4.500000000000000000e+01,3.900000000000000000e+01,3.200000000000000000e+01,3.700000000000000000e+01,5.300000000000000266e-01,6.819479800000000000e+09
1.260000000000000000e+02,3.340000000000000000e+02,8.860000000000000000e+02,1.090000000000000000e+02,4.500000000000000000e+01,3.900000000000000000e+01,3.300000000000000000e+01,3.700000000000000000e+01,5.200000000000000178e-01,6.838224600000000000e+09
1.290000000000000000e+02,3.550000000000000000e+02,8.820000000000000000e+02,1.160000000000000000e+02,4.900000000000000000e+01,3.800000000000000000e+01,3.200000000000000000e+01,3.900000000000000000e+01,5.100000000000000089e-01,6.859657200000000000e+09
1.210000000000000000e+02,3.540000000000000000e+02,8.390000000000000000e+02,1.010000000000000000e+02,4.700000000000000000e+01,3.600000000000000000e+01,2.900000000000000000e+01,3.900000000000000000e+01,5.100000000000000089e-01,6.859668300000000000e+09
1.280000000000000000e+02,3.430000000000000000e+02,8.780000000000000000e+02,1.270000000000000000e+02,5.000000000000000000e+01,3.600000000000000000e+01,3.100000000000000000e+01,4.400000000000000000e+01,4.899999999999999911e-01,6.900199300000000000e+09
1.250000000000000000e+02,3.440000000000000000e+02,8.700000000000000000e+02,1.320000000000000000e+02,5.100000000000000000e+01,3.600000000000000000e+01,3.100000000000000000e+01,4.300000000000000000e+01,4.799999999999999822e-01,6.919263000000000000e+09
1.110000000000000000e+02,3.310000000000000000e+02,7.160000000000000000e+02,1.310000000000000000e+02,5.100000000000000000e+01,4.000000000000000000e+01,3.500000000000000000e+01,4.600000000000000000e+01,4.699999999999999734e-01,6.940251800000000000e+09
1.130000000000000000e+02,3.010000000000000000e+02,6.680000000000000000e+02,1.260000000000000000e+02,5.100000000000000000e+01,4.000000000000000000e+01,3.400000000000000000e+01,4.300000000000000000e+01,4.600000000000000200e-01,6.958743000000000000e+09
9.800000000000000000e+01,2.690000000000000000e+02,7.490000000000000000e+02,1.230000000000000000e+02,4.700000000000000000e+01,3.900000000000000000e+01,3.300000000000000000e+01,3.700000000000000000e+01,4.500000000000000111e-01,6.980198800000000000e+09
9.000000000000000000e+01,2.500000000000000000e+02,7.800000000000000000e+02,8.700000000000000000e+01,4.400000000000000000e+01,3.400000000000000000e+01,2.900000000000000000e+01,3.100000000000000000e+01,4.400000000000000022e-01,6.998449100000000000e+09
1.180000000000000000e+02,2.710000000000000000e+02,9.320000000000000000e+02,1.290000000000000000e+02,4.800000000000000000e+01,3.800000000000000000e+01,3.500000000000000000e+01,3.700000000000000000e+01,4.299999999999999933e-01,7.019902100000000000e+09
1.120000000000000000e+02,2.620000000000000000e+02,9.210000000000000000e+02,1.290000000000000000e+02,4.600000000000000000e+01,3.400000000000000000e+01,3.100000000000000000e+01,3.500000000000000000e+01,4.199999999999999845e-01,7.038576300000000000e+09
1.090000000000000000e+02,2.620000000000000000e+02,9.090000000000000000e+02,1.310000000000000000e+02,4.300000000000000000e+01,5.800000000000000000e+01,4.600000000000000000e+01,3.600000000000000000e+01,4.099999999999999756e-01,7.060177500000000000e+09
1.200000000000000000e+02,2.690000000000000000e+02,8.780000000000000000e+02,1.490000000000000000e+02,4.700000000000000000e+01,9.500000000000000000e+01,5.700000000000000000e+01,4.500000000000000000e+01,4.000000000000000222e-01,7.078264500000000000e+09
1.200000000000000000e+02,2.770000000000000000e+02,8.650000000000000000e+02,1.480000000000000000e+02,4.700000000000000000e+01,1.040000000000000000e+02,6.100000000000000000e+01,4.600000000000000000e+01,3.900000000000000133e-01,7.100052700000000000e+09
1.030000000000000000e+02,2.680000000000000000e+02,8.560000000000000000e+02,1.220000000000000000e+02,4.700000000000000000e+01,1.040000000000000000e+02,5.900000000000000000e+01,4.500000000000000000e+01,3.800000000000000044e-01,7.118594800000000000e+09
1.150000000000000000e+02,2.990000000000000000e+02,8.540000000000000000e+02,1.310000000000000000e+02,5.200000000000000000e+01,2.140000000000000000e+02,6.600000000000000000e+01,4.700000000000000000e+01,3.699999999999999956e-01,7.139925200000000000e+09
1.230000000000000000e+02,3.210000000000000000e+02,9.540000000000000000e+02,1.480000000000000000e+02,5.700000000000000000e+01,2.100000000000000000e+02,6.800000000000000000e+01,5.400000000000000000e+01,3.599999999999999867e-01,7.158376300000000000e+09
1.090000000000000000e+02,3.180000000000000000e+02,9.490000000000000000e+02,1.360000000000000000e+02,5.600000000000000000e+01,2.000000000000000000e+02,7.000000000000000000e+01,5.100000000000000000e+01,3.499999999999999778e-01,7.179940300000000000e+09
1.160000000000000000e+02,3.190000000000000000e+02,9.310000000000000000e+02,1.540000000000000000e+02,6.100000000000000000e+01,2.000000000000000000e+02,6.900000000000000000e+01,5.300000000000000000e+01,3.400000000000000244e-01,7.198762000000000000e+09
1.400000000000000000e+02,3.090000000000000000e+02,8.480000000000000000e+02,1.500000000000000000e+02,5.800000000000000000e+01,2.130000000000000000e+02,7.100000000000000000e+01,5.400000000000000000e+01,3.300000000000000155e-01,7.219775800000000000e+09
1.320000000000000000e+02,2.850000000000000000e+02,8.920000000000000000e+02,1.390000000000000000e+02,5.400000000000000000e+01,1.760000000000000000e+02,7.700000000000000000e+01,5.000000000000000000e+01,3.200000000000000067e-01,7.238416300000000000e+09
1.300000000000000000e+02,2.600000000000000000e+02,8.150000000000000000e+02,1.270000000000000000e+02,5.600000000000000000e+01,2.070000000000000000e+02,8.300000000000000000e+01,4.500000000000000000e+01,3.099999999999999978e-01,7.259506100000000000e+09
1.530000000000000000e+02,3.730000000000000000e+02,8.550000000000000000e+02,1.740000000000000000e+02,8.200000000000000000e+01,3.020000000000000000e+02,1.020000000000000000e+02,7.100000000000000000e+01,2.999999999999999889e-01,7.278555700000000000e+09
1.610000000000000000e+02,3.600000000000000000e+02,8.460000000000000000e+02,1.690000000000000000e+02,8.900000000000000000e+01,3.700000000000000000e+02,1.390000000000000000e+02,7.600000000000000000e+01,2.899999999999999800e-01,7.300176700000000000e+09
1.460000000000000000e+02,3.790000000000000000e+02,8.240000000000000000e+02,2.000000000000000000e+02,1.030000000000000000e+02,3.970000000000000000e+02,1.570000000000000000e+02,8.100000000000000000e+01,2.800000000000000266e-01,7.319015400000000000e+09
1.470000000000000000e+02,3.880000000000000000e+02,8.950000000000000000e+02,2.160000000000000000e+02,1.060000000000000000e+02,3.990000000000000000e+02,1.800000000000000000e+02,8.400000000000000000e+01,2.700000000000000178e-01,7.339767300000000000e+09
1.470000000000000000e+02,4.160000000000000000e+02,9.280000000000000000e+02,2.320000000000000000e+02,1.050000000000000000e+02,3.910000000000000000e+02,1.750000000000000000e+02,8.400000000000000000e+01,2.600000000000000089e-01,7.358194000000000000e+09
1.560000000000000000e+02,4.680000000000000000e+02,1.017000000000000000e+03,2.140000000000000000e+02,9.500000000000000000e+01,3.270000000000000000e+02,1.640000000000000000e+02,7.200000000000000000e+01,2.500000000000000000e-01,7.379223800000000000e+09
1.480000000000000000e+02,4.880000000000000000e+02,1.044000000000000000e+03,2.120000000000000000e+02,8.700000000000000000e+01,2.560000000000000000e+02,1.410000000000000000e+02,6.700000000000000000e+01,2.399999999999999911e-01,7.398179500000000000e+09
1.360000000000000000e+02,4.860000000000000000e+02,1.020000000000000000e+03,1.830000000000000000e+02,7.300000000000000000e+01,2.090000000000000000e+02,1.270000000000000000e+02,5.900000000000000000e+01,2.300000000000000100e-01,7.418935200000000000e+09
1.330000000000000000e+02,4.750000000000000000e+02,9.390000000000000000e+02,1.710000000000000000e+02,7.100000000000000000e+01,1.640000000000000000e+02,8.400000000000000000e+01,5.700000000000000000e+01,2.200000000000000011e-01,7.440519000000000000e+09
1.350000000000000000e+02,4.720000000000000000e+02,9.030000000000000000e+02,1.650000000000000000e+02,7.700000000000000000e+01,1.680000000000000000e+02,8.900000000000000000e+01,6.700000000000000000e+01,2.099999999999999922e-01,7.459531000000000000e+09
1.090000000000000000e+02,3.250000000000000000e+02,8.070000000000000000e+02,1.540000000000000000e+02,6.800000000000000000e+01,1.630000000000000000e+02,8.800000000000000000e+01,5.700000000000000000e+01,2.000000000000000111e-01,7.478439900000000000e+09
1.190000000000000000e+02,3.320000000000000000e+02,8.660000000000000000e+02,1.890000000000000000e+02,7.700000000000000000e+01,1.500000000000000000e+02,9.700000000000000000e+01,6.100000000000000000e+01,1.900000000000000022e-01,7.499592400000000000e+09
1.150000000000000000e+02,3.130000000000000000e+02,9.130000000000000000e+02,1.910000000000000000e+02,7.700000000000000000e+01,1.710000000000000000e+02,9.200000000000000000e+01,6.000000000000000000e+01,1.799999999999999933e-01,7.518332300000000000e+09
1.210000000000000000e+02,3.390000000000000000e+02,9.240000000000000000e+02,1.960000000000000000e+02,8.000000000000000000e+01,2.010000000000000000e+02,1.310000000000000000e+02,6.100000000000000000e+01,1.700000000000000122e-01,7.539618700000000000e+09
1.540000000000000000e+02,5.360000000000000000e+02,9.850000000000000000e+02,2.210000000000000000e+02,8.400000000000000000e+01,1.910000000000000000e+02,1.280000000000000000e+02,6.900000000000000000e+01,1.600000000000000033e-01,7.558407400000000000e+09
1.530000000000000000e+02,5.430000000000000000e+02,1.026000000000000000e+03,2.110000000000000000e+02,8.300000000000000000e+01,1.940000000000000000e+02,1.330000000000000000e+02,7.400000000000000000e+01,1.499999999999999944e-01,7.579658600000000000e+09
1.460000000000000000e+02,5.390000000000000000e+02,9.670000000000000000e+02,1.950000000000000000e+02,7.800000000000000000e+01,1.880000000000000000e+02,1.180000000000000000e+02,7.200000000000000000e+01,1.400000000000000133e-01,7.598293300000000000e+09
1.520000000000000000e+02,5.610000000000000000e+02,9.660000000000000000e+02,2.110000000000000000e+02,8.100000000000000000e+01,1.600000000000000000e+02,1.180000000000000000e+02,7.500000000000000000e+01,1.300000000000000044e-01,7.619762800000000000e+09
1.690000000000000000e+02,6.690000000000000000e+02,9.710000000000000000e+02,2.330000000000000000e+02,8.300000000000000000e+01,1.040000000000000000e+02,7.200000000000000000e+01,8.200000000000000000e+01,1.199999999999999956e-01,7.638882800000000000e+09
1.540000000000000000e+02,5.810000000000000000e+02,9.160000000000000000e+02,2.020000000000000000e+02,7.500000000000000000e+01,8.900000000000000000e+01,7.300000000000000000e+01,7.400000000000000000e+01,1.000000000000000056e-01,7.678503200000000000e+09
1.630000000000000000e+02,6.340000000000000000e+02,9.100000000000000000e+02,2.180000000000000000e+02,8.100000000000000000e+01,7.200000000000000000e+01,5.700000000000000000e+01,7.700000000000000000e+01,1.000000000000000056e-01,7.678552700000000000e+09
2.510000000000000000e+02,7.250000000000000000e+02,1.018000000000000000e+03,3.310000000000000000e+02,1.190000000000000000e+02,1.120000000000000000e+02,7.800000000000000000e+01,1.140000000000000000e+02,8.999999999999999667e-02,7.699551900000000000e+09
2.600000000000000000e+02,7.290000000000000000e+02,1.038000000000000000e+03,3.350000000000000000e+02,1.200000000000000000e+02,1.150000000000000000e+02,8.500000000000000000e+01,1.170000000000000000e+02,8.000000000000000167e-02,7.718191100000000000e+09
2.540000000000000000e+02,6.430000000000000000e+02,1.065000000000000000e+03,3.210000000000000000e+02,1.180000000000000000e+02,1.170000000000000000e+02,8.100000000000000000e+01,1.140000000000000000e+02,7.000000000000000666e-02,7.739763700000000000e+09
2.730000000000000000e+02,6.420000000000000000e+02,1.116000000000000000e+03,3.590000000000000000e+02,1.320000000000000000e+02,1.200000000000000000e+02,8.300000000000000000e+01,1.230000000000000000e+02,5.999999999999999778e-02,7.758721900000000000e+09
3.000000000000000000e+02,6.500000000000000000e+02,1.120000000000000000e+03,4.130000000000000000e+02,1.490000000000000000e+02,1.360000000000000000e+02,9.400000000000000000e+01,1.330000000000000000e+02,5.000000000000000278e-02,7.779426300000000000e+09
2.610000000000000000e+02,6.400000000000000000e+02,1.082000000000000000e+03,3.850000000000000000e+02,1.460000000000000000e+02,1.370000000000000000e+02,9.100000000000000000e+01,1.200000000000000000e+02,4.000000000000000083e-02,7.799965500000000000e+09
2.720000000000000000e+02,6.860000000000000000e+02,1.219000000000000000e+03,4.100000000000000000e+02,1.540000000000000000e+02,1.420000000000000000e+02,9.300000000000000000e+01,1.270000000000000000e+02,2.999999999999999889e-02,7.818946500000000000e+09
3.010000000000000000e+02,7.990000000000000000e+02,1.250000000000000000e+03,4.880000000000000000e+02,1.810000000000000000e+02,1.530000000000000000e+02,1.040000000000000000e+02,1.450000000000000000e+02,2.000000000000000042e-02,7.840309200000000000e+09
3.740000000000000000e+02,9.200000000000000000e+02,1.208000000000000000e+03,5.890000000000000000e+02,2.150000000000000000e+02,1.710000000000000000e+02,1.260000000000000000e+02,1.770000000000000000e+02,1.000000000000000021e-02,7.859245400000000000e+09
3.500000000000000000e+02,9.110000000000000000e+02,1.146000000000000000e+03,5.560000000000000000e+02,2.030000000000000000e+02,1.590000000000000000e+02,1.170000000000000000e+02,1.670000000000000000e+02,1.000000000000000021e-02,7.898180900000000000e+09
3.340000000000000000e+02,8.500000000000000000e+02,1.127000000000000000e+03,5.350000000000000000e+02,1.910000000000000000e+02,1.330000000000000000e+02,1.090000000000000000e+02,1.570000000000000000e+02,1.000000000000000021e-02,7.898229200000000000e+09
3.240000000000000000e+02,8.140000000000000000e+02,1.065000000000000000e+03,5.380000000000000000e+02,1.880000000000000000e+02,1.220000000000000000e+02,1.020000000000000000e+02,1.520000000000000000e+02,2.000000000000000042e-02,7.919172900000000000e+09
3.020000000000000000e+02,7.360000000000000000e+02,1.005000000000000000e+03,4.790000000000000000e+02,1.700000000000000000e+02,1.160000000000000000e+02,9.500000000000000000e+01,1.370000000000000000e+02,4.000000000000000083e-02,7.959108100000000000e+09
1.750000000000000000e+02,5.450000000000000000e+02,1.076000000000000000e+03,3.410000000000000000e+02,1.180000000000000000e+02,1.020000000000000000e+02,8.000000000000000000e+01,7.700000000000000000e+01,5.000000000000000278e-02,7.979994400000000000e+09
1.900000000000000000e+02,6.210000000000000000e+02,1.116000000000000000e+03,3.540000000000000000e+02,1.230000000000000000e+02,1.160000000000000000e+02,8.500000000000000000e+01,8.300000000000000000e+01,5.000000000000000278e-02,7.980012400000000000e+09
1.880000000000000000e+02,6.790000000000000000e+02,1.096000000000000000e+03,3.340000000000000000e+02,1.210000000000000000e+02,1.240000000000000000e+02,8.400000000000000000e+01,8.600000000000000000e+01,5.999999999999999778e-02,7.998768500000000000e+09
1.990000000000000000e+02,6.890000000000000000e+02,9.970000000000000000e+02,3.180000000000000000e+02,1.260000000000000000e+02,1.880000000000000000e+02,9.200000000000000000e+01,1.100000000000000000e+02,7.000000000000000666e-02,8.020303700000000000e+09
2.110000000000000000e+02,6.870000000000000000e+02,9.970000000000000000e+02,3.510000000000000000e+02,1.330000000000000000e+02,2.690000000000000000e+02,1.010000000000000000e+02,1.220000000000000000e+02,8.000000000000000167e-02,8.039017600000000000e+09
2.060000000000000000e+02,6.910000000000000000e+02,8.850000000000000000e+02,3.140000000000000000e+02,1.230000000000000000e+02,2.880000000000000000e+02,1.140000000000000000e+02,1.310000000000000000e+02,8.999999999999999667e-02,8.060412200000000000e+09
1.970000000000000000e+02,5.830000000000000000e+02,8.560000000000000000e+02,2.950000000000000000e+02,1.190000000000000000e+02,3.730000000000000000e+02,1.180000000000000000e+02,1.380000000000000000e+02,1.000000000000000056e-01,8.079275300000000000e+09
1.880000000000000000e+02,5.250000000000000000e+02,7.720000000000000000e+02,2.750000000000000000e+02,1.120000000000000000e+02,3.990000000000000000e+02,1.360000000000000000e+02,2.000000000000000000e+02,1.100000000000000006e-01,8.098045100000000000e+09
1.660000000000000000e+02,5.100000000000000000e+02,7.980000000000000000e+02,2.310000000000000000e+02,9.600000000000000000e+01,4.460000000000000000e+02,1.520000000000000000e+02,2.280000000000000000e+02,1.199999999999999956e-01,8.119436200000000000e+09
1.370000000000000000e+02,4.570000000000000000e+02,7.500000000000000000e+02,1.420000000000000000e+02,6.800000000000000000e+01,4.580000000000000000e+02,1.660000000000000000e+02,4.350000000000000000e+02,1.300000000000000044e-01,8.138375500000000000e+09
1.390000000000000000e+02,4.410000000000000000e+02,8.120000000000000000e+02,1.430000000000000000e+02,8.800000000000000000e+01,6.780000000000000000e+02,3.130000000000000000e+02,5.620000000000000000e+02,1.400000000000000133e-01,8.159658800000000000e+09
1.400000000000000000e+02,4.690000000000000000e+02,7.360000000000000000e+02,1.290000000000000000e+02,8.700000000000000000e+01,7.530000000000000000e+02,4.200000000000000000e+02,6.230000000000000000e+02,1.499999999999999944e-01,8.178457900000000000e+09
1.840000000000000000e+02,4.380000000000000000e+02,7.380000000000000000e+02,1.330000000000000000e+02,9.900000000000000000e+01,7.710000000000000000e+02,4.320000000000000000e+02,7.500000000000000000e+02,1.600000000000000033e-01,8.199667400000000000e+09
2.020000000000000000e+02,4.050000000000000000e+02,6.390000000000000000e+02,1.320000000000000000e+02,1.300000000000000000e+02,9.210000000000000000e+02,4.660000000000000000e+02,8.810000000000000000e+02,1.799999999999999933e-01,8.240314100000000000e+09
2.290000000000000000e+02,3.980000000000000000e+02,5.950000000000000000e+02,1.410000000000000000e+02,1.490000000000000000e+02,9.800000000000000000e+02,5.510000000000000000e+02,8.900000000000000000e+02,1.799999999999999933e-01,8.240325500000000000e+09
2.300000000000000000e+02,3.950000000000000000e+02,6.190000000000000000e+02,1.420000000000000000e+02,1.390000000000000000e+02,9.050000000000000000e+02,5.300000000000000000e+02,8.610000000000000000e+02,1.900000000000000022e-01,8.258818000000000000e+09
2.350000000000000000e+02,3.730000000000000000e+02,6.360000000000000000e+02,1.410000000000000000e+02,1.370000000000000000e+02,8.640000000000000000e+02,5.390000000000000000e+02,8.970000000000000000e+02,2.000000000000000111e-01,8.279764700000000000e+09
2.140000000000000000e+02,3.760000000000000000e+02,6.320000000000000000e+02,1.380000000000000000e+02,1.270000000000000000e+02,9.290000000000000000e+02,6.520000000000000000e+02,8.560000000000000000e+02,2.099999999999999922e-01,8.298419000000000000e+09
1.960000000000000000e+02,3.880000000000000000e+02,6.090000000000000000e+02,1.330000000000000000e+02,9.300000000000000000e+01,7.770000000000000000e+02,6.900000000000000000e+02,7.540000000000000000e+02,2.200000000000000011e-01,8.319672800000000000e+09
1.630000000000000000e+02,3.930000000000000000e+02,6.520000000000000000e+02,1.200000000000000000e+02,7.100000000000000000e+01,7.120000000000000000e+02,6.280000000000000000e+02,6.820000000000000000e+02,2.300000000000000100e-01,8.338475500000000000e+09
1.700000000000000000e+02,3.670000000000000000e+02,5.380000000000000000e+02,1.050000000000000000e+02,6.600000000000000000e+01,6.710000000000000000e+02,6.040000000000000000e+02,6.900000000000000000e+02,2.399999999999999911e-01,8.359777300000000000e+09
2.020000000000000000e+02,3.910000000000000000e+02,5.270000000000000000e+02,9.300000000000000000e+01,6.500000000000000000e+01,6.140000000000000000e+02,5.750000000000000000e+02,6.630000000000000000e+02,2.500000000000000000e-01,8.378411000000000000e+09
1.970000000000000000e+02,4.170000000000000000e+02,5.140000000000000000e+02,1.190000000000000000e+02,7.000000000000000000e+01,5.080000000000000000e+02,4.670000000000000000e+02,6.650000000000000000e+02,2.600000000000000089e-01,8.399476100000000000e+09
2.040000000000000000e+02,4.340000000000000000e+02,5.360000000000000000e+02,1.470000000000000000e+02,7.300000000000000000e+01,4.760000000000000000e+02,4.470000000000000000e+02,6.800000000000000000e+02,2.700000000000000178e-01,8.418118200000000000e+09
2.050000000000000000e+02,4.130000000000000000e+02,5.330000000000000000e+02,1.450000000000000000e+02,6.200000000000000000e+01,4.040000000000000000e+02,4.850000000000000000e+02,6.770000000000000000e+02,2.800000000000000266e-01,8.439811000000000000e+09
1.980000000000000000e+02,4.470000000000000000e+02,5.250000000000000000e+02,1.440000000000000000e+02,6.000000000000000000e+01,3.290000000000000000e+02,4.610000000000000000e+02,7.280000000000000000e+02,2.899999999999999800e-01,8.458685900000000000e+09
1.430000000000000000e+02,3.860000000000000000e+02,4.900000000000000000e+02,1.340000000000000000e+02,5.200000000000000000e+01,3.150000000000000000e+02,4.500000000000000000e+02,6.860000000000000000e+02,3.099999999999999978e-01,8.498531300000000000e+09
1.470000000000000000e+02,3.380000000000000000e+02,5.110000000000000000e+02,1.090000000000000000e+02,4.700000000000000000e+01,2.860000000000000000e+02,4.190000000000000000e+02,6.130000000000000000e+02,3.099999999999999978e-01,8.498555300000000000e+09
1.380000000000000000e+02,3.120000000000000000e+02,5.210000000000000000e+02,7.500000000000000000e+01,4.500000000000000000e+01,2.500000000000000000e+02,3.840000000000000000e+02,6.010000000000000000e+02,3.200000000000000067e-01,8.520063600000000000e+09
1.320000000000000000e+02,3.480000000000000000e+02,4.570000000000000000e+02,6.600000000000000000e+01,4.300000000000000000e+01,2.510000000000000000e+02,3.580000000000000000e+02,5.980000000000000000e+02,3.300000000000000155e-01,8.539078000000000000e+09
1.190000000000000000e+02,2.910000000000000000e+02,5.030000000000000000e+02,7.600000000000000000e+01,4.400000000000000000e+01,2.530000000000000000e+02,3.690000000000000000e+02,5.090000000000000000e+02,3.400000000000000244e-01,8.560188000000000000e+09
1.310000000000000000e+02,3.180000000000000000e+02,5.110000000000000000e+02,7.900000000000000000e+01,4.900000000000000000e+01,2.600000000000000000e+02,3.530000000000000000e+02,5.450000000000000000e+02,3.499999999999999778e-01,8.578408700000000000e+09
1.080000000000000000e+02,3.160000000000000000e+02,4.460000000000000000e+02,7.500000000000000000e+01,5.700000000000000000e+01,3.200000000000000000e+02,4.680000000000000000e+02,6.340000000000000000e+02,3.599999999999999867e-01,8.599432900000000000e+09
9.700000000000000000e+01,3.240000000000000000e+02,3.810000000000000000e+02,6.500000000000000000e+01,6.200000000000000000e+01,3.680000000000000000e+02,4.600000000000000000e+02,6.410000000000000000e+02,3.699999999999999956e-01,8.618236300000000000e+09
1.250000000000000000e+02,3.380000000000000000e+02,4.590000000000000000e+02,7.400000000000000000e+01,6.600000000000000000e+01,3.970000000000000000e+02,4.650000000000000000e+02,6.930000000000000000e+02,3.800000000000000044e-01,8.640219600000000000e+09
1.530000000000000000e+02,3.260000000000000000e+02,4.350000000000000000e+02,6.400000000000000000e+01,6.400000000000000000e+01,4.090000000000000000e+02,4.850000000000000000e+02,6.880000000000000000e+02,3.900000000000000133e-01,8.658966200000000000e+09
1.570000000000000000e+02,3.050000000000000000e+02,4.570000000000000000e+02,6.200000000000000000e+01,6.400000000000000000e+01,4.570000000000000000e+02,4.930000000000000000e+02,7.620000000000000000e+02,4.000000000000000222e-01,8.679933700000000000e+09
1.670000000000000000e+02,3.060000000000000000e+02,4.570000000000000000e+02,6.100000000000000000e+01,5.700000000000000000e+01,4.180000000000000000e+02,4.410000000000000000e+02,7.030000000000000000e+02,4.099999999999999756e-01,8.699102100000000000e+09
1.730000000000000000e+02,2.780000000000000000e+02,4.590000000000000000e+02,6.000000000000000000e+01,5.100000000000000000e+01,3.950000000000000000e+02,4.490000000000000000e+02,7.420000000000000000e+02,4.299999999999999933e-01,8.739285600000000000e+09
1.930000000000000000e+02,2.270000000000000000e+02,3.650000000000000000e+02,4.500000000000000000e+01,4.500000000000000000e+01,3.720000000000000000e+02,5.310000000000000000e+02,7.550000000000000000e+02,4.299999999999999933e-01,8.739332900000000000e+09
1.730000000000000000e+02,2.430000000000000000e+02,3.520000000000000000e+02,4.600000000000000000e+01,5.100000000000000000e+01,4.330000000000000000e+02,5.200000000000000000e+02,7.340000000000000000e+02,4.400000000000000022e-01,8.760329100000000000e+09
1.600000000000000000e+02,2.470000000000000000e+02,3.050000000000000000e+02,4.400000000000000000e+01,4.700000000000000000e+01,4.100000000000000000e+02,5.010000000000000000e+02,6.290000000000000000e+02,4.500000000000000111e-01,8.778664900000000000e+09
1.520000000000000000e+02,2.440000000000000000e+02,2.940000000000000000e+02,4.300000000000000000e+01,4.800000000000000000e+01,3.840000000000000000e+02,5.020000000000000000e+02,6.770000000000000000e+02,4.600000000000000200e-01,8.799386400000000000e+09
1.560000000000000000e+02,2.760000000000000000e+02,3.460000000000000000e+02,5.100000000000000000e+01,4.800000000000000000e+01,3.750000000000000000e+02,5.250000000000000000e+02,6.590000000000000000e+02,4.799999999999999822e-01,8.839391400000000000e+09
9.800000000000000000e+01,2.600000000000000000e+02,3.530000000000000000e+02,5.100000000000000000e+01,5.800000000000000000e+01,4.800000000000000000e+02,4.830000000000000000e+02,6.510000000000000000e+02,4.799999999999999822e-01,8.839455600000000000e+09
1.190000000000000000e+02,2.590000000000000000e+02,3.050000000000000000e+02,4.800000000000000000e+01,5.200000000000000000e+01,4.500000000000000000e+02,5.150000000000000000e+02,7.280000000000000000e+02,4.899999999999999911e-01,8.858418200000000000e+09
1.260000000000000000e+02,2.580000000000000000e+02,2.930000000000000000e+02,4.500000000000000000e+01,5.200000000000000000e+01,4.780000000000000000e+02,5.060000000000000000e+02,7.750000000000000000e+02,5.000000000000000000e-01,8.879287100000000000e+09
1.430000000000000000e+02,3.210000000000000000e+02,2.880000000000000000e+02,4.500000000000000000e+01,5.300000000000000000e+01,5.030000000000000000e+02,5.220000000000000000e+02,7.940000000000000000e+02,5.100000000000000089e-01,8.897868000000000000e+09
1.470000000000000000e+02,3.290000000000000000e+02,1.980000000000000000e+02,4.700000000000000000e+01,5.900000000000000000e+01,5.000000000000000000e+02,5.280000000000000000e+02,7.560000000000000000e+02,5.200000000000000178e-01,8.919201000000000000e+09
1.720000000000000000e+02,3.340000000000000000e+02,2.320000000000000000e+02,5.000000000000000000e+01,5.900000000000000000e+01,4.610000000000000000e+02,5.600000000000000000e+02,8.260000000000000000e+02,5.300000000000000266e-01,8.940202900000000000e+09
1.760000000000000000e+02,3.250000000000000000e+02,2.090000000000000000e+02,4.900000000000000000e+01,6.100000000000000000e+01,4.540000000000000000e+02,5.690000000000000000e+02,8.030000000000000000e+02,5.400000000000000355e-01,8.959358300000000000e+09
1.940000000000000000e+02,3.400000000000000000e+02,2.230000000000000000e+02,5.300000000000000000e+01,7.500000000000000000e+01,5.100000000000000000e+02,6.640000000000000000e+02,8.150000000000000000e+02,5.500000000000000444e-01,8.978066300000000000e+09
1.860000000000000000e+02,2.980000000000000000e+02,2.350000000000000000e+02,5.400000000000000000e+01,7.200000000000000000e+01,5.070000000000000000e+02,6.710000000000000000e+02,8.130000000000000000e+02,5.600000000000000533e-01,8.999629800000000000e+09
1.950000000000000000e+02,2.800000000000000000e+02,2.690000000000000000e+02,4.800000000000000000e+01,7.000000000000000000e+01,5.360000000000000000e+02,6.850000000000000000e+02,9.100000000000000000e+02,5.699999999999999512e-01,9.018566200000000000e+09
1.960000000000000000e+02,3.010000000000000000e+02,2.150000000000000000e+02,4.600000000000000000e+01,6.700000000000000000e+01,5.970000000000000000e+02,6.650000000000000000e+02,8.990000000000000000e+02,5.799999999999999600e-01,9.040022300000000000e+09
1.840000000000000000e+02,2.880000000000000000e+02,2.080000000000000000e+02,4.400000000000000000e+01,6.700000000000000000e+01,5.870000000000000000e+02,6.820000000000000000e+02,9.250000000000000000e+02,5.899999999999999689e-01,9.058844000000000000e+09
1.630000000000000000e+02,2.800000000000000000e+02,1.970000000000000000e+02,4.000000000000000000e+01,5.200000000000000000e+01,5.190000000000000000e+02,6.690000000000000000e+02,8.820000000000000000e+02,5.999999999999999778e-01,9.079908200000000000e+09
1.790000000000000000e+02,3.040000000000000000e+02,1.890000000000000000e+02,3.700000000000000000e+01,5.100000000000000000e+01,5.570000000000000000e+02,6.230000000000000000e+02,8.600000000000000000e+02,6.099999999999999867e-01,9.098483500000000000e+09
1.740000000000000000e+02,3.780000000000000000e+02,1.450000000000000000e+02,4.400000000000000000e+01,6.200000000000000000e+01,6.370000000000000000e+02,7.030000000000000000e+02,7.970000000000000000e+02,6.199999999999999956e-01,9.119810200000000000e+09
1.620000000000000000e+02,3.750000000000000000e+02,1.490000000000000000e+02,4.500000000000000000e+01,6.300000000000000000e+01,5.710000000000000000e+02,7.140000000000000000e+02,7.480000000000000000e+02,6.300000000000000044e-01,9.138492200000000000e+09
1.720000000000000000e+02,3.840000000000000000e+02,1.470000000000000000e+02,5.100000000000000000e+01,7.400000000000000000e+01,6.180000000000000000e+02,7.360000000000000000e+02,7.370000000000000000e+02,6.400000000000000133e-01,9.159502900000000000e+09
1.740000000000000000e+02,4.110000000000000000e+02,1.480000000000000000e+02,5.200000000000000000e+01,7.700000000000000000e+01,6.050000000000000000e+02,7.000000000000000000e+02,7.690000000000000000e+02,6.500000000000000222e-01,9.178088600000000000e+09
1.640000000000000000e+02,4.120000000000000000e+02,1.890000000000000000e+02,5.800000000000000000e+01,8.400000000000000000e+01,6.130000000000000000e+02,8.420000000000000000e+02,7.910000000000000000e+02,6.700000000000000400e-01,9.218149300000000000e+09
1.680000000000000000e+02,3.750000000000000000e+02,1.770000000000000000e+02,5.700000000000000000e+01,8.100000000000000000e+01,5.680000000000000000e+02,7.500000000000000000e+02,9.290000000000000000e+02,6.700000000000000400e-01,9.218178200000000000e+09
1.790000000000000000e+02,3.690000000000000000e+02,1.750000000000000000e+02,5.600000000000000000e+01,8.500000000000000000e+01,6.410000000000000000e+02,8.290000000000000000e+02,8.980000000000000000e+02,6.800000000000000488e-01,9.239542300000000000e+09
1.940000000000000000e+02,3.820000000000000000e+02,1.780000000000000000e+02,5.600000000000000000e+01,8.500000000000000000e+01,6.700000000000000000e+02,8.150000000000000000e+02,8.570000000000000000e+02,6.899999999999999467e-01,9.258044100000000000e+09
2.020000000000000000e+02,3.470000000000000000e+02,1.780000000000000000e+02,5.800000000000000000e+01,8.400000000000000000e+01,7.430000000000000000e+02,8.700000000000000000e+02,8.370000000000000000e+02,6.999999999999999556e-01,9.279712900000000000e+09
2.270000000000000000e+02,3.620000000000000000e+02,1.110000000000000000e+02,5.500000000000000000e+01,8.800000000000000000e+01,7.340000000000000000e+02,7.760000000000000000e+02,8.250000000000000000e+02,7.099999999999999645e-01,9.298296700000000000e+09
2.280000000000000000e+02,4.160000000000000000e+02,9.900000000000000000e+01,5.400000000000000000e+01,9.800000000000000000e+01,8.610000000000000000e+02,8.390000000000000000e+02,6.540000000000000000e+02,7.199999999999999734e-01,9.319164100000000000e+09
2.340000000000000000e+02,4.850000000000000000e+02,1.000000000000000000e+02,5.400000000000000000e+01,9.800000000000000000e+01,8.010000000000000000e+02,7.490000000000000000e+02,7.220000000000000000e+02,7.299999999999999822e-01,9.340390700000000000e+09
2.360000000000000000e+02,5.880000000000000000e+02,1.060000000000000000e+02,5.600000000000000000e+01,9.600000000000000000e+01,8.180000000000000000e+02,7.670000000000000000e+02,7.780000000000000000e+02,7.399999999999999911e-01,9.358963900000000000e+09
2.360000000000000000e+02,6.350000000000000000e+02,1.060000000000000000e+02,5.600000000000000000e+01,1.030000000000000000e+02,8.680000000000000000e+02,7.990000000000000000e+02,8.770000000000000000e+02,7.500000000000000000e-01,9.377973400000000000e+09
2.760000000000000000e+02,6.270000000000000000e+02,1.320000000000000000e+02,7.800000000000000000e+01,1.270000000000000000e+02,1.023000000000000000e+03,8.240000000000000000e+02,9.300000000000000000e+02,7.600000000000000089e-01,9.399134000000000000e+09
3.210000000000000000e+02,5.830000000000000000e+02,1.370000000000000000e+02,7.900000000000000000e+01,1.300000000000000000e+02,9.950000000000000000e+02,8.200000000000000000e+02,9.890000000000000000e+02,7.700000000000000178e-01,9.417974300000000000e+09
3.630000000000000000e+02,5.600000000000000000e+02,1.450000000000000000e+02,8.600000000000000000e+01,1.340000000000000000e+02,1.092000000000000000e+03,8.380000000000000000e+02,1.053000000000000000e+03,7.800000000000000266e-01,9.439056900000000000e+09
4.120000000000000000e+02,5.020000000000000000e+02,1.530000000000000000e+02,9.500000000000000000e+01,1.690000000000000000e+02,1.160000000000000000e+03,8.260000000000000000e+02,1.183000000000000000e+03,7.900000000000000355e-01,9.460103100000000000e+09
4.340000000000000000e+02,5.140000000000000000e+02,1.510000000000000000e+02,9.700000000000000000e+01,1.730000000000000000e+02,1.173000000000000000e+03,7.680000000000000000e+02,1.187000000000000000e+03,8.000000000000000444e-01,9.479101600000000000e+09
4.410000000000000000e+02,5.300000000000000000e+02,1.440000000000000000e+02,8.500000000000000000e+01,1.640000000000000000e+02,1.087000000000000000e+03,8.140000000000000000e+02,1.178000000000000000e+03,8.100000000000000533e-01,9.500237300000000000e+09
4.730000000000000000e+02,5.960000000000000000e+02,1.960000000000000000e+02,9.300000000000000000e+01,1.770000000000000000e+02,1.131000000000000000e+03,9.190000000000000000e+02,1.147000000000000000e+03,8.199999999999999512e-01,9.518711300000000000e+09
4.980000000000000000e+02,6.200000000000000000e+02,2.520000000000000000e+02,9.900000000000000000e+01,1.780000000000000000e+02,1.219000000000000000e+03,1.011000000000000000e+03,1.125000000000000000e+03,8.299999999999999600e-01,9.540118500000000000e+09
4.700000000000000000e+02,6.120000000000000000e+02,2.670000000000000000e+02,9.300000000000000000e+01,1.550000000000000000e+02,1.198000000000000000e+03,1.025000000000000000e+03,1.040000000000000000e+03,8.399999999999999689e-01,9.558701200000000000e+09
4.750000000000000000e+02,5.840000000000000000e+02,2.900000000000000000e+02,9.400000000000000000e+01,1.670000000000000000e+02,1.221000000000000000e+03,1.095000000000000000e+03,1.031000000000000000e+03,8.499999999999999778e-01,9.580059600000000000e+09
