6.400000000000000000e+01,2.070000000000000000e+02,6.990000000000000000e+02,8.900000000000000000e+01,3.600000000000000000e+01,1.890000000000000000e+02,1.510000000000000000e+02,3.210000000000000000e+02,2.999999999999999889e-02,2.043720000000000000e+07
6.300000000000000000e+01,2.040000000000000000e+02,7.540000000000000000e+02,9.200000000000000000e+01,3.300000000000000000e+01,1.560000000000000000e+02,1.350000000000000000e+02,3.110000000000000000e+02,4.000000000000000083e-02,3.272438000000000000e+08
5.000000000000000000e+01,2.070000000000000000e+02,8.000000000000000000e+02,9.100000000000000000e+01,3.300000000000000000e+01,1.500000000000000000e+02,7.700000000000000000e+01,1.830000000000000000e+02,4.000000000000000083e-02,3.272566000000000000e+08
5.300000000000000000e+01,2.370000000000000000e+02,8.120000000000000000e+02,9.500000000000000000e+01,3.600000000000000000e+01,1.530000000000000000e+02,6.800000000000000000e+01,2.160000000000000000e+02,4.000000000000000083e-02,3.272643000000000000e+08
6.300000000000000000e+01,2.620000000000000000e+02,7.720000000000000000e+02,9.100000000000000000e+01,3.700000000000000000e+01,1.520000000000000000e+02,6.000000000000000000e+01,2.170000000000000000e+02,4.000000000000000083e-02,3.272718000000000000e+08
6.900000000000000000e+01,2.920000000000000000e+02,7.470000000000000000e+02,9.000000000000000000e+01,3.700000000000000000e+01,1.510000000000000000e+02,5.700000000000000000e+01,2.160000000000000000e+02,4.000000000000000083e-02,3.272788000000000000e+08
7.300000000000000000e+01,3.080000000000000000e+02,7.560000000000000000e+02,9.400000000000000000e+01,3.700000000000000000e+01,1.200000000000000000e+02,5.400000000000000000e+01,1.940000000000000000e+02,4.000000000000000083e-02,3.272859000000000000e+08
6.700000000000000000e+01,3.020000000000000000e+02,6.930000000000000000e+02,8.800000000000000000e+01,3.600000000000000000e+01,9.800000000000000000e+01,6.000000000000000000e+01,1.790000000000000000e+02,4.000000000000000083e-02,3.272931000000000000e+08
7.300000000000000000e+01,2.880000000000000000e+02,6.230000000000000000e+02,9.000000000000000000e+01,3.600000000000000000e+01,1.110000000000000000e+02,6.100000000000000000e+01,1.330000000000000000e+02,4.000000000000000083e-02,3.273001000000000000e+08
6.800000000000000000e+01,2.620000000000000000e+02,7.220000000000000000e+02,9.100000000000000000e+01,3.400000000000000000e+01,1.140000000000000000e+02,6.100000000000000000e+01,1.510000000000000000e+02,4.000000000000000083e-02,3.273110000000000000e+08
6.700000000000000000e+01,2.370000000000000000e+02,7.350000000000000000e+02,9.200000000000000000e+01,3.500000000000000000e+01,1.150000000000000000e+02,6.100000000000000000e+01,1.490000000000000000e+02,4.000000000000000083e-02,3.273181000000000000e+08
6.300000000000000000e+01,2.130000000000000000e+02,7.160000000000000000e+02,8.500000000000000000e+01,3.300000000000000000e+01,9.900000000000000000e+01,4.800000000000000000e+01,1.510000000000000000e+02,4.000000000000000083e-02,3.273254000000000000e+08
6.500000000000000000e+01,1.980000000000000000e+02,7.240000000000000000e+02,8.100000000000000000e+01,3.100000000000000000e+01,1.070000000000000000e+02,5.200000000000000000e+01,1.540000000000000000e+02,4.000000000000000083e-02,3.273408000000000000e+08
7.200000000000000000e+01,2.090000000000000000e+02,8.000000000000000000e+02,1.020000000000000000e+02,3.600000000000000000e+01,8.700000000000000000e+01,5.400000000000000000e+01,1.460000000000000000e+02,4.000000000000000083e-02,3.273478000000000000e+08
7.100000000000000000e+01,2.500000000000000000e+02,7.470000000000000000e+02,9.800000000000000000e+01,3.800000000000000000e+01,8.400000000000000000e+01,5.500000000000000000e+01,1.150000000000000000e+02,4.000000000000000083e-02,3.273545000000000000e+08
7.000000000000000000e+01,2.470000000000000000e+02,7.830000000000000000e+02,1.070000000000000000e+02,3.800000000000000000e+01,8.100000000000000000e+01,5.700000000000000000e+01,1.090000000000000000e+02,4.000000000000000083e-02,3.273612000000000000e+08
9.500000000000000000e+01,2.930000000000000000e+02,8.600000000000000000e+02,1.640000000000000000e+02,6.100000000000000000e+01,8.000000000000000000e+01,6.200000000000000000e+01,1.000000000000000000e+02,1.900000000000000022e-01,3.469727000000000000e+08
9.700000000000000000e+01,3.060000000000000000e+02,8.520000000000000000e+02,1.690000000000000000e+02,6.200000000000000000e+01,8.100000000000000000e+01,1.000000000000000000e+02,1.710000000000000000e+02,2.000000000000000111e-01,3.625059000000000000e+08
9.400000000000000000e+01,3.040000000000000000e+02,8.540000000000000000e+02,1.570000000000000000e+02,6.200000000000000000e+01,1.100000000000000000e+02,1.090000000000000000e+02,2.450000000000000000e+02,2.099999999999999922e-01,3.830378000000000000e+08
9.600000000000000000e+01,2.780000000000000000e+02,8.620000000000000000e+02,1.670000000000000000e+02,6.300000000000000000e+01,1.120000000000000000e+02,1.100000000000000000e+02,2.470000000000000000e+02,2.200000000000000011e-01,4.053856000000000000e+08
1.010000000000000000e+02,3.330000000000000000e+02,8.400000000000000000e+02,1.730000000000000000e+02,6.700000000000000000e+01,1.140000000000000000e+02,1.100000000000000000e+02,2.510000000000000000e+02,2.300000000000000100e-01,4.269955000000000000e+08
9.000000000000000000e+01,3.040000000000000000e+02,7.460000000000000000e+02,1.360000000000000000e+02,5.500000000000000000e+01,1.290000000000000000e+02,1.090000000000000000e+02,2.590000000000000000e+02,2.399999999999999911e-01,4.417460000000000000e+08
8.900000000000000000e+01,3.010000000000000000e+02,7.060000000000000000e+02,1.270000000000000000e+02,5.200000000000000000e+01,1.460000000000000000e+02,6.900000000000000000e+01,2.170000000000000000e+02,2.500000000000000000e-01,4.634123000000000000e+08
8.400000000000000000e+01,3.120000000000000000e+02,7.180000000000000000e+02,1.280000000000000000e+02,5.100000000000000000e+01,1.640000000000000000e+02,1.050000000000000000e+02,2.670000000000000000e+02,2.600000000000000089e-01,4.854197000000000000e+08
1.010000000000000000e+02,3.930000000000000000e+02,7.420000000000000000e+02,1.230000000000000000e+02,5.300000000000000000e+01,2.050000000000000000e+02,1.290000000000000000e+02,3.160000000000000000e+02,2.700000000000000178e-01,5.083796000000000000e+08
1.020000000000000000e+02,4.440000000000000000e+02,7.910000000000000000e+02,1.190000000000000000e+02,5.100000000000000000e+01,2.150000000000000000e+02,1.300000000000000000e+02,3.240000000000000000e+02,2.899999999999999800e-01,5.424417000000000000e+08
9.700000000000000000e+01,4.570000000000000000e+02,7.820000000000000000e+02,1.030000000000000000e+02,4.900000000000000000e+01,2.290000000000000000e+02,1.330000000000000000e+02,3.520000000000000000e+02,2.899999999999999800e-01,5.424548000000000000e+08
9.500000000000000000e+01,4.700000000000000000e+02,7.770000000000000000e+02,1.040000000000000000e+02,4.900000000000000000e+01,2.670000000000000000e+02,2.620000000000000000e+02,4.550000000000000000e+02,3.099999999999999978e-01,5.816445000000000000e+08
9.500000000000000000e+01,4.570000000000000000e+02,7.440000000000000000e+02,9.700000000000000000e+01,5.800000000000000000e+01,4.010000000000000000e+02,4.200000000000000000e+02,4.880000000000000000e+02,3.200000000000000067e-01,6.017729000000000000e+08
8.100000000000000000e+01,3.780000000000000000e+02,6.410000000000000000e+02,8.200000000000000000e+01,6.000000000000000000e+01,4.720000000000000000e+02,5.400000000000000000e+02,5.330000000000000000e+02,3.200000000000000067e-01,6.017850000000000000e+08
8.600000000000000000e+01,2.720000000000000000e+02,5.420000000000000000e+02,7.100000000000000000e+01,6.900000000000000000e+01,4.960000000000000000e+02,6.390000000000000000e+02,5.690000000000000000e+02,3.300000000000000155e-01,6.216426000000000000e+08
1.020000000000000000e+02,2.490000000000000000e+02,5.380000000000000000e+02,7.100000000000000000e+01,7.100000000000000000e+01,5.550000000000000000e+02,7.840000000000000000e+02,7.420000000000000000e+02,3.499999999999999778e-01,6.626909000000000000e+08
1.240000000000000000e+02,2.530000000000000000e+02,5.400000000000000000e+02,8.000000000000000000e+01,1.000000000000000000e+02,7.720000000000000000e+02,1.022000000000000000e+03,7.970000000000000000e+02,3.499999999999999778e-01,6.627022000000000000e+08
1.650000000000000000e+02,3.490000000000000000e+02,5.810000000000000000e+02,1.150000000000000000e+02,1.000000000000000000e+02,7.290000000000000000e+02,1.026000000000000000e+03,8.120000000000000000e+02,3.599999999999999867e-01,6.815239000000000000e+08
1.810000000000000000e+02,3.600000000000000000e+02,6.700000000000000000e+02,1.280000000000000000e+02,1.010000000000000000e+02,6.770000000000000000e+02,1.067000000000000000e+03,8.840000000000000000e+02,3.699999999999999956e-01,7.027540000000000000e+08
1.800000000000000000e+02,3.850000000000000000e+02,7.510000000000000000e+02,1.300000000000000000e+02,1.000000000000000000e+02,6.860000000000000000e+02,1.057000000000000000e+03,9.020000000000000000e+02,3.800000000000000044e-01,7.216068000000000000e+08
1.770000000000000000e+02,4.160000000000000000e+02,8.540000000000000000e+02,1.540000000000000000e+02,1.120000000000000000e+02,6.680000000000000000e+02,1.089000000000000000e+03,8.510000000000000000e+02,3.900000000000000133e-01,7.409440000000000000e+08
1.680000000000000000e+02,4.110000000000000000e+02,8.790000000000000000e+02,1.590000000000000000e+02,9.000000000000000000e+01,4.290000000000000000e+02,8.730000000000000000e+02,7.710000000000000000e+02,4.000000000000000222e-01,7.622122000000000000e+08
1.410000000000000000e+02,3.450000000000000000e+02,8.410000000000000000e+02,1.400000000000000000e+02,8.900000000000000000e+01,4.340000000000000000e+02,9.420000000000000000e+02,8.610000000000000000e+02,4.099999999999999756e-01,7.811553000000000000e+08
1.210000000000000000e+02,3.290000000000000000e+02,7.770000000000000000e+02,1.300000000000000000e+02,8.500000000000000000e+01,4.670000000000000000e+02,8.720000000000000000e+02,8.610000000000000000e+02,4.199999999999999845e-01,8.026800000000000000e+08
1.330000000000000000e+02,3.340000000000000000e+02,6.960000000000000000e+02,1.230000000000000000e+02,8.000000000000000000e+01,4.800000000000000000e+02,8.440000000000000000e+02,9.110000000000000000e+02,4.400000000000000022e-01,8.426478000000000000e+08
1.310000000000000000e+02,3.480000000000000000e+02,5.680000000000000000e+02,9.400000000000000000e+01,6.600000000000000000e+01,4.670000000000000000e+02,7.260000000000000000e+02,8.610000000000000000e+02,4.400000000000000022e-01,8.426595000000000000e+08
1.410000000000000000e+02,3.310000000000000000e+02,5.330000000000000000e+02,7.400000000000000000e+01,6.300000000000000000e+01,4.260000000000000000e+02,7.700000000000000000e+02,8.940000000000000000e+02,4.500000000000000111e-01,8.617920000000000000e+08
1.370000000000000000e+02,3.200000000000000000e+02,5.180000000000000000e+02,6.000000000000000000e+01,5.700000000000000000e+01,4.040000000000000000e+02,7.070000000000000000e+02,8.640000000000000000e+02,4.699999999999999734e-01,9.026582000000000000e+08
1.340000000000000000e+02,3.400000000000000000e+02,5.200000000000000000e+02,6.000000000000000000e+01,5.900000000000000000e+01,3.980000000000000000e+02,7.560000000000000000e+02,8.170000000000000000e+02,4.699999999999999734e-01,9.026724000000000000e+08
1.290000000000000000e+02,3.440000000000000000e+02,4.990000000000000000e+02,5.400000000000000000e+01,6.600000000000000000e+01,4.710000000000000000e+02,8.820000000000000000e+02,7.730000000000000000e+02,4.799999999999999822e-01,9.209189000000000000e+08
1.330000000000000000e+02,3.130000000000000000e+02,4.860000000000000000e+02,4.800000000000000000e+01,6.100000000000000000e+01,5.450000000000000000e+02,9.480000000000000000e+02,8.170000000000000000e+02,5.000000000000000000e-01,9.623970000000000000e+08
1.270000000000000000e+02,3.310000000000000000e+02,5.340000000000000000e+02,8.600000000000000000e+01,7.400000000000000000e+01,5.980000000000000000e+02,9.780000000000000000e+02,8.280000000000000000e+02,5.000000000000000000e-01,9.624148000000000000e+08
1.520000000000000000e+02,3.780000000000000000e+02,5.580000000000000000e+02,9.700000000000000000e+01,7.500000000000000000e+01,6.340000000000000000e+02,9.480000000000000000e+02,8.220000000000000000e+02,5.200000000000000178e-01,1.002642600000000000e+09
1.630000000000000000e+02,3.560000000000000000e+02,5.410000000000000000e+02,9.800000000000000000e+01,8.400000000000000000e+01,6.550000000000000000e+02,9.890000000000000000e+02,8.850000000000000000e+02,5.200000000000000178e-01,1.002654800000000000e+09
1.700000000000000000e+02,3.500000000000000000e+02,5.460000000000000000e+02,1.010000000000000000e+02,8.800000000000000000e+01,7.020000000000000000e+02,9.910000000000000000e+02,9.090000000000000000e+02,5.300000000000000266e-01,1.021675700000000000e+09
2.100000000000000000e+02,4.070000000000000000e+02,5.470000000000000000e+02,1.070000000000000000e+02,1.070000000000000000e+02,7.570000000000000000e+02,1.033000000000000000e+03,9.300000000000000000e+02,5.400000000000000355e-01,1.042448300000000000e+09
2.090000000000000000e+02,4.190000000000000000e+02,5.680000000000000000e+02,8.700000000000000000e+01,1.080000000000000000e+02,7.750000000000000000e+02,1.043000000000000000e+03,9.480000000000000000e+02,5.600000000000000533e-01,1.081450600000000000e+09
1.920000000000000000e+02,3.730000000000000000e+02,5.890000000000000000e+02,8.400000000000000000e+01,1.150000000000000000e+02,8.260000000000000000e+02,1.073000000000000000e+03,9.440000000000000000e+02,5.699999999999999512e-01,1.102152400000000000e+09
1.960000000000000000e+02,3.860000000000000000e+02,6.420000000000000000e+02,8.700000000000000000e+01,1.170000000000000000e+02,8.200000000000000000e+02,1.023000000000000000e+03,9.050000000000000000e+02,5.799999999999999600e-01,1.120946000000000000e+09
1.950000000000000000e+02,3.570000000000000000e+02,6.380000000000000000e+02,8.600000000000000000e+01,1.090000000000000000e+02,7.580000000000000000e+02,1.002000000000000000e+03,8.900000000000000000e+02,5.899999999999999689e-01,1.142262200000000000e+09
1.840000000000000000e+02,2.820000000000000000e+02,6.450000000000000000e+02,9.000000000000000000e+01,1.020000000000000000e+02,7.360000000000000000e+02,9.980000000000000000e+02,9.100000000000000000e+02,5.899999999999999689e-01,1.142274100000000000e+09
2.010000000000000000e+02,3.260000000000000000e+02,5.550000000000000000e+02,9.000000000000000000e+01,9.900000000000000000e+01,7.180000000000000000e+02,9.870000000000000000e+02,9.200000000000000000e+02,5.999999999999999778e-01,1.161035700000000000e+09
2.400000000000000000e+02,3.420000000000000000e+02,5.360000000000000000e+02,9.100000000000000000e+01,8.800000000000000000e+01,6.500000000000000000e+02,9.930000000000000000e+02,9.400000000000000000e+02,6.199999999999999956e-01,1.202729800000000000e+09
2.540000000000000000e+02,3.610000000000000000e+02,4.940000000000000000e+02,8.900000000000000000e+01,8.200000000000000000e+01,6.830000000000000000e+02,1.026000000000000000e+03,9.300000000000000000e+02,6.300000000000000044e-01,1.221036100000000000e+09
2.680000000000000000e+02,3.600000000000000000e+02,5.340000000000000000e+02,8.700000000000000000e+01,8.600000000000000000e+01,7.130000000000000000e+02,1.044000000000000000e+03,9.300000000000000000e+02,6.300000000000000044e-01,1.221053300000000000e+09
2.560000000000000000e+02,3.780000000000000000e+02,4.980000000000000000e+02,7.600000000000000000e+01,7.700000000000000000e+01,6.830000000000000000e+02,1.046000000000000000e+03,9.550000000000000000e+02,6.400000000000000133e-01,1.242542200000000000e+09
2.550000000000000000e+02,3.770000000000000000e+02,5.190000000000000000e+02,7.700000000000000000e+01,7.400000000000000000e+01,7.040000000000000000e+02,1.018000000000000000e+03,9.590000000000000000e+02,6.600000000000000311e-01,1.280677400000000000e+09
2.330000000000000000e+02,3.860000000000000000e+02,4.460000000000000000e+02,7.300000000000000000e+01,8.300000000000000000e+01,7.640000000000000000e+02,9.900000000000000000e+02,9.000000000000000000e+02,6.600000000000000311e-01,1.280688200000000000e+09
2.320000000000000000e+02,4.000000000000000000e+02,5.910000000000000000e+02,8.800000000000000000e+01,9.300000000000000000e+01,8.180000000000000000e+02,1.055000000000000000e+03,9.030000000000000000e+02,6.800000000000000488e-01,1.320617900000000000e+09
2.320000000000000000e+02,4.380000000000000000e+02,5.550000000000000000e+02,9.100000000000000000e+01,9.600000000000000000e+01,8.060000000000000000e+02,1.017000000000000000e+03,9.190000000000000000e+02,6.899999999999999467e-01,1.342181700000000000e+09
2.330000000000000000e+02,4.120000000000000000e+02,5.610000000000000000e+02,9.200000000000000000e+01,1.040000000000000000e+02,8.470000000000000000e+02,9.630000000000000000e+02,8.990000000000000000e+02,6.899999999999999467e-01,1.342194600000000000e+09
2.270000000000000000e+02,3.830000000000000000e+02,5.950000000000000000e+02,8.900000000000000000e+01,1.060000000000000000e+02,8.260000000000000000e+02,9.790000000000000000e+02,8.760000000000000000e+02,7.099999999999999645e-01,1.382607300000000000e+09
2.390000000000000000e+02,4.020000000000000000e+02,6.090000000000000000e+02,9.200000000000000000e+01,1.150000000000000000e+02,8.150000000000000000e+02,1.014000000000000000e+03,8.770000000000000000e+02,7.199999999999999734e-01,1.401137400000000000e+09
2.250000000000000000e+02,4.350000000000000000e+02,5.040000000000000000e+02,7.900000000000000000e+01,1.110000000000000000e+02,8.630000000000000000e+02,9.100000000000000000e+02,8.970000000000000000e+02,7.199999999999999734e-01,1.401148500000000000e+09
2.080000000000000000e+02,4.380000000000000000e+02,5.650000000000000000e+02,9.800000000000000000e+01,1.120000000000000000e+02,8.910000000000000000e+02,9.170000000000000000e+02,9.270000000000000000e+02,7.399999999999999911e-01,1.441696600000000000e+09
2.120000000000000000e+02,4.510000000000000000e+02,5.870000000000000000e+02,1.090000000000000000e+02,1.190000000000000000e+02,8.430000000000000000e+02,9.420000000000000000e+02,1.053000000000000000e+03,7.500000000000000000e-01,1.463026300000000000e+09
2.280000000000000000e+02,4.990000000000000000e+02,5.160000000000000000e+02,1.090000000000000000e+02,1.240000000000000000e+02,8.750000000000000000e+02,9.440000000000000000e+02,1.071000000000000000e+03,7.600000000000000089e-01,1.481457500000000000e+09
2.260000000000000000e+02,4.920000000000000000e+02,4.650000000000000000e+02,1.050000000000000000e+02,1.240000000000000000e+02,9.630000000000000000e+02,8.990000000000000000e+02,1.177000000000000000e+03,7.600000000000000089e-01,1.481470500000000000e+09
2.390000000000000000e+02,4.610000000000000000e+02,4.100000000000000000e+02,1.060000000000000000e+02,1.310000000000000000e+02,9.560000000000000000e+02,9.360000000000000000e+02,1.166000000000000000e+03,7.800000000000000266e-01,1.521828300000000000e+09
2.440000000000000000e+02,4.980000000000000000e+02,4.410000000000000000e+02,9.100000000000000000e+01,1.280000000000000000e+02,9.280000000000000000e+02,9.860000000000000000e+02,1.142000000000000000e+03,7.800000000000000266e-01,1.521839800000000000e+09
2.870000000000000000e+02,5.240000000000000000e+02,4.340000000000000000e+02,8.300000000000000000e+01,1.260000000000000000e+02,1.003000000000000000e+03,9.790000000000000000e+02,1.036000000000000000e+03,8.000000000000000444e-01,1.561870900000000000e+09
3.000000000000000000e+02,5.070000000000000000e+02,4.510000000000000000e+02,8.900000000000000000e+01,1.270000000000000000e+02,1.034000000000000000e+03,1.005000000000000000e+03,1.013000000000000000e+03,8.100000000000000533e-01,1.582787000000000000e+09
3.290000000000000000e+02,5.240000000000000000e+02,4.710000000000000000e+02,9.000000000000000000e+01,1.300000000000000000e+02,1.038000000000000000e+03,1.046000000000000000e+03,9.060000000000000000e+02,8.100000000000000533e-01,1.582799400000000000e+09
3.660000000000000000e+02,5.770000000000000000e+02,4.630000000000000000e+02,9.200000000000000000e+01,1.660000000000000000e+02,1.151000000000000000e+03,1.018000000000000000e+03,9.800000000000000000e+02,8.199999999999999512e-01,1.601308900000000000e+09
3.770000000000000000e+02,5.580000000000000000e+02,3.730000000000000000e+02,9.600000000000000000e+01,1.800000000000000000e+02,1.234000000000000000e+03,9.730000000000000000e+02,1.030000000000000000e+03,8.399999999999999689e-01,1.640825400000000000e+09
3.970000000000000000e+02,5.670000000000000000e+02,4.060000000000000000e+02,9.200000000000000000e+01,1.840000000000000000e+02,1.242000000000000000e+03,1.051000000000000000e+03,9.640000000000000000e+02,8.499999999999999778e-01,1.662514700000000000e+09
4.090000000000000000e+02,6.390000000000000000e+02,4.700000000000000000e+02,8.800000000000000000e+01,1.850000000000000000e+02,1.255000000000000000e+03,1.068000000000000000e+03,9.760000000000000000e+02,8.499999999999999778e-01,1.662527000000000000e+09
4.390000000000000000e+02,6.860000000000000000e+02,4.640000000000000000e+02,9.000000000000000000e+01,1.910000000000000000e+02,1.252000000000000000e+03,1.083000000000000000e+03,9.970000000000000000e+02,8.699999999999999956e-01,1.702277700000000000e+09
4.330000000000000000e+02,7.570000000000000000e+02,5.440000000000000000e+02,1.080000000000000000e+02,1.820000000000000000e+02,1.196000000000000000e+03,1.225000000000000000e+03,9.580000000000000000e+02,8.800000000000000044e-01,1.721479600000000000e+09
4.690000000000000000e+02,7.950000000000000000e+02,6.450000000000000000e+02,1.260000000000000000e+02,2.120000000000000000e+02,1.183000000000000000e+03,1.272000000000000000e+03,9.650000000000000000e+02,8.900000000000000133e-01,1.742752300000000000e+09
4.440000000000000000e+02,7.930000000000000000e+02,6.020000000000000000e+02,1.280000000000000000e+02,2.100000000000000000e+02,1.185000000000000000e+03,1.242000000000000000e+03,9.970000000000000000e+02,9.000000000000000222e-01,1.761479500000000000e+09
4.870000000000000000e+02,7.310000000000000000e+02,5.700000000000000000e+02,1.530000000000000000e+02,2.380000000000000000e+02,1.271000000000000000e+03,1.256000000000000000e+03,1.033000000000000000e+03,9.000000000000000222e-01,1.761497200000000000e+09
4.780000000000000000e+02,7.400000000000000000e+02,6.100000000000000000e+02,1.600000000000000000e+02,2.470000000000000000e+02,1.333000000000000000e+03,1.242000000000000000e+03,1.051000000000000000e+03,9.100000000000000311e-01,1.782698000000000000e+09
4.740000000000000000e+02,6.890000000000000000e+02,5.540000000000000000e+02,1.500000000000000000e+02,2.720000000000000000e+02,1.405000000000000000e+03,1.168000000000000000e+03,1.062000000000000000e+03,9.300000000000000488e-01,1.822516800000000000e+09
4.680000000000000000e+02,6.940000000000000000e+02,4.010000000000000000e+02,1.450000000000000000e+02,2.670000000000000000e+02,1.426000000000000000e+03,1.106000000000000000e+03,1.006000000000000000e+03,9.300000000000000488e-01,1.822528500000000000e+09
5.090000000000000000e+02,7.280000000000000000e+02,4.030000000000000000e+02,1.570000000000000000e+02,3.040000000000000000e+02,1.504000000000000000e+03,1.111000000000000000e+03,1.090000000000000000e+03,9.399999999999999467e-01,1.841470300000000000e+09
5.010000000000000000e+02,8.120000000000000000e+02,3.860000000000000000e+02,1.550000000000000000e+02,3.220000000000000000e+02,1.443000000000000000e+03,1.037000000000000000e+03,1.092000000000000000e+03,9.599999999999999645e-01,1.881191300000000000e+09
4.900000000000000000e+02,8.360000000000000000e+02,3.640000000000000000e+02,1.580000000000000000e+02,3.420000000000000000e+02,1.454000000000000000e+03,1.086000000000000000e+03,1.129000000000000000e+03,9.599999999999999645e-01,1.881204600000000000e+09
4.910000000000000000e+02,8.210000000000000000e+02,4.240000000000000000e+02,1.580000000000000000e+02,3.230000000000000000e+02,1.356000000000000000e+03,1.002000000000000000e+03,1.074000000000000000e+03,9.699999999999999734e-01,1.902244500000000000e+09
5.620000000000000000e+02,9.290000000000000000e+02,4.630000000000000000e+02,1.690000000000000000e+02,3.260000000000000000e+02,1.450000000000000000e+03,9.920000000000000000e+02,1.122000000000000000e+03,9.899999999999999911e-01,1.942702500000000000e+09
5.550000000000000000e+02,9.310000000000000000e+02,5.060000000000000000e+02,1.600000000000000000e+02,3.050000000000000000e+02,1.466000000000000000e+03,1.077000000000000000e+03,1.065000000000000000e+03,9.899999999999999911e-01,1.942714700000000000e+09
6.270000000000000000e+02,1.012000000000000000e+03,5.910000000000000000e+02,1.600000000000000000e+02,2.900000000000000000e+02,1.521000000000000000e+03,1.131000000000000000e+03,1.146000000000000000e+03,9.699999999999999734e-01,1.982500000000000000e+09
6.060000000000000000e+02,9.880000000000000000e+02,5.690000000000000000e+02,1.500000000000000000e+02,2.780000000000000000e+02,1.499000000000000000e+03,1.089000000000000000e+03,1.089000000000000000e+03,9.599999999999999645e-01,2.001647700000000000e+09
5.930000000000000000e+02,9.660000000000000000e+02,5.160000000000000000e+02,1.450000000000000000e+02,2.620000000000000000e+02,1.533000000000000000e+03,1.107000000000000000e+03,1.085000000000000000e+03,9.599999999999999645e-01,2.001659700000000000e+09
5.010000000000000000e+02,8.300000000000000000e+02,5.300000000000000000e+02,1.280000000000000000e+02,2.300000000000000000e+02,1.427000000000000000e+03,1.077000000000000000e+03,1.023000000000000000e+03,9.399999999999999467e-01,2.040951700000000000e+09
4.440000000000000000e+02,7.760000000000000000e+02,7.510000000000000000e+02,1.370000000000000000e+02,2.040000000000000000e+02,1.237000000000000000e+03,8.460000000000000000e+02,9.140000000000000000e+02,9.300000000000000488e-01,2.062471900000000000e+09
2.450000000000000000e+02,5.310000000000000000e+02,6.960000000000000000e+02,1.220000000000000000e+02,1.590000000000000000e+02,1.156000000000000000e+03,7.750000000000000000e+02,7.250000000000000000e+02,9.300000000000000488e-01,2.062484800000000000e+09
2.380000000000000000e+02,4.400000000000000000e+02,6.970000000000000000e+02,1.150000000000000000e+02,9.700000000000000000e+01,1.037000000000000000e+03,6.640000000000000000e+02,6.440000000000000000e+02,9.100000000000000311e-01,2.102624200000000000e+09
2.320000000000000000e+02,4.340000000000000000e+02,7.430000000000000000e+02,1.160000000000000000e+02,8.600000000000000000e+01,9.090000000000000000e+02,5.750000000000000000e+02,6.290000000000000000e+02,9.000000000000000222e-01,2.121521200000000000e+09
2.000000000000000000e+02,3.550000000000000000e+02,7.190000000000000000e+02,1.060000000000000000e+02,7.600000000000000000e+01,8.490000000000000000e+02,5.030000000000000000e+02,5.500000000000000000e+02,9.000000000000000222e-01,2.121533700000000000e+09
1.980000000000000000e+02,3.530000000000000000e+02,4.760000000000000000e+02,1.330000000000000000e+02,7.400000000000000000e+01,8.360000000000000000e+02,4.670000000000000000e+02,5.400000000000000000e+02,8.800000000000000044e-01,2.162034900000000000e+09
1.750000000000000000e+02,3.590000000000000000e+02,5.440000000000000000e+02,1.470000000000000000e+02,6.400000000000000000e+01,8.340000000000000000e+02,3.150000000000000000e+02,4.560000000000000000e+02,8.699999999999999956e-01,2.180442600000000000e+09
1.820000000000000000e+02,3.240000000000000000e+02,6.110000000000000000e+02,1.540000000000000000e+02,6.900000000000000000e+01,9.530000000000000000e+02,2.870000000000000000e+02,3.750000000000000000e+02,8.699999999999999956e-01,2.180453900000000000e+09
1.660000000000000000e+02,2.860000000000000000e+02,6.500000000000000000e+02,1.610000000000000000e+02,6.300000000000000000e+01,1.057000000000000000e+03,2.180000000000000000e+02,2.230000000000000000e+02,8.499999999999999778e-01,2.222883800000000000e+09
1.720000000000000000e+02,3.180000000000000000e+02,6.530000000000000000e+02,1.730000000000000000e+02,6.100000000000000000e+01,9.930000000000000000e+02,1.920000000000000000e+02,1.700000000000000000e+02,8.399999999999999689e-01,2.241533700000000000e+09
1.840000000000000000e+02,3.140000000000000000e+02,7.950000000000000000e+02,1.580000000000000000e+02,6.200000000000000000e+01,1.111000000000000000e+03,1.810000000000000000e+02,1.360000000000000000e+02,8.299999999999999600e-01,2.261048100000000000e+09
1.910000000000000000e+02,3.820000000000000000e+02,8.930000000000000000e+02,1.470000000000000000e+02,6.800000000000000000e+01,1.077000000000000000e+03,1.700000000000000000e+02,1.080000000000000000e+02,8.199999999999999512e-01,2.282555700000000000e+09
1.620000000000000000e+02,3.820000000000000000e+02,9.160000000000000000e+02,1.430000000000000000e+02,5.600000000000000000e+01,9.540000000000000000e+02,1.020000000000000000e+02,8.500000000000000000e+01,8.100000000000000533e-01,2.300786200000000000e+09
1.990000000000000000e+02,3.620000000000000000e+02,1.066000000000000000e+03,1.530000000000000000e+02,5.900000000000000000e+01,1.139000000000000000e+03,8.100000000000000000e+01,6.400000000000000000e+01,8.100000000000000533e-01,2.300797400000000000e+09
2.000000000000000000e+02,3.620000000000000000e+02,1.145000000000000000e+03,1.410000000000000000e+02,6.100000000000000000e+01,1.151000000000000000e+03,7.700000000000000000e+01,6.200000000000000000e+01,7.900000000000000355e-01,2.342347700000000000e+09
1.940000000000000000e+02,3.890000000000000000e+02,1.164000000000000000e+03,1.300000000000000000e+02,5.600000000000000000e+01,1.034000000000000000e+03,6.800000000000000000e+01,5.400000000000000000e+01,7.800000000000000266e-01,2.360857400000000000e+09
1.920000000000000000e+02,3.450000000000000000e+02,1.146000000000000000e+03,1.250000000000000000e+02,4.500000000000000000e+01,9.740000000000000000e+02,6.200000000000000000e+01,4.300000000000000000e+01,7.700000000000000178e-01,2.382500800000000000e+09
1.980000000000000000e+02,3.790000000000000000e+02,1.216000000000000000e+03,1.330000000000000000e+02,4.800000000000000000e+01,9.390000000000000000e+02,8.200000000000000000e+01,4.600000000000000000e+01,7.700000000000000178e-01,2.382512600000000000e+09
1.960000000000000000e+02,4.060000000000000000e+02,1.110000000000000000e+03,1.180000000000000000e+02,4.800000000000000000e+01,4.290000000000000000e+02,9.400000000000000000e+01,4.400000000000000000e+01,7.500000000000000000e-01,2.422400300000000000e+09
1.890000000000000000e+02,4.320000000000000000e+02,1.185000000000000000e+03,1.200000000000000000e+02,5.200000000000000000e+01,3.630000000000000000e+02,9.400000000000000000e+01,4.400000000000000000e+01,7.399999999999999911e-01,2.440993900000000000e+09
1.860000000000000000e+02,4.350000000000000000e+02,1.164000000000000000e+03,1.430000000000000000e+02,5.900000000000000000e+01,3.900000000000000000e+02,9.400000000000000000e+01,4.600000000000000000e+01,7.399999999999999911e-01,2.441041200000000000e+09
1.910000000000000000e+02,4.250000000000000000e+02,1.137000000000000000e+03,1.590000000000000000e+02,6.500000000000000000e+01,3.600000000000000000e+02,9.600000000000000000e+01,5.000000000000000000e+01,7.199999999999999734e-01,2.480856400000000000e+09
1.860000000000000000e+02,4.130000000000000000e+02,1.130000000000000000e+03,1.690000000000000000e+02,6.900000000000000000e+01,2.920000000000000000e+02,7.700000000000000000e+01,5.100000000000000000e+01,7.099999999999999645e-01,2.502634800000000000e+09
1.570000000000000000e+02,4.020000000000000000e+02,1.147000000000000000e+03,1.650000000000000000e+02,7.400000000000000000e+01,3.920000000000000000e+02,1.280000000000000000e+02,7.300000000000000000e+01,7.099999999999999645e-01,2.502646500000000000e+09
1.910000000000000000e+02,3.520000000000000000e+02,1.023000000000000000e+03,1.660000000000000000e+02,7.100000000000000000e+01,3.970000000000000000e+02,1.340000000000000000e+02,7.600000000000000000e+01,6.899999999999999467e-01,2.542025000000000000e+09
1.810000000000000000e+02,3.090000000000000000e+02,9.050000000000000000e+02,1.420000000000000000e+02,6.400000000000000000e+01,3.570000000000000000e+02,1.360000000000000000e+02,7.700000000000000000e+01,6.800000000000000488e-01,2.560517600000000000e+09
1.750000000000000000e+02,2.970000000000000000e+02,8.460000000000000000e+02,1.220000000000000000e+02,6.100000000000000000e+01,3.610000000000000000e+02,1.350000000000000000e+02,8.200000000000000000e+01,6.700000000000000400e-01,2.581624000000000000e+09
1.780000000000000000e+02,2.880000000000000000e+02,8.150000000000000000e+02,1.150000000000000000e+02,5.700000000000000000e+01,3.670000000000000000e+02,1.340000000000000000e+02,8.200000000000000000e+01,6.600000000000000311e-01,2.602624700000000000e+09
1.700000000000000000e+02,3.050000000000000000e+02,7.180000000000000000e+02,1.190000000000000000e+02,4.700000000000000000e+01,1.910000000000000000e+02,9.700000000000000000e+01,6.200000000000000000e+01,6.500000000000000222e-01,2.621535700000000000e+09
1.300000000000000000e+02,2.940000000000000000e+02,6.920000000000000000e+02,1.150000000000000000e+02,4.600000000000000000e+01,1.610000000000000000e+02,8.300000000000000000e+01,5.900000000000000000e+01,6.400000000000000133e-01,2.642712700000000000e+09
1.820000000000000000e+02,3.360000000000000000e+02,7.040000000000000000e+02,1.110000000000000000e+02,4.800000000000000000e+01,1.560000000000000000e+02,8.000000000000000000e+01,5.500000000000000000e+01,6.300000000000000044e-01,2.661534300000000000e+09
1.800000000000000000e+02,3.410000000000000000e+02,7.180000000000000000e+02,1.270000000000000000e+02,4.800000000000000000e+01,1.380000000000000000e+02,7.800000000000000000e+01,4.900000000000000000e+01,6.199999999999999956e-01,2.683037500000000000e+09
1.780000000000000000e+02,3.400000000000000000e+02,6.060000000000000000e+02,1.080000000000000000e+02,4.300000000000000000e+01,1.110000000000000000e+02,7.600000000000000000e+01,7.100000000000000000e+01,6.199999999999999956e-01,2.683049500000000000e+09
1.620000000000000000e+02,3.160000000000000000e+02,6.720000000000000000e+02,1.050000000000000000e+02,4.500000000000000000e+01,9.900000000000000000e+01,4.600000000000000000e+01,7.400000000000000000e+01,5.999999999999999778e-01,2.721982600000000000e+09
1.720000000000000000e+02,3.470000000000000000e+02,6.570000000000000000e+02,1.060000000000000000e+02,4.500000000000000000e+01,6.900000000000000000e+01,4.400000000000000000e+01,7.500000000000000000e+01,5.899999999999999689e-01,2.741278400000000000e+09
1.580000000000000000e+02,3.210000000000000000e+02,8.470000000000000000e+02,1.260000000000000000e+02,5.400000000000000000e+01,6.300000000000000000e+01,5.700000000000000000e+01,7.900000000000000000e+01,5.899999999999999689e-01,2.741310200000000000e+09
1.540000000000000000e+02,2.890000000000000000e+02,8.810000000000000000e+02,1.190000000000000000e+02,5.100000000000000000e+01,7.800000000000000000e+01,6.400000000000000000e+01,7.400000000000000000e+01,5.699999999999999512e-01,2.781382400000000000e+09
1.500000000000000000e+02,2.970000000000000000e+02,8.900000000000000000e+02,1.330000000000000000e+02,6.300000000000000000e+01,1.500000000000000000e+02,7.200000000000000000e+01,5.000000000000000000e+01,5.600000000000000533e-01,2.802666900000000000e+09
1.490000000000000000e+02,2.970000000000000000e+02,8.450000000000000000e+02,1.360000000000000000e+02,6.300000000000000000e+01,1.620000000000000000e+02,7.000000000000000000e+01,4.500000000000000000e+01,5.600000000000000533e-01,2.802677700000000000e+09
1.360000000000000000e+02,2.790000000000000000e+02,8.620000000000000000e+02,1.470000000000000000e+02,6.500000000000000000e+01,1.660000000000000000e+02,7.400000000000000000e+01,4.600000000000000000e+01,5.400000000000000355e-01,2.842520400000000000e+09
8.900000000000000000e+01,2.870000000000000000e+02,7.430000000000000000e+02,1.520000000000000000e+02,6.600000000000000000e+01,1.690000000000000000e+02,7.100000000000000000e+01,4.300000000000000000e+01,5.300000000000000266e-01,2.861799900000000000e+09
1.080000000000000000e+02,3.040000000000000000e+02,7.570000000000000000e+02,1.400000000000000000e+02,6.600000000000000000e+01,2.880000000000000000e+02,8.000000000000000000e+01,4.800000000000000000e+01,5.300000000000000266e-01,2.861811700000000000e+09
1.480000000000000000e+02,3.100000000000000000e+02,6.870000000000000000e+02,1.270000000000000000e+02,5.700000000000000000e+01,2.780000000000000000e+02,7.600000000000000000e+01,5.000000000000000000e+01,5.100000000000000089e-01,2.901484500000000000e+09
1.610000000000000000e+02,2.940000000000000000e+02,7.340000000000000000e+02,1.400000000000000000e+02,5.900000000000000000e+01,2.710000000000000000e+02,7.600000000000000000e+01,5.400000000000000000e+01,5.000000000000000000e-01,2.922595900000000000e+09
1.600000000000000000e+02,3.300000000000000000e+02,7.990000000000000000e+02,1.430000000000000000e+02,6.000000000000000000e+01,2.700000000000000000e+02,7.500000000000000000e+01,5.400000000000000000e+01,5.000000000000000000e-01,2.922606200000000000e+09
1.670000000000000000e+02,3.540000000000000000e+02,8.010000000000000000e+02,1.610000000000000000e+02,6.100000000000000000e+01,2.710000000000000000e+02,6.900000000000000000e+01,5.800000000000000000e+01,4.799999999999999822e-01,2.960532400000000000e+09
1.680000000000000000e+02,3.580000000000000000e+02,7.470000000000000000e+02,1.700000000000000000e+02,6.200000000000000000e+01,1.450000000000000000e+02,7.100000000000000000e+01,8.300000000000000000e+01,4.699999999999999734e-01,2.982016400000000000e+09
1.340000000000000000e+02,3.310000000000000000e+02,7.700000000000000000e+02,1.720000000000000000e+02,6.300000000000000000e+01,1.170000000000000000e+02,8.900000000000000000e+01,8.500000000000000000e+01,4.699999999999999734e-01,2.982036600000000000e+09
1.240000000000000000e+02,3.490000000000000000e+02,7.950000000000000000e+02,1.700000000000000000e+02,6.300000000000000000e+01,1.200000000000000000e+02,8.900000000000000000e+01,8.300000000000000000e+01,4.500000000000000111e-01,3.021983900000000000e+09
1.270000000000000000e+02,3.120000000000000000e+02,8.490000000000000000e+02,1.760000000000000000e+02,6.500000000000000000e+01,1.240000000000000000e+02,9.000000000000000000e+01,8.500000000000000000e+01,4.400000000000000022e-01,3.040958400000000000e+09
1.210000000000000000e+02,2.770000000000000000e+02,9.360000000000000000e+02,1.530000000000000000e+02,5.700000000000000000e+01,1.170000000000000000e+02,9.100000000000000000e+01,8.200000000000000000e+01,4.299999999999999933e-01,3.062128100000000000e+09
1.080000000000000000e+02,2.780000000000000000e+02,9.900000000000000000e+02,1.630000000000000000e+02,5.800000000000000000e+01,1.020000000000000000e+02,8.400000000000000000e+01,5.500000000000000000e+01,4.199999999999999845e-01,3.080783700000000000e+09
1.080000000000000000e+02,2.870000000000000000e+02,1.035000000000000000e+03,1.730000000000000000e+02,6.300000000000000000e+01,1.490000000000000000e+02,8.300000000000000000e+01,5.500000000000000000e+01,4.099999999999999756e-01,3.102340000000000000e+09
1.010000000000000000e+02,2.750000000000000000e+02,1.007000000000000000e+03,1.670000000000000000e+02,6.000000000000000000e+01,1.650000000000000000e+02,8.400000000000000000e+01,5.500000000000000000e+01,4.099999999999999756e-01,3.102350400000000000e+09
9.900000000000000000e+01,2.740000000000000000e+02,9.530000000000000000e+02,1.580000000000000000e+02,5.800000000000000000e+01,1.690000000000000000e+02,8.300000000000000000e+01,8.400000000000000000e+01,3.900000000000000133e-01,3.142104100000000000e+09
9.800000000000000000e+01,2.840000000000000000e+02,9.600000000000000000e+02,1.530000000000000000e+02,5.900000000000000000e+01,1.670000000000000000e+02,8.500000000000000000e+01,8.800000000000000000e+01,3.800000000000000044e-01,3.161233900000000000e+09
1.000000000000000000e+02,3.220000000000000000e+02,1.034000000000000000e+03,1.370000000000000000e+02,5.700000000000000000e+01,1.670000000000000000e+02,8.200000000000000000e+01,8.900000000000000000e+01,3.800000000000000044e-01,3.161246400000000000e+09
1.140000000000000000e+02,3.660000000000000000e+02,1.000000000000000000e+03,1.500000000000000000e+02,6.100000000000000000e+01,1.680000000000000000e+02,8.300000000000000000e+01,8.800000000000000000e+01,3.599999999999999867e-01,3.201175400000000000e+09
1.200000000000000000e+02,4.100000000000000000e+02,9.920000000000000000e+02,1.610000000000000000e+02,6.600000000000000000e+01,1.660000000000000000e+02,8.300000000000000000e+01,9.500000000000000000e+01,3.499999999999999778e-01,3.222812800000000000e+09
1.160000000000000000e+02,4.200000000000000000e+02,9.600000000000000000e+02,1.580000000000000000e+02,6.500000000000000000e+01,1.560000000000000000e+02,8.100000000000000000e+01,6.800000000000000000e+01,3.300000000000000155e-01,3.260606400000000000e+09
1.140000000000000000e+02,4.020000000000000000e+02,8.760000000000000000e+02,1.730000000000000000e+02,6.900000000000000000e+01,1.590000000000000000e+02,7.800000000000000000e+01,6.400000000000000000e+01,3.300000000000000155e-01,3.260639900000000000e+09
1.100000000000000000e+02,3.670000000000000000e+02,8.330000000000000000e+02,1.760000000000000000e+02,6.900000000000000000e+01,1.590000000000000000e+02,9.200000000000000000e+01,6.100000000000000000e+01,3.200000000000000067e-01,3.280654100000000000e+09
9.600000000000000000e+01,3.320000000000000000e+02,9.390000000000000000e+02,1.690000000000000000e+02,6.100000000000000000e+01,1.300000000000000000e+02,7.500000000000000000e+01,5.700000000000000000e+01,3.099999999999999978e-01,3.301463900000000000e+09
1.000000000000000000e+02,2.600000000000000000e+02,9.630000000000000000e+02,1.540000000000000000e+02,5.900000000000000000e+01,1.270000000000000000e+02,7.300000000000000000e+01,4.800000000000000000e+01,2.999999999999999889e-01,3.322323500000000000e+09
1.110000000000000000e+02,2.880000000000000000e+02,9.830000000000000000e+02,1.600000000000000000e+02,6.000000000000000000e+01,1.290000000000000000e+02,7.300000000000000000e+01,5.300000000000000000e+01,2.899999999999999800e-01,3.341439700000000000e+09
1.120000000000000000e+02,3.070000000000000000e+02,1.027000000000000000e+03,1.510000000000000000e+02,5.300000000000000000e+01,1.260000000000000000e+02,7.200000000000000000e+01,5.500000000000000000e+01,2.800000000000000266e-01,3.362864400000000000e+09
1.220000000000000000e+02,3.450000000000000000e+02,9.500000000000000000e+02,1.700000000000000000e+02,6.600000000000000000e+01,1.430000000000000000e+02,1.170000000000000000e+02,6.000000000000000000e+01,2.700000000000000178e-01,3.381708700000000000e+09
1.230000000000000000e+02,3.320000000000000000e+02,8.830000000000000000e+02,1.580000000000000000e+02,6.600000000000000000e+01,1.230000000000000000e+02,1.160000000000000000e+02,6.000000000000000000e+01,2.600000000000000089e-01,3.402523700000000000e+09
1.660000000000000000e+02,5.170000000000000000e+02,9.500000000000000000e+02,2.580000000000000000e+02,9.100000000000000000e+01,1.150000000000000000e+02,1.260000000000000000e+02,7.500000000000000000e+01,2.500000000000000000e-01,3.421286200000000000e+09
1.870000000000000000e+02,5.610000000000000000e+02,9.420000000000000000e+02,3.190000000000000000e+02,1.090000000000000000e+02,1.220000000000000000e+02,1.310000000000000000e+02,8.400000000000000000e+01,2.399999999999999911e-01,3.442813800000000000e+09
1.980000000000000000e+02,6.030000000000000000e+02,8.930000000000000000e+02,3.310000000000000000e+02,1.140000000000000000e+02,1.220000000000000000e+02,1.320000000000000000e+02,8.600000000000000000e+01,2.300000000000000100e-01,3.461293500000000000e+09
2.100000000000000000e+02,6.240000000000000000e+02,9.040000000000000000e+02,3.560000000000000000e+02,1.210000000000000000e+02,1.020000000000000000e+02,8.300000000000000000e+01,9.100000000000000000e+01,2.200000000000000011e-01,3.482704700000000000e+09
2.230000000000000000e+02,6.610000000000000000e+02,1.005000000000000000e+03,3.990000000000000000e+02,1.320000000000000000e+02,1.420000000000000000e+02,9.800000000000000000e+01,1.260000000000000000e+02,2.099999999999999922e-01,3.501591300000000000e+09
2.150000000000000000e+02,5.980000000000000000e+02,9.360000000000000000e+02,3.940000000000000000e+02,1.340000000000000000e+02,1.390000000000000000e+02,8.800000000000000000e+01,1.230000000000000000e+02,2.000000000000000111e-01,3.522771700000000000e+09
2.080000000000000000e+02,6.150000000000000000e+02,9.440000000000000000e+02,3.720000000000000000e+02,1.320000000000000000e+02,1.370000000000000000e+02,8.300000000000000000e+01,1.290000000000000000e+02,1.900000000000000022e-01,3.541482500000000000e+09
2.200000000000000000e+02,6.410000000000000000e+02,1.054000000000000000e+03,3.960000000000000000e+02,1.420000000000000000e+02,1.440000000000000000e+02,8.300000000000000000e+01,1.670000000000000000e+02,1.799999999999999933e-01,3.563027600000000000e+09
2.080000000000000000e+02,6.420000000000000000e+02,1.277000000000000000e+03,4.080000000000000000e+02,1.380000000000000000e+02,1.540000000000000000e+02,8.600000000000000000e+01,1.690000000000000000e+02,1.700000000000000122e-01,3.581986900000000000e+09
2.000000000000000000e+02,6.640000000000000000e+02,1.240000000000000000e+03,3.900000000000000000e+02,1.370000000000000000e+02,1.170000000000000000e+02,8.800000000000000000e+01,1.460000000000000000e+02,1.600000000000000033e-01,3.601148100000000000e+09
1.920000000000000000e+02,6.720000000000000000e+02,1.289000000000000000e+03,3.740000000000000000e+02,1.300000000000000000e+02,1.140000000000000000e+02,8.800000000000000000e+01,1.450000000000000000e+02,1.499999999999999944e-01,3.623121200000000000e+09
1.860000000000000000e+02,6.210000000000000000e+02,1.407000000000000000e+03,3.910000000000000000e+02,1.240000000000000000e+02,1.120000000000000000e+02,8.900000000000000000e+01,1.340000000000000000e+02,1.400000000000000133e-01,3.641845300000000000e+09
1.780000000000000000e+02,5.610000000000000000e+02,1.396000000000000000e+03,3.830000000000000000e+02,1.140000000000000000e+02,1.030000000000000000e+02,9.300000000000000000e+01,8.700000000000000000e+01,1.300000000000000044e-01,3.662177900000000000e+09
2.180000000000000000e+02,5.670000000000000000e+02,1.272000000000000000e+03,4.250000000000000000e+02,1.360000000000000000e+02,8.900000000000000000e+01,9.300000000000000000e+01,9.600000000000000000e+01,1.199999999999999956e-01,3.680939100000000000e+09
2.400000000000000000e+02,5.320000000000000000e+02,1.255000000000000000e+03,4.280000000000000000e+02,1.390000000000000000e+02,9.100000000000000000e+01,7.700000000000000000e+01,1.100000000000000000e+02,1.100000000000000006e-01,3.702579500000000000e+09
2.660000000000000000e+02,5.680000000000000000e+02,1.334000000000000000e+03,5.590000000000000000e+02,1.840000000000000000e+02,9.900000000000000000e+01,1.330000000000000000e+02,1.270000000000000000e+02,1.000000000000000056e-01,3.721459400000000000e+09
2.860000000000000000e+02,7.020000000000000000e+02,1.262000000000000000e+03,5.360000000000000000e+02,1.860000000000000000e+02,1.340000000000000000e+02,3.510000000000000000e+02,1.470000000000000000e+02,8.999999999999999667e-02,3.742944500000000000e+09
3.110000000000000000e+02,7.690000000000000000e+02,1.254000000000000000e+03,5.770000000000000000e+02,2.000000000000000000e+02,1.540000000000000000e+02,3.990000000000000000e+02,1.640000000000000000e+02,8.000000000000000167e-02,3.761874300000000000e+09
3.290000000000000000e+02,8.790000000000000000e+02,1.253000000000000000e+03,5.550000000000000000e+02,1.950000000000000000e+02,1.530000000000000000e+02,4.170000000000000000e+02,1.660000000000000000e+02,7.000000000000000666e-02,3.781000500000000000e+09
3.330000000000000000e+02,9.480000000000000000e+02,1.346000000000000000e+03,5.540000000000000000e+02,2.060000000000000000e+02,1.610000000000000000e+02,4.230000000000000000e+02,1.650000000000000000e+02,5.999999999999999778e-02,3.802649500000000000e+09
3.400000000000000000e+02,1.033000000000000000e+03,1.300000000000000000e+03,4.610000000000000000e+02,1.840000000000000000e+02,1.750000000000000000e+02,4.220000000000000000e+02,1.670000000000000000e+02,5.000000000000000278e-02,3.822005300000000000e+09
3.360000000000000000e+02,1.073000000000000000e+03,1.322000000000000000e+03,5.000000000000000000e+02,1.880000000000000000e+02,1.510000000000000000e+02,2.740000000000000000e+02,1.560000000000000000e+02,4.000000000000000083e-02,3.840956600000000000e+09
3.480000000000000000e+02,1.111000000000000000e+03,1.325000000000000000e+03,4.920000000000000000e+02,1.920000000000000000e+02,1.420000000000000000e+02,2.140000000000000000e+02,1.550000000000000000e+02,2.999999999999999889e-02,3.862429600000000000e+09
3.250000000000000000e+02,1.052000000000000000e+03,1.294000000000000000e+03,4.930000000000000000e+02,2.010000000000000000e+02,1.530000000000000000e+02,1.830000000000000000e+02,1.530000000000000000e+02,2.000000000000000042e-02,3.880782000000000000e+09
3.520000000000000000e+02,1.080000000000000000e+03,1.228000000000000000e+03,5.730000000000000000e+02,2.160000000000000000e+02,1.620000000000000000e+02,1.930000000000000000e+02,1.750000000000000000e+02,1.000000000000000021e-02,3.902181300000000000e+09
3.390000000000000000e+02,9.750000000000000000e+02,1.248000000000000000e+03,5.630000000000000000e+02,2.130000000000000000e+02,1.480000000000000000e+02,1.740000000000000000e+02,1.790000000000000000e+02,0.000000000000000000e+00,3.921561800000000000e+09
3.450000000000000000e+02,8.510000000000000000e+02,1.242000000000000000e+03,5.390000000000000000e+02,2.200000000000000000e+02,3.180000000000000000e+02,4.430000000000000000e+02,3.660000000000000000e+02,1.000000000000000021e-02,3.943166000000000000e+09
3.150000000000000000e+02,7.760000000000000000e+02,1.114000000000000000e+03,4.920000000000000000e+02,2.090000000000000000e+02,4.460000000000000000e+02,6.390000000000000000e+02,4.600000000000000000e+02,2.000000000000000042e-02,3.961666900000000000e+09
3.170000000000000000e+02,7.250000000000000000e+02,1.113000000000000000e+03,4.740000000000000000e+02,1.930000000000000000e+02,4.780000000000000000e+02,6.560000000000000000e+02,5.940000000000000000e+02,2.999999999999999889e-02,3.982621300000000000e+09
2.720000000000000000e+02,5.620000000000000000e+02,1.102000000000000000e+03,3.640000000000000000e+02,1.660000000000000000e+02,5.070000000000000000e+02,6.960000000000000000e+02,6.530000000000000000e+02,4.000000000000000083e-02,4.001354200000000000e+09
2.480000000000000000e+02,4.910000000000000000e+02,9.380000000000000000e+02,2.970000000000000000e+02,1.440000000000000000e+02,6.400000000000000000e+02,8.730000000000000000e+02,7.530000000000000000e+02,5.000000000000000278e-02,4.021885300000000000e+09
2.220000000000000000e+02,4.790000000000000000e+02,8.070000000000000000e+02,2.560000000000000000e+02,1.220000000000000000e+02,6.050000000000000000e+02,7.920000000000000000e+02,8.710000000000000000e+02,5.999999999999999778e-02,4.041001600000000000e+09
2.490000000000000000e+02,4.020000000000000000e+02,8.440000000000000000e+02,2.330000000000000000e+02,1.120000000000000000e+02,6.260000000000000000e+02,6.890000000000000000e+02,8.920000000000000000e+02,7.000000000000000666e-02,4.062305800000000000e+09
2.910000000000000000e+02,4.190000000000000000e+02,7.330000000000000000e+02,1.690000000000000000e+02,1.150000000000000000e+02,7.220000000000000000e+02,7.620000000000000000e+02,8.940000000000000000e+02,8.000000000000000167e-02,4.081433900000000000e+09
2.900000000000000000e+02,4.460000000000000000e+02,6.380000000000000000e+02,1.330000000000000000e+02,1.000000000000000000e+02,7.390000000000000000e+02,8.120000000000000000e+02,9.360000000000000000e+02,8.999999999999999667e-02,4.103037500000000000e+09
3.030000000000000000e+02,4.930000000000000000e+02,6.840000000000000000e+02,1.380000000000000000e+02,1.020000000000000000e+02,7.260000000000000000e+02,7.090000000000000000e+02,9.840000000000000000e+02,1.000000000000000056e-01,4.122401000000000000e+09
2.980000000000000000e+02,4.660000000000000000e+02,7.620000000000000000e+02,1.530000000000000000e+02,1.050000000000000000e+02,7.210000000000000000e+02,7.180000000000000000e+02,9.150000000000000000e+02,1.100000000000000006e-01,4.141563200000000000e+09
2.740000000000000000e+02,4.540000000000000000e+02,7.120000000000000000e+02,1.550000000000000000e+02,1.040000000000000000e+02,6.600000000000000000e+02,7.230000000000000000e+02,9.320000000000000000e+02,1.199999999999999956e-01,4.162660100000000000e+09
2.430000000000000000e+02,5.410000000000000000e+02,7.190000000000000000e+02,1.380000000000000000e+02,8.200000000000000000e+01,5.460000000000000000e+02,6.390000000000000000e+02,9.240000000000000000e+02,1.300000000000000044e-01,4.181194400000000000e+09
2.410000000000000000e+02,5.280000000000000000e+02,7.380000000000000000e+02,1.300000000000000000e+02,8.200000000000000000e+01,5.590000000000000000e+02,6.170000000000000000e+02,8.770000000000000000e+02,1.400000000000000133e-01,4.202875800000000000e+09
2.260000000000000000e+02,4.850000000000000000e+02,6.790000000000000000e+02,1.210000000000000000e+02,8.800000000000000000e+01,4.850000000000000000e+02,6.740000000000000000e+02,8.060000000000000000e+02,1.499999999999999944e-01,4.221939900000000000e+09
2.680000000000000000e+02,4.690000000000000000e+02,5.260000000000000000e+02,9.400000000000000000e+01,7.600000000000000000e+01,4.910000000000000000e+02,7.200000000000000000e+02,7.410000000000000000e+02,1.600000000000000033e-01,4.241287200000000000e+09
2.650000000000000000e+02,5.880000000000000000e+02,6.130000000000000000e+02,1.200000000000000000e+02,8.200000000000000000e+01,5.050000000000000000e+02,7.260000000000000000e+02,6.980000000000000000e+02,1.700000000000000122e-01,4.261834400000000000e+09
2.750000000000000000e+02,4.890000000000000000e+02,6.350000000000000000e+02,1.530000000000000000e+02,8.400000000000000000e+01,4.920000000000000000e+02,7.750000000000000000e+02,6.440000000000000000e+02,1.799999999999999933e-01,4.280588300000000000e+09
2.840000000000000000e+02,5.020000000000000000e+02,5.640000000000000000e+02,1.490000000000000000e+02,7.800000000000000000e+01,4.780000000000000000e+02,7.530000000000000000e+02,6.820000000000000000e+02,1.900000000000000022e-01,4.302092000000000000e+09
2.780000000000000000e+02,4.910000000000000000e+02,5.360000000000000000e+02,1.390000000000000000e+02,6.300000000000000000e+01,4.510000000000000000e+02,6.860000000000000000e+02,6.150000000000000000e+02,2.000000000000000111e-01,4.322720800000000000e+09
2.440000000000000000e+02,5.070000000000000000e+02,5.800000000000000000e+02,1.450000000000000000e+02,6.800000000000000000e+01,4.570000000000000000e+02,6.400000000000000000e+02,6.450000000000000000e+02,2.099999999999999922e-01,4.342460300000000000e+09
2.550000000000000000e+02,4.350000000000000000e+02,5.950000000000000000e+02,1.440000000000000000e+02,7.200000000000000000e+01,4.180000000000000000e+02,6.780000000000000000e+02,6.950000000000000000e+02,2.200000000000000011e-01,4.362540700000000000e+09
2.070000000000000000e+02,4.480000000000000000e+02,6.350000000000000000e+02,1.210000000000000000e+02,7.000000000000000000e+01,4.150000000000000000e+02,6.770000000000000000e+02,7.020000000000000000e+02,2.300000000000000100e-01,4.381078800000000000e+09
2.110000000000000000e+02,4.200000000000000000e+02,5.910000000000000000e+02,1.220000000000000000e+02,7.800000000000000000e+01,5.040000000000000000e+02,8.490000000000000000e+02,6.620000000000000000e+02,2.399999999999999911e-01,4.402448000000000000e+09
2.240000000000000000e+02,4.380000000000000000e+02,5.940000000000000000e+02,1.240000000000000000e+02,8.600000000000000000e+01,5.570000000000000000e+02,9.370000000000000000e+02,6.880000000000000000e+02,2.500000000000000000e-01,4.421518600000000000e+09
2.540000000000000000e+02,4.310000000000000000e+02,6.320000000000000000e+02,1.250000000000000000e+02,8.500000000000000000e+01,5.450000000000000000e+02,9.360000000000000000e+02,7.060000000000000000e+02,2.600000000000000089e-01,4.442632000000000000e+09
2.460000000000000000e+02,4.100000000000000000e+02,7.480000000000000000e+02,1.130000000000000000e+02,7.200000000000000000e+01,5.330000000000000000e+02,8.820000000000000000e+02,7.010000000000000000e+02,2.700000000000000178e-01,4.461140100000000000e+09
2.730000000000000000e+02,3.750000000000000000e+02,6.630000000000000000e+02,1.010000000000000000e+02,7.200000000000000000e+01,5.460000000000000000e+02,8.720000000000000000e+02,6.680000000000000000e+02,2.800000000000000266e-01,4.482730700000000000e+09
2.570000000000000000e+02,3.970000000000000000e+02,6.710000000000000000e+02,1.030000000000000000e+02,6.500000000000000000e+01,4.760000000000000000e+02,7.490000000000000000e+02,6.690000000000000000e+02,2.899999999999999800e-01,4.501673600000000000e+09
2.480000000000000000e+02,4.140000000000000000e+02,6.730000000000000000e+02,1.000000000000000000e+02,5.200000000000000000e+01,4.070000000000000000e+02,6.230000000000000000e+02,7.290000000000000000e+02,2.999999999999999889e-01,4.522745800000000000e+09
2.150000000000000000e+02,4.170000000000000000e+02,6.390000000000000000e+02,9.400000000000000000e+01,4.800000000000000000e+01,4.190000000000000000e+02,6.750000000000000000e+02,7.430000000000000000e+02,3.099999999999999978e-01,4.541476900000000000e+09
2.010000000000000000e+02,3.720000000000000000e+02,3.800000000000000000e+02,7.400000000000000000e+01,4.800000000000000000e+01,4.210000000000000000e+02,8.440000000000000000e+02,7.050000000000000000e+02,3.200000000000000067e-01,4.560681700000000000e+09
1.780000000000000000e+02,3.970000000000000000e+02,3.700000000000000000e+02,7.200000000000000000e+01,4.700000000000000000e+01,4.030000000000000000e+02,8.430000000000000000e+02,7.230000000000000000e+02,3.300000000000000155e-01,4.583161400000000000e+09
1.910000000000000000e+02,3.770000000000000000e+02,4.410000000000000000e+02,7.500000000000000000e+01,4.600000000000000000e+01,3.270000000000000000e+02,8.070000000000000000e+02,7.160000000000000000e+02,3.400000000000000244e-01,4.602685100000000000e+09
1.930000000000000000e+02,3.460000000000000000e+02,4.490000000000000000e+02,7.600000000000000000e+01,4.500000000000000000e+01,3.150000000000000000e+02,8.570000000000000000e+02,6.600000000000000000e+02,3.499999999999999778e-01,4.621936100000000000e+09
2.220000000000000000e+02,3.300000000000000000e+02,3.890000000000000000e+02,7.100000000000000000e+01,4.800000000000000000e+01,3.130000000000000000e+02,8.920000000000000000e+02,6.080000000000000000e+02,3.599999999999999867e-01,4.641024200000000000e+09
2.330000000000000000e+02,3.380000000000000000e+02,4.280000000000000000e+02,6.300000000000000000e+01,4.500000000000000000e+01,3.210000000000000000e+02,7.370000000000000000e+02,6.270000000000000000e+02,3.699999999999999956e-01,4.662996300000000000e+09
2.400000000000000000e+02,2.830000000000000000e+02,4.240000000000000000e+02,5.900000000000000000e+01,4.800000000000000000e+01,4.040000000000000000e+02,7.630000000000000000e+02,6.690000000000000000e+02,3.800000000000000044e-01,4.682309700000000000e+09
2.380000000000000000e+02,3.670000000000000000e+02,4.910000000000000000e+02,5.300000000000000000e+01,4.600000000000000000e+01,4.320000000000000000e+02,8.010000000000000000e+02,7.280000000000000000e+02,3.900000000000000133e-01,4.701468900000000000e+09
2.340000000000000000e+02,4.090000000000000000e+02,4.920000000000000000e+02,5.600000000000000000e+01,4.900000000000000000e+01,4.380000000000000000e+02,7.300000000000000000e+02,7.580000000000000000e+02,4.000000000000000222e-01,4.722458900000000000e+09
2.090000000000000000e+02,4.270000000000000000e+02,4.980000000000000000e+02,6.100000000000000000e+01,5.300000000000000000e+01,4.310000000000000000e+02,6.660000000000000000e+02,7.820000000000000000e+02,4.099999999999999756e-01,4.740909600000000000e+09
1.900000000000000000e+02,4.610000000000000000e+02,4.410000000000000000e+02,5.700000000000000000e+01,5.400000000000000000e+01,4.720000000000000000e+02,7.530000000000000000e+02,8.410000000000000000e+02,4.199999999999999845e-01,4.763542900000000000e+09
1.630000000000000000e+02,4.630000000000000000e+02,4.630000000000000000e+02,6.000000000000000000e+01,6.000000000000000000e+01,5.300000000000000000e+02,7.710000000000000000e+02,8.440000000000000000e+02,4.299999999999999933e-01,4.782666000000000000e+09
1.540000000000000000e+02,3.860000000000000000e+02,4.670000000000000000e+02,6.100000000000000000e+01,5.800000000000000000e+01,5.550000000000000000e+02,7.360000000000000000e+02,7.970000000000000000e+02,4.400000000000000022e-01,4.801268100000000000e+09
1.710000000000000000e+02,3.820000000000000000e+02,5.030000000000000000e+02,7.200000000000000000e+01,6.200000000000000000e+01,6.280000000000000000e+02,7.330000000000000000e+02,8.220000000000000000e+02,4.500000000000000111e-01,4.822784100000000000e+09
1.810000000000000000e+02,3.930000000000000000e+02,5.000000000000000000e+02,6.800000000000000000e+01,5.400000000000000000e+01,6.470000000000000000e+02,7.660000000000000000e+02,8.130000000000000000e+02,4.600000000000000200e-01,4.841806100000000000e+09
2.240000000000000000e+02,3.330000000000000000e+02,5.030000000000000000e+02,6.600000000000000000e+01,6.400000000000000000e+01,7.520000000000000000e+02,7.360000000000000000e+02,7.360000000000000000e+02,4.699999999999999734e-01,4.860610900000000000e+09
2.270000000000000000e+02,3.900000000000000000e+02,4.810000000000000000e+02,6.500000000000000000e+01,5.800000000000000000e+01,6.800000000000000000e+02,6.850000000000000000e+02,7.590000000000000000e+02,4.799999999999999822e-01,4.883445300000000000e+09
2.340000000000000000e+02,4.180000000000000000e+02,4.130000000000000000e+02,7.300000000000000000e+01,6.400000000000000000e+01,6.700000000000000000e+02,7.010000000000000000e+02,8.120000000000000000e+02,4.899999999999999911e-01,4.902247900000000000e+09
2.260000000000000000e+02,3.860000000000000000e+02,3.960000000000000000e+02,6.600000000000000000e+01,6.400000000000000000e+01,6.760000000000000000e+02,7.700000000000000000e+02,7.540000000000000000e+02,5.000000000000000000e-01,4.920836900000000000e+09
2.210000000000000000e+02,3.510000000000000000e+02,3.890000000000000000e+02,6.600000000000000000e+01,6.700000000000000000e+01,6.760000000000000000e+02,7.070000000000000000e+02,7.700000000000000000e+02,5.100000000000000089e-01,4.941825100000000000e+09
1.770000000000000000e+02,3.540000000000000000e+02,3.800000000000000000e+02,6.500000000000000000e+01,5.900000000000000000e+01,6.020000000000000000e+02,6.660000000000000000e+02,7.320000000000000000e+02,5.200000000000000178e-01,4.961097000000000000e+09
1.780000000000000000e+02,3.420000000000000000e+02,3.740000000000000000e+02,6.500000000000000000e+01,5.800000000000000000e+01,6.210000000000000000e+02,6.480000000000000000e+02,6.780000000000000000e+02,5.300000000000000266e-01,4.982657600000000000e+09
1.800000000000000000e+02,3.240000000000000000e+02,3.020000000000000000e+02,5.000000000000000000e+01,5.500000000000000000e+01,6.250000000000000000e+02,6.450000000000000000e+02,7.230000000000000000e+02,5.400000000000000355e-01,5.001306100000000000e+09
1.830000000000000000e+02,3.370000000000000000e+02,2.320000000000000000e+02,4.400000000000000000e+01,6.100000000000000000e+01,6.270000000000000000e+02,6.090000000000000000e+02,7.660000000000000000e+02,5.500000000000000444e-01,5.022739300000000000e+09
1.810000000000000000e+02,3.750000000000000000e+02,2.720000000000000000e+02,4.600000000000000000e+01,6.800000000000000000e+01,6.600000000000000000e+02,6.640000000000000000e+02,7.320000000000000000e+02,5.600000000000000533e-01,5.042293600000000000e+09
1.870000000000000000e+02,4.070000000000000000e+02,3.330000000000000000e+02,4.500000000000000000e+01,6.900000000000000000e+01,6.160000000000000000e+02,7.760000000000000000e+02,8.190000000000000000e+02,5.699999999999999512e-01,5.061130800000000000e+09
1.930000000000000000e+02,3.930000000000000000e+02,3.420000000000000000e+02,4.600000000000000000e+01,7.200000000000000000e+01,6.600000000000000000e+02,7.980000000000000000e+02,8.710000000000000000e+02,5.799999999999999600e-01,5.082217800000000000e+09
1.840000000000000000e+02,3.780000000000000000e+02,3.040000000000000000e+02,4.400000000000000000e+01,6.800000000000000000e+01,6.560000000000000000e+02,7.630000000000000000e+02,8.610000000000000000e+02,5.899999999999999689e-01,5.100860800000000000e+09
1.960000000000000000e+02,4.340000000000000000e+02,3.170000000000000000e+02,4.500000000000000000e+01,7.100000000000000000e+01,7.030000000000000000e+02,8.380000000000000000e+02,8.930000000000000000e+02,5.999999999999999778e-01,5.122563400000000000e+09
1.950000000000000000e+02,4.040000000000000000e+02,3.060000000000000000e+02,4.500000000000000000e+01,6.300000000000000000e+01,6.490000000000000000e+02,7.960000000000000000e+02,8.930000000000000000e+02,6.099999999999999867e-01,5.141375500000000000e+09
2.100000000000000000e+02,4.050000000000000000e+02,2.500000000000000000e+02,5.100000000000000000e+01,6.800000000000000000e+01,7.060000000000000000e+02,7.470000000000000000e+02,8.650000000000000000e+02,6.199999999999999956e-01,5.163018300000000000e+09
2.860000000000000000e+02,3.700000000000000000e+02,2.350000000000000000e+02,5.200000000000000000e+01,7.200000000000000000e+01,6.930000000000000000e+02,8.550000000000000000e+02,9.170000000000000000e+02,6.300000000000000044e-01,5.181467700000000000e+09
3.020000000000000000e+02,4.200000000000000000e+02,2.850000000000000000e+02,5.700000000000000000e+01,8.000000000000000000e+01,7.680000000000000000e+02,8.860000000000000000e+02,9.530000000000000000e+02,6.400000000000000133e-01,5.202388100000000000e+09
2.890000000000000000e+02,3.730000000000000000e+02,3.490000000000000000e+02,5.400000000000000000e+01,7.100000000000000000e+01,6.700000000000000000e+02,8.390000000000000000e+02,9.170000000000000000e+02,6.500000000000000222e-01,5.220904000000000000e+09
3.150000000000000000e+02,4.970000000000000000e+02,3.250000000000000000e+02,5.500000000000000000e+01,7.600000000000000000e+01,7.460000000000000000e+02,8.880000000000000000e+02,8.970000000000000000e+02,6.600000000000000311e-01,5.242621400000000000e+09
3.150000000000000000e+02,5.070000000000000000e+02,3.150000000000000000e+02,5.400000000000000000e+01,8.400000000000000000e+01,7.980000000000000000e+02,8.330000000000000000e+02,9.510000000000000000e+02,6.700000000000000400e-01,5.261571200000000000e+09
2.820000000000000000e+02,6.430000000000000000e+02,3.110000000000000000e+02,5.300000000000000000e+01,8.100000000000000000e+01,8.070000000000000000e+02,7.660000000000000000e+02,9.120000000000000000e+02,6.800000000000000488e-01,5.283020700000000000e+09
2.750000000000000000e+02,6.190000000000000000e+02,2.690000000000000000e+02,5.700000000000000000e+01,8.300000000000000000e+01,7.340000000000000000e+02,7.530000000000000000e+02,8.800000000000000000e+02,6.899999999999999467e-01,5.302186800000000000e+09
2.960000000000000000e+02,6.630000000000000000e+02,2.160000000000000000e+02,6.300000000000000000e+01,9.100000000000000000e+01,8.640000000000000000e+02,7.190000000000000000e+02,9.120000000000000000e+02,6.999999999999999556e-01,5.320786600000000000e+09
2.770000000000000000e+02,5.980000000000000000e+02,2.130000000000000000e+02,5.900000000000000000e+01,8.900000000000000000e+01,9.390000000000000000e+02,6.860000000000000000e+02,1.028000000000000000e+03,7.099999999999999645e-01,5.342003800000000000e+09
2.920000000000000000e+02,6.010000000000000000e+02,2.160000000000000000e+02,6.000000000000000000e+01,8.800000000000000000e+01,9.390000000000000000e+02,7.590000000000000000e+02,9.630000000000000000e+02,7.199999999999999734e-01,5.360773200000000000e+09
2.870000000000000000e+02,5.720000000000000000e+02,2.760000000000000000e+02,6.700000000000000000e+01,1.050000000000000000e+02,1.010000000000000000e+03,7.650000000000000000e+02,9.170000000000000000e+02,7.299999999999999822e-01,5.382193700000000000e+09
2.770000000000000000e+02,5.890000000000000000e+02,2.980000000000000000e+02,6.500000000000000000e+01,1.090000000000000000e+02,1.049000000000000000e+03,7.970000000000000000e+02,9.340000000000000000e+02,7.399999999999999911e-01,5.400628400000000000e+09
2.810000000000000000e+02,5.330000000000000000e+02,2.540000000000000000e+02,6.700000000000000000e+01,1.190000000000000000e+02,1.085000000000000000e+03,8.050000000000000000e+02,9.640000000000000000e+02,7.500000000000000000e-01,5.421813500000000000e+09
3.100000000000000000e+02,5.570000000000000000e+02,2.640000000000000000e+02,7.100000000000000000e+01,1.210000000000000000e+02,1.043000000000000000e+03,8.660000000000000000e+02,8.620000000000000000e+02,7.600000000000000089e-01,5.442837900000000000e+09
2.870000000000000000e+02,5.410000000000000000e+02,3.220000000000000000e+02,6.700000000000000000e+01,1.140000000000000000e+02,1.067000000000000000e+03,8.220000000000000000e+02,8.890000000000000000e+02,7.700000000000000178e-01,5.461586700000000000e+09
2.680000000000000000e+02,4.380000000000000000e+02,3.060000000000000000e+02,6.500000000000000000e+01,1.080000000000000000e+02,1.132000000000000000e+03,8.200000000000000000e+02,9.660000000000000000e+02,7.800000000000000266e-01,5.483033800000000000e+09
2.730000000000000000e+02,4.800000000000000000e+02,2.840000000000000000e+02,5.900000000000000000e+01,1.050000000000000000e+02,1.187000000000000000e+03,8.290000000000000000e+02,8.860000000000000000e+02,8.000000000000000444e-01,5.522273000000000000e+09
3.050000000000000000e+02,5.190000000000000000e+02,2.840000000000000000e+02,5.700000000000000000e+01,1.050000000000000000e+02,1.171000000000000000e+03,8.750000000000000000e+02,8.870000000000000000e+02,8.000000000000000444e-01,5.522310200000000000e+09
2.820000000000000000e+02,5.250000000000000000e+02,2.760000000000000000e+02,5.800000000000000000e+01,1.100000000000000000e+02,1.239000000000000000e+03,8.890000000000000000e+02,9.300000000000000000e+02,8.100000000000000533e-01,5.540823500000000000e+09
2.900000000000000000e+02,5.370000000000000000e+02,2.060000000000000000e+02,6.500000000000000000e+01,1.230000000000000000e+02,1.255000000000000000e+03,9.150000000000000000e+02,9.910000000000000000e+02,8.199999999999999512e-01,5.561860200000000000e+09
3.000000000000000000e+02,5.700000000000000000e+02,1.540000000000000000e+02,6.900000000000000000e+01,1.230000000000000000e+02,1.165000000000000000e+03,9.240000000000000000e+02,9.640000000000000000e+02,8.299999999999999600e-01,5.580593100000000000e+09
3.250000000000000000e+02,6.090000000000000000e+02,2.030000000000000000e+02,7.400000000000000000e+01,1.350000000000000000e+02,1.244000000000000000e+03,9.720000000000000000e+02,1.024000000000000000e+03,8.399999999999999689e-01,5.601750400000000000e+09
3.020000000000000000e+02,6.460000000000000000e+02,2.040000000000000000e+02,7.200000000000000000e+01,1.360000000000000000e+02,1.334000000000000000e+03,9.900000000000000000e+02,9.600000000000000000e+02,8.499999999999999778e-01,5.620568700000000000e+09
3.330000000000000000e+02,6.600000000000000000e+02,2.160000000000000000e+02,7.800000000000000000e+01,1.450000000000000000e+02,1.321000000000000000e+03,9.890000000000000000e+02,9.620000000000000000e+02,8.599999999999999867e-01,5.641867700000000000e+09
3.430000000000000000e+02,7.350000000000000000e+02,2.310000000000000000e+02,8.600000000000000000e+01,1.450000000000000000e+02,1.353000000000000000e+03,1.002000000000000000e+03,9.460000000000000000e+02,8.699999999999999956e-01,5.662755800000000000e+09
4.490000000000000000e+02,7.350000000000000000e+02,2.360000000000000000e+02,9.100000000000000000e+01,1.470000000000000000e+02,1.449000000000000000e+03,9.600000000000000000e+02,9.820000000000000000e+02,8.800000000000000044e-01,5.681634600000000000e+09
5.610000000000000000e+02,6.870000000000000000e+02,1.950000000000000000e+02,1.030000000000000000e+02,1.570000000000000000e+02,1.402000000000000000e+03,9.130000000000000000e+02,9.300000000000000000e+02,8.900000000000000133e-01,5.703138200000000000e+09
5.620000000000000000e+02,6.660000000000000000e+02,2.400000000000000000e+02,1.050000000000000000e+02,1.560000000000000000e+02,1.395000000000000000e+03,8.860000000000000000e+02,1.026000000000000000e+03,9.000000000000000222e-01,5.722509500000000000e+09
5.660000000000000000e+02,7.390000000000000000e+02,2.870000000000000000e+02,1.120000000000000000e+02,1.840000000000000000e+02,1.460000000000000000e+03,8.530000000000000000e+02,1.016000000000000000e+03,9.100000000000000311e-01,5.742001200000000000e+09
5.700000000000000000e+02,6.760000000000000000e+02,2.830000000000000000e+02,1.040000000000000000e+02,1.900000000000000000e+02,1.428000000000000000e+03,9.730000000000000000e+02,1.035000000000000000e+03,9.200000000000000400e-01,5.762113400000000000e+09
4.900000000000000000e+02,7.510000000000000000e+02,2.820000000000000000e+02,1.070000000000000000e+02,2.080000000000000000e+02,1.409000000000000000e+03,1.014000000000000000e+03,1.003000000000000000e+03,9.300000000000000488e-01,5.781912300000000000e+09
4.080000000000000000e+02,8.640000000000000000e+02,3.390000000000000000e+02,1.100000000000000000e+02,2.350000000000000000e+02,1.423000000000000000e+03,1.076000000000000000e+03,1.037000000000000000e+03,9.399999999999999467e-01,5.802881100000000000e+09
4.350000000000000000e+02,8.910000000000000000e+02,3.310000000000000000e+02,1.210000000000000000e+02,2.540000000000000000e+02,1.366000000000000000e+03,1.124000000000000000e+03,9.670000000000000000e+02,9.499999999999999556e-01,5.821616500000000000e+09
4.190000000000000000e+02,8.900000000000000000e+02,3.050000000000000000e+02,1.180000000000000000e+02,2.510000000000000000e+02,1.377000000000000000e+03,1.198000000000000000e+03,1.015000000000000000e+03,9.599999999999999645e-01,5.842621800000000000e+09
5.650000000000000000e+02,8.850000000000000000e+02,3.170000000000000000e+02,1.410000000000000000e+02,2.700000000000000000e+02,1.385000000000000000e+03,1.194000000000000000e+03,9.520000000000000000e+02,9.699999999999999734e-01,5.861029500000000000e+09
6.070000000000000000e+02,8.940000000000000000e+02,3.270000000000000000e+02,1.460000000000000000e+02,2.840000000000000000e+02,1.439000000000000000e+03,1.226000000000000000e+03,9.040000000000000000e+02,9.799999999999999822e-01,5.881844700000000000e+09
6.060000000000000000e+02,8.640000000000000000e+02,2.920000000000000000e+02,1.610000000000000000e+02,3.030000000000000000e+02,1.515000000000000000e+03,1.168000000000000000e+03,8.900000000000000000e+02,9.899999999999999911e-01,5.902888600000000000e+09
6.130000000000000000e+02,8.810000000000000000e+02,3.210000000000000000e+02,1.670000000000000000e+02,3.050000000000000000e+02,1.565000000000000000e+03,1.140000000000000000e+03,9.240000000000000000e+02,9.799999999999999822e-01,5.921641500000000000e+09
6.230000000000000000e+02,7.850000000000000000e+02,3.590000000000000000e+02,1.640000000000000000e+02,3.070000000000000000e+02,1.496000000000000000e+03,1.142000000000000000e+03,9.100000000000000000e+02,9.699999999999999734e-01,5.942945800000000000e+09
5.000000000000000000e+02,7.990000000000000000e+02,3.860000000000000000e+02,1.470000000000000000e+02,2.870000000000000000e+02,1.545000000000000000e+03,1.059000000000000000e+03,9.140000000000000000e+02,9.599999999999999645e-01,5.961478000000000000e+09
4.340000000000000000e+02,6.980000000000000000e+02,4.070000000000000000e+02,1.340000000000000000e+02,2.550000000000000000e+02,1.404000000000000000e+03,9.610000000000000000e+02,8.890000000000000000e+02,9.499999999999999556e-01,5.982909200000000000e+09
3.710000000000000000e+02,6.240000000000000000e+02,3.950000000000000000e+02,9.700000000000000000e+01,1.950000000000000000e+02,1.344000000000000000e+03,9.340000000000000000e+02,9.800000000000000000e+02,9.399999999999999467e-01,6.001667700000000000e+09
3.050000000000000000e+02,5.890000000000000000e+02,4.910000000000000000e+02,6.900000000000000000e+01,1.640000000000000000e+02,1.207000000000000000e+03,8.490000000000000000e+02,9.020000000000000000e+02,9.300000000000000488e-01,6.020710700000000000e+09
2.610000000000000000e+02,6.230000000000000000e+02,6.230000000000000000e+02,6.700000000000000000e+01,1.190000000000000000e+02,1.110000000000000000e+03,6.300000000000000000e+02,7.880000000000000000e+02,9.200000000000000400e-01,6.041626800000000000e+09
2.080000000000000000e+02,5.780000000000000000e+02,6.660000000000000000e+02,8.600000000000000000e+01,1.050000000000000000e+02,9.080000000000000000e+02,4.700000000000000000e+02,6.920000000000000000e+02,9.100000000000000311e-01,6.060651000000000000e+09
1.950000000000000000e+02,5.590000000000000000e+02,6.900000000000000000e+02,1.080000000000000000e+02,1.010000000000000000e+02,8.830000000000000000e+02,4.290000000000000000e+02,6.630000000000000000e+02,9.000000000000000222e-01,6.081767300000000000e+09
1.660000000000000000e+02,4.880000000000000000e+02,7.700000000000000000e+02,1.280000000000000000e+02,8.200000000000000000e+01,7.550000000000000000e+02,3.150000000000000000e+02,3.480000000000000000e+02,8.900000000000000133e-01,6.103005700000000000e+09
1.680000000000000000e+02,3.700000000000000000e+02,7.330000000000000000e+02,1.330000000000000000e+02,6.800000000000000000e+01,7.830000000000000000e+02,1.980000000000000000e+02,2.440000000000000000e+02,8.800000000000000044e-01,6.121576700000000000e+09
1.440000000000000000e+02,2.940000000000000000e+02,6.840000000000000000e+02,1.410000000000000000e+02,6.700000000000000000e+01,7.410000000000000000e+02,1.870000000000000000e+02,1.980000000000000000e+02,8.699999999999999956e-01,6.142827300000000000e+09
1.500000000000000000e+02,3.550000000000000000e+02,7.510000000000000000e+02,1.780000000000000000e+02,6.000000000000000000e+01,7.970000000000000000e+02,1.730000000000000000e+02,1.820000000000000000e+02,8.599999999999999867e-01,6.161674700000000000e+09
1.620000000000000000e+02,3.710000000000000000e+02,8.370000000000000000e+02,1.940000000000000000e+02,6.600000000000000000e+01,1.006000000000000000e+03,1.760000000000000000e+02,1.570000000000000000e+02,8.399999999999999689e-01,6.202050200000000000e+09
1.920000000000000000e+02,3.830000000000000000e+02,8.020000000000000000e+02,1.860000000000000000e+02,6.100000000000000000e+01,1.014000000000000000e+03,1.740000000000000000e+02,1.460000000000000000e+02,8.399999999999999689e-01,6.202061400000000000e+09
1.700000000000000000e+02,3.890000000000000000e+02,8.460000000000000000e+02,1.850000000000000000e+02,5.600000000000000000e+01,1.184000000000000000e+03,1.560000000000000000e+02,1.090000000000000000e+02,8.299999999999999600e-01,6.220827900000000000e+09
1.580000000000000000e+02,3.780000000000000000e+02,8.770000000000000000e+02,1.760000000000000000e+02,5.000000000000000000e+01,1.180000000000000000e+03,1.530000000000000000e+02,9.100000000000000000e+01,8.199999999999999512e-01,6.242459400000000000e+09
1.490000000000000000e+02,3.050000000000000000e+02,8.080000000000000000e+02,1.290000000000000000e+02,5.600000000000000000e+01,1.226000000000000000e+03,1.470000000000000000e+02,8.200000000000000000e+01,8.100000000000000533e-01,6.261139400000000000e+09
1.450000000000000000e+02,3.090000000000000000e+02,8.160000000000000000e+02,8.700000000000000000e+01,4.600000000000000000e+01,1.251000000000000000e+03,1.450000000000000000e+02,8.000000000000000000e+01,8.000000000000000444e-01,6.282156500000000000e+09
1.610000000000000000e+02,3.250000000000000000e+02,8.990000000000000000e+02,8.000000000000000000e+01,5.100000000000000000e+01,1.248000000000000000e+03,1.100000000000000000e+02,5.500000000000000000e+01,7.900000000000000355e-01,6.300687600000000000e+09
1.630000000000000000e+02,3.300000000000000000e+02,8.380000000000000000e+02,8.000000000000000000e+01,5.000000000000000000e+01,1.197000000000000000e+03,1.040000000000000000e+02,5.200000000000000000e+01,7.800000000000000266e-01,6.321780100000000000e+09
1.600000000000000000e+02,3.200000000000000000e+02,8.020000000000000000e+02,8.600000000000000000e+01,5.300000000000000000e+01,1.201000000000000000e+03,1.010000000000000000e+02,7.400000000000000000e+01,7.700000000000000178e-01,6.340598800000000000e+09
1.630000000000000000e+02,3.140000000000000000e+02,8.440000000000000000e+02,1.240000000000000000e+02,5.100000000000000000e+01,1.100000000000000000e+03,9.600000000000000000e+01,7.600000000000000000e+01,7.600000000000000089e-01,6.362136500000000000e+09
1.540000000000000000e+02,3.050000000000000000e+02,8.000000000000000000e+02,1.270000000000000000e+02,5.200000000000000000e+01,8.960000000000000000e+02,7.700000000000000000e+01,7.300000000000000000e+01,7.500000000000000000e-01,6.380520900000000000e+09
9.400000000000000000e+01,2.570000000000000000e+02,6.790000000000000000e+02,1.230000000000000000e+02,4.600000000000000000e+01,8.370000000000000000e+02,7.400000000000000000e+01,7.300000000000000000e+01,7.399999999999999911e-01,6.401728100000000000e+09
1.660000000000000000e+02,2.470000000000000000e+02,7.540000000000000000e+02,1.230000000000000000e+02,4.400000000000000000e+01,5.410000000000000000e+02,6.700000000000000000e+01,7.300000000000000000e+01,7.299999999999999822e-01,6.420618700000000000e+09
1.690000000000000000e+02,3.040000000000000000e+02,8.070000000000000000e+02,1.300000000000000000e+02,4.900000000000000000e+01,5.350000000000000000e+02,6.700000000000000000e+01,4.800000000000000000e+01,7.199999999999999734e-01,6.441874700000000000e+09
1.700000000000000000e+02,3.070000000000000000e+02,7.860000000000000000e+02,9.500000000000000000e+01,3.900000000000000000e+01,5.290000000000000000e+02,6.400000000000000000e+01,4.100000000000000000e+01,7.099999999999999645e-01,6.463105800000000000e+09
1.800000000000000000e+02,2.800000000000000000e+02,8.140000000000000000e+02,1.060000000000000000e+02,4.400000000000000000e+01,4.190000000000000000e+02,6.400000000000000000e+01,3.800000000000000000e+01,6.999999999999999556e-01,6.481903700000000000e+09
1.990000000000000000e+02,2.800000000000000000e+02,8.760000000000000000e+02,1.130000000000000000e+02,4.500000000000000000e+01,2.500000000000000000e+02,6.000000000000000000e+01,4.200000000000000000e+01,6.899999999999999467e-01,6.503079900000000000e+09
1.640000000000000000e+02,2.810000000000000000e+02,8.480000000000000000e+02,1.140000000000000000e+02,4.700000000000000000e+01,1.800000000000000000e+02,4.300000000000000000e+01,4.300000000000000000e+01,6.800000000000000488e-01,6.521745500000000000e+09
1.890000000000000000e+02,2.600000000000000000e+02,7.320000000000000000e+02,1.050000000000000000e+02,4.500000000000000000e+01,1.180000000000000000e+02,3.600000000000000000e+01,4.200000000000000000e+01,6.700000000000000400e-01,6.542768200000000000e+09
1.900000000000000000e+02,2.620000000000000000e+02,7.120000000000000000e+02,1.060000000000000000e+02,4.700000000000000000e+01,6.700000000000000000e+01,3.600000000000000000e+01,4.400000000000000000e+01,6.600000000000000311e-01,6.561251000000000000e+09
1.830000000000000000e+02,2.640000000000000000e+02,6.830000000000000000e+02,1.020000000000000000e+02,4.500000000000000000e+01,6.200000000000000000e+01,3.300000000000000000e+01,4.100000000000000000e+01,6.500000000000000222e-01,6.582466200000000000e+09
1.680000000000000000e+02,2.690000000000000000e+02,6.750000000000000000e+02,1.130000000000000000e+02,4.700000000000000000e+01,5.800000000000000000e+01,3.100000000000000000e+01,3.800000000000000000e+01,6.400000000000000133e-01,6.600564300000000000e+09
1.590000000000000000e+02,2.660000000000000000e+02,6.730000000000000000e+02,1.150000000000000000e+02,4.700000000000000000e+01,5.200000000000000000e+01,2.900000000000000000e+01,3.500000000000000000e+01,6.300000000000000044e-01,6.621805700000000000e+09
1.440000000000000000e+02,2.550000000000000000e+02,7.310000000000000000e+02,1.430000000000000000e+02,5.000000000000000000e+01,5.900000000000000000e+01,4.400000000000000000e+01,4.000000000000000000e+01,6.099999999999999867e-01,6.661695400000000000e+09
1.410000000000000000e+02,2.590000000000000000e+02,7.530000000000000000e+02,1.580000000000000000e+02,5.000000000000000000e+01,5.900000000000000000e+01,4.300000000000000000e+01,3.800000000000000000e+01,6.099999999999999867e-01,6.661737100000000000e+09
1.600000000000000000e+02,2.600000000000000000e+02,6.930000000000000000e+02,1.560000000000000000e+02,4.800000000000000000e+01,6.000000000000000000e+01,4.400000000000000000e+01,4.100000000000000000e+01,5.999999999999999778e-01,6.682854300000000000e+09
1.550000000000000000e+02,2.780000000000000000e+02,7.150000000000000000e+02,1.510000000000000000e+02,4.500000000000000000e+01,7.000000000000000000e+01,4.400000000000000000e+01,4.100000000000000000e+01,5.899999999999999689e-01,6.701241200000000000e+09
1.610000000000000000e+02,2.760000000000000000e+02,6.940000000000000000e+02,1.490000000000000000e+02,4.400000000000000000e+01,6.200000000000000000e+01,4.400000000000000000e+01,4.200000000000000000e+01,5.799999999999999600e-01,6.722217900000000000e+09
1.680000000000000000e+02,2.760000000000000000e+02,6.840000000000000000e+02,1.240000000000000000e+02,3.600000000000000000e+01,5.800000000000000000e+01,2.900000000000000000e+01,3.900000000000000000e+01,5.699999999999999512e-01,6.740995100000000000e+09
1.680000000000000000e+02,2.790000000000000000e+02,6.790000000000000000e+02,9.800000000000000000e+01,3.400000000000000000e+01,5.800000000000000000e+01,2.900000000000000000e+01,4.000000000000000000e+01,5.600000000000000533e-01,6.762772800000000000e+09
1.480000000000000000e+02,2.970000000000000000e+02,6.710000000000000000e+02,9.600000000000000000e+01,3.300000000000000000e+01,5.700000000000000000e+01,2.700000000000000000e+01,3.800000000000000000e+01,5.500000000000000444e-01,6.781778900000000000e+09
1.410000000000000000e+02,2.710000000000000000e+02,6.430000000000000000e+02,8.700000000000000000e+01,3.400000000000000000e+01,4.100000000000000000e+01,3.600000000000000000e+01,4.000000000000000000e+01,5.400000000000000355e-01,6.802699600000000000e+09
1.210000000000000000e+02,2.900000000000000000e+02,7.010000000000000000e+02,8.400000000000000000e+01,3.400000000000000000e+01,4.100000000000000000e+01,3.700000000000000000e+01,4.200000000000000000e+01,5.300000000000000266e-01,6.821727700000000000e+09
8.700000000000000000e+01,2.800000000000000000e+02,7.680000000000000000e+02,9.100000000000000000e+01,3.800000000000000000e+01,5.200000000000000000e+01,5.300000000000000000e+01,4.200000000000000000e+01,5.200000000000000178e-01,6.842746800000000000e+09
7.900000000000000000e+01,2.820000000000000000e+02,7.420000000000000000e+02,1.070000000000000000e+02,4.200000000000000000e+01,5.000000000000000000e+01,5.200000000000000000e+01,4.100000000000000000e+01,5.100000000000000089e-01,6.861278000000000000e+09
9.300000000000000000e+01,2.750000000000000000e+02,7.880000000000000000e+02,1.340000000000000000e+02,5.100000000000000000e+01,6.600000000000000000e+01,5.400000000000000000e+01,4.300000000000000000e+01,5.000000000000000000e-01,6.888329700000000000e+09
1.020000000000000000e+02,2.990000000000000000e+02,8.750000000000000000e+02,1.500000000000000000e+02,5.200000000000000000e+01,8.600000000000000000e+01,6.000000000000000000e+01,4.400000000000000000e+01,4.799999999999999822e-01,6.921271700000000000e+09
1.340000000000000000e+02,3.110000000000000000e+02,8.750000000000000000e+02,1.620000000000000000e+02,5.700000000000000000e+01,9.200000000000000000e+01,6.300000000000000000e+01,4.600000000000000000e+01,4.799999999999999822e-01,6.921283700000000000e+09
1.320000000000000000e+02,2.970000000000000000e+02,7.990000000000000000e+02,1.530000000000000000e+02,5.300000000000000000e+01,8.800000000000000000e+01,5.100000000000000000e+01,4.400000000000000000e+01,4.699999999999999734e-01,6.942693900000000000e+09
1.400000000000000000e+02,3.020000000000000000e+02,8.270000000000000000e+02,1.500000000000000000e+02,5.200000000000000000e+01,9.000000000000000000e+01,5.300000000000000000e+01,4.500000000000000000e+01,4.600000000000000200e-01,6.961150800000000000e+09
1.300000000000000000e+02,2.980000000000000000e+02,8.030000000000000000e+02,1.220000000000000000e+02,4.400000000000000000e+01,8.400000000000000000e+01,6.300000000000000000e+01,4.300000000000000000e+01,4.500000000000000111e-01,6.980546900000000000e+09
1.260000000000000000e+02,2.960000000000000000e+02,6.910000000000000000e+02,1.040000000000000000e+02,4.400000000000000000e+01,1.400000000000000000e+02,7.800000000000000000e+01,4.100000000000000000e+01,4.400000000000000022e-01,7.002044500000000000e+09
9.400000000000000000e+01,2.950000000000000000e+02,6.660000000000000000e+02,1.310000000000000000e+02,5.300000000000000000e+01,1.480000000000000000e+02,7.900000000000000000e+01,4.400000000000000000e+01,4.199999999999999845e-01,7.041763700000000000e+09
8.900000000000000000e+01,2.990000000000000000e+02,7.720000000000000000e+02,1.330000000000000000e+02,5.300000000000000000e+01,1.480000000000000000e+02,8.100000000000000000e+01,4.400000000000000000e+01,4.199999999999999845e-01,7.041775400000000000e+09
8.900000000000000000e+01,2.870000000000000000e+02,8.480000000000000000e+02,1.460000000000000000e+02,5.800000000000000000e+01,1.520000000000000000e+02,8.100000000000000000e+01,4.700000000000000000e+01,4.099999999999999756e-01,7.060606500000000000e+09
9.100000000000000000e+01,2.800000000000000000e+02,8.990000000000000000e+02,1.610000000000000000e+02,6.000000000000000000e+01,1.520000000000000000e+02,7.800000000000000000e+01,4.900000000000000000e+01,4.000000000000000222e-01,7.081526100000000000e+09
9.300000000000000000e+01,2.770000000000000000e+02,9.660000000000000000e+02,1.820000000000000000e+02,7.100000000000000000e+01,1.880000000000000000e+02,9.000000000000000000e+01,5.300000000000000000e+01,3.900000000000000133e-01,7.102851600000000000e+09
8.700000000000000000e+01,2.560000000000000000e+02,9.870000000000000000e+02,1.660000000000000000e+02,6.200000000000000000e+01,1.850000000000000000e+02,9.100000000000000000e+01,4.500000000000000000e+01,3.800000000000000044e-01,7.121457000000000000e+09
1.170000000000000000e+02,2.670000000000000000e+02,9.720000000000000000e+02,1.780000000000000000e+02,6.900000000000000000e+01,1.870000000000000000e+02,9.300000000000000000e+01,4.800000000000000000e+01,3.699999999999999956e-01,7.142843700000000000e+09
1.300000000000000000e+02,2.860000000000000000e+02,1.010000000000000000e+03,1.830000000000000000e+02,6.900000000000000000e+01,1.870000000000000000e+02,9.200000000000000000e+01,4.600000000000000000e+01,3.599999999999999867e-01,7.161744400000000000e+09
1.320000000000000000e+02,3.000000000000000000e+02,9.430000000000000000e+02,1.800000000000000000e+02,6.800000000000000000e+01,1.900000000000000000e+02,9.300000000000000000e+01,4.600000000000000000e+01,3.499999999999999778e-01,7.182968700000000000e+09
1.320000000000000000e+02,3.000000000000000000e+02,9.230000000000000000e+02,1.690000000000000000e+02,5.900000000000000000e+01,1.220000000000000000e+02,8.500000000000000000e+01,4.200000000000000000e+01,3.400000000000000244e-01,7.201876200000000000e+09
1.340000000000000000e+02,3.100000000000000000e+02,8.740000000000000000e+02,1.630000000000000000e+02,5.800000000000000000e+01,1.210000000000000000e+02,8.300000000000000000e+01,4.100000000000000000e+01,3.300000000000000155e-01,7.220686800000000000e+09
1.230000000000000000e+02,3.630000000000000000e+02,9.570000000000000000e+02,1.620000000000000000e+02,5.500000000000000000e+01,1.180000000000000000e+02,7.900000000000000000e+01,4.200000000000000000e+01,3.200000000000000067e-01,7.242518400000000000e+09
1.100000000000000000e+02,3.720000000000000000e+02,8.810000000000000000e+02,1.520000000000000000e+02,5.400000000000000000e+01,1.210000000000000000e+02,8.400000000000000000e+01,4.300000000000000000e+01,3.099999999999999978e-01,7.261211400000000000e+09
1.230000000000000000e+02,3.860000000000000000e+02,9.190000000000000000e+02,1.730000000000000000e+02,6.600000000000000000e+01,1.130000000000000000e+02,8.000000000000000000e+01,5.200000000000000000e+01,2.999999999999999889e-01,7.282480700000000000e+09
1.310000000000000000e+02,4.070000000000000000e+02,9.700000000000000000e+02,1.910000000000000000e+02,7.600000000000000000e+01,9.700000000000000000e+01,5.700000000000000000e+01,5.500000000000000000e+01,2.899999999999999800e-01,7.301317600000000000e+09
1.360000000000000000e+02,3.950000000000000000e+02,1.115000000000000000e+03,2.030000000000000000e+02,8.000000000000000000e+01,9.700000000000000000e+01,6.000000000000000000e+01,5.800000000000000000e+01,2.800000000000000266e-01,7.322884800000000000e+09
1.460000000000000000e+02,4.210000000000000000e+02,1.103000000000000000e+03,2.410000000000000000e+02,9.300000000000000000e+01,9.600000000000000000e+01,6.200000000000000000e+01,6.400000000000000000e+01,2.700000000000000178e-01,7.341895300000000000e+09
1.640000000000000000e+02,4.650000000000000000e+02,1.160000000000000000e+03,2.770000000000000000e+02,1.050000000000000000e+02,9.200000000000000000e+01,6.100000000000000000e+01,7.500000000000000000e+01,2.600000000000000089e-01,7.360876600000000000e+09
1.570000000000000000e+02,4.750000000000000000e+02,1.217000000000000000e+03,2.700000000000000000e+02,1.000000000000000000e+02,9.300000000000000000e+01,6.100000000000000000e+01,7.000000000000000000e+01,2.500000000000000000e-01,7.382014400000000000e+09
1.760000000000000000e+02,5.370000000000000000e+02,1.211000000000000000e+03,2.990000000000000000e+02,1.110000000000000000e+02,8.700000000000000000e+01,6.700000000000000000e+01,8.100000000000000000e+01,2.399999999999999911e-01,7.402998300000000000e+09
1.790000000000000000e+02,5.470000000000000000e+02,1.187000000000000000e+03,3.070000000000000000e+02,1.120000000000000000e+02,7.700000000000000000e+01,6.300000000000000000e+01,8.000000000000000000e+01,2.300000000000000100e-01,7.421644100000000000e+09
1.720000000000000000e+02,5.400000000000000000e+02,1.161000000000000000e+03,2.880000000000000000e+02,1.040000000000000000e+02,7.600000000000000000e+01,6.100000000000000000e+01,7.600000000000000000e+01,2.200000000000000011e-01,7.440532600000000000e+09
1.780000000000000000e+02,5.310000000000000000e+02,1.267000000000000000e+03,3.100000000000000000e+02,1.120000000000000000e+02,7.900000000000000000e+01,6.300000000000000000e+01,7.800000000000000000e+01,2.099999999999999922e-01,7.461507000000000000e+09
1.810000000000000000e+02,5.260000000000000000e+02,1.364000000000000000e+03,3.490000000000000000e+02,1.210000000000000000e+02,8.100000000000000000e+01,6.500000000000000000e+01,8.300000000000000000e+01,2.000000000000000111e-01,7.482300800000000000e+09
1.990000000000000000e+02,5.320000000000000000e+02,1.356000000000000000e+03,4.050000000000000000e+02,1.410000000000000000e+02,8.800000000000000000e+01,6.300000000000000000e+01,9.500000000000000000e+01,1.900000000000000022e-01,7.500887900000000000e+09
1.950000000000000000e+02,5.780000000000000000e+02,1.312000000000000000e+03,4.010000000000000000e+02,1.430000000000000000e+02,9.100000000000000000e+01,6.300000000000000000e+01,9.500000000000000000e+01,1.700000000000000122e-01,7.541589800000000000e+09
1.960000000000000000e+02,5.740000000000000000e+02,1.384000000000000000e+03,4.260000000000000000e+02,1.480000000000000000e+02,9.400000000000000000e+01,6.700000000000000000e+01,9.700000000000000000e+01,1.700000000000000122e-01,7.541602100000000000e+09
1.890000000000000000e+02,5.480000000000000000e+02,1.285000000000000000e+03,4.290000000000000000e+02,1.480000000000000000e+02,8.800000000000000000e+01,6.600000000000000000e+01,9.700000000000000000e+01,1.600000000000000033e-01,7.563016200000000000e+09
2.600000000000000000e+02,6.130000000000000000e+02,1.206000000000000000e+03,4.920000000000000000e+02,1.750000000000000000e+02,1.040000000000000000e+02,8.400000000000000000e+01,1.260000000000000000e+02,1.499999999999999944e-01,7.581794700000000000e+09
2.730000000000000000e+02,6.240000000000000000e+02,1.228000000000000000e+03,5.200000000000000000e+02,1.810000000000000000e+02,1.060000000000000000e+02,9.200000000000000000e+01,1.250000000000000000e+02,1.400000000000000133e-01,7.602743600000000000e+09
2.980000000000000000e+02,6.630000000000000000e+02,1.254000000000000000e+03,5.490000000000000000e+02,1.920000000000000000e+02,1.110000000000000000e+02,9.900000000000000000e+01,1.360000000000000000e+02,1.300000000000000044e-01,7.621719000000000000e+09
3.240000000000000000e+02,6.710000000000000000e+02,1.232000000000000000e+03,5.540000000000000000e+02,2.040000000000000000e+02,1.140000000000000000e+02,1.010000000000000000e+02,1.440000000000000000e+02,1.100000000000000006e-01,7.661593600000000000e+09
3.650000000000000000e+02,8.500000000000000000e+02,1.188000000000000000e+03,5.870000000000000000e+02,2.140000000000000000e+02,1.300000000000000000e+02,1.120000000000000000e+02,1.580000000000000000e+02,1.100000000000000006e-01,7.661607800000000000e+09
3.540000000000000000e+02,8.300000000000000000e+02,1.191000000000000000e+03,5.930000000000000000e+02,2.290000000000000000e+02,1.400000000000000000e+02,1.120000000000000000e+02,1.510000000000000000e+02,1.000000000000000056e-01,7.682899900000000000e+09
3.470000000000000000e+02,8.410000000000000000e+02,1.187000000000000000e+03,5.390000000000000000e+02,2.060000000000000000e+02,1.290000000000000000e+02,1.040000000000000000e+02,1.480000000000000000e+02,8.999999999999999667e-02,7.701943100000000000e+09
4.100000000000000000e+02,9.040000000000000000e+02,1.249000000000000000e+03,5.810000000000000000e+02,2.260000000000000000e+02,1.450000000000000000e+02,1.180000000000000000e+02,1.700000000000000000e+02,8.000000000000000167e-02,7.720686300000000000e+09
4.660000000000000000e+02,9.840000000000000000e+02,1.181000000000000000e+03,6.440000000000000000e+02,2.440000000000000000e+02,1.610000000000000000e+02,1.320000000000000000e+02,2.000000000000000000e+02,7.000000000000000666e-02,7.741945300000000000e+09
5.120000000000000000e+02,1.036000000000000000e+03,1.279000000000000000e+03,6.240000000000000000e+02,2.510000000000000000e+02,1.600000000000000000e+02,1.340000000000000000e+02,2.140000000000000000e+02,5.999999999999999778e-02,7.760656500000000000e+09
5.380000000000000000e+02,1.148000000000000000e+03,1.249000000000000000e+03,6.630000000000000000e+02,2.470000000000000000e+02,1.540000000000000000e+02,1.340000000000000000e+02,2.300000000000000000e+02,5.000000000000000278e-02,7.782473900000000000e+09
5.220000000000000000e+02,1.143000000000000000e+03,1.247000000000000000e+03,6.490000000000000000e+02,2.450000000000000000e+02,1.630000000000000000e+02,1.380000000000000000e+02,2.390000000000000000e+02,4.000000000000000083e-02,7.801143700000000000e+09
4.690000000000000000e+02,1.068000000000000000e+03,1.241000000000000000e+03,6.080000000000000000e+02,2.210000000000000000e+02,1.550000000000000000e+02,1.410000000000000000e+02,2.690000000000000000e+02,2.999999999999999889e-02,7.822604600000000000e+09
3.990000000000000000e+02,9.820000000000000000e+02,1.215000000000000000e+03,5.190000000000000000e+02,1.870000000000000000e+02,1.550000000000000000e+02,1.310000000000000000e+02,2.550000000000000000e+02,2.000000000000000042e-02,7.841219000000000000e+09
2.820000000000000000e+02,7.660000000000000000e+02,1.077000000000000000e+03,4.760000000000000000e+02,1.550000000000000000e+02,2.740000000000000000e+02,1.860000000000000000e+02,2.930000000000000000e+02,1.000000000000000021e-02,7.862659700000000000e+09
1.670000000000000000e+02,5.340000000000000000e+02,1.018000000000000000e+03,2.900000000000000000e+02,9.600000000000000000e+01,4.290000000000000000e+02,2.050000000000000000e+02,3.840000000000000000e+02,0.000000000000000000e+00,7.881262100000000000e+09
2.100000000000000000e+02,4.920000000000000000e+02,9.650000000000000000e+02,2.920000000000000000e+02,1.130000000000000000e+02,4.770000000000000000e+02,2.300000000000000000e+02,5.640000000000000000e+02,1.000000000000000021e-02,7.902565000000000000e+09
2.010000000000000000e+02,4.740000000000000000e+02,8.510000000000000000e+02,2.680000000000000000e+02,1.020000000000000000e+02,5.790000000000000000e+02,2.680000000000000000e+02,7.220000000000000000e+02,2.000000000000000042e-02,7.921414000000000000e+09
1.900000000000000000e+02,4.390000000000000000e+02,7.650000000000000000e+02,2.480000000000000000e+02,9.700000000000000000e+01,6.860000000000000000e+02,2.750000000000000000e+02,8.350000000000000000e+02,2.999999999999999889e-02,7.942461700000000000e+09
2.020000000000000000e+02,4.590000000000000000e+02,7.570000000000000000e+02,2.340000000000000000e+02,9.700000000000000000e+01,7.270000000000000000e+02,3.100000000000000000e+02,9.960000000000000000e+02,4.000000000000000083e-02,7.961048200000000000e+09
2.630000000000000000e+02,5.280000000000000000e+02,7.020000000000000000e+02,2.720000000000000000e+02,1.090000000000000000e+02,7.090000000000000000e+02,3.600000000000000000e+02,1.021000000000000000e+03,5.000000000000000278e-02,7.982526700000000000e+09
2.580000000000000000e+02,5.050000000000000000e+02,6.300000000000000000e+02,2.460000000000000000e+02,9.000000000000000000e+01,7.030000000000000000e+02,3.870000000000000000e+02,9.920000000000000000e+02,5.999999999999999778e-02,8.001411200000000000e+09
2.670000000000000000e+02,5.560000000000000000e+02,5.380000000000000000e+02,2.060000000000000000e+02,9.200000000000000000e+01,6.680000000000000000e+02,3.850000000000000000e+02,9.720000000000000000e+02,7.000000000000000666e-02,8.022948500000000000e+09
2.690000000000000000e+02,5.670000000000000000e+02,5.910000000000000000e+02,2.020000000000000000e+02,8.600000000000000000e+01,6.390000000000000000e+02,3.960000000000000000e+02,9.330000000000000000e+02,8.000000000000000167e-02,8.041647200000000000e+09
2.630000000000000000e+02,5.470000000000000000e+02,5.330000000000000000e+02,2.120000000000000000e+02,8.500000000000000000e+01,6.350000000000000000e+02,3.910000000000000000e+02,8.200000000000000000e+02,8.999999999999999667e-02,8.061660500000000000e+09
2.350000000000000000e+02,4.940000000000000000e+02,6.910000000000000000e+02,1.690000000000000000e+02,6.400000000000000000e+01,5.810000000000000000e+02,3.650000000000000000e+02,8.410000000000000000e+02,1.000000000000000056e-01,8.083323700000000000e+09
2.740000000000000000e+02,4.760000000000000000e+02,7.760000000000000000e+02,1.570000000000000000e+02,6.500000000000000000e+01,5.560000000000000000e+02,3.270000000000000000e+02,8.020000000000000000e+02,1.100000000000000006e-01,8.100621000000000000e+09
2.630000000000000000e+02,3.720000000000000000e+02,8.240000000000000000e+02,1.640000000000000000e+02,7.200000000000000000e+01,5.120000000000000000e+02,3.240000000000000000e+02,6.950000000000000000e+02,1.199999999999999956e-01,8.120982900000000000e+09
2.680000000000000000e+02,3.550000000000000000e+02,8.060000000000000000e+02,1.670000000000000000e+02,7.700000000000000000e+01,4.370000000000000000e+02,3.810000000000000000e+02,6.630000000000000000e+02,1.400000000000000133e-01,8.162836400000000000e+09
2.700000000000000000e+02,3.360000000000000000e+02,8.020000000000000000e+02,1.540000000000000000e+02,7.400000000000000000e+01,3.600000000000000000e+02,3.510000000000000000e+02,6.410000000000000000e+02,1.400000000000000133e-01,8.162882100000000000e+09
2.440000000000000000e+02,3.150000000000000000e+02,6.930000000000000000e+02,1.460000000000000000e+02,8.200000000000000000e+01,3.650000000000000000e+02,3.210000000000000000e+02,6.420000000000000000e+02,1.600000000000000033e-01,8.202550000000000000e+09
2.060000000000000000e+02,3.390000000000000000e+02,5.950000000000000000e+02,1.690000000000000000e+02,9.000000000000000000e+01,3.610000000000000000e+02,3.600000000000000000e+02,6.440000000000000000e+02,1.600000000000000033e-01,8.202561000000000000e+09
1.950000000000000000e+02,3.220000000000000000e+02,4.830000000000000000e+02,1.520000000000000000e+02,8.000000000000000000e+01,3.940000000000000000e+02,3.400000000000000000e+02,6.490000000000000000e+02,1.799999999999999933e-01,8.241735200000000000e+09
1.850000000000000000e+02,3.090000000000000000e+02,4.470000000000000000e+02,1.460000000000000000e+02,7.600000000000000000e+01,4.280000000000000000e+02,2.730000000000000000e+02,6.510000000000000000e+02,1.799999999999999933e-01,8.241746300000000000e+09
1.910000000000000000e+02,3.480000000000000000e+02,4.290000000000000000e+02,1.400000000000000000e+02,7.300000000000000000e+01,3.820000000000000000e+02,2.700000000000000000e+02,6.010000000000000000e+02,1.900000000000000022e-01,8.262802100000000000e+09
1.910000000000000000e+02,4.030000000000000000e+02,4.840000000000000000e+02,1.340000000000000000e+02,6.500000000000000000e+01,3.790000000000000000e+02,2.850000000000000000e+02,4.840000000000000000e+02,2.000000000000000111e-01,8.281276400000000000e+09
1.740000000000000000e+02,3.820000000000000000e+02,4.500000000000000000e+02,1.270000000000000000e+02,5.800000000000000000e+01,4.120000000000000000e+02,2.690000000000000000e+02,5.160000000000000000e+02,2.099999999999999922e-01,8.302464100000000000e+09
1.980000000000000000e+02,3.830000000000000000e+02,4.320000000000000000e+02,1.310000000000000000e+02,5.600000000000000000e+01,3.810000000000000000e+02,2.800000000000000000e+02,5.510000000000000000e+02,2.300000000000000100e-01,8.341967700000000000e+09
2.180000000000000000e+02,3.860000000000000000e+02,4.260000000000000000e+02,1.300000000000000000e+02,5.600000000000000000e+01,3.380000000000000000e+02,3.290000000000000000e+02,6.050000000000000000e+02,2.300000000000000100e-01,8.341978800000000000e+09
2.060000000000000000e+02,4.280000000000000000e+02,4.300000000000000000e+02,1.300000000000000000e+02,5.500000000000000000e+01,3.400000000000000000e+02,3.750000000000000000e+02,5.990000000000000000e+02,2.399999999999999911e-01,8.360899500000000000e+09
2.080000000000000000e+02,4.150000000000000000e+02,4.950000000000000000e+02,1.390000000000000000e+02,5.500000000000000000e+01,3.160000000000000000e+02,4.910000000000000000e+02,6.530000000000000000e+02,2.500000000000000000e-01,8.382335900000000000e+09
1.760000000000000000e+02,3.970000000000000000e+02,5.700000000000000000e+02,1.020000000000000000e+02,4.200000000000000000e+01,3.260000000000000000e+02,4.930000000000000000e+02,6.500000000000000000e+02,2.600000000000000089e-01,8.400986400000000000e+09
1.950000000000000000e+02,4.320000000000000000e+02,5.980000000000000000e+02,9.800000000000000000e+01,4.300000000000000000e+01,3.430000000000000000e+02,5.170000000000000000e+02,6.690000000000000000e+02,2.700000000000000178e-01,8.422196000000000000e+09
2.180000000000000000e+02,4.460000000000000000e+02,6.030000000000000000e+02,9.800000000000000000e+01,4.400000000000000000e+01,3.460000000000000000e+02,5.050000000000000000e+02,5.950000000000000000e+02,2.899999999999999800e-01,8.462225800000000000e+09
2.390000000000000000e+02,3.870000000000000000e+02,6.000000000000000000e+02,9.800000000000000000e+01,4.400000000000000000e+01,3.620000000000000000e+02,4.740000000000000000e+02,6.890000000000000000e+02,2.999999999999999889e-01,8.481034900000000000e+09
2.450000000000000000e+02,3.410000000000000000e+02,5.190000000000000000e+02,8.500000000000000000e+01,4.400000000000000000e+01,3.610000000000000000e+02,3.740000000000000000e+02,7.130000000000000000e+02,2.999999999999999889e-01,8.481047500000000000e+09
2.480000000000000000e+02,3.290000000000000000e+02,4.180000000000000000e+02,8.500000000000000000e+01,4.600000000000000000e+01,3.100000000000000000e+02,3.610000000000000000e+02,6.620000000000000000e+02,3.099999999999999978e-01,8.502124500000000000e+09
2.190000000000000000e+02,2.760000000000000000e+02,3.650000000000000000e+02,7.700000000000000000e+01,4.600000000000000000e+01,2.890000000000000000e+02,3.310000000000000000e+02,7.270000000000000000e+02,3.200000000000000067e-01,8.520508200000000000e+09
1.760000000000000000e+02,2.540000000000000000e+02,3.530000000000000000e+02,7.700000000000000000e+01,4.300000000000000000e+01,2.340000000000000000e+02,3.570000000000000000e+02,7.300000000000000000e+02,3.300000000000000155e-01,8.541829600000000000e+09
1.910000000000000000e+02,2.700000000000000000e+02,4.430000000000000000e+02,8.000000000000000000e+01,4.300000000000000000e+01,1.900000000000000000e+02,3.960000000000000000e+02,7.290000000000000000e+02,3.499999999999999778e-01,8.581671200000000000e+09
1.840000000000000000e+02,3.170000000000000000e+02,3.990000000000000000e+02,7.800000000000000000e+01,3.800000000000000000e+01,1.720000000000000000e+02,4.100000000000000000e+02,6.760000000000000000e+02,3.499999999999999778e-01,8.581721500000000000e+09
1.950000000000000000e+02,3.440000000000000000e+02,3.800000000000000000e+02,7.800000000000000000e+01,3.800000000000000000e+01,1.600000000000000000e+02,4.140000000000000000e+02,7.270000000000000000e+02,3.599999999999999867e-01,8.602718500000000000e+09
1.970000000000000000e+02,3.520000000000000000e+02,3.830000000000000000e+02,7.800000000000000000e+01,4.000000000000000000e+01,1.660000000000000000e+02,4.200000000000000000e+02,6.680000000000000000e+02,3.699999999999999956e-01,8.621393100000000000e+09
2.000000000000000000e+02,3.640000000000000000e+02,3.830000000000000000e+02,7.600000000000000000e+01,3.900000000000000000e+01,1.940000000000000000e+02,4.630000000000000000e+02,7.330000000000000000e+02,3.800000000000000044e-01,8.642590500000000000e+09
1.530000000000000000e+02,3.380000000000000000e+02,3.180000000000000000e+02,7.300000000000000000e+01,4.300000000000000000e+01,1.930000000000000000e+02,4.440000000000000000e+02,6.970000000000000000e+02,3.900000000000000133e-01,8.660872200000000000e+09
1.420000000000000000e+02,3.650000000000000000e+02,4.610000000000000000e+02,6.000000000000000000e+01,4.100000000000000000e+01,1.930000000000000000e+02,4.120000000000000000e+02,6.820000000000000000e+02,4.000000000000000222e-01,8.681910500000000000e+09
1.610000000000000000e+02,3.610000000000000000e+02,4.670000000000000000e+02,5.600000000000000000e+01,4.100000000000000000e+01,1.990000000000000000e+02,4.380000000000000000e+02,6.580000000000000000e+02,4.099999999999999756e-01,8.700815600000000000e+09
1.620000000000000000e+02,3.680000000000000000e+02,4.730000000000000000e+02,5.700000000000000000e+01,4.100000000000000000e+01,1.640000000000000000e+02,4.260000000000000000e+02,7.240000000000000000e+02,4.199999999999999845e-01,8.721376700000000000e+09
1.430000000000000000e+02,4.150000000000000000e+02,4.910000000000000000e+02,5.700000000000000000e+01,4.200000000000000000e+01,1.190000000000000000e+02,3.370000000000000000e+02,6.770000000000000000e+02,4.400000000000000022e-01,8.762219500000000000e+09
1.560000000000000000e+02,4.110000000000000000e+02,4.790000000000000000e+02,6.800000000000000000e+01,4.400000000000000000e+01,1.360000000000000000e+02,4.320000000000000000e+02,7.000000000000000000e+02,4.400000000000000022e-01,8.762231500000000000e+09
1.730000000000000000e+02,3.590000000000000000e+02,3.060000000000000000e+02,5.600000000000000000e+01,4.100000000000000000e+01,1.510000000000000000e+02,4.330000000000000000e+02,7.090000000000000000e+02,4.500000000000000111e-01,8.780790100000000000e+09
1.510000000000000000e+02,3.440000000000000000e+02,3.250000000000000000e+02,5.600000000000000000e+01,4.000000000000000000e+01,1.660000000000000000e+02,4.120000000000000000e+02,7.020000000000000000e+02,4.600000000000000200e-01,8.802282400000000000e+09
1.930000000000000000e+02,3.280000000000000000e+02,3.370000000000000000e+02,5.800000000000000000e+01,3.800000000000000000e+01,1.620000000000000000e+02,4.830000000000000000e+02,5.990000000000000000e+02,4.699999999999999734e-01,8.820826800000000000e+09
2.110000000000000000e+02,2.480000000000000000e+02,3.140000000000000000e+02,5.700000000000000000e+01,3.700000000000000000e+01,1.630000000000000000e+02,4.720000000000000000e+02,5.950000000000000000e+02,4.799999999999999822e-01,8.842474300000000000e+09
2.140000000000000000e+02,2.470000000000000000e+02,3.260000000000000000e+02,4.200000000000000000e+01,3.100000000000000000e+01,1.530000000000000000e+02,3.730000000000000000e+02,6.480000000000000000e+02,5.000000000000000000e-01,8.881832600000000000e+09
2.170000000000000000e+02,2.510000000000000000e+02,3.590000000000000000e+02,4.900000000000000000e+01,3.500000000000000000e+01,1.740000000000000000e+02,5.160000000000000000e+02,6.800000000000000000e+02,5.000000000000000000e-01,8.881845500000000000e+09
2.450000000000000000e+02,3.060000000000000000e+02,3.840000000000000000e+02,6.200000000000000000e+01,4.400000000000000000e+01,1.910000000000000000e+02,5.360000000000000000e+02,7.550000000000000000e+02,5.100000000000000089e-01,8.902975800000000000e+09
2.200000000000000000e+02,3.590000000000000000e+02,4.560000000000000000e+02,6.500000000000000000e+01,4.600000000000000000e+01,1.990000000000000000e+02,5.050000000000000000e+02,7.620000000000000000e+02,5.200000000000000178e-01,8.921604400000000000e+09
2.180000000000000000e+02,3.570000000000000000e+02,4.730000000000000000e+02,6.500000000000000000e+01,4.500000000000000000e+01,2.430000000000000000e+02,5.830000000000000000e+02,7.990000000000000000e+02,5.300000000000000266e-01,8.942893800000000000e+09
2.180000000000000000e+02,3.870000000000000000e+02,4.550000000000000000e+02,6.600000000000000000e+01,4.800000000000000000e+01,2.980000000000000000e+02,6.570000000000000000e+02,7.630000000000000000e+02,5.400000000000000355e-01,8.961937300000000000e+09
2.720000000000000000e+02,4.180000000000000000e+02,4.570000000000000000e+02,6.200000000000000000e+01,4.700000000000000000e+01,3.040000000000000000e+02,5.610000000000000000e+02,8.560000000000000000e+02,5.600000000000000533e-01,9.002503800000000000e+09
2.510000000000000000e+02,3.860000000000000000e+02,4.240000000000000000e+02,5.700000000000000000e+01,4.200000000000000000e+01,3.360000000000000000e+02,5.380000000000000000e+02,8.410000000000000000e+02,5.699999999999999512e-01,9.021646300000000000e+09
2.520000000000000000e+02,3.450000000000000000e+02,3.270000000000000000e+02,4.900000000000000000e+01,3.900000000000000000e+01,3.380000000000000000e+02,5.860000000000000000e+02,8.530000000000000000e+02,5.699999999999999512e-01,9.021656800000000000e+09
2.450000000000000000e+02,3.890000000000000000e+02,3.020000000000000000e+02,4.900000000000000000e+01,4.800000000000000000e+01,3.580000000000000000e+02,5.760000000000000000e+02,8.430000000000000000e+02,5.799999999999999600e-01,9.043049600000000000e+09
2.600000000000000000e+02,4.070000000000000000e+02,3.190000000000000000e+02,5.100000000000000000e+01,4.600000000000000000e+01,3.350000000000000000e+02,5.810000000000000000e+02,8.190000000000000000e+02,5.999999999999999778e-01,9.082219200000000000e+09
1.950000000000000000e+02,3.750000000000000000e+02,2.480000000000000000e+02,5.200000000000000000e+01,4.800000000000000000e+01,3.430000000000000000e+02,6.530000000000000000e+02,7.340000000000000000e+02,5.999999999999999778e-01,9.082231200000000000e+09
1.880000000000000000e+02,3.670000000000000000e+02,1.990000000000000000e+02,4.300000000000000000e+01,4.500000000000000000e+01,3.420000000000000000e+02,6.890000000000000000e+02,7.610000000000000000e+02,6.199999999999999956e-01,9.121977600000000000e+09
2.040000000000000000e+02,4.180000000000000000e+02,2.320000000000000000e+02,4.500000000000000000e+01,4.600000000000000000e+01,3.580000000000000000e+02,7.050000000000000000e+02,8.250000000000000000e+02,6.300000000000000044e-01,9.143164100000000000e+09
2.100000000000000000e+02,4.400000000000000000e+02,2.980000000000000000e+02,4.800000000000000000e+01,4.100000000000000000e+01,3.310000000000000000e+02,6.780000000000000000e+02,8.940000000000000000e+02,6.300000000000000044e-01,9.143174700000000000e+09
1.920000000000000000e+02,4.400000000000000000e+02,2.710000000000000000e+02,4.400000000000000000e+01,4.700000000000000000e+01,5.230000000000000000e+02,6.220000000000000000e+02,9.020000000000000000e+02,6.400000000000000133e-01,9.161921000000000000e+09
1.850000000000000000e+02,4.410000000000000000e+02,2.720000000000000000e+02,4.200000000000000000e+01,5.000000000000000000e+01,5.970000000000000000e+02,5.810000000000000000e+02,9.060000000000000000e+02,6.600000000000000311e-01,9.201727300000000000e+09
1.900000000000000000e+02,4.930000000000000000e+02,2.880000000000000000e+02,4.600000000000000000e+01,5.300000000000000000e+01,5.980000000000000000e+02,6.120000000000000000e+02,8.580000000000000000e+02,6.600000000000000311e-01,9.201738700000000000e+09
1.870000000000000000e+02,5.270000000000000000e+02,3.030000000000000000e+02,4.800000000000000000e+01,5.900000000000000000e+01,6.220000000000000000e+02,5.570000000000000000e+02,8.190000000000000000e+02,6.700000000000000400e-01,9.223156800000000000e+09
1.770000000000000000e+02,5.100000000000000000e+02,2.350000000000000000e+02,4.700000000000000000e+01,6.900000000000000000e+01,6.810000000000000000e+02,6.130000000000000000e+02,7.620000000000000000e+02,6.899999999999999467e-01,9.260744100000000000e+09
1.680000000000000000e+02,5.540000000000000000e+02,2.710000000000000000e+02,4.900000000000000000e+01,6.800000000000000000e+01,6.470000000000000000e+02,6.120000000000000000e+02,7.310000000000000000e+02,6.899999999999999467e-01,9.260755200000000000e+09
1.770000000000000000e+02,6.460000000000000000e+02,2.890000000000000000e+02,5.500000000000000000e+01,7.700000000000000000e+01,6.410000000000000000e+02,6.420000000000000000e+02,7.520000000000000000e+02,7.099999999999999645e-01,9.301243800000000000e+09
1.970000000000000000e+02,6.340000000000000000e+02,2.700000000000000000e+02,5.100000000000000000e+01,8.700000000000000000e+01,8.040000000000000000e+02,6.010000000000000000e+02,7.530000000000000000e+02,7.199999999999999734e-01,9.322761300000000000e+09
2.050000000000000000e+02,5.830000000000000000e+02,2.680000000000000000e+02,6.100000000000000000e+01,9.200000000000000000e+01,8.680000000000000000e+02,6.440000000000000000e+02,7.460000000000000000e+02,7.199999999999999734e-01,9.322772800000000000e+09
2.240000000000000000e+02,5.570000000000000000e+02,2.700000000000000000e+02,6.300000000000000000e+01,8.600000000000000000e+01,8.470000000000000000e+02,5.790000000000000000e+02,7.830000000000000000e+02,7.299999999999999822e-01,9.341389000000000000e+09
2.380000000000000000e+02,4.910000000000000000e+02,2.690000000000000000e+02,6.200000000000000000e+01,8.700000000000000000e+01,8.210000000000000000e+02,5.910000000000000000e+02,7.810000000000000000e+02,7.500000000000000000e-01,9.381008400000000000e+09
2.540000000000000000e+02,3.490000000000000000e+02,2.790000000000000000e+02,5.800000000000000000e+01,8.000000000000000000e+01,8.150000000000000000e+02,6.100000000000000000e+02,7.990000000000000000e+02,7.500000000000000000e-01,9.381020400000000000e+09
2.520000000000000000e+02,4.040000000000000000e+02,2.970000000000000000e+02,6.200000000000000000e+01,6.800000000000000000e+01,6.710000000000000000e+02,6.310000000000000000e+02,8.140000000000000000e+02,7.600000000000000089e-01,9.402390200000000000e+09
2.630000000000000000e+02,4.290000000000000000e+02,2.650000000000000000e+02,5.300000000000000000e+01,5.700000000000000000e+01,5.910000000000000000e+02,6.880000000000000000e+02,8.130000000000000000e+02,7.800000000000000266e-01,9.442660100000000000e+09
2.670000000000000000e+02,4.700000000000000000e+02,2.690000000000000000e+02,5.400000000000000000e+01,6.500000000000000000e+01,6.720000000000000000e+02,7.780000000000000000e+02,8.410000000000000000e+02,7.800000000000000266e-01,9.442681800000000000e+09
2.700000000000000000e+02,5.260000000000000000e+02,2.440000000000000000e+02,5.500000000000000000e+01,6.200000000000000000e+01,6.630000000000000000e+02,8.090000000000000000e+02,8.970000000000000000e+02,7.900000000000000355e-01,9.461302000000000000e+09
2.520000000000000000e+02,5.370000000000000000e+02,2.140000000000000000e+02,5.200000000000000000e+01,5.900000000000000000e+01,6.980000000000000000e+02,8.190000000000000000e+02,8.640000000000000000e+02,8.100000000000000533e-01,9.501020900000000000e+09
2.640000000000000000e+02,5.120000000000000000e+02,2.090000000000000000e+02,5.800000000000000000e+01,7.500000000000000000e+01,7.770000000000000000e+02,8.970000000000000000e+02,9.450000000000000000e+02,8.100000000000000533e-01,9.501033000000000000e+09
2.350000000000000000e+02,4.920000000000000000e+02,2.100000000000000000e+02,5.700000000000000000e+01,7.800000000000000000e+01,8.860000000000000000e+02,8.580000000000000000e+02,9.550000000000000000e+02,8.199999999999999512e-01,9.522068400000000000e+09
2.370000000000000000e+02,5.300000000000000000e+02,2.110000000000000000e+02,5.900000000000000000e+01,8.000000000000000000e+01,8.860000000000000000e+02,8.320000000000000000e+02,9.500000000000000000e+02,8.399999999999999689e-01,9.562176900000000000e+09
2.610000000000000000e+02,4.810000000000000000e+02,1.980000000000000000e+02,6.100000000000000000e+01,8.800000000000000000e+01,9.060000000000000000e+02,8.760000000000000000e+02,9.740000000000000000e+02,8.399999999999999689e-01,9.562187800000000000e+09
2.940000000000000000e+02,4.840000000000000000e+02,2.060000000000000000e+02,6.400000000000000000e+01,9.000000000000000000e+01,9.030000000000000000e+02,9.510000000000000000e+02,1.080000000000000000e+03,8.599999999999999867e-01,9.601846900000000000e+09
