7.300000000000000000e+01,3.160000000000000000e+02,5.760000000000000000e+02,7.000000000000000000e+01,3.300000000000000000e+01,9.200000000000000000e+01,5.800000000000000000e+01,1.740000000000000000e+02,2.999999999999999889e-02,1.861230000000000000e+07
7.300000000000000000e+01,2.650000000000000000e+02,5.880000000000000000e+02,7.300000000000000000e+01,3.500000000000000000e+01,9.300000000000000000e+01,5.900000000000000000e+01,1.730000000000000000e+02,4.000000000000000083e-02,3.314976000000000000e+08
7.400000000000000000e+01,2.840000000000000000e+02,7.010000000000000000e+02,7.300000000000000000e+01,3.500000000000000000e+01,8.800000000000000000e+01,4.300000000000000000e+01,8.100000000000000000e+01,4.000000000000000083e-02,3.315093000000000000e+08
7.600000000000000000e+01,2.860000000000000000e+02,6.790000000000000000e+02,7.300000000000000000e+01,3.300000000000000000e+01,5.400000000000000000e+01,3.300000000000000000e+01,8.100000000000000000e+01,4.000000000000000083e-02,3.315175000000000000e+08
6.300000000000000000e+01,2.380000000000000000e+02,6.750000000000000000e+02,6.600000000000000000e+01,3.000000000000000000e+01,3.500000000000000000e+01,3.000000000000000000e+01,8.000000000000000000e+01,4.000000000000000083e-02,3.315359000000000000e+08
7.300000000000000000e+01,2.480000000000000000e+02,7.140000000000000000e+02,8.300000000000000000e+01,3.700000000000000000e+01,4.900000000000000000e+01,2.900000000000000000e+01,1.480000000000000000e+02,4.000000000000000083e-02,3.315437000000000000e+08
7.200000000000000000e+01,2.400000000000000000e+02,8.490000000000000000e+02,9.800000000000000000e+01,4.500000000000000000e+01,8.000000000000000000e+01,5.300000000000000000e+01,1.550000000000000000e+02,4.000000000000000083e-02,3.315509000000000000e+08
7.500000000000000000e+01,2.210000000000000000e+02,8.240000000000000000e+02,1.000000000000000000e+02,4.600000000000000000e+01,8.100000000000000000e+01,5.200000000000000000e+01,1.650000000000000000e+02,4.000000000000000083e-02,3.315581000000000000e+08
7.300000000000000000e+01,2.260000000000000000e+02,8.470000000000000000e+02,1.110000000000000000e+02,4.600000000000000000e+01,8.300000000000000000e+01,5.700000000000000000e+01,2.090000000000000000e+02,4.000000000000000083e-02,3.315654000000000000e+08
7.200000000000000000e+01,2.390000000000000000e+02,8.820000000000000000e+02,1.130000000000000000e+02,4.900000000000000000e+01,1.360000000000000000e+02,7.900000000000000000e+01,2.320000000000000000e+02,4.000000000000000083e-02,3.315725000000000000e+08
6.900000000000000000e+01,2.330000000000000000e+02,9.100000000000000000e+02,1.200000000000000000e+02,4.900000000000000000e+01,1.410000000000000000e+02,8.200000000000000000e+01,2.040000000000000000e+02,4.000000000000000083e-02,3.315842000000000000e+08
7.600000000000000000e+01,2.650000000000000000e+02,8.450000000000000000e+02,1.110000000000000000e+02,4.500000000000000000e+01,1.280000000000000000e+02,7.100000000000000000e+01,2.010000000000000000e+02,4.000000000000000083e-02,3.315921000000000000e+08
9.200000000000000000e+01,3.050000000000000000e+02,9.010000000000000000e+02,1.350000000000000000e+02,5.400000000000000000e+01,1.320000000000000000e+02,7.400000000000000000e+01,2.500000000000000000e+02,4.000000000000000083e-02,3.315999000000000000e+08
8.500000000000000000e+01,3.010000000000000000e+02,9.580000000000000000e+02,1.250000000000000000e+02,5.200000000000000000e+01,1.470000000000000000e+02,9.400000000000000000e+01,3.250000000000000000e+02,4.000000000000000083e-02,3.316070000000000000e+08
9.200000000000000000e+01,2.890000000000000000e+02,9.860000000000000000e+02,1.250000000000000000e+02,5.500000000000000000e+01,1.540000000000000000e+02,1.720000000000000000e+02,3.940000000000000000e+02,4.000000000000000083e-02,3.316142000000000000e+08
1.030000000000000000e+02,3.420000000000000000e+02,1.023000000000000000e+03,1.230000000000000000e+02,5.400000000000000000e+01,1.620000000000000000e+02,1.780000000000000000e+02,4.390000000000000000e+02,4.000000000000000083e-02,3.316216000000000000e+08
1.390000000000000000e+02,4.550000000000000000e+02,1.086000000000000000e+03,1.650000000000000000e+02,6.600000000000000000e+01,1.850000000000000000e+02,1.830000000000000000e+02,4.530000000000000000e+02,4.000000000000000083e-02,3.316296000000000000e+08
1.340000000000000000e+02,4.620000000000000000e+02,1.039000000000000000e+03,1.560000000000000000e+02,6.600000000000000000e+01,2.000000000000000000e+02,2.110000000000000000e+02,4.450000000000000000e+02,2.000000000000000111e-01,3.640134000000000000e+08
1.390000000000000000e+02,4.580000000000000000e+02,9.550000000000000000e+02,1.590000000000000000e+02,7.000000000000000000e+01,2.420000000000000000e+02,2.730000000000000000e+02,5.040000000000000000e+02,2.099999999999999922e-01,3.788094000000000000e+08
1.440000000000000000e+02,4.750000000000000000e+02,9.440000000000000000e+02,1.610000000000000000e+02,6.900000000000000000e+01,2.570000000000000000e+02,2.790000000000000000e+02,4.680000000000000000e+02,2.200000000000000011e-01,3.997431000000000000e+08
1.340000000000000000e+02,4.350000000000000000e+02,8.740000000000000000e+02,1.520000000000000000e+02,6.900000000000000000e+01,2.580000000000000000e+02,2.970000000000000000e+02,4.390000000000000000e+02,2.300000000000000100e-01,4.222544000000000000e+08
9.200000000000000000e+01,2.960000000000000000e+02,7.160000000000000000e+02,1.010000000000000000e+02,5.800000000000000000e+01,2.940000000000000000e+02,3.180000000000000000e+02,5.020000000000000000e+02,2.399999999999999911e-01,4.449543000000000000e+08
9.400000000000000000e+01,2.540000000000000000e+02,6.520000000000000000e+02,1.000000000000000000e+02,6.800000000000000000e+01,4.780000000000000000e+02,4.290000000000000000e+02,5.510000000000000000e+02,2.399999999999999911e-01,4.449655000000000000e+08
1.080000000000000000e+02,3.010000000000000000e+02,6.480000000000000000e+02,1.470000000000000000e+02,7.200000000000000000e+01,4.710000000000000000e+02,4.080000000000000000e+02,4.530000000000000000e+02,2.600000000000000089e-01,4.810713000000000000e+08
1.340000000000000000e+02,3.670000000000000000e+02,5.580000000000000000e+02,1.650000000000000000e+02,7.600000000000000000e+01,4.530000000000000000e+02,3.830000000000000000e+02,4.320000000000000000e+02,2.700000000000000178e-01,5.024225000000000000e+08
1.390000000000000000e+02,3.690000000000000000e+02,4.780000000000000000e+02,1.660000000000000000e+02,8.300000000000000000e+01,5.670000000000000000e+02,4.100000000000000000e+02,5.250000000000000000e+02,2.800000000000000266e-01,5.244270000000000000e+08
1.540000000000000000e+02,3.620000000000000000e+02,4.600000000000000000e+02,1.650000000000000000e+02,9.100000000000000000e+01,6.090000000000000000e+02,6.070000000000000000e+02,5.990000000000000000e+02,2.899999999999999800e-01,5.390075000000000000e+08
1.550000000000000000e+02,3.560000000000000000e+02,4.190000000000000000e+02,1.550000000000000000e+02,8.800000000000000000e+01,6.260000000000000000e+02,7.050000000000000000e+02,6.620000000000000000e+02,2.999999999999999889e-01,5.612603000000000000e+08
1.610000000000000000e+02,4.580000000000000000e+02,3.370000000000000000e+02,1.070000000000000000e+02,8.700000000000000000e+01,6.820000000000000000e+02,8.920000000000000000e+02,7.650000000000000000e+02,3.099999999999999978e-01,5.839626000000000000e+08
1.380000000000000000e+02,4.320000000000000000e+02,5.590000000000000000e+02,1.140000000000000000e+02,8.600000000000000000e+01,7.140000000000000000e+02,9.560000000000000000e+02,8.370000000000000000e+02,3.200000000000000067e-01,5.999207000000000000e+08
1.450000000000000000e+02,4.450000000000000000e+02,5.740000000000000000e+02,1.240000000000000000e+02,8.500000000000000000e+01,7.530000000000000000e+02,1.024000000000000000e+03,8.570000000000000000e+02,3.300000000000000155e-01,6.190479000000000000e+08
1.830000000000000000e+02,4.620000000000000000e+02,6.330000000000000000e+02,1.460000000000000000e+02,8.700000000000000000e+01,7.450000000000000000e+02,9.640000000000000000e+02,8.690000000000000000e+02,3.400000000000000244e-01,6.407283000000000000e+08
2.050000000000000000e+02,4.670000000000000000e+02,6.320000000000000000e+02,1.480000000000000000e+02,9.500000000000000000e+01,7.860000000000000000e+02,1.075000000000000000e+03,8.790000000000000000e+02,3.499999999999999778e-01,6.598512000000000000e+08
1.970000000000000000e+02,3.370000000000000000e+02,6.440000000000000000e+02,1.460000000000000000e+02,9.100000000000000000e+01,8.000000000000000000e+02,1.039000000000000000e+03,9.150000000000000000e+02,3.599999999999999867e-01,6.808125000000000000e+08
2.200000000000000000e+02,2.770000000000000000e+02,5.890000000000000000e+02,1.250000000000000000e+02,9.400000000000000000e+01,8.400000000000000000e+02,1.104000000000000000e+03,9.570000000000000000e+02,3.699999999999999956e-01,7.003509000000000000e+08
2.180000000000000000e+02,2.960000000000000000e+02,6.060000000000000000e+02,1.280000000000000000e+02,9.400000000000000000e+01,7.540000000000000000e+02,1.134000000000000000e+03,9.240000000000000000e+02,3.800000000000000044e-01,7.194283000000000000e+08
1.840000000000000000e+02,3.070000000000000000e+02,5.680000000000000000e+02,1.170000000000000000e+02,8.400000000000000000e+01,7.240000000000000000e+02,1.161000000000000000e+03,8.810000000000000000e+02,3.900000000000000133e-01,7.396256000000000000e+08
1.660000000000000000e+02,3.070000000000000000e+02,6.340000000000000000e+02,1.260000000000000000e+02,6.900000000000000000e+01,5.940000000000000000e+02,1.061000000000000000e+03,8.200000000000000000e+02,4.000000000000000222e-01,7.595065000000000000e+08
1.740000000000000000e+02,2.880000000000000000e+02,6.160000000000000000e+02,1.290000000000000000e+02,8.500000000000000000e+01,6.390000000000000000e+02,1.056000000000000000e+03,8.030000000000000000e+02,4.099999999999999756e-01,7.791856000000000000e+08
1.490000000000000000e+02,2.920000000000000000e+02,5.080000000000000000e+02,1.170000000000000000e+02,8.400000000000000000e+01,7.110000000000000000e+02,1.038000000000000000e+03,8.270000000000000000e+02,4.199999999999999845e-01,8.014061000000000000e+08
1.870000000000000000e+02,3.250000000000000000e+02,5.740000000000000000e+02,1.050000000000000000e+02,8.900000000000000000e+01,7.510000000000000000e+02,1.150000000000000000e+03,8.770000000000000000e+02,4.299999999999999933e-01,8.206178000000000000e+08
1.970000000000000000e+02,3.250000000000000000e+02,5.980000000000000000e+02,8.900000000000000000e+01,8.800000000000000000e+01,7.470000000000000000e+02,1.188000000000000000e+03,8.750000000000000000e+02,4.400000000000000022e-01,8.402234000000000000e+08
2.200000000000000000e+02,3.670000000000000000e+02,5.460000000000000000e+02,7.900000000000000000e+01,9.800000000000000000e+01,7.390000000000000000e+02,1.162000000000000000e+03,8.950000000000000000e+02,4.500000000000000111e-01,8.597370000000000000e+08
2.380000000000000000e+02,3.860000000000000000e+02,5.680000000000000000e+02,7.500000000000000000e+01,9.400000000000000000e+01,7.730000000000000000e+02,1.144000000000000000e+03,8.680000000000000000e+02,4.600000000000000200e-01,8.810576000000000000e+08
2.490000000000000000e+02,4.130000000000000000e+02,5.840000000000000000e+02,9.100000000000000000e+01,1.180000000000000000e+02,7.640000000000000000e+02,1.198000000000000000e+03,8.660000000000000000e+02,4.699999999999999734e-01,9.000489000000000000e+08
2.490000000000000000e+02,4.170000000000000000e+02,5.390000000000000000e+02,1.150000000000000000e+02,1.620000000000000000e+02,8.600000000000000000e+02,1.137000000000000000e+03,8.860000000000000000e+02,4.799999999999999822e-01,9.186878000000000000e+08
2.480000000000000000e+02,4.650000000000000000e+02,6.250000000000000000e+02,1.440000000000000000e+02,1.690000000000000000e+02,9.150000000000000000e+02,1.159000000000000000e+03,9.150000000000000000e+02,4.899999999999999911e-01,9.410176000000000000e+08
2.420000000000000000e+02,5.000000000000000000e+02,6.520000000000000000e+02,1.450000000000000000e+02,1.680000000000000000e+02,9.730000000000000000e+02,1.202000000000000000e+03,9.420000000000000000e+02,5.000000000000000000e-01,9.592562000000000000e+08
2.460000000000000000e+02,5.150000000000000000e+02,6.360000000000000000e+02,1.500000000000000000e+02,1.700000000000000000e+02,9.130000000000000000e+02,1.258000000000000000e+03,1.011000000000000000e+03,5.100000000000000089e-01,9.809696000000000000e+08
2.650000000000000000e+02,5.650000000000000000e+02,6.690000000000000000e+02,1.480000000000000000e+02,1.600000000000000000e+02,9.060000000000000000e+02,1.206000000000000000e+03,1.030000000000000000e+03,5.200000000000000178e-01,9.995294000000000000e+08
2.710000000000000000e+02,5.600000000000000000e+02,7.280000000000000000e+02,1.490000000000000000e+02,1.240000000000000000e+02,8.890000000000000000e+02,1.133000000000000000e+03,1.049000000000000000e+03,5.300000000000000266e-01,1.020675400000000000e+09
3.160000000000000000e+02,5.820000000000000000e+02,8.370000000000000000e+02,1.590000000000000000e+02,1.490000000000000000e+02,9.170000000000000000e+02,1.128000000000000000e+03,1.153000000000000000e+03,5.400000000000000355e-01,1.039509500000000000e+09
3.340000000000000000e+02,5.530000000000000000e+02,9.980000000000000000e+02,1.900000000000000000e+02,1.580000000000000000e+02,9.730000000000000000e+02,1.059000000000000000e+03,1.200000000000000000e+03,5.500000000000000444e-01,1.060845900000000000e+09
3.270000000000000000e+02,5.600000000000000000e+02,1.049000000000000000e+03,1.930000000000000000e+02,1.640000000000000000e+02,1.116000000000000000e+03,1.008000000000000000e+03,1.162000000000000000e+03,5.600000000000000533e-01,1.079543600000000000e+09
3.150000000000000000e+02,5.320000000000000000e+02,1.023000000000000000e+03,1.880000000000000000e+02,1.620000000000000000e+02,1.097000000000000000e+03,9.930000000000000000e+02,1.172000000000000000e+03,5.699999999999999512e-01,1.099669800000000000e+09
2.940000000000000000e+02,5.040000000000000000e+02,9.440000000000000000e+02,1.700000000000000000e+02,1.730000000000000000e+02,1.168000000000000000e+03,1.104000000000000000e+03,1.138000000000000000e+03,5.799999999999999600e-01,1.119455800000000000e+09
2.460000000000000000e+02,4.490000000000000000e+02,7.610000000000000000e+02,1.360000000000000000e+02,1.480000000000000000e+02,1.181000000000000000e+03,1.019000000000000000e+03,1.034000000000000000e+03,5.899999999999999689e-01,1.140096300000000000e+09
2.260000000000000000e+02,5.420000000000000000e+02,5.170000000000000000e+02,9.300000000000000000e+01,1.560000000000000000e+02,1.208000000000000000e+03,1.116000000000000000e+03,1.001000000000000000e+03,5.999999999999999778e-01,1.159693500000000000e+09
2.350000000000000000e+02,5.410000000000000000e+02,4.130000000000000000e+02,8.800000000000000000e+01,1.610000000000000000e+02,1.107000000000000000e+03,1.078000000000000000e+03,9.660000000000000000e+02,6.099999999999999867e-01,1.180997300000000000e+09
2.520000000000000000e+02,5.630000000000000000e+02,3.920000000000000000e+02,9.300000000000000000e+01,1.670000000000000000e+02,1.175000000000000000e+03,1.144000000000000000e+03,9.410000000000000000e+02,6.199999999999999956e-01,1.199624500000000000e+09
2.860000000000000000e+02,5.940000000000000000e+02,4.290000000000000000e+02,1.070000000000000000e+02,1.780000000000000000e+02,1.118000000000000000e+03,1.067000000000000000e+03,9.560000000000000000e+02,6.300000000000000044e-01,1.221018500000000000e+09
3.150000000000000000e+02,5.980000000000000000e+02,4.180000000000000000e+02,1.160000000000000000e+02,1.860000000000000000e+02,1.091000000000000000e+03,1.138000000000000000e+03,1.106000000000000000e+03,6.400000000000000133e-01,1.240060900000000000e+09
3.230000000000000000e+02,5.360000000000000000e+02,3.580000000000000000e+02,1.090000000000000000e+02,1.740000000000000000e+02,1.125000000000000000e+03,1.081000000000000000e+03,1.143000000000000000e+03,6.500000000000000222e-01,1.258857400000000000e+09
3.370000000000000000e+02,5.460000000000000000e+02,4.600000000000000000e+02,1.180000000000000000e+02,1.870000000000000000e+02,1.264000000000000000e+03,1.135000000000000000e+03,1.323000000000000000e+03,6.600000000000000311e-01,1.280502700000000000e+09
3.510000000000000000e+02,5.540000000000000000e+02,5.440000000000000000e+02,1.700000000000000000e+02,2.170000000000000000e+02,1.242000000000000000e+03,1.061000000000000000e+03,1.317000000000000000e+03,6.700000000000000400e-01,1.298781300000000000e+09
4.210000000000000000e+02,5.970000000000000000e+02,5.580000000000000000e+02,1.970000000000000000e+02,2.510000000000000000e+02,1.297000000000000000e+03,1.105000000000000000e+03,1.341000000000000000e+03,6.800000000000000488e-01,1.323777700000000000e+09
4.460000000000000000e+02,6.700000000000000000e+02,6.450000000000000000e+02,2.150000000000000000e+02,2.590000000000000000e+02,1.341000000000000000e+03,1.062000000000000000e+03,1.291000000000000000e+03,6.899999999999999467e-01,1.343916700000000000e+09
4.560000000000000000e+02,6.550000000000000000e+02,7.390000000000000000e+02,2.250000000000000000e+02,2.760000000000000000e+02,1.403000000000000000e+03,1.106000000000000000e+03,1.266000000000000000e+03,6.999999999999999556e-01,1.359554400000000000e+09
4.880000000000000000e+02,6.630000000000000000e+02,7.920000000000000000e+02,2.180000000000000000e+02,2.620000000000000000e+02,1.270000000000000000e+03,1.078000000000000000e+03,1.201000000000000000e+03,7.099999999999999645e-01,1.380363800000000000e+09
5.290000000000000000e+02,6.480000000000000000e+02,8.040000000000000000e+02,1.940000000000000000e+02,2.510000000000000000e+02,1.322000000000000000e+03,1.111000000000000000e+03,1.297000000000000000e+03,7.199999999999999734e-01,1.398918200000000000e+09
5.130000000000000000e+02,5.990000000000000000e+02,7.820000000000000000e+02,1.700000000000000000e+02,2.190000000000000000e+02,1.336000000000000000e+03,1.104000000000000000e+03,1.364000000000000000e+03,7.299999999999999822e-01,1.421415000000000000e+09
5.200000000000000000e+02,5.780000000000000000e+02,7.350000000000000000e+02,1.490000000000000000e+02,2.260000000000000000e+02,1.416000000000000000e+03,1.098000000000000000e+03,1.303000000000000000e+03,7.399999999999999911e-01,1.440351800000000000e+09
5.450000000000000000e+02,6.410000000000000000e+02,6.490000000000000000e+02,1.500000000000000000e+02,2.580000000000000000e+02,1.386000000000000000e+03,1.064000000000000000e+03,1.383000000000000000e+03,7.500000000000000000e-01,1.459358200000000000e+09
5.490000000000000000e+02,6.670000000000000000e+02,5.280000000000000000e+02,1.650000000000000000e+02,2.900000000000000000e+02,1.559000000000000000e+03,1.057000000000000000e+03,1.274000000000000000e+03,7.700000000000000178e-01,1.499833700000000000e+09
5.330000000000000000e+02,7.230000000000000000e+02,4.490000000000000000e+02,1.570000000000000000e+02,2.910000000000000000e+02,1.548000000000000000e+03,1.149000000000000000e+03,1.145000000000000000e+03,7.700000000000000178e-01,1.499846300000000000e+09
4.940000000000000000e+02,7.230000000000000000e+02,4.690000000000000000e+02,1.520000000000000000e+02,2.990000000000000000e+02,1.547000000000000000e+03,1.104000000000000000e+03,1.117000000000000000e+03,7.800000000000000266e-01,1.521604200000000000e+09
5.450000000000000000e+02,7.610000000000000000e+02,5.100000000000000000e+02,1.710000000000000000e+02,3.240000000000000000e+02,1.495000000000000000e+03,1.139000000000000000e+03,1.143000000000000000e+03,7.900000000000000355e-01,1.538668800000000000e+09
5.580000000000000000e+02,7.890000000000000000e+02,6.420000000000000000e+02,1.720000000000000000e+02,3.150000000000000000e+02,1.458000000000000000e+03,1.077000000000000000e+03,1.051000000000000000e+03,8.000000000000000444e-01,1.561386700000000000e+09
5.370000000000000000e+02,8.160000000000000000e+02,6.300000000000000000e+02,1.600000000000000000e+02,2.920000000000000000e+02,1.333000000000000000e+03,1.059000000000000000e+03,1.124000000000000000e+03,8.100000000000000533e-01,1.580331800000000000e+09
5.690000000000000000e+02,8.130000000000000000e+02,6.200000000000000000e+02,1.700000000000000000e+02,3.060000000000000000e+02,1.363000000000000000e+03,9.230000000000000000e+02,1.151000000000000000e+03,8.199999999999999512e-01,1.599178400000000000e+09
6.550000000000000000e+02,9.110000000000000000e+02,5.910000000000000000e+02,1.720000000000000000e+02,2.890000000000000000e+02,1.399000000000000000e+03,9.100000000000000000e+02,1.068000000000000000e+03,8.299999999999999600e-01,1.621068000000000000e+09
6.580000000000000000e+02,8.740000000000000000e+02,5.620000000000000000e+02,1.670000000000000000e+02,2.970000000000000000e+02,1.409000000000000000e+03,8.570000000000000000e+02,1.043000000000000000e+03,8.399999999999999689e-01,1.639601300000000000e+09
6.940000000000000000e+02,8.250000000000000000e+02,5.020000000000000000e+02,1.660000000000000000e+02,3.050000000000000000e+02,1.394000000000000000e+03,9.440000000000000000e+02,1.027000000000000000e+03,8.499999999999999778e-01,1.661596500000000000e+09
6.900000000000000000e+02,7.690000000000000000e+02,4.960000000000000000e+02,1.670000000000000000e+02,3.230000000000000000e+02,1.406000000000000000e+03,1.024000000000000000e+03,1.053000000000000000e+03,8.599999999999999867e-01,1.681429300000000000e+09
7.010000000000000000e+02,7.770000000000000000e+02,4.770000000000000000e+02,1.510000000000000000e+02,3.230000000000000000e+02,1.358000000000000000e+03,1.019000000000000000e+03,1.007000000000000000e+03,8.699999999999999956e-01,1.700587400000000000e+09
7.130000000000000000e+02,6.820000000000000000e+02,5.090000000000000000e+02,1.540000000000000000e+02,3.270000000000000000e+02,1.309000000000000000e+03,9.920000000000000000e+02,1.025000000000000000e+03,8.800000000000000044e-01,1.719071400000000000e+09
6.750000000000000000e+02,6.580000000000000000e+02,5.530000000000000000e+02,1.470000000000000000e+02,2.940000000000000000e+02,1.329000000000000000e+03,1.117000000000000000e+03,1.076000000000000000e+03,8.900000000000000133e-01,1.740286900000000000e+09
6.280000000000000000e+02,7.020000000000000000e+02,4.710000000000000000e+02,1.320000000000000000e+02,2.550000000000000000e+02,1.277000000000000000e+03,1.091000000000000000e+03,1.129000000000000000e+03,9.000000000000000222e-01,1.758854900000000000e+09
6.250000000000000000e+02,7.020000000000000000e+02,5.080000000000000000e+02,1.340000000000000000e+02,2.330000000000000000e+02,1.301000000000000000e+03,1.062000000000000000e+03,1.143000000000000000e+03,9.100000000000000311e-01,1.780741900000000000e+09
6.210000000000000000e+02,6.620000000000000000e+02,6.150000000000000000e+02,1.700000000000000000e+02,2.420000000000000000e+02,1.299000000000000000e+03,1.059000000000000000e+03,1.189000000000000000e+03,9.200000000000000400e-01,1.799635800000000000e+09
5.630000000000000000e+02,7.170000000000000000e+02,6.020000000000000000e+02,1.680000000000000000e+02,2.470000000000000000e+02,1.190000000000000000e+03,1.082000000000000000e+03,1.177000000000000000e+03,9.300000000000000488e-01,1.821709800000000000e+09
5.510000000000000000e+02,7.580000000000000000e+02,5.640000000000000000e+02,1.600000000000000000e+02,2.460000000000000000e+02,1.092000000000000000e+03,1.045000000000000000e+03,1.146000000000000000e+03,9.399999999999999467e-01,1.840643900000000000e+09
5.370000000000000000e+02,7.430000000000000000e+02,5.530000000000000000e+02,1.570000000000000000e+02,2.420000000000000000e+02,1.209000000000000000e+03,1.020000000000000000e+03,1.103000000000000000e+03,9.499999999999999556e-01,1.859594400000000000e+09
5.230000000000000000e+02,7.350000000000000000e+02,5.840000000000000000e+02,1.560000000000000000e+02,2.390000000000000000e+02,1.141000000000000000e+03,9.570000000000000000e+02,9.790000000000000000e+02,9.599999999999999645e-01,1.881101300000000000e+09
4.540000000000000000e+02,7.680000000000000000e+02,6.230000000000000000e+02,1.170000000000000000e+02,2.060000000000000000e+02,1.192000000000000000e+03,9.400000000000000000e+02,9.450000000000000000e+02,9.799999999999999822e-01,1.920363100000000000e+09
3.680000000000000000e+02,7.040000000000000000e+02,6.360000000000000000e+02,1.010000000000000000e+02,1.850000000000000000e+02,1.197000000000000000e+03,9.200000000000000000e+02,8.640000000000000000e+02,9.799999999999999822e-01,1.920411300000000000e+09
3.140000000000000000e+02,6.470000000000000000e+02,7.020000000000000000e+02,9.000000000000000000e+01,1.600000000000000000e+02,1.171000000000000000e+03,7.550000000000000000e+02,7.540000000000000000e+02,9.899999999999999911e-01,1.941326200000000000e+09
2.440000000000000000e+02,5.570000000000000000e+02,7.940000000000000000e+02,9.700000000000000000e+01,1.600000000000000000e+02,9.860000000000000000e+02,6.800000000000000000e+02,6.270000000000000000e+02,9.799999999999999822e-01,1.960327300000000000e+09
2.300000000000000000e+02,5.400000000000000000e+02,7.660000000000000000e+02,1.060000000000000000e+02,1.410000000000000000e+02,9.430000000000000000e+02,6.320000000000000000e+02,5.560000000000000000e+02,9.699999999999999734e-01,1.979234500000000000e+09
1.780000000000000000e+02,5.030000000000000000e+02,7.090000000000000000e+02,9.900000000000000000e+01,1.050000000000000000e+02,7.560000000000000000e+02,5.490000000000000000e+02,4.680000000000000000e+02,9.599999999999999645e-01,2.000236400000000000e+09
2.230000000000000000e+02,4.600000000000000000e+02,6.970000000000000000e+02,9.700000000000000000e+01,9.600000000000000000e+01,7.460000000000000000e+02,4.350000000000000000e+02,4.620000000000000000e+02,9.499999999999999556e-01,2.019114200000000000e+09
2.020000000000000000e+02,4.410000000000000000e+02,6.650000000000000000e+02,1.850000000000000000e+02,1.020000000000000000e+02,7.340000000000000000e+02,3.820000000000000000e+02,4.760000000000000000e+02,9.300000000000000488e-01,2.058870300000000000e+09
2.170000000000000000e+02,4.460000000000000000e+02,6.630000000000000000e+02,2.130000000000000000e+02,9.600000000000000000e+01,7.040000000000000000e+02,3.560000000000000000e+02,4.420000000000000000e+02,9.300000000000000488e-01,2.058882600000000000e+09
2.080000000000000000e+02,4.440000000000000000e+02,7.480000000000000000e+02,2.380000000000000000e+02,9.700000000000000000e+01,7.990000000000000000e+02,2.810000000000000000e+02,4.160000000000000000e+02,9.200000000000000400e-01,2.080539000000000000e+09
2.100000000000000000e+02,3.130000000000000000e+02,6.980000000000000000e+02,2.400000000000000000e+02,9.900000000000000000e+01,8.890000000000000000e+02,2.950000000000000000e+02,3.060000000000000000e+02,9.000000000000000222e-01,2.120635200000000000e+09
1.760000000000000000e+02,3.010000000000000000e+02,7.820000000000000000e+02,2.470000000000000000e+02,9.400000000000000000e+01,1.039000000000000000e+03,2.560000000000000000e+02,2.500000000000000000e+02,9.000000000000000222e-01,2.120657100000000000e+09
1.910000000000000000e+02,2.740000000000000000e+02,8.400000000000000000e+02,2.180000000000000000e+02,8.000000000000000000e+01,1.041000000000000000e+03,2.450000000000000000e+02,1.400000000000000000e+02,8.900000000000000133e-01,2.139347500000000000e+09
1.830000000000000000e+02,2.840000000000000000e+02,8.620000000000000000e+02,1.900000000000000000e+02,6.900000000000000000e+01,1.057000000000000000e+03,2.410000000000000000e+02,1.130000000000000000e+02,8.800000000000000044e-01,2.160639900000000000e+09
2.030000000000000000e+02,2.980000000000000000e+02,8.940000000000000000e+02,1.790000000000000000e+02,9.100000000000000000e+01,9.530000000000000000e+02,2.600000000000000000e+02,1.210000000000000000e+02,8.699999999999999956e-01,2.179371700000000000e+09
1.930000000000000000e+02,3.390000000000000000e+02,9.860000000000000000e+02,2.090000000000000000e+02,1.050000000000000000e+02,1.108000000000000000e+03,1.990000000000000000e+02,1.110000000000000000e+02,8.599999999999999867e-01,2.200551700000000000e+09
1.740000000000000000e+02,3.490000000000000000e+02,9.400000000000000000e+02,2.020000000000000000e+02,1.060000000000000000e+02,9.180000000000000000e+02,1.850000000000000000e+02,9.600000000000000000e+01,8.499999999999999778e-01,2.219228700000000000e+09
1.650000000000000000e+02,3.290000000000000000e+02,8.550000000000000000e+02,1.730000000000000000e+02,1.020000000000000000e+02,8.720000000000000000e+02,1.780000000000000000e+02,1.010000000000000000e+02,8.399999999999999689e-01,2.240093700000000000e+09
1.660000000000000000e+02,3.370000000000000000e+02,9.350000000000000000e+02,1.830000000000000000e+02,1.050000000000000000e+02,8.750000000000000000e+02,1.920000000000000000e+02,1.020000000000000000e+02,8.299999999999999600e-01,2.261130600000000000e+09
2.190000000000000000e+02,3.600000000000000000e+02,8.690000000000000000e+02,1.660000000000000000e+02,8.100000000000000000e+01,9.340000000000000000e+02,1.710000000000000000e+02,8.400000000000000000e+01,8.199999999999999512e-01,2.279480100000000000e+09
2.050000000000000000e+02,3.940000000000000000e+02,8.230000000000000000e+02,1.190000000000000000e+02,5.800000000000000000e+01,5.790000000000000000e+02,1.480000000000000000e+02,9.000000000000000000e+01,8.100000000000000533e-01,2.300496000000000000e+09
2.150000000000000000e+02,4.060000000000000000e+02,8.660000000000000000e+02,1.270000000000000000e+02,5.900000000000000000e+01,5.640000000000000000e+02,1.480000000000000000e+02,9.300000000000000000e+01,7.900000000000000355e-01,2.340217200000000000e+09
2.360000000000000000e+02,4.350000000000000000e+02,9.110000000000000000e+02,1.290000000000000000e+02,5.900000000000000000e+01,5.530000000000000000e+02,1.490000000000000000e+02,8.000000000000000000e+01,7.900000000000000355e-01,2.340230300000000000e+09
2.870000000000000000e+02,5.120000000000000000e+02,7.980000000000000000e+02,1.220000000000000000e+02,7.000000000000000000e+01,5.210000000000000000e+02,1.410000000000000000e+02,1.130000000000000000e+02,7.800000000000000266e-01,2.359243000000000000e+09
2.540000000000000000e+02,5.280000000000000000e+02,8.360000000000000000e+02,1.260000000000000000e+02,7.300000000000000000e+01,3.000000000000000000e+02,1.320000000000000000e+02,1.160000000000000000e+02,7.700000000000000178e-01,2.380157300000000000e+09
2.640000000000000000e+02,4.840000000000000000e+02,8.530000000000000000e+02,1.280000000000000000e+02,7.100000000000000000e+01,2.510000000000000000e+02,1.070000000000000000e+02,1.130000000000000000e+02,7.600000000000000089e-01,2.401202600000000000e+09
3.020000000000000000e+02,4.800000000000000000e+02,8.460000000000000000e+02,1.200000000000000000e+02,6.800000000000000000e+01,2.470000000000000000e+02,1.130000000000000000e+02,1.140000000000000000e+02,7.500000000000000000e-01,2.419798300000000000e+09
2.920000000000000000e+02,4.780000000000000000e+02,9.550000000000000000e+02,1.400000000000000000e+02,7.900000000000000000e+01,2.550000000000000000e+02,1.150000000000000000e+02,1.170000000000000000e+02,7.399999999999999911e-01,2.440815600000000000e+09
2.420000000000000000e+02,3.920000000000000000e+02,9.240000000000000000e+02,1.320000000000000000e+02,6.500000000000000000e+01,2.620000000000000000e+02,9.900000000000000000e+01,7.500000000000000000e+01,7.299999999999999822e-01,2.459255500000000000e+09
2.250000000000000000e+02,3.650000000000000000e+02,9.460000000000000000e+02,1.270000000000000000e+02,6.100000000000000000e+01,2.490000000000000000e+02,8.300000000000000000e+01,7.100000000000000000e+01,7.199999999999999734e-01,2.480633000000000000e+09
2.310000000000000000e+02,3.520000000000000000e+02,9.250000000000000000e+02,1.360000000000000000e+02,6.500000000000000000e+01,2.520000000000000000e+02,8.300000000000000000e+01,7.000000000000000000e+01,7.099999999999999645e-01,2.499140200000000000e+09
1.740000000000000000e+02,3.580000000000000000e+02,9.280000000000000000e+02,1.800000000000000000e+02,7.100000000000000000e+01,2.430000000000000000e+02,7.400000000000000000e+01,6.300000000000000000e+01,6.999999999999999556e-01,2.520364700000000000e+09
1.700000000000000000e+02,3.730000000000000000e+02,8.580000000000000000e+02,1.740000000000000000e+02,6.400000000000000000e+01,2.440000000000000000e+02,8.200000000000000000e+01,6.900000000000000000e+01,6.899999999999999467e-01,2.539016400000000000e+09
1.950000000000000000e+02,3.740000000000000000e+02,8.740000000000000000e+02,1.780000000000000000e+02,6.600000000000000000e+01,1.650000000000000000e+02,9.800000000000000000e+01,7.200000000000000000e+01,6.800000000000000488e-01,2.560549700000000000e+09
2.100000000000000000e+02,4.050000000000000000e+02,8.680000000000000000e+02,1.930000000000000000e+02,7.200000000000000000e+01,1.750000000000000000e+02,1.050000000000000000e+02,7.700000000000000000e+01,6.700000000000000400e-01,2.578801300000000000e+09
2.130000000000000000e+02,4.560000000000000000e+02,9.130000000000000000e+02,2.150000000000000000e+02,7.800000000000000000e+01,1.760000000000000000e+02,1.090000000000000000e+02,8.200000000000000000e+01,6.600000000000000311e-01,2.600196300000000000e+09
2.090000000000000000e+02,4.610000000000000000e+02,9.040000000000000000e+02,1.950000000000000000e+02,7.600000000000000000e+01,1.850000000000000000e+02,1.190000000000000000e+02,8.800000000000000000e+01,6.500000000000000222e-01,2.618910400000000000e+09
2.220000000000000000e+02,4.620000000000000000e+02,9.050000000000000000e+02,1.910000000000000000e+02,7.600000000000000000e+01,2.560000000000000000e+02,1.240000000000000000e+02,8.300000000000000000e+01,6.400000000000000133e-01,2.640589700000000000e+09
1.960000000000000000e+02,4.410000000000000000e+02,8.860000000000000000e+02,1.890000000000000000e+02,7.400000000000000000e+01,2.640000000000000000e+02,1.110000000000000000e+02,1.050000000000000000e+02,6.300000000000000044e-01,2.660298100000000000e+09
1.960000000000000000e+02,4.160000000000000000e+02,9.390000000000000000e+02,1.770000000000000000e+02,7.100000000000000000e+01,2.580000000000000000e+02,1.070000000000000000e+02,1.050000000000000000e+02,6.199999999999999956e-01,2.678783200000000000e+09
1.910000000000000000e+02,4.010000000000000000e+02,8.780000000000000000e+02,1.490000000000000000e+02,6.200000000000000000e+01,2.560000000000000000e+02,1.080000000000000000e+02,1.030000000000000000e+02,6.099999999999999867e-01,2.700099800000000000e+09
1.890000000000000000e+02,3.980000000000000000e+02,8.740000000000000000e+02,1.320000000000000000e+02,5.900000000000000000e+01,2.510000000000000000e+02,9.400000000000000000e+01,1.020000000000000000e+02,5.999999999999999778e-01,2.719218600000000000e+09
1.660000000000000000e+02,3.680000000000000000e+02,9.290000000000000000e+02,1.630000000000000000e+02,8.000000000000000000e+01,3.950000000000000000e+02,1.140000000000000000e+02,1.000000000000000000e+02,5.899999999999999689e-01,2.740418200000000000e+09
1.620000000000000000e+02,3.820000000000000000e+02,9.410000000000000000e+02,1.640000000000000000e+02,8.400000000000000000e+01,4.060000000000000000e+02,1.150000000000000000e+02,7.400000000000000000e+01,5.799999999999999600e-01,2.758822400000000000e+09
1.920000000000000000e+02,3.600000000000000000e+02,8.270000000000000000e+02,1.610000000000000000e+02,8.100000000000000000e+01,4.090000000000000000e+02,1.150000000000000000e+02,7.000000000000000000e+01,5.699999999999999512e-01,2.780112600000000000e+09
1.880000000000000000e+02,4.220000000000000000e+02,9.230000000000000000e+02,1.820000000000000000e+02,8.500000000000000000e+01,4.140000000000000000e+02,1.170000000000000000e+02,7.100000000000000000e+01,5.600000000000000533e-01,2.798888500000000000e+09
1.970000000000000000e+02,4.270000000000000000e+02,9.900000000000000000e+02,2.030000000000000000e+02,8.700000000000000000e+01,4.200000000000000000e+02,1.160000000000000000e+02,7.300000000000000000e+01,5.500000000000000444e-01,2.820203400000000000e+09
1.940000000000000000e+02,4.260000000000000000e+02,9.370000000000000000e+02,1.980000000000000000e+02,6.900000000000000000e+01,3.210000000000000000e+02,1.100000000000000000e+02,7.000000000000000000e+01,5.400000000000000355e-01,2.839404000000000000e+09
1.980000000000000000e+02,4.290000000000000000e+02,9.500000000000000000e+02,2.030000000000000000e+02,7.000000000000000000e+01,3.400000000000000000e+02,1.080000000000000000e+02,7.300000000000000000e+01,5.300000000000000266e-01,2.860525100000000000e+09
1.680000000000000000e+02,4.390000000000000000e+02,9.830000000000000000e+02,2.360000000000000000e+02,8.000000000000000000e+01,3.320000000000000000e+02,1.080000000000000000e+02,8.300000000000000000e+01,5.200000000000000178e-01,2.879185000000000000e+09
1.470000000000000000e+02,3.760000000000000000e+02,9.120000000000000000e+02,2.300000000000000000e+02,7.800000000000000000e+01,3.230000000000000000e+02,1.040000000000000000e+02,7.700000000000000000e+01,5.100000000000000089e-01,2.900187900000000000e+09
1.670000000000000000e+02,3.940000000000000000e+02,9.230000000000000000e+02,2.390000000000000000e+02,8.700000000000000000e+01,3.280000000000000000e+02,1.070000000000000000e+02,7.700000000000000000e+01,5.000000000000000000e-01,2.918759300000000000e+09
1.780000000000000000e+02,3.960000000000000000e+02,9.200000000000000000e+02,2.220000000000000000e+02,8.300000000000000000e+01,2.240000000000000000e+02,9.900000000000000000e+01,7.500000000000000000e+01,4.899999999999999911e-01,2.939854900000000000e+09
1.700000000000000000e+02,4.120000000000000000e+02,8.940000000000000000e+02,2.170000000000000000e+02,8.500000000000000000e+01,2.650000000000000000e+02,1.050000000000000000e+02,7.100000000000000000e+01,4.799999999999999822e-01,2.960977700000000000e+09
1.560000000000000000e+02,4.010000000000000000e+02,8.860000000000000000e+02,1.890000000000000000e+02,7.900000000000000000e+01,2.850000000000000000e+02,1.070000000000000000e+02,5.700000000000000000e+01,4.699999999999999734e-01,2.979978400000000000e+09
1.610000000000000000e+02,4.300000000000000000e+02,9.750000000000000000e+02,2.060000000000000000e+02,8.700000000000000000e+01,2.830000000000000000e+02,1.080000000000000000e+02,6.000000000000000000e+01,4.600000000000000200e-01,2.998698000000000000e+09
1.390000000000000000e+02,4.010000000000000000e+02,9.420000000000000000e+02,2.160000000000000000e+02,8.700000000000000000e+01,2.720000000000000000e+02,1.050000000000000000e+02,6.000000000000000000e+01,4.500000000000000111e-01,3.020189500000000000e+09
1.270000000000000000e+02,3.880000000000000000e+02,9.440000000000000000e+02,2.380000000000000000e+02,9.200000000000000000e+01,2.820000000000000000e+02,1.100000000000000000e+02,7.200000000000000000e+01,4.400000000000000022e-01,3.038809100000000000e+09
1.380000000000000000e+02,3.780000000000000000e+02,1.005000000000000000e+03,2.740000000000000000e+02,9.600000000000000000e+01,1.730000000000000000e+02,2.270000000000000000e+02,7.600000000000000000e+01,4.299999999999999933e-01,3.060371400000000000e+09
1.470000000000000000e+02,3.720000000000000000e+02,1.047000000000000000e+03,2.920000000000000000e+02,9.900000000000000000e+01,1.460000000000000000e+02,2.400000000000000000e+02,8.200000000000000000e+01,4.199999999999999845e-01,3.079028000000000000e+09
1.380000000000000000e+02,3.200000000000000000e+02,9.320000000000000000e+02,2.710000000000000000e+02,8.900000000000000000e+01,1.450000000000000000e+02,2.450000000000000000e+02,7.900000000000000000e+01,4.099999999999999756e-01,3.100849200000000000e+09
1.480000000000000000e+02,3.810000000000000000e+02,9.930000000000000000e+02,2.560000000000000000e+02,8.400000000000000000e+01,1.380000000000000000e+02,2.520000000000000000e+02,7.600000000000000000e+01,4.000000000000000222e-01,3.119524500000000000e+09
1.710000000000000000e+02,4.370000000000000000e+02,1.004000000000000000e+03,2.660000000000000000e+02,9.200000000000000000e+01,1.300000000000000000e+02,2.550000000000000000e+02,7.800000000000000000e+01,3.900000000000000133e-01,3.140904300000000000e+09
1.870000000000000000e+02,4.440000000000000000e+02,1.022000000000000000e+03,2.360000000000000000e+02,8.600000000000000000e+01,2.660000000000000000e+02,1.590000000000000000e+02,7.900000000000000000e+01,3.800000000000000044e-01,3.159682300000000000e+09
1.860000000000000000e+02,4.720000000000000000e+02,9.740000000000000000e+02,2.130000000000000000e+02,8.300000000000000000e+01,2.720000000000000000e+02,1.390000000000000000e+02,7.800000000000000000e+01,3.699999999999999956e-01,3.180923100000000000e+09
1.950000000000000000e+02,4.840000000000000000e+02,1.077000000000000000e+03,2.310000000000000000e+02,9.200000000000000000e+01,2.750000000000000000e+02,1.290000000000000000e+02,8.500000000000000000e+01,3.599999999999999867e-01,3.199597500000000000e+09
1.840000000000000000e+02,4.340000000000000000e+02,1.018000000000000000e+03,2.260000000000000000e+02,9.200000000000000000e+01,2.790000000000000000e+02,1.190000000000000000e+02,8.300000000000000000e+01,3.499999999999999778e-01,3.218776600000000000e+09
1.770000000000000000e+02,4.520000000000000000e+02,1.025000000000000000e+03,1.980000000000000000e+02,8.700000000000000000e+01,2.840000000000000000e+02,1.160000000000000000e+02,7.900000000000000000e+01,3.400000000000000244e-01,3.239811400000000000e+09
1.710000000000000000e+02,5.470000000000000000e+02,9.300000000000000000e+02,2.070000000000000000e+02,9.100000000000000000e+01,1.800000000000000000e+02,1.130000000000000000e+02,8.000000000000000000e+01,3.300000000000000155e-01,3.261130900000000000e+09
1.630000000000000000e+02,5.520000000000000000e+02,1.024000000000000000e+03,2.030000000000000000e+02,8.800000000000000000e+01,1.680000000000000000e+02,1.100000000000000000e+02,7.500000000000000000e+01,3.200000000000000067e-01,3.279530800000000000e+09
1.990000000000000000e+02,6.390000000000000000e+02,9.610000000000000000e+02,2.400000000000000000e+02,1.100000000000000000e+02,1.650000000000000000e+02,1.140000000000000000e+02,8.900000000000000000e+01,3.099999999999999978e-01,3.300793000000000000e+09
2.080000000000000000e+02,6.540000000000000000e+02,9.320000000000000000e+02,2.810000000000000000e+02,1.200000000000000000e+02,1.610000000000000000e+02,1.180000000000000000e+02,9.200000000000000000e+01,2.899999999999999800e-01,3.338742300000000000e+09
2.080000000000000000e+02,6.270000000000000000e+02,9.060000000000000000e+02,2.910000000000000000e+02,1.230000000000000000e+02,1.230000000000000000e+02,9.000000000000000000e+01,9.300000000000000000e+01,2.899999999999999800e-01,3.338821300000000000e+09
1.970000000000000000e+02,5.420000000000000000e+02,1.087000000000000000e+03,3.170000000000000000e+02,1.250000000000000000e+02,9.900000000000000000e+01,9.100000000000000000e+01,9.000000000000000000e+01,2.800000000000000266e-01,3.359951600000000000e+09
2.160000000000000000e+02,5.570000000000000000e+02,1.030000000000000000e+03,3.630000000000000000e+02,1.430000000000000000e+02,9.200000000000000000e+01,9.300000000000000000e+01,1.000000000000000000e+02,2.700000000000000178e-01,3.379324100000000000e+09
1.880000000000000000e+02,4.750000000000000000e+02,1.125000000000000000e+03,3.830000000000000000e+02,1.310000000000000000e+02,8.200000000000000000e+01,8.700000000000000000e+01,8.700000000000000000e+01,2.600000000000000089e-01,3.400515900000000000e+09
1.960000000000000000e+02,4.680000000000000000e+02,1.172000000000000000e+03,3.830000000000000000e+02,1.320000000000000000e+02,8.500000000000000000e+01,8.000000000000000000e+01,9.200000000000000000e+01,2.500000000000000000e-01,3.419238400000000000e+09
2.260000000000000000e+02,5.330000000000000000e+02,1.289000000000000000e+03,4.120000000000000000e+02,1.450000000000000000e+02,8.200000000000000000e+01,8.400000000000000000e+01,1.060000000000000000e+02,2.399999999999999911e-01,3.440288000000000000e+09
2.390000000000000000e+02,5.550000000000000000e+02,1.253000000000000000e+03,4.320000000000000000e+02,1.550000000000000000e+02,8.400000000000000000e+01,7.800000000000000000e+01,1.140000000000000000e+02,2.300000000000000100e-01,3.459088200000000000e+09
2.620000000000000000e+02,6.320000000000000000e+02,1.262000000000000000e+03,4.380000000000000000e+02,1.610000000000000000e+02,9.100000000000000000e+01,8.800000000000000000e+01,1.220000000000000000e+02,2.099999999999999922e-01,3.499104700000000000e+09
2.550000000000000000e+02,6.380000000000000000e+02,1.296000000000000000e+03,3.990000000000000000e+02,1.580000000000000000e+02,9.200000000000000000e+01,8.700000000000000000e+01,1.200000000000000000e+02,2.000000000000000111e-01,3.520683300000000000e+09
2.730000000000000000e+02,6.970000000000000000e+02,1.396000000000000000e+03,4.190000000000000000e+02,1.680000000000000000e+02,9.100000000000000000e+01,9.300000000000000000e+01,1.280000000000000000e+02,2.000000000000000111e-01,3.520694700000000000e+09
2.590000000000000000e+02,7.150000000000000000e+02,1.327000000000000000e+03,4.440000000000000000e+02,1.610000000000000000e+02,9.100000000000000000e+01,8.900000000000000000e+01,1.170000000000000000e+02,1.799999999999999933e-01,3.560740400000000000e+09
2.590000000000000000e+02,7.700000000000000000e+02,1.410000000000000000e+03,4.470000000000000000e+02,1.580000000000000000e+02,9.300000000000000000e+01,1.100000000000000000e+02,1.120000000000000000e+02,1.799999999999999933e-01,3.560752000000000000e+09
2.630000000000000000e+02,7.590000000000000000e+02,1.411000000000000000e+03,4.620000000000000000e+02,1.560000000000000000e+02,1.020000000000000000e+02,2.370000000000000000e+02,1.130000000000000000e+02,1.700000000000000122e-01,3.579447500000000000e+09
3.350000000000000000e+02,8.220000000000000000e+02,1.375000000000000000e+03,5.610000000000000000e+02,1.900000000000000000e+02,1.140000000000000000e+02,2.910000000000000000e+02,1.410000000000000000e+02,1.600000000000000033e-01,3.600867400000000000e+09
3.600000000000000000e+02,9.240000000000000000e+02,1.282000000000000000e+03,5.960000000000000000e+02,1.880000000000000000e+02,1.150000000000000000e+02,3.460000000000000000e+02,1.450000000000000000e+02,1.400000000000000133e-01,3.638751000000000000e+09
3.830000000000000000e+02,9.240000000000000000e+02,1.302000000000000000e+03,5.960000000000000000e+02,2.090000000000000000e+02,1.250000000000000000e+02,3.550000000000000000e+02,1.610000000000000000e+02,1.400000000000000133e-01,3.638763700000000000e+09
4.200000000000000000e+02,9.530000000000000000e+02,1.338000000000000000e+03,6.060000000000000000e+02,2.150000000000000000e+02,1.400000000000000000e+02,3.550000000000000000e+02,1.750000000000000000e+02,1.199999999999999956e-01,3.680742200000000000e+09
4.600000000000000000e+02,1.060000000000000000e+03,1.444000000000000000e+03,7.260000000000000000e+02,2.680000000000000000e+02,1.550000000000000000e+02,3.020000000000000000e+02,2.050000000000000000e+02,1.199999999999999956e-01,3.680774300000000000e+09
4.480000000000000000e+02,1.087000000000000000e+03,1.451000000000000000e+03,7.540000000000000000e+02,2.920000000000000000e+02,1.730000000000000000e+02,2.780000000000000000e+02,2.050000000000000000e+02,1.100000000000000006e-01,3.699285100000000000e+09
4.460000000000000000e+02,9.920000000000000000e+02,1.508000000000000000e+03,7.580000000000000000e+02,3.240000000000000000e+02,1.870000000000000000e+02,2.320000000000000000e+02,2.100000000000000000e+02,1.000000000000000056e-01,3.720753000000000000e+09
4.580000000000000000e+02,1.013000000000000000e+03,1.503000000000000000e+03,7.810000000000000000e+02,3.360000000000000000e+02,1.860000000000000000e+02,2.250000000000000000e+02,2.130000000000000000e+02,8.999999999999999667e-02,3.739261600000000000e+09
4.810000000000000000e+02,1.040000000000000000e+03,1.381000000000000000e+03,7.860000000000000000e+02,3.410000000000000000e+02,1.930000000000000000e+02,2.370000000000000000e+02,2.200000000000000000e+02,8.000000000000000167e-02,3.760727100000000000e+09
4.540000000000000000e+02,9.340000000000000000e+02,1.262000000000000000e+03,6.800000000000000000e+02,3.150000000000000000e+02,1.900000000000000000e+02,2.290000000000000000e+02,1.940000000000000000e+02,7.000000000000000666e-02,3.779243500000000000e+09
4.560000000000000000e+02,9.510000000000000000e+02,1.279000000000000000e+03,6.470000000000000000e+02,2.870000000000000000e+02,1.790000000000000000e+02,2.010000000000000000e+02,1.910000000000000000e+02,5.999999999999999778e-02,3.800876600000000000e+09
4.710000000000000000e+02,9.920000000000000000e+02,1.200000000000000000e+03,6.470000000000000000e+02,2.700000000000000000e+02,1.670000000000000000e+02,1.790000000000000000e+02,1.990000000000000000e+02,5.000000000000000278e-02,3.821181700000000000e+09
4.550000000000000000e+02,1.001000000000000000e+03,1.223000000000000000e+03,6.430000000000000000e+02,2.530000000000000000e+02,1.700000000000000000e+02,1.730000000000000000e+02,1.880000000000000000e+02,4.000000000000000083e-02,3.840080800000000000e+09
4.150000000000000000e+02,1.000000000000000000e+03,1.246000000000000000e+03,6.350000000000000000e+02,2.470000000000000000e+02,1.680000000000000000e+02,1.460000000000000000e+02,1.800000000000000000e+02,2.999999999999999889e-02,3.861292700000000000e+09
3.780000000000000000e+02,9.900000000000000000e+02,1.267000000000000000e+03,6.020000000000000000e+02,2.220000000000000000e+02,2.550000000000000000e+02,1.350000000000000000e+02,1.720000000000000000e+02,2.000000000000000042e-02,3.879602300000000000e+09
3.730000000000000000e+02,8.980000000000000000e+02,1.141000000000000000e+03,5.210000000000000000e+02,2.020000000000000000e+02,3.850000000000000000e+02,1.780000000000000000e+02,2.180000000000000000e+02,1.000000000000000021e-02,3.901028600000000000e+09
3.250000000000000000e+02,8.990000000000000000e+02,1.071000000000000000e+03,4.490000000000000000e+02,1.600000000000000000e+02,4.640000000000000000e+02,2.670000000000000000e+02,2.430000000000000000e+02,0.000000000000000000e+00,3.920057000000000000e+09
2.920000000000000000e+02,8.290000000000000000e+02,9.880000000000000000e+02,3.570000000000000000e+02,1.230000000000000000e+02,5.040000000000000000e+02,2.850000000000000000e+02,3.760000000000000000e+02,1.000000000000000021e-02,3.941213900000000000e+09
2.550000000000000000e+02,6.850000000000000000e+02,8.730000000000000000e+02,2.890000000000000000e+02,1.100000000000000000e+02,6.250000000000000000e+02,3.480000000000000000e+02,4.550000000000000000e+02,2.000000000000000042e-02,3.959540800000000000e+09
2.820000000000000000e+02,5.980000000000000000e+02,7.450000000000000000e+02,2.700000000000000000e+02,1.380000000000000000e+02,8.710000000000000000e+02,6.430000000000000000e+02,5.290000000000000000e+02,4.000000000000000083e-02,3.999624000000000000e+09
2.720000000000000000e+02,5.670000000000000000e+02,7.610000000000000000e+02,2.630000000000000000e+02,1.550000000000000000e+02,1.057000000000000000e+03,6.980000000000000000e+02,6.520000000000000000e+02,5.000000000000000278e-02,4.020627200000000000e+09
2.990000000000000000e+02,5.480000000000000000e+02,7.630000000000000000e+02,2.750000000000000000e+02,1.900000000000000000e+02,1.129000000000000000e+03,7.400000000000000000e+02,7.500000000000000000e+02,5.000000000000000278e-02,4.020639100000000000e+09
3.110000000000000000e+02,5.770000000000000000e+02,6.790000000000000000e+02,2.780000000000000000e+02,2.010000000000000000e+02,1.233000000000000000e+03,8.360000000000000000e+02,8.850000000000000000e+02,5.999999999999999778e-02,4.039087600000000000e+09
3.260000000000000000e+02,5.920000000000000000e+02,6.620000000000000000e+02,2.730000000000000000e+02,2.020000000000000000e+02,1.224000000000000000e+03,9.490000000000000000e+02,9.290000000000000000e+02,7.000000000000000666e-02,4.059991400000000000e+09
3.500000000000000000e+02,6.070000000000000000e+02,7.000000000000000000e+02,2.700000000000000000e+02,1.900000000000000000e+02,1.136000000000000000e+03,8.990000000000000000e+02,9.760000000000000000e+02,8.000000000000000167e-02,4.081051500000000000e+09
3.190000000000000000e+02,6.450000000000000000e+02,8.220000000000000000e+02,2.510000000000000000e+02,1.800000000000000000e+02,1.058000000000000000e+03,1.060000000000000000e+03,9.440000000000000000e+02,8.999999999999999667e-02,4.100016500000000000e+09
2.940000000000000000e+02,5.500000000000000000e+02,8.170000000000000000e+02,1.880000000000000000e+02,1.390000000000000000e+02,9.590000000000000000e+02,1.110000000000000000e+03,9.320000000000000000e+02,1.000000000000000056e-01,4.119083200000000000e+09
2.860000000000000000e+02,4.720000000000000000e+02,8.850000000000000000e+02,1.700000000000000000e+02,1.280000000000000000e+02,8.510000000000000000e+02,1.123000000000000000e+03,8.120000000000000000e+02,1.100000000000000006e-01,4.141577800000000000e+09
2.890000000000000000e+02,4.810000000000000000e+02,9.660000000000000000e+02,1.620000000000000000e+02,1.170000000000000000e+02,8.590000000000000000e+02,1.127000000000000000e+03,7.490000000000000000e+02,1.199999999999999956e-01,4.160329400000000000e+09
2.430000000000000000e+02,5.640000000000000000e+02,9.470000000000000000e+02,1.600000000000000000e+02,9.700000000000000000e+01,7.550000000000000000e+02,1.065000000000000000e+03,7.700000000000000000e+02,1.300000000000000044e-01,4.179271900000000000e+09
2.620000000000000000e+02,5.190000000000000000e+02,7.930000000000000000e+02,1.510000000000000000e+02,8.500000000000000000e+01,6.150000000000000000e+02,9.340000000000000000e+02,7.490000000000000000e+02,1.400000000000000133e-01,4.200513100000000000e+09
2.520000000000000000e+02,5.550000000000000000e+02,7.790000000000000000e+02,1.510000000000000000e+02,8.200000000000000000e+01,6.210000000000000000e+02,8.890000000000000000e+02,6.850000000000000000e+02,1.499999999999999944e-01,4.218929300000000000e+09
2.490000000000000000e+02,5.590000000000000000e+02,7.650000000000000000e+02,1.460000000000000000e+02,7.900000000000000000e+01,6.080000000000000000e+02,8.400000000000000000e+02,7.070000000000000000e+02,1.600000000000000033e-01,4.239808300000000000e+09
2.510000000000000000e+02,5.650000000000000000e+02,7.090000000000000000e+02,1.280000000000000000e+02,7.300000000000000000e+01,5.450000000000000000e+02,6.900000000000000000e+02,7.260000000000000000e+02,1.799999999999999933e-01,4.279715400000000000e+09
2.440000000000000000e+02,4.690000000000000000e+02,6.860000000000000000e+02,1.150000000000000000e+02,7.200000000000000000e+01,5.540000000000000000e+02,7.010000000000000000e+02,7.470000000000000000e+02,1.799999999999999933e-01,4.279727200000000000e+09
2.690000000000000000e+02,4.420000000000000000e+02,7.020000000000000000e+02,1.120000000000000000e+02,7.800000000000000000e+01,5.770000000000000000e+02,6.560000000000000000e+02,8.030000000000000000e+02,2.000000000000000111e-01,4.319787300000000000e+09
2.660000000000000000e+02,3.640000000000000000e+02,6.690000000000000000e+02,1.150000000000000000e+02,8.000000000000000000e+01,5.610000000000000000e+02,6.510000000000000000e+02,8.120000000000000000e+02,2.000000000000000111e-01,4.319840200000000000e+09
2.770000000000000000e+02,4.360000000000000000e+02,7.680000000000000000e+02,1.190000000000000000e+02,8.300000000000000000e+01,5.300000000000000000e+02,6.180000000000000000e+02,7.430000000000000000e+02,2.099999999999999922e-01,4.341060000000000000e+09
2.590000000000000000e+02,4.180000000000000000e+02,7.800000000000000000e+02,1.380000000000000000e+02,8.600000000000000000e+01,4.900000000000000000e+02,7.800000000000000000e+02,7.730000000000000000e+02,2.200000000000000011e-01,4.359672900000000000e+09
2.880000000000000000e+02,4.380000000000000000e+02,8.300000000000000000e+02,1.360000000000000000e+02,9.100000000000000000e+01,5.090000000000000000e+02,9.080000000000000000e+02,7.760000000000000000e+02,2.399999999999999911e-01,4.400223100000000000e+09
2.350000000000000000e+02,4.380000000000000000e+02,8.080000000000000000e+02,1.350000000000000000e+02,8.100000000000000000e+01,4.240000000000000000e+02,9.100000000000000000e+02,7.910000000000000000e+02,2.399999999999999911e-01,4.400269700000000000e+09
2.230000000000000000e+02,4.400000000000000000e+02,8.150000000000000000e+02,1.280000000000000000e+02,7.900000000000000000e+01,4.190000000000000000e+02,8.560000000000000000e+02,7.730000000000000000e+02,2.500000000000000000e-01,4.418788400000000000e+09
2.290000000000000000e+02,3.470000000000000000e+02,7.960000000000000000e+02,1.470000000000000000e+02,7.100000000000000000e+01,4.340000000000000000e+02,8.510000000000000000e+02,8.190000000000000000e+02,2.600000000000000089e-01,4.440572700000000000e+09
2.310000000000000000e+02,4.110000000000000000e+02,7.600000000000000000e+02,1.560000000000000000e+02,7.000000000000000000e+01,4.660000000000000000e+02,7.630000000000000000e+02,8.450000000000000000e+02,2.700000000000000178e-01,4.459326900000000000e+09
2.400000000000000000e+02,3.850000000000000000e+02,7.470000000000000000e+02,1.550000000000000000e+02,6.400000000000000000e+01,4.350000000000000000e+02,6.850000000000000000e+02,7.700000000000000000e+02,2.800000000000000266e-01,4.480961700000000000e+09
2.490000000000000000e+02,3.700000000000000000e+02,7.470000000000000000e+02,1.550000000000000000e+02,6.300000000000000000e+01,4.420000000000000000e+02,6.840000000000000000e+02,7.370000000000000000e+02,2.899999999999999800e-01,4.499547300000000000e+09
2.610000000000000000e+02,3.980000000000000000e+02,8.050000000000000000e+02,1.620000000000000000e+02,6.400000000000000000e+01,4.690000000000000000e+02,7.440000000000000000e+02,7.440000000000000000e+02,2.999999999999999889e-01,4.520653900000000000e+09
2.370000000000000000e+02,4.760000000000000000e+02,6.760000000000000000e+02,1.340000000000000000e+02,6.300000000000000000e+01,4.230000000000000000e+02,7.470000000000000000e+02,7.360000000000000000e+02,3.099999999999999978e-01,4.538732600000000000e+09
2.350000000000000000e+02,4.090000000000000000e+02,6.570000000000000000e+02,1.040000000000000000e+02,5.400000000000000000e+01,3.760000000000000000e+02,7.240000000000000000e+02,7.370000000000000000e+02,3.300000000000000155e-01,4.578963100000000000e+09
1.820000000000000000e+02,4.060000000000000000e+02,6.210000000000000000e+02,1.090000000000000000e+02,6.500000000000000000e+01,4.140000000000000000e+02,8.110000000000000000e+02,7.830000000000000000e+02,3.300000000000000155e-01,4.578981300000000000e+09
1.810000000000000000e+02,4.120000000000000000e+02,6.490000000000000000e+02,1.130000000000000000e+02,7.300000000000000000e+01,4.110000000000000000e+02,8.060000000000000000e+02,7.570000000000000000e+02,3.499999999999999778e-01,4.619160100000000000e+09
1.580000000000000000e+02,3.940000000000000000e+02,6.350000000000000000e+02,1.080000000000000000e+02,7.300000000000000000e+01,3.920000000000000000e+02,8.420000000000000000e+02,7.880000000000000000e+02,3.499999999999999778e-01,4.619171400000000000e+09
1.950000000000000000e+02,4.000000000000000000e+02,6.620000000000000000e+02,1.260000000000000000e+02,8.300000000000000000e+01,4.190000000000000000e+02,9.510000000000000000e+02,7.920000000000000000e+02,3.599999999999999867e-01,4.640280400000000000e+09
1.910000000000000000e+02,4.010000000000000000e+02,6.020000000000000000e+02,1.180000000000000000e+02,8.300000000000000000e+01,4.250000000000000000e+02,9.570000000000000000e+02,8.160000000000000000e+02,3.800000000000000044e-01,4.680185200000000000e+09
2.100000000000000000e+02,4.120000000000000000e+02,5.840000000000000000e+02,1.110000000000000000e+02,7.500000000000000000e+01,3.970000000000000000e+02,8.010000000000000000e+02,8.160000000000000000e+02,3.900000000000000133e-01,4.699126800000000000e+09
2.160000000000000000e+02,4.220000000000000000e+02,5.480000000000000000e+02,1.050000000000000000e+02,7.000000000000000000e+01,3.890000000000000000e+02,8.640000000000000000e+02,8.100000000000000000e+02,3.900000000000000133e-01,4.699152100000000000e+09
2.280000000000000000e+02,4.630000000000000000e+02,5.900000000000000000e+02,1.360000000000000000e+02,7.800000000000000000e+01,4.120000000000000000e+02,8.230000000000000000e+02,8.070000000000000000e+02,4.000000000000000222e-01,4.719990100000000000e+09
1.930000000000000000e+02,3.930000000000000000e+02,5.030000000000000000e+02,1.090000000000000000e+02,6.600000000000000000e+01,4.020000000000000000e+02,7.310000000000000000e+02,8.920000000000000000e+02,4.199999999999999845e-01,4.759711800000000000e+09
1.930000000000000000e+02,3.770000000000000000e+02,4.800000000000000000e+02,1.060000000000000000e+02,7.000000000000000000e+01,4.080000000000000000e+02,7.330000000000000000e+02,8.420000000000000000e+02,4.199999999999999845e-01,4.759723800000000000e+09
1.560000000000000000e+02,3.840000000000000000e+02,4.640000000000000000e+02,1.050000000000000000e+02,6.600000000000000000e+01,4.080000000000000000e+02,7.850000000000000000e+02,7.970000000000000000e+02,4.299999999999999933e-01,4.780941200000000000e+09
1.710000000000000000e+02,3.700000000000000000e+02,4.680000000000000000e+02,1.100000000000000000e+02,8.400000000000000000e+01,4.650000000000000000e+02,7.540000000000000000e+02,7.940000000000000000e+02,4.500000000000000111e-01,4.820650600000000000e+09
1.770000000000000000e+02,3.300000000000000000e+02,3.510000000000000000e+02,6.600000000000000000e+01,7.600000000000000000e+01,4.340000000000000000e+02,8.350000000000000000e+02,8.460000000000000000e+02,4.500000000000000111e-01,4.820662000000000000e+09
1.940000000000000000e+02,3.860000000000000000e+02,3.200000000000000000e+02,6.200000000000000000e+01,7.500000000000000000e+01,4.110000000000000000e+02,8.270000000000000000e+02,7.310000000000000000e+02,4.600000000000000200e-01,4.839501900000000000e+09
1.910000000000000000e+02,3.970000000000000000e+02,3.220000000000000000e+02,6.100000000000000000e+01,7.100000000000000000e+01,4.580000000000000000e+02,8.460000000000000000e+02,7.420000000000000000e+02,4.799999999999999822e-01,4.879272200000000000e+09
2.110000000000000000e+02,3.800000000000000000e+02,3.560000000000000000e+02,6.000000000000000000e+01,7.700000000000000000e+01,5.130000000000000000e+02,8.860000000000000000e+02,8.040000000000000000e+02,4.899999999999999911e-01,4.900709700000000000e+09
2.000000000000000000e+02,3.970000000000000000e+02,4.520000000000000000e+02,5.200000000000000000e+01,5.700000000000000000e+01,4.730000000000000000e+02,9.290000000000000000e+02,8.010000000000000000e+02,4.899999999999999911e-01,4.900721700000000000e+09
2.140000000000000000e+02,3.910000000000000000e+02,5.240000000000000000e+02,6.400000000000000000e+01,7.000000000000000000e+01,5.450000000000000000e+02,8.800000000000000000e+02,7.730000000000000000e+02,5.100000000000000089e-01,4.940876500000000000e+09
2.300000000000000000e+02,3.330000000000000000e+02,5.410000000000000000e+02,6.100000000000000000e+01,8.000000000000000000e+01,6.230000000000000000e+02,8.950000000000000000e+02,8.290000000000000000e+02,5.100000000000000089e-01,4.940888100000000000e+09
2.320000000000000000e+02,3.370000000000000000e+02,5.650000000000000000e+02,6.800000000000000000e+01,8.400000000000000000e+01,6.070000000000000000e+02,9.500000000000000000e+02,7.730000000000000000e+02,5.300000000000000266e-01,4.981024400000000000e+09
2.320000000000000000e+02,3.630000000000000000e+02,5.430000000000000000e+02,6.900000000000000000e+01,8.200000000000000000e+01,6.210000000000000000e+02,9.020000000000000000e+02,8.300000000000000000e+02,5.400000000000000355e-01,4.999529500000000000e+09
2.390000000000000000e+02,3.620000000000000000e+02,4.830000000000000000e+02,7.200000000000000000e+01,8.700000000000000000e+01,6.290000000000000000e+02,8.390000000000000000e+02,8.510000000000000000e+02,5.500000000000000444e-01,5.020432000000000000e+09
2.270000000000000000e+02,3.470000000000000000e+02,4.670000000000000000e+02,7.100000000000000000e+01,8.700000000000000000e+01,6.280000000000000000e+02,8.590000000000000000e+02,8.450000000000000000e+02,5.600000000000000533e-01,5.039147200000000000e+09
2.160000000000000000e+02,3.460000000000000000e+02,4.570000000000000000e+02,7.200000000000000000e+01,8.000000000000000000e+01,5.590000000000000000e+02,8.970000000000000000e+02,9.050000000000000000e+02,5.699999999999999512e-01,5.060459300000000000e+09
2.150000000000000000e+02,3.880000000000000000e+02,4.360000000000000000e+02,6.800000000000000000e+01,8.200000000000000000e+01,5.870000000000000000e+02,8.270000000000000000e+02,9.680000000000000000e+02,5.699999999999999512e-01,5.060477900000000000e+09
2.030000000000000000e+02,3.670000000000000000e+02,4.660000000000000000e+02,6.800000000000000000e+01,8.100000000000000000e+01,5.330000000000000000e+02,8.330000000000000000e+02,9.150000000000000000e+02,5.799999999999999600e-01,5.078988100000000000e+09
2.450000000000000000e+02,4.110000000000000000e+02,5.740000000000000000e+02,7.500000000000000000e+01,7.500000000000000000e+01,5.190000000000000000e+02,8.790000000000000000e+02,9.070000000000000000e+02,5.999999999999999778e-01,5.119803200000000000e+09
2.500000000000000000e+02,4.210000000000000000e+02,6.120000000000000000e+02,6.900000000000000000e+01,6.400000000000000000e+01,5.750000000000000000e+02,9.200000000000000000e+02,8.920000000000000000e+02,6.099999999999999867e-01,5.138806600000000000e+09
2.600000000000000000e+02,4.130000000000000000e+02,6.070000000000000000e+02,6.700000000000000000e+01,6.500000000000000000e+01,6.010000000000000000e+02,8.760000000000000000e+02,9.510000000000000000e+02,6.199999999999999956e-01,5.160297800000000000e+09
2.620000000000000000e+02,4.310000000000000000e+02,6.060000000000000000e+02,6.600000000000000000e+01,5.900000000000000000e+01,5.700000000000000000e+02,9.020000000000000000e+02,9.400000000000000000e+02,6.300000000000000044e-01,5.179093600000000000e+09
2.620000000000000000e+02,4.540000000000000000e+02,5.860000000000000000e+02,6.600000000000000000e+01,6.100000000000000000e+01,5.900000000000000000e+02,9.070000000000000000e+02,9.260000000000000000e+02,6.300000000000000044e-01,5.179105800000000000e+09
2.850000000000000000e+02,4.240000000000000000e+02,5.280000000000000000e+02,7.200000000000000000e+01,7.400000000000000000e+01,5.950000000000000000e+02,9.730000000000000000e+02,9.770000000000000000e+02,6.500000000000000222e-01,5.218972600000000000e+09
2.790000000000000000e+02,4.110000000000000000e+02,4.450000000000000000e+02,8.200000000000000000e+01,8.200000000000000000e+01,6.440000000000000000e+02,8.840000000000000000e+02,1.015000000000000000e+03,6.600000000000000311e-01,5.240038600000000000e+09
2.870000000000000000e+02,4.110000000000000000e+02,4.450000000000000000e+02,9.500000000000000000e+01,1.000000000000000000e+02,7.160000000000000000e+02,9.470000000000000000e+02,9.000000000000000000e+02,6.600000000000000311e-01,5.240050200000000000e+09
2.970000000000000000e+02,3.850000000000000000e+02,4.510000000000000000e+02,9.700000000000000000e+01,1.030000000000000000e+02,7.340000000000000000e+02,9.350000000000000000e+02,9.190000000000000000e+02,6.800000000000000488e-01,5.279854600000000000e+09
3.560000000000000000e+02,3.610000000000000000e+02,4.920000000000000000e+02,9.900000000000000000e+01,1.070000000000000000e+02,7.490000000000000000e+02,9.890000000000000000e+02,9.860000000000000000e+02,6.899999999999999467e-01,5.300631900000000000e+09
3.370000000000000000e+02,3.610000000000000000e+02,4.470000000000000000e+02,9.000000000000000000e+01,1.070000000000000000e+02,8.090000000000000000e+02,9.430000000000000000e+02,9.620000000000000000e+02,6.899999999999999467e-01,5.300644000000000000e+09
3.680000000000000000e+02,4.190000000000000000e+02,4.240000000000000000e+02,8.900000000000000000e+01,1.030000000000000000e+02,7.160000000000000000e+02,9.790000000000000000e+02,1.008000000000000000e+03,7.099999999999999645e-01,5.340683800000000000e+09
3.500000000000000000e+02,4.420000000000000000e+02,5.230000000000000000e+02,9.300000000000000000e+01,1.080000000000000000e+02,6.640000000000000000e+02,9.170000000000000000e+02,1.067000000000000000e+03,7.199999999999999734e-01,5.359480700000000000e+09
3.360000000000000000e+02,4.650000000000000000e+02,5.270000000000000000e+02,9.500000000000000000e+01,1.080000000000000000e+02,6.840000000000000000e+02,1.040000000000000000e+03,1.034000000000000000e+03,7.199999999999999734e-01,5.359493300000000000e+09
2.950000000000000000e+02,4.830000000000000000e+02,4.860000000000000000e+02,9.200000000000000000e+01,1.000000000000000000e+02,6.690000000000000000e+02,1.004000000000000000e+03,1.044000000000000000e+03,7.299999999999999822e-01,5.380614200000000000e+09
2.530000000000000000e+02,5.410000000000000000e+02,4.490000000000000000e+02,9.100000000000000000e+01,1.060000000000000000e+02,7.810000000000000000e+02,1.010000000000000000e+03,1.146000000000000000e+03,7.500000000000000000e-01,5.419999000000000000e+09
2.150000000000000000e+02,5.230000000000000000e+02,4.820000000000000000e+02,8.900000000000000000e+01,1.180000000000000000e+02,8.750000000000000000e+02,1.137000000000000000e+03,1.132000000000000000e+03,7.500000000000000000e-01,5.420010500000000000e+09
2.260000000000000000e+02,5.460000000000000000e+02,4.110000000000000000e+02,7.600000000000000000e+01,1.180000000000000000e+02,9.100000000000000000e+02,1.151000000000000000e+03,1.112000000000000000e+03,7.700000000000000178e-01,5.459453600000000000e+09
2.550000000000000000e+02,5.820000000000000000e+02,4.520000000000000000e+02,7.600000000000000000e+01,1.220000000000000000e+02,9.810000000000000000e+02,1.101000000000000000e+03,1.124000000000000000e+03,7.800000000000000266e-01,5.480855800000000000e+09
2.770000000000000000e+02,6.500000000000000000e+02,4.480000000000000000e+02,9.000000000000000000e+01,1.440000000000000000e+02,1.049000000000000000e+03,1.134000000000000000e+03,1.028000000000000000e+03,7.800000000000000266e-01,5.480869300000000000e+09
2.890000000000000000e+02,6.230000000000000000e+02,4.610000000000000000e+02,9.300000000000000000e+01,1.400000000000000000e+02,9.510000000000000000e+02,1.145000000000000000e+03,9.330000000000000000e+02,7.900000000000000355e-01,5.499299900000000000e+09
2.870000000000000000e+02,6.790000000000000000e+02,4.180000000000000000e+02,8.900000000000000000e+01,1.430000000000000000e+02,9.810000000000000000e+02,1.042000000000000000e+03,8.920000000000000000e+02,8.100000000000000533e-01,5.539577900000000000e+09
3.200000000000000000e+02,6.800000000000000000e+02,3.720000000000000000e+02,8.900000000000000000e+01,1.310000000000000000e+02,1.000000000000000000e+03,1.037000000000000000e+03,8.790000000000000000e+02,8.199999999999999512e-01,5.560991300000000000e+09
3.650000000000000000e+02,6.230000000000000000e+02,3.220000000000000000e+02,1.000000000000000000e+02,1.660000000000000000e+02,1.005000000000000000e+03,1.030000000000000000e+03,9.250000000000000000e+02,8.199999999999999512e-01,5.561007700000000000e+09
4.030000000000000000e+02,6.990000000000000000e+02,4.880000000000000000e+02,1.040000000000000000e+02,1.770000000000000000e+02,9.860000000000000000e+02,9.900000000000000000e+02,1.057000000000000000e+03,8.399999999999999689e-01,5.601080400000000000e+09
4.000000000000000000e+02,6.970000000000000000e+02,5.210000000000000000e+02,1.020000000000000000e+02,1.820000000000000000e+02,1.089000000000000000e+03,1.002000000000000000e+03,1.086000000000000000e+03,8.399999999999999689e-01,5.601131300000000000e+09
5.410000000000000000e+02,6.900000000000000000e+02,5.470000000000000000e+02,1.240000000000000000e+02,1.900000000000000000e+02,1.180000000000000000e+03,9.950000000000000000e+02,1.229000000000000000e+03,8.499999999999999778e-01,5.619568000000000000e+09
6.060000000000000000e+02,7.290000000000000000e+02,6.390000000000000000e+02,1.400000000000000000e+02,2.050000000000000000e+02,1.342000000000000000e+03,9.820000000000000000e+02,1.254000000000000000e+03,8.699999999999999956e-01,5.658684800000000000e+09
6.190000000000000000e+02,7.580000000000000000e+02,6.570000000000000000e+02,1.400000000000000000e+02,1.890000000000000000e+02,1.396000000000000000e+03,9.590000000000000000e+02,1.227000000000000000e+03,8.800000000000000044e-01,5.680732300000000000e+09
6.510000000000000000e+02,6.370000000000000000e+02,5.940000000000000000e+02,1.380000000000000000e+02,1.870000000000000000e+02,1.432000000000000000e+03,9.880000000000000000e+02,1.124000000000000000e+03,8.800000000000000044e-01,5.680743900000000000e+09
7.170000000000000000e+02,6.600000000000000000e+02,5.830000000000000000e+02,1.530000000000000000e+02,2.170000000000000000e+02,1.493000000000000000e+03,1.015000000000000000e+03,1.105000000000000000e+03,9.000000000000000222e-01,5.718951500000000000e+09
6.530000000000000000e+02,6.650000000000000000e+02,5.880000000000000000e+02,1.630000000000000000e+02,2.450000000000000000e+02,1.423000000000000000e+03,1.016000000000000000e+03,9.630000000000000000e+02,9.100000000000000311e-01,5.740482200000000000e+09
6.700000000000000000e+02,6.790000000000000000e+02,6.530000000000000000e+02,1.680000000000000000e+02,2.710000000000000000e+02,1.378000000000000000e+03,1.161000000000000000e+03,9.060000000000000000e+02,9.100000000000000311e-01,5.740494100000000000e+09
6.880000000000000000e+02,6.900000000000000000e+02,6.550000000000000000e+02,1.770000000000000000e+02,2.760000000000000000e+02,1.287000000000000000e+03,1.160000000000000000e+03,1.000000000000000000e+03,9.300000000000000488e-01,5.780393900000000000e+09
6.650000000000000000e+02,6.870000000000000000e+02,6.390000000000000000e+02,1.770000000000000000e+02,2.680000000000000000e+02,1.261000000000000000e+03,1.113000000000000000e+03,1.121000000000000000e+03,9.399999999999999467e-01,5.799401300000000000e+09
6.240000000000000000e+02,6.920000000000000000e+02,6.370000000000000000e+02,1.720000000000000000e+02,2.490000000000000000e+02,1.147000000000000000e+03,1.114000000000000000e+03,1.184000000000000000e+03,9.399999999999999467e-01,5.799413800000000000e+09
6.010000000000000000e+02,6.590000000000000000e+02,6.140000000000000000e+02,1.470000000000000000e+02,2.150000000000000000e+02,1.227000000000000000e+03,1.090000000000000000e+03,1.153000000000000000e+03,9.599999999999999645e-01,5.839599400000000000e+09
5.170000000000000000e+02,6.020000000000000000e+02,4.670000000000000000e+02,1.290000000000000000e+02,1.830000000000000000e+02,1.241000000000000000e+03,9.760000000000000000e+02,1.165000000000000000e+03,9.699999999999999734e-01,5.860532600000000000e+09
4.470000000000000000e+02,5.650000000000000000e+02,5.650000000000000000e+02,1.140000000000000000e+02,1.710000000000000000e+02,1.261000000000000000e+03,9.520000000000000000e+02,1.051000000000000000e+03,9.699999999999999734e-01,5.860545400000000000e+09
3.830000000000000000e+02,5.760000000000000000e+02,6.370000000000000000e+02,1.210000000000000000e+02,1.670000000000000000e+02,1.326000000000000000e+03,9.410000000000000000e+02,9.270000000000000000e+02,9.899999999999999911e-01,5.900359700000000000e+09
3.250000000000000000e+02,5.590000000000000000e+02,6.340000000000000000e+02,1.040000000000000000e+02,1.490000000000000000e+02,1.327000000000000000e+03,7.970000000000000000e+02,8.070000000000000000e+02,9.799999999999999822e-01,5.918940100000000000e+09
3.040000000000000000e+02,5.690000000000000000e+02,6.150000000000000000e+02,1.040000000000000000e+02,1.540000000000000000e+02,1.225000000000000000e+03,8.120000000000000000e+02,8.170000000000000000e+02,9.799999999999999822e-01,5.918951200000000000e+09
2.570000000000000000e+02,5.510000000000000000e+02,6.500000000000000000e+02,1.030000000000000000e+02,1.320000000000000000e+02,1.041000000000000000e+03,7.060000000000000000e+02,7.280000000000000000e+02,9.599999999999999645e-01,5.958810000000000000e+09
2.260000000000000000e+02,5.320000000000000000e+02,6.790000000000000000e+02,1.240000000000000000e+02,1.180000000000000000e+02,9.550000000000000000e+02,6.000000000000000000e+02,6.810000000000000000e+02,9.499999999999999556e-01,5.979672100000000000e+09
1.990000000000000000e+02,4.840000000000000000e+02,6.250000000000000000e+02,1.150000000000000000e+02,1.050000000000000000e+02,8.960000000000000000e+02,5.430000000000000000e+02,5.910000000000000000e+02,9.499999999999999556e-01,5.979687200000000000e+09
1.960000000000000000e+02,4.390000000000000000e+02,6.710000000000000000e+02,1.210000000000000000e+02,1.050000000000000000e+02,8.360000000000000000e+02,4.810000000000000000e+02,4.820000000000000000e+02,9.300000000000000488e-01,6.019978400000000000e+09
1.700000000000000000e+02,3.450000000000000000e+02,6.580000000000000000e+02,1.230000000000000000e+02,7.200000000000000000e+01,8.400000000000000000e+02,2.820000000000000000e+02,3.200000000000000000e+02,9.200000000000000400e-01,6.041143100000000000e+09
1.470000000000000000e+02,2.820000000000000000e+02,5.960000000000000000e+02,1.260000000000000000e+02,5.500000000000000000e+01,8.350000000000000000e+02,2.340000000000000000e+02,2.740000000000000000e+02,9.200000000000000400e-01,6.041185200000000000e+09
1.340000000000000000e+02,2.270000000000000000e+02,4.140000000000000000e+02,1.030000000000000000e+02,5.900000000000000000e+01,8.410000000000000000e+02,2.130000000000000000e+02,2.510000000000000000e+02,9.000000000000000222e-01,6.078851200000000000e+09
1.390000000000000000e+02,2.510000000000000000e+02,4.210000000000000000e+02,1.150000000000000000e+02,5.600000000000000000e+01,6.770000000000000000e+02,1.910000000000000000e+02,1.950000000000000000e+02,8.900000000000000133e-01,6.099918000000000000e+09
1.280000000000000000e+02,2.730000000000000000e+02,6.200000000000000000e+02,1.570000000000000000e+02,6.200000000000000000e+01,6.690000000000000000e+02,1.390000000000000000e+02,1.160000000000000000e+02,8.900000000000000133e-01,6.099938700000000000e+09
1.080000000000000000e+02,3.000000000000000000e+02,6.760000000000000000e+02,1.570000000000000000e+02,6.100000000000000000e+01,4.800000000000000000e+02,1.000000000000000000e+02,8.100000000000000000e+01,8.699999999999999956e-01,6.139719100000000000e+09
2.250000000000000000e+02,3.110000000000000000e+02,7.900000000000000000e+02,1.550000000000000000e+02,6.500000000000000000e+01,4.340000000000000000e+02,9.400000000000000000e+01,6.700000000000000000e+01,8.599999999999999867e-01,6.159824100000000000e+09
2.270000000000000000e+02,3.260000000000000000e+02,8.660000000000000000e+02,1.580000000000000000e+02,6.400000000000000000e+01,4.410000000000000000e+02,9.200000000000000000e+01,9.400000000000000000e+01,8.599999999999999867e-01,6.159835100000000000e+09
2.280000000000000000e+02,3.130000000000000000e+02,8.730000000000000000e+02,1.630000000000000000e+02,5.800000000000000000e+01,4.250000000000000000e+02,1.210000000000000000e+02,8.900000000000000000e+01,8.399999999999999689e-01,6.199383400000000000e+09
2.320000000000000000e+02,2.680000000000000000e+02,7.140000000000000000e+02,1.320000000000000000e+02,5.100000000000000000e+01,2.750000000000000000e+02,1.240000000000000000e+02,9.100000000000000000e+01,8.299999999999999600e-01,6.219423300000000000e+09
2.320000000000000000e+02,2.730000000000000000e+02,7.110000000000000000e+02,1.450000000000000000e+02,5.000000000000000000e+01,2.790000000000000000e+02,1.110000000000000000e+02,8.900000000000000000e+01,8.299999999999999600e-01,6.219435200000000000e+09
1.380000000000000000e+02,2.780000000000000000e+02,6.630000000000000000e+02,1.450000000000000000e+02,5.200000000000000000e+01,2.480000000000000000e+02,1.100000000000000000e+02,9.000000000000000000e+01,8.100000000000000533e-01,6.259152500000000000e+09
1.320000000000000000e+02,3.140000000000000000e+02,6.940000000000000000e+02,1.350000000000000000e+02,4.900000000000000000e+01,1.590000000000000000e+02,1.040000000000000000e+02,5.300000000000000000e+01,8.000000000000000444e-01,6.280695400000000000e+09
1.180000000000000000e+02,3.050000000000000000e+02,7.350000000000000000e+02,1.230000000000000000e+02,4.900000000000000000e+01,1.260000000000000000e+02,5.900000000000000000e+01,4.700000000000000000e+01,8.000000000000000444e-01,6.280706900000000000e+09
9.900000000000000000e+01,2.920000000000000000e+02,7.670000000000000000e+02,1.160000000000000000e+02,4.600000000000000000e+01,1.130000000000000000e+02,4.800000000000000000e+01,4.000000000000000000e+01,7.800000000000000266e-01,6.319740400000000000e+09
1.280000000000000000e+02,2.650000000000000000e+02,7.690000000000000000e+02,9.300000000000000000e+01,4.700000000000000000e+01,9.000000000000000000e+01,4.400000000000000000e+01,3.900000000000000000e+01,7.700000000000000178e-01,6.341272900000000000e+09
1.300000000000000000e+02,2.630000000000000000e+02,7.190000000000000000e+02,8.300000000000000000e+01,3.700000000000000000e+01,6.900000000000000000e+01,3.400000000000000000e+01,3.500000000000000000e+01,7.700000000000000178e-01,6.341284500000000000e+09
1.350000000000000000e+02,2.430000000000000000e+02,6.770000000000000000e+02,9.200000000000000000e+01,3.800000000000000000e+01,5.800000000000000000e+01,3.400000000000000000e+01,3.500000000000000000e+01,7.500000000000000000e-01,6.378643000000000000e+09
1.380000000000000000e+02,2.470000000000000000e+02,6.870000000000000000e+02,8.100000000000000000e+01,3.900000000000000000e+01,4.900000000000000000e+01,3.000000000000000000e+01,3.500000000000000000e+01,7.399999999999999911e-01,6.400301400000000000e+09
1.410000000000000000e+02,2.450000000000000000e+02,6.690000000000000000e+02,8.700000000000000000e+01,4.000000000000000000e+01,3.500000000000000000e+01,2.900000000000000000e+01,3.600000000000000000e+01,7.399999999999999911e-01,6.400313100000000000e+09
1.100000000000000000e+02,2.560000000000000000e+02,6.940000000000000000e+02,9.100000000000000000e+01,4.000000000000000000e+01,2.900000000000000000e+01,2.700000000000000000e+01,3.600000000000000000e+01,7.199999999999999734e-01,6.440109000000000000e+09
8.800000000000000000e+01,2.510000000000000000e+02,8.080000000000000000e+02,1.020000000000000000e+02,4.700000000000000000e+01,2.900000000000000000e+01,2.800000000000000000e+01,3.700000000000000000e+01,7.099999999999999645e-01,6.461320200000000000e+09
8.400000000000000000e+01,2.520000000000000000e+02,8.140000000000000000e+02,9.500000000000000000e+01,4.700000000000000000e+01,2.600000000000000000e+01,2.800000000000000000e+01,4.000000000000000000e+01,7.099999999999999645e-01,6.461332800000000000e+09
7.600000000000000000e+01,2.700000000000000000e+02,8.290000000000000000e+02,1.060000000000000000e+02,4.700000000000000000e+01,2.600000000000000000e+01,2.600000000000000000e+01,3.800000000000000000e+01,6.899999999999999467e-01,6.499130100000000000e+09
7.700000000000000000e+01,3.120000000000000000e+02,9.070000000000000000e+02,1.330000000000000000e+02,5.200000000000000000e+01,3.300000000000000000e+01,2.600000000000000000e+01,3.800000000000000000e+01,6.800000000000000488e-01,6.520442900000000000e+09
8.000000000000000000e+01,2.960000000000000000e+02,9.110000000000000000e+02,1.450000000000000000e+02,5.200000000000000000e+01,3.500000000000000000e+01,2.800000000000000000e+01,4.000000000000000000e+01,6.800000000000000488e-01,6.520454700000000000e+09
7.800000000000000000e+01,3.080000000000000000e+02,8.460000000000000000e+02,1.430000000000000000e+02,5.100000000000000000e+01,3.900000000000000000e+01,3.000000000000000000e+01,3.800000000000000000e+01,6.600000000000000311e-01,6.559871900000000000e+09
1.210000000000000000e+02,2.910000000000000000e+02,8.940000000000000000e+02,1.480000000000000000e+02,5.100000000000000000e+01,3.800000000000000000e+01,3.000000000000000000e+01,3.500000000000000000e+01,6.500000000000000222e-01,6.578789300000000000e+09
1.250000000000000000e+02,2.800000000000000000e+02,9.340000000000000000e+02,1.460000000000000000e+02,5.000000000000000000e+01,3.900000000000000000e+01,3.100000000000000000e+01,3.600000000000000000e+01,6.400000000000000133e-01,6.599400900000000000e+09
1.280000000000000000e+02,2.520000000000000000e+02,9.510000000000000000e+02,1.150000000000000000e+02,4.100000000000000000e+01,3.400000000000000000e+01,3.000000000000000000e+01,3.500000000000000000e+01,6.300000000000000044e-01,6.620207400000000000e+09
1.260000000000000000e+02,2.560000000000000000e+02,9.850000000000000000e+02,1.040000000000000000e+02,4.400000000000000000e+01,3.500000000000000000e+01,3.000000000000000000e+01,3.400000000000000000e+01,6.199999999999999956e-01,6.641117400000000000e+09
1.260000000000000000e+02,2.480000000000000000e+02,9.760000000000000000e+02,9.800000000000000000e+01,4.000000000000000000e+01,3.700000000000000000e+01,2.800000000000000000e+01,3.200000000000000000e+01,6.099999999999999867e-01,6.659605900000000000e+09
8.400000000000000000e+01,2.900000000000000000e+02,9.110000000000000000e+02,8.800000000000000000e+01,3.800000000000000000e+01,3.500000000000000000e+01,2.700000000000000000e+01,3.000000000000000000e+01,5.999999999999999778e-01,6.681073500000000000e+09
8.400000000000000000e+01,2.900000000000000000e+02,8.470000000000000000e+02,9.200000000000000000e+01,4.000000000000000000e+01,3.600000000000000000e+01,2.700000000000000000e+01,3.600000000000000000e+01,5.899999999999999689e-01,6.699600700000000000e+09
8.300000000000000000e+01,3.160000000000000000e+02,8.050000000000000000e+02,1.150000000000000000e+02,4.300000000000000000e+01,3.800000000000000000e+01,2.900000000000000000e+01,4.200000000000000000e+01,5.799999999999999600e-01,6.720322700000000000e+09
9.300000000000000000e+01,3.410000000000000000e+02,7.740000000000000000e+02,1.360000000000000000e+02,4.900000000000000000e+01,4.100000000000000000e+01,3.500000000000000000e+01,4.900000000000000000e+01,5.699999999999999512e-01,6.739496800000000000e+09
1.070000000000000000e+02,3.510000000000000000e+02,9.170000000000000000e+02,1.500000000000000000e+02,5.400000000000000000e+01,3.700000000000000000e+01,3.600000000000000000e+01,5.400000000000000000e+01,5.600000000000000533e-01,6.760733300000000000e+09
1.350000000000000000e+02,3.730000000000000000e+02,1.014000000000000000e+03,2.020000000000000000e+02,6.800000000000000000e+01,4.300000000000000000e+01,4.100000000000000000e+01,5.900000000000000000e+01,5.500000000000000444e-01,6.779314000000000000e+09
1.390000000000000000e+02,3.860000000000000000e+02,9.930000000000000000e+02,2.090000000000000000e+02,6.900000000000000000e+01,4.700000000000000000e+01,4.100000000000000000e+01,6.200000000000000000e+01,5.400000000000000355e-01,6.800295700000000000e+09
1.370000000000000000e+02,3.630000000000000000e+02,9.970000000000000000e+02,1.980000000000000000e+02,6.900000000000000000e+01,6.900000000000000000e+01,5.100000000000000000e+01,5.900000000000000000e+01,5.300000000000000266e-01,6.819037100000000000e+09
1.300000000000000000e+02,3.460000000000000000e+02,1.015000000000000000e+03,1.820000000000000000e+02,6.300000000000000000e+01,8.600000000000000000e+01,5.800000000000000000e+01,5.300000000000000000e+01,5.200000000000000178e-01,6.840204000000000000e+09
1.170000000000000000e+02,3.230000000000000000e+02,8.870000000000000000e+02,1.800000000000000000e+02,6.000000000000000000e+01,1.020000000000000000e+02,6.900000000000000000e+01,4.900000000000000000e+01,5.100000000000000089e-01,6.858913100000000000e+09
8.000000000000000000e+01,2.580000000000000000e+02,9.040000000000000000e+02,1.250000000000000000e+02,4.600000000000000000e+01,1.020000000000000000e+02,6.800000000000000000e+01,4.400000000000000000e+01,5.000000000000000000e-01,6.879815100000000000e+09
8.300000000000000000e+01,2.830000000000000000e+02,8.970000000000000000e+02,1.180000000000000000e+02,4.200000000000000000e+01,1.000000000000000000e+02,7.000000000000000000e+01,4.400000000000000000e+01,4.899999999999999911e-01,6.900893500000000000e+09
7.800000000000000000e+01,3.080000000000000000e+02,8.340000000000000000e+02,1.160000000000000000e+02,3.800000000000000000e+01,8.700000000000000000e+01,6.300000000000000000e+01,4.200000000000000000e+01,4.799999999999999822e-01,6.919084900000000000e+09
8.100000000000000000e+01,3.090000000000000000e+02,8.360000000000000000e+02,1.260000000000000000e+02,3.900000000000000000e+01,7.000000000000000000e+01,5.500000000000000000e+01,4.300000000000000000e+01,4.699999999999999734e-01,6.939499400000000000e+09
8.900000000000000000e+01,3.260000000000000000e+02,8.580000000000000000e+02,1.340000000000000000e+02,4.700000000000000000e+01,4.600000000000000000e+01,4.100000000000000000e+01,4.300000000000000000e+01,4.600000000000000200e-01,6.960734900000000000e+09
1.000000000000000000e+02,3.480000000000000000e+02,8.610000000000000000e+02,1.590000000000000000e+02,5.700000000000000000e+01,4.700000000000000000e+01,4.400000000000000000e+01,4.800000000000000000e+01,4.500000000000000111e-01,6.979192700000000000e+09
9.100000000000000000e+01,3.030000000000000000e+02,8.670000000000000000e+02,1.560000000000000000e+02,5.600000000000000000e+01,4.600000000000000000e+01,4.200000000000000000e+01,4.200000000000000000e+01,4.400000000000000022e-01,7.000304700000000000e+09
9.100000000000000000e+01,3.040000000000000000e+02,9.220000000000000000e+02,1.610000000000000000e+02,5.800000000000000000e+01,9.300000000000000000e+01,7.200000000000000000e+01,4.200000000000000000e+01,4.299999999999999933e-01,7.020897800000000000e+09
8.700000000000000000e+01,3.310000000000000000e+02,8.840000000000000000e+02,1.590000000000000000e+02,5.900000000000000000e+01,9.900000000000000000e+01,7.200000000000000000e+01,4.400000000000000000e+01,4.199999999999999845e-01,7.039442200000000000e+09
8.200000000000000000e+01,3.290000000000000000e+02,9.990000000000000000e+02,1.580000000000000000e+02,5.400000000000000000e+01,1.130000000000000000e+02,7.300000000000000000e+01,4.400000000000000000e+01,4.099999999999999756e-01,7.060356400000000000e+09
8.300000000000000000e+01,3.100000000000000000e+02,9.900000000000000000e+02,1.480000000000000000e+02,4.700000000000000000e+01,1.130000000000000000e+02,7.300000000000000000e+01,4.600000000000000000e+01,4.000000000000000222e-01,7.078861600000000000e+09
1.060000000000000000e+02,3.660000000000000000e+02,1.020000000000000000e+03,1.730000000000000000e+02,6.200000000000000000e+01,1.210000000000000000e+02,7.600000000000000000e+01,5.500000000000000000e+01,3.900000000000000133e-01,7.099834900000000000e+09
1.170000000000000000e+02,3.440000000000000000e+02,9.750000000000000000e+02,1.910000000000000000e+02,6.800000000000000000e+01,1.070000000000000000e+02,5.900000000000000000e+01,5.700000000000000000e+01,3.800000000000000044e-01,7.120909000000000000e+09
1.220000000000000000e+02,3.430000000000000000e+02,1.103000000000000000e+03,1.880000000000000000e+02,6.800000000000000000e+01,1.070000000000000000e+02,7.100000000000000000e+01,5.900000000000000000e+01,3.699999999999999956e-01,7.139743500000000000e+09
1.220000000000000000e+02,3.510000000000000000e+02,1.013000000000000000e+03,1.860000000000000000e+02,7.000000000000000000e+01,9.100000000000000000e+01,6.900000000000000000e+01,5.700000000000000000e+01,3.599999999999999867e-01,7.160671500000000000e+09
1.780000000000000000e+02,5.200000000000000000e+02,1.055000000000000000e+03,2.660000000000000000e+02,1.090000000000000000e+02,1.040000000000000000e+02,7.700000000000000000e+01,8.100000000000000000e+01,3.499999999999999778e-01,7.178962100000000000e+09
1.850000000000000000e+02,5.440000000000000000e+02,1.175000000000000000e+03,2.850000000000000000e+02,1.130000000000000000e+02,1.180000000000000000e+02,7.800000000000000000e+01,8.300000000000000000e+01,3.400000000000000244e-01,7.200625700000000000e+09
1.870000000000000000e+02,5.600000000000000000e+02,1.275000000000000000e+03,2.860000000000000000e+02,1.130000000000000000e+02,1.030000000000000000e+02,7.200000000000000000e+01,8.400000000000000000e+01,3.400000000000000244e-01,7.200636300000000000e+09
1.980000000000000000e+02,5.790000000000000000e+02,1.182000000000000000e+03,3.100000000000000000e+02,1.210000000000000000e+02,1.030000000000000000e+02,6.300000000000000000e+01,8.900000000000000000e+01,3.200000000000000067e-01,7.240056400000000000e+09
2.170000000000000000e+02,6.100000000000000000e+02,1.233000000000000000e+03,3.510000000000000000e+02,1.360000000000000000e+02,1.100000000000000000e+02,6.900000000000000000e+01,1.000000000000000000e+02,3.099999999999999978e-01,7.261074100000000000e+09
1.680000000000000000e+02,4.620000000000000000e+02,1.130000000000000000e+03,2.890000000000000000e+02,1.080000000000000000e+02,9.900000000000000000e+01,5.800000000000000000e+01,8.000000000000000000e+01,2.999999999999999889e-01,7.279510500000000000e+09
1.620000000000000000e+02,4.290000000000000000e+02,9.860000000000000000e+02,2.630000000000000000e+02,9.900000000000000000e+01,8.100000000000000000e+01,7.400000000000000000e+01,7.900000000000000000e+01,2.899999999999999800e-01,7.300892800000000000e+09
1.710000000000000000e+02,4.420000000000000000e+02,1.014000000000000000e+03,2.830000000000000000e+02,1.080000000000000000e+02,8.400000000000000000e+01,7.600000000000000000e+01,8.200000000000000000e+01,2.800000000000000266e-01,7.319519200000000000e+09
1.900000000000000000e+02,4.900000000000000000e+02,1.034000000000000000e+03,3.120000000000000000e+02,1.170000000000000000e+02,8.500000000000000000e+01,7.800000000000000000e+01,8.800000000000000000e+01,2.700000000000000178e-01,7.340871900000000000e+09
1.800000000000000000e+02,4.690000000000000000e+02,1.032000000000000000e+03,2.900000000000000000e+02,1.080000000000000000e+02,7.700000000000000000e+01,7.400000000000000000e+01,7.900000000000000000e+01,2.600000000000000089e-01,7.359564700000000000e+09
1.830000000000000000e+02,4.920000000000000000e+02,1.126000000000000000e+03,2.970000000000000000e+02,1.060000000000000000e+02,7.500000000000000000e+01,7.300000000000000000e+01,7.800000000000000000e+01,2.500000000000000000e-01,7.380890400000000000e+09
1.750000000000000000e+02,4.820000000000000000e+02,1.132000000000000000e+03,2.890000000000000000e+02,1.040000000000000000e+02,6.400000000000000000e+01,5.200000000000000000e+01,7.200000000000000000e+01,2.399999999999999911e-01,7.399487300000000000e+09
1.580000000000000000e+02,4.710000000000000000e+02,1.012000000000000000e+03,2.580000000000000000e+02,9.200000000000000000e+01,5.900000000000000000e+01,4.700000000000000000e+01,6.700000000000000000e+01,2.300000000000000100e-01,7.420468300000000000e+09
1.260000000000000000e+02,3.960000000000000000e+02,1.099000000000000000e+03,2.110000000000000000e+02,7.300000000000000000e+01,5.000000000000000000e+01,3.900000000000000000e+01,5.300000000000000000e+01,2.200000000000000011e-01,7.439095000000000000e+09
1.090000000000000000e+02,3.930000000000000000e+02,1.042000000000000000e+03,1.700000000000000000e+02,5.600000000000000000e+01,4.400000000000000000e+01,3.400000000000000000e+01,4.600000000000000000e+01,2.099999999999999922e-01,7.459790900000000000e+09
1.110000000000000000e+02,4.400000000000000000e+02,1.005000000000000000e+03,1.690000000000000000e+02,5.900000000000000000e+01,4.200000000000000000e+01,3.400000000000000000e+01,4.700000000000000000e+01,2.000000000000000111e-01,7.480740800000000000e+09
1.270000000000000000e+02,4.360000000000000000e+02,1.107000000000000000e+03,2.500000000000000000e+02,8.400000000000000000e+01,5.100000000000000000e+01,4.200000000000000000e+01,5.800000000000000000e+01,1.900000000000000022e-01,7.498999800000000000e+09
1.260000000000000000e+02,4.520000000000000000e+02,1.108000000000000000e+03,2.580000000000000000e+02,9.200000000000000000e+01,5.200000000000000000e+01,4.500000000000000000e+01,6.000000000000000000e+01,1.799999999999999933e-01,7.520010500000000000e+09
1.370000000000000000e+02,4.880000000000000000e+02,1.158000000000000000e+03,2.860000000000000000e+02,1.000000000000000000e+02,5.300000000000000000e+01,4.600000000000000000e+01,6.500000000000000000e+01,1.700000000000000122e-01,7.541212000000000000e+09
1.610000000000000000e+02,5.030000000000000000e+02,1.205000000000000000e+03,3.080000000000000000e+02,1.080000000000000000e+02,5.900000000000000000e+01,5.200000000000000000e+01,7.400000000000000000e+01,1.600000000000000033e-01,7.559561400000000000e+09
1.900000000000000000e+02,6.250000000000000000e+02,1.246000000000000000e+03,3.690000000000000000e+02,1.310000000000000000e+02,7.000000000000000000e+01,6.500000000000000000e+01,8.800000000000000000e+01,1.499999999999999944e-01,7.580666500000000000e+09
2.220000000000000000e+02,6.920000000000000000e+02,1.161000000000000000e+03,3.710000000000000000e+02,1.380000000000000000e+02,7.500000000000000000e+01,7.000000000000000000e+01,1.010000000000000000e+02,1.400000000000000133e-01,7.598966800000000000e+09
2.400000000000000000e+02,7.170000000000000000e+02,1.174000000000000000e+03,3.770000000000000000e+02,1.380000000000000000e+02,7.900000000000000000e+01,7.100000000000000000e+01,1.060000000000000000e+02,1.300000000000000044e-01,7.619960900000000000e+09
2.410000000000000000e+02,7.440000000000000000e+02,1.168000000000000000e+03,3.800000000000000000e+02,1.320000000000000000e+02,7.900000000000000000e+01,7.300000000000000000e+01,1.050000000000000000e+02,1.199999999999999956e-01,7.638736700000000000e+09
2.450000000000000000e+02,7.700000000000000000e+02,1.160000000000000000e+03,4.020000000000000000e+02,1.380000000000000000e+02,8.100000000000000000e+01,7.300000000000000000e+01,1.080000000000000000e+02,1.100000000000000006e-01,7.659969400000000000e+09
2.500000000000000000e+02,6.980000000000000000e+02,1.199000000000000000e+03,4.060000000000000000e+02,1.430000000000000000e+02,8.800000000000000000e+01,6.700000000000000000e+01,1.070000000000000000e+02,1.000000000000000056e-01,7.680754200000000000e+09
3.630000000000000000e+02,9.020000000000000000e+02,1.272000000000000000e+03,6.660000000000000000e+02,2.670000000000000000e+02,1.270000000000000000e+02,1.050000000000000000e+02,1.590000000000000000e+02,8.999999999999999667e-02,7.699276900000000000e+09
3.970000000000000000e+02,9.880000000000000000e+02,1.344000000000000000e+03,8.190000000000000000e+02,3.980000000000000000e+02,1.680000000000000000e+02,1.230000000000000000e+02,1.750000000000000000e+02,8.000000000000000167e-02,7.720020300000000000e+09
4.140000000000000000e+02,1.050000000000000000e+03,1.207000000000000000e+03,8.420000000000000000e+02,4.080000000000000000e+02,1.730000000000000000e+02,1.240000000000000000e+02,1.810000000000000000e+02,7.000000000000000666e-02,7.740899600000000000e+09
4.600000000000000000e+02,1.135000000000000000e+03,1.281000000000000000e+03,8.590000000000000000e+02,4.230000000000000000e+02,1.850000000000000000e+02,1.360000000000000000e+02,2.010000000000000000e+02,5.000000000000000278e-02,7.780365500000000000e+09
5.090000000000000000e+02,1.175000000000000000e+03,1.205000000000000000e+03,9.030000000000000000e+02,4.440000000000000000e+02,2.000000000000000000e+02,1.520000000000000000e+02,2.240000000000000000e+02,5.000000000000000278e-02,7.780399100000000000e+09
4.450000000000000000e+02,1.066000000000000000e+03,1.235000000000000000e+03,7.590000000000000000e+02,3.840000000000000000e+02,1.780000000000000000e+02,1.310000000000000000e+02,1.940000000000000000e+02,4.000000000000000083e-02,7.798911400000000000e+09
4.120000000000000000e+02,1.011000000000000000e+03,1.178000000000000000e+03,6.040000000000000000e+02,2.470000000000000000e+02,1.420000000000000000e+02,1.160000000000000000e+02,1.810000000000000000e+02,2.999999999999999889e-02,7.820057000000000000e+09
4.020000000000000000e+02,9.420000000000000000e+02,1.234000000000000000e+03,5.680000000000000000e+02,2.340000000000000000e+02,1.540000000000000000e+02,1.170000000000000000e+02,1.850000000000000000e+02,2.000000000000000042e-02,7.840968500000000000e+09
3.620000000000000000e+02,8.970000000000000000e+02,1.260000000000000000e+03,5.590000000000000000e+02,2.120000000000000000e+02,1.450000000000000000e+02,1.040000000000000000e+02,1.810000000000000000e+02,1.000000000000000021e-02,7.859991200000000000e+09
2.710000000000000000e+02,8.200000000000000000e+02,1.345000000000000000e+03,4.440000000000000000e+02,1.440000000000000000e+02,1.300000000000000000e+02,7.600000000000000000e+01,1.450000000000000000e+02,0.000000000000000000e+00,7.881062900000000000e+09
2.170000000000000000e+02,7.600000000000000000e+02,1.302000000000000000e+03,3.490000000000000000e+02,1.180000000000000000e+02,1.310000000000000000e+02,6.400000000000000000e+01,1.290000000000000000e+02,1.000000000000000021e-02,7.899468200000000000e+09
2.180000000000000000e+02,7.210000000000000000e+02,1.280000000000000000e+03,3.260000000000000000e+02,1.160000000000000000e+02,2.270000000000000000e+02,1.420000000000000000e+02,3.420000000000000000e+02,2.000000000000000042e-02,7.920680100000000000e+09
2.090000000000000000e+02,6.740000000000000000e+02,1.204000000000000000e+03,3.010000000000000000e+02,1.120000000000000000e+02,3.360000000000000000e+02,2.470000000000000000e+02,5.170000000000000000e+02,2.999999999999999889e-02,7.939378000000000000e+09
1.760000000000000000e+02,5.310000000000000000e+02,1.018000000000000000e+03,2.320000000000000000e+02,1.000000000000000000e+02,5.180000000000000000e+02,2.690000000000000000e+02,6.150000000000000000e+02,4.000000000000000083e-02,7.960623700000000000e+09
1.830000000000000000e+02,4.890000000000000000e+02,7.810000000000000000e+02,2.140000000000000000e+02,1.050000000000000000e+02,5.780000000000000000e+02,2.890000000000000000e+02,6.700000000000000000e+02,5.000000000000000278e-02,7.979467200000000000e+09
1.990000000000000000e+02,4.220000000000000000e+02,6.740000000000000000e+02,2.270000000000000000e+02,1.270000000000000000e+02,6.830000000000000000e+02,3.290000000000000000e+02,7.290000000000000000e+02,5.999999999999999778e-02,8.001305200000000000e+09
1.940000000000000000e+02,3.980000000000000000e+02,5.800000000000000000e+02,2.080000000000000000e+02,1.310000000000000000e+02,7.440000000000000000e+02,3.440000000000000000e+02,7.480000000000000000e+02,7.000000000000000666e-02,8.020128700000000000e+09
1.760000000000000000e+02,4.480000000000000000e+02,5.300000000000000000e+02,1.980000000000000000e+02,1.260000000000000000e+02,7.250000000000000000e+02,3.330000000000000000e+02,7.480000000000000000e+02,8.000000000000000167e-02,8.038769200000000000e+09
1.680000000000000000e+02,4.610000000000000000e+02,5.280000000000000000e+02,1.690000000000000000e+02,1.200000000000000000e+02,7.150000000000000000e+02,3.770000000000000000e+02,7.410000000000000000e+02,8.999999999999999667e-02,8.060319900000000000e+09
1.810000000000000000e+02,5.460000000000000000e+02,5.950000000000000000e+02,1.740000000000000000e+02,1.280000000000000000e+02,7.780000000000000000e+02,4.180000000000000000e+02,7.680000000000000000e+02,1.000000000000000056e-01,8.081217700000000000e+09
1.810000000000000000e+02,5.450000000000000000e+02,5.780000000000000000e+02,1.780000000000000000e+02,1.120000000000000000e+02,7.450000000000000000e+02,3.950000000000000000e+02,7.400000000000000000e+02,1.100000000000000006e-01,8.099853700000000000e+09
2.170000000000000000e+02,5.570000000000000000e+02,8.070000000000000000e+02,1.890000000000000000e+02,1.090000000000000000e+02,7.510000000000000000e+02,4.260000000000000000e+02,7.910000000000000000e+02,1.199999999999999956e-01,8.121037300000000000e+09
2.290000000000000000e+02,5.270000000000000000e+02,8.230000000000000000e+02,1.800000000000000000e+02,1.090000000000000000e+02,8.510000000000000000e+02,4.400000000000000000e+02,8.500000000000000000e+02,1.300000000000000044e-01,8.139571400000000000e+09
2.310000000000000000e+02,5.400000000000000000e+02,8.140000000000000000e+02,1.700000000000000000e+02,1.030000000000000000e+02,8.380000000000000000e+02,4.270000000000000000e+02,9.120000000000000000e+02,1.400000000000000133e-01,8.160946000000000000e+09
2.200000000000000000e+02,4.860000000000000000e+02,8.330000000000000000e+02,2.010000000000000000e+02,9.600000000000000000e+01,7.450000000000000000e+02,3.870000000000000000e+02,8.690000000000000000e+02,1.499999999999999944e-01,8.179537900000000000e+09
2.050000000000000000e+02,4.490000000000000000e+02,8.740000000000000000e+02,1.850000000000000000e+02,9.100000000000000000e+01,7.340000000000000000e+02,3.860000000000000000e+02,8.970000000000000000e+02,1.600000000000000033e-01,8.200380800000000000e+09
1.760000000000000000e+02,4.050000000000000000e+02,6.660000000000000000e+02,1.670000000000000000e+02,8.500000000000000000e+01,6.590000000000000000e+02,3.260000000000000000e+02,8.270000000000000000e+02,1.700000000000000122e-01,8.219009700000000000e+09
1.770000000000000000e+02,3.710000000000000000e+02,6.430000000000000000e+02,1.670000000000000000e+02,8.300000000000000000e+01,6.150000000000000000e+02,2.640000000000000000e+02,8.000000000000000000e+02,1.799999999999999933e-01,8.240083500000000000e+09
1.830000000000000000e+02,3.560000000000000000e+02,6.570000000000000000e+02,1.630000000000000000e+02,8.500000000000000000e+01,5.380000000000000000e+02,2.700000000000000000e+02,7.470000000000000000e+02,1.900000000000000022e-01,8.258774300000000000e+09
2.100000000000000000e+02,3.350000000000000000e+02,7.370000000000000000e+02,9.900000000000000000e+01,7.100000000000000000e+01,5.380000000000000000e+02,2.900000000000000000e+02,7.440000000000000000e+02,2.000000000000000111e-01,8.280094600000000000e+09
2.100000000000000000e+02,3.390000000000000000e+02,6.720000000000000000e+02,1.020000000000000000e+02,6.500000000000000000e+01,5.050000000000000000e+02,3.300000000000000000e+02,7.320000000000000000e+02,2.099999999999999922e-01,8.299009200000000000e+09
1.950000000000000000e+02,3.320000000000000000e+02,7.060000000000000000e+02,9.400000000000000000e+01,6.500000000000000000e+01,5.590000000000000000e+02,3.230000000000000000e+02,7.590000000000000000e+02,2.200000000000000011e-01,8.320064900000000000e+09
1.770000000000000000e+02,3.320000000000000000e+02,7.040000000000000000e+02,8.700000000000000000e+01,5.800000000000000000e+01,4.380000000000000000e+02,3.430000000000000000e+02,7.060000000000000000e+02,2.300000000000000100e-01,8.341245500000000000e+09
1.710000000000000000e+02,4.030000000000000000e+02,6.960000000000000000e+02,8.700000000000000000e+01,5.000000000000000000e+01,4.260000000000000000e+02,3.180000000000000000e+02,6.320000000000000000e+02,2.399999999999999911e-01,8.359680500000000000e+09
1.170000000000000000e+02,3.980000000000000000e+02,5.630000000000000000e+02,8.600000000000000000e+01,4.900000000000000000e+01,4.160000000000000000e+02,2.960000000000000000e+02,6.210000000000000000e+02,2.500000000000000000e-01,8.380298300000000000e+09
1.150000000000000000e+02,4.000000000000000000e+02,5.750000000000000000e+02,7.500000000000000000e+01,4.700000000000000000e+01,3.810000000000000000e+02,2.520000000000000000e+02,5.710000000000000000e+02,2.600000000000000089e-01,8.401504000000000000e+09
1.070000000000000000e+02,4.010000000000000000e+02,5.220000000000000000e+02,6.900000000000000000e+01,3.900000000000000000e+01,3.170000000000000000e+02,2.800000000000000000e+02,4.920000000000000000e+02,2.700000000000000178e-01,8.420187800000000000e+09
1.230000000000000000e+02,4.110000000000000000e+02,5.400000000000000000e+02,7.400000000000000000e+01,4.300000000000000000e+01,3.470000000000000000e+02,3.430000000000000000e+02,4.260000000000000000e+02,2.800000000000000266e-01,8.441268600000000000e+09
1.410000000000000000e+02,3.290000000000000000e+02,5.620000000000000000e+02,8.400000000000000000e+01,4.700000000000000000e+01,3.340000000000000000e+02,4.560000000000000000e+02,4.280000000000000000e+02,2.899999999999999800e-01,8.460376500000000000e+09
1.760000000000000000e+02,3.880000000000000000e+02,5.720000000000000000e+02,8.000000000000000000e+01,4.800000000000000000e+01,3.320000000000000000e+02,4.530000000000000000e+02,4.450000000000000000e+02,2.999999999999999889e-01,8.479057600000000000e+09
1.850000000000000000e+02,4.270000000000000000e+02,6.030000000000000000e+02,8.100000000000000000e+01,5.100000000000000000e+01,4.120000000000000000e+02,4.700000000000000000e+02,4.870000000000000000e+02,3.099999999999999978e-01,8.500300000000000000e+09
1.920000000000000000e+02,4.680000000000000000e+02,6.010000000000000000e+02,8.200000000000000000e+01,5.700000000000000000e+01,4.150000000000000000e+02,5.930000000000000000e+02,5.170000000000000000e+02,3.200000000000000067e-01,8.519246100000000000e+09
1.840000000000000000e+02,4.620000000000000000e+02,6.450000000000000000e+02,8.600000000000000000e+01,5.500000000000000000e+01,3.740000000000000000e+02,6.220000000000000000e+02,5.020000000000000000e+02,3.300000000000000155e-01,8.541183100000000000e+09
1.660000000000000000e+02,4.580000000000000000e+02,6.750000000000000000e+02,8.100000000000000000e+01,5.000000000000000000e+01,3.630000000000000000e+02,5.690000000000000000e+02,5.150000000000000000e+02,3.400000000000000244e-01,8.559874100000000000e+09
1.400000000000000000e+02,4.280000000000000000e+02,6.060000000000000000e+02,6.900000000000000000e+01,5.200000000000000000e+01,3.630000000000000000e+02,6.040000000000000000e+02,5.850000000000000000e+02,3.499999999999999778e-01,8.580827800000000000e+09
1.780000000000000000e+02,4.380000000000000000e+02,5.090000000000000000e+02,6.900000000000000000e+01,6.500000000000000000e+01,4.210000000000000000e+02,7.040000000000000000e+02,6.380000000000000000e+02,3.599999999999999867e-01,8.599299800000000000e+09
1.790000000000000000e+02,4.210000000000000000e+02,5.070000000000000000e+02,7.100000000000000000e+01,6.400000000000000000e+01,3.880000000000000000e+02,6.110000000000000000e+02,6.210000000000000000e+02,3.800000000000000044e-01,8.638891800000000000e+09
1.880000000000000000e+02,4.650000000000000000e+02,4.410000000000000000e+02,6.300000000000000000e+01,6.600000000000000000e+01,4.100000000000000000e+02,5.500000000000000000e+02,6.360000000000000000e+02,3.800000000000000044e-01,8.638903400000000000e+09
1.830000000000000000e+02,4.670000000000000000e+02,3.900000000000000000e+02,6.100000000000000000e+01,6.700000000000000000e+01,4.200000000000000000e+02,5.350000000000000000e+02,6.610000000000000000e+02,3.900000000000000133e-01,8.659739900000000000e+09
1.780000000000000000e+02,4.550000000000000000e+02,3.690000000000000000e+02,5.600000000000000000e+01,6.600000000000000000e+01,4.430000000000000000e+02,5.630000000000000000e+02,6.890000000000000000e+02,4.000000000000000222e-01,8.681274900000000000e+09
1.420000000000000000e+02,4.190000000000000000e+02,3.620000000000000000e+02,5.300000000000000000e+01,5.300000000000000000e+01,3.660000000000000000e+02,4.800000000000000000e+02,6.520000000000000000e+02,4.099999999999999756e-01,8.700673900000000000e+09
1.580000000000000000e+02,4.270000000000000000e+02,3.780000000000000000e+02,5.600000000000000000e+01,5.500000000000000000e+01,3.710000000000000000e+02,5.080000000000000000e+02,7.820000000000000000e+02,4.199999999999999845e-01,8.719970100000000000e+09
1.720000000000000000e+02,4.200000000000000000e+02,4.010000000000000000e+02,7.300000000000000000e+01,6.600000000000000000e+01,3.550000000000000000e+02,5.720000000000000000e+02,8.480000000000000000e+02,4.299999999999999933e-01,8.741335300000000000e+09
1.740000000000000000e+02,4.720000000000000000e+02,3.930000000000000000e+02,7.900000000000000000e+01,6.900000000000000000e+01,4.370000000000000000e+02,6.220000000000000000e+02,8.540000000000000000e+02,4.400000000000000022e-01,8.760226300000000000e+09
1.760000000000000000e+02,4.760000000000000000e+02,4.590000000000000000e+02,8.200000000000000000e+01,6.900000000000000000e+01,4.350000000000000000e+02,6.500000000000000000e+02,8.080000000000000000e+02,4.500000000000000111e-01,8.779276000000000000e+09
1.710000000000000000e+02,4.860000000000000000e+02,4.850000000000000000e+02,8.200000000000000000e+01,6.800000000000000000e+01,3.920000000000000000e+02,6.360000000000000000e+02,8.300000000000000000e+02,4.600000000000000200e-01,8.800566800000000000e+09
1.530000000000000000e+02,4.430000000000000000e+02,4.720000000000000000e+02,7.700000000000000000e+01,6.400000000000000000e+01,4.200000000000000000e+02,6.360000000000000000e+02,6.870000000000000000e+02,4.699999999999999734e-01,8.819112100000000000e+09
1.180000000000000000e+02,4.030000000000000000e+02,4.520000000000000000e+02,6.300000000000000000e+01,5.100000000000000000e+01,4.560000000000000000e+02,6.520000000000000000e+02,6.220000000000000000e+02,4.799999999999999822e-01,8.840890600000000000e+09
1.360000000000000000e+02,3.810000000000000000e+02,5.100000000000000000e+02,8.800000000000000000e+01,5.300000000000000000e+01,4.060000000000000000e+02,6.590000000000000000e+02,6.660000000000000000e+02,4.899999999999999911e-01,8.860119700000000000e+09
1.480000000000000000e+02,3.920000000000000000e+02,4.570000000000000000e+02,9.400000000000000000e+01,5.200000000000000000e+01,4.050000000000000000e+02,6.210000000000000000e+02,7.270000000000000000e+02,5.000000000000000000e-01,8.881188400000000000e+09
1.480000000000000000e+02,3.510000000000000000e+02,4.360000000000000000e+02,9.400000000000000000e+01,5.200000000000000000e+01,4.020000000000000000e+02,5.830000000000000000e+02,6.830000000000000000e+02,5.100000000000000089e-01,8.899892100000000000e+09
1.450000000000000000e+02,3.770000000000000000e+02,4.300000000000000000e+02,9.400000000000000000e+01,4.800000000000000000e+01,3.630000000000000000e+02,5.450000000000000000e+02,6.940000000000000000e+02,5.200000000000000178e-01,8.920844500000000000e+09
1.590000000000000000e+02,4.370000000000000000e+02,4.840000000000000000e+02,1.100000000000000000e+02,5.600000000000000000e+01,3.900000000000000000e+02,5.170000000000000000e+02,7.560000000000000000e+02,5.300000000000000266e-01,8.939411600000000000e+09
1.520000000000000000e+02,4.580000000000000000e+02,5.230000000000000000e+02,1.070000000000000000e+02,6.100000000000000000e+01,4.120000000000000000e+02,4.750000000000000000e+02,7.550000000000000000e+02,5.400000000000000355e-01,8.960641300000000000e+09
1.550000000000000000e+02,4.420000000000000000e+02,5.330000000000000000e+02,1.020000000000000000e+02,6.500000000000000000e+01,5.120000000000000000e+02,5.900000000000000000e+02,7.590000000000000000e+02,5.600000000000000533e-01,9.000294200000000000e+09
1.660000000000000000e+02,4.620000000000000000e+02,5.380000000000000000e+02,1.010000000000000000e+02,6.500000000000000000e+01,6.090000000000000000e+02,6.800000000000000000e+02,8.000000000000000000e+02,5.600000000000000533e-01,9.000313300000000000e+09
1.760000000000000000e+02,4.490000000000000000e+02,6.290000000000000000e+02,1.180000000000000000e+02,6.900000000000000000e+01,6.350000000000000000e+02,6.920000000000000000e+02,8.100000000000000000e+02,5.699999999999999512e-01,9.021212900000000000e+09
1.870000000000000000e+02,3.980000000000000000e+02,5.920000000000000000e+02,1.090000000000000000e+02,6.700000000000000000e+01,6.220000000000000000e+02,7.150000000000000000e+02,8.800000000000000000e+02,5.799999999999999600e-01,9.039580400000000000e+09
2.180000000000000000e+02,3.270000000000000000e+02,4.830000000000000000e+02,9.300000000000000000e+01,8.200000000000000000e+01,6.440000000000000000e+02,7.440000000000000000e+02,8.760000000000000000e+02,5.899999999999999689e-01,9.058669000000000000e+09
2.180000000000000000e+02,3.740000000000000000e+02,4.560000000000000000e+02,9.400000000000000000e+01,9.100000000000000000e+01,6.840000000000000000e+02,7.290000000000000000e+02,8.850000000000000000e+02,5.999999999999999778e-01,9.079632200000000000e+09
2.240000000000000000e+02,5.020000000000000000e+02,4.420000000000000000e+02,9.500000000000000000e+01,9.400000000000000000e+01,7.160000000000000000e+02,7.270000000000000000e+02,8.430000000000000000e+02,6.099999999999999867e-01,9.100540800000000000e+09
2.240000000000000000e+02,5.300000000000000000e+02,4.010000000000000000e+02,9.300000000000000000e+01,1.260000000000000000e+02,8.430000000000000000e+02,8.850000000000000000e+02,8.440000000000000000e+02,6.199999999999999956e-01,9.119078900000000000e+09
2.090000000000000000e+02,5.370000000000000000e+02,5.160000000000000000e+02,9.200000000000000000e+01,1.330000000000000000e+02,9.380000000000000000e+02,9.070000000000000000e+02,7.300000000000000000e+02,6.300000000000000044e-01,9.140297000000000000e+09
2.120000000000000000e+02,5.670000000000000000e+02,5.360000000000000000e+02,1.010000000000000000e+02,1.600000000000000000e+02,1.069000000000000000e+03,1.055000000000000000e+03,7.460000000000000000e+02,6.400000000000000133e-01,9.158737000000000000e+09
2.000000000000000000e+02,5.440000000000000000e+02,5.350000000000000000e+02,1.000000000000000000e+02,1.670000000000000000e+02,1.098000000000000000e+03,1.097000000000000000e+03,6.660000000000000000e+02,6.500000000000000222e-01,9.179844500000000000e+09
2.050000000000000000e+02,5.100000000000000000e+02,6.170000000000000000e+02,1.070000000000000000e+02,1.710000000000000000e+02,1.129000000000000000e+03,1.144000000000000000e+03,7.590000000000000000e+02,6.600000000000000311e-01,9.201117900000000000e+09
2.080000000000000000e+02,5.450000000000000000e+02,5.680000000000000000e+02,1.020000000000000000e+02,1.590000000000000000e+02,1.049000000000000000e+03,1.139000000000000000e+03,8.260000000000000000e+02,6.700000000000000400e-01,9.219151500000000000e+09
2.170000000000000000e+02,5.630000000000000000e+02,4.430000000000000000e+02,9.500000000000000000e+01,1.540000000000000000e+02,1.034000000000000000e+03,1.149000000000000000e+03,8.940000000000000000e+02,6.800000000000000488e-01,9.240374900000000000e+09
1.900000000000000000e+02,5.500000000000000000e+02,3.810000000000000000e+02,8.300000000000000000e+01,1.220000000000000000e+02,1.056000000000000000e+03,1.069000000000000000e+03,8.610000000000000000e+02,6.899999999999999467e-01,9.261267700000000000e+09
2.030000000000000000e+02,5.360000000000000000e+02,4.450000000000000000e+02,8.400000000000000000e+01,1.140000000000000000e+02,1.011000000000000000e+03,1.025000000000000000e+03,9.440000000000000000e+02,6.999999999999999556e-01,9.280079900000000000e+09
1.880000000000000000e+02,5.790000000000000000e+02,4.920000000000000000e+02,9.800000000000000000e+01,1.090000000000000000e+02,9.530000000000000000e+02,1.119000000000000000e+03,9.100000000000000000e+02,7.099999999999999645e-01,9.298958800000000000e+09
1.800000000000000000e+02,5.380000000000000000e+02,4.980000000000000000e+02,9.300000000000000000e+01,1.010000000000000000e+02,1.054000000000000000e+03,1.101000000000000000e+03,8.420000000000000000e+02,7.199999999999999734e-01,9.319821500000000000e+09
1.800000000000000000e+02,5.430000000000000000e+02,5.160000000000000000e+02,9.600000000000000000e+01,1.020000000000000000e+02,1.026000000000000000e+03,1.053000000000000000e+03,8.110000000000000000e+02,7.299999999999999822e-01,9.338688800000000000e+09
1.720000000000000000e+02,5.530000000000000000e+02,5.340000000000000000e+02,9.500000000000000000e+01,1.150000000000000000e+02,9.620000000000000000e+02,1.025000000000000000e+03,8.430000000000000000e+02,7.399999999999999911e-01,9.359651100000000000e+09
1.620000000000000000e+02,5.860000000000000000e+02,5.080000000000000000e+02,9.600000000000000000e+01,1.300000000000000000e+02,1.036000000000000000e+03,1.057000000000000000e+03,8.030000000000000000e+02,7.600000000000000089e-01,9.400097200000000000e+09
1.980000000000000000e+02,5.010000000000000000e+02,3.730000000000000000e+02,8.700000000000000000e+01,1.460000000000000000e+02,1.208000000000000000e+03,9.690000000000000000e+02,8.470000000000000000e+02,7.600000000000000089e-01,9.400119700000000000e+09
2.300000000000000000e+02,5.200000000000000000e+02,4.890000000000000000e+02,9.700000000000000000e+01,1.510000000000000000e+02,1.177000000000000000e+03,9.970000000000000000e+02,8.890000000000000000e+02,7.700000000000000178e-01,9.421129900000000000e+09
2.660000000000000000e+02,5.180000000000000000e+02,4.820000000000000000e+02,9.400000000000000000e+01,1.590000000000000000e+02,1.263000000000000000e+03,9.810000000000000000e+02,8.290000000000000000e+02,7.800000000000000266e-01,9.440210100000000000e+09
2.960000000000000000e+02,5.430000000000000000e+02,4.880000000000000000e+02,9.900000000000000000e+01,1.500000000000000000e+02,1.254000000000000000e+03,9.600000000000000000e+02,8.160000000000000000e+02,7.900000000000000355e-01,9.458890100000000000e+09
3.020000000000000000e+02,6.780000000000000000e+02,4.690000000000000000e+02,9.800000000000000000e+01,1.460000000000000000e+02,1.276000000000000000e+03,8.890000000000000000e+02,9.110000000000000000e+02,8.000000000000000444e-01,9.480285200000000000e+09
2.900000000000000000e+02,7.070000000000000000e+02,4.460000000000000000e+02,8.700000000000000000e+01,1.370000000000000000e+02,1.218000000000000000e+03,8.600000000000000000e+02,9.180000000000000000e+02,8.100000000000000533e-01,9.500862800000000000e+09
3.040000000000000000e+02,8.340000000000000000e+02,3.070000000000000000e+02,8.300000000000000000e+01,1.500000000000000000e+02,1.221000000000000000e+03,8.890000000000000000e+02,9.970000000000000000e+02,8.199999999999999512e-01,9.519563100000000000e+09
3.090000000000000000e+02,8.870000000000000000e+02,4.440000000000000000e+02,9.800000000000000000e+01,1.620000000000000000e+02,1.232000000000000000e+03,9.920000000000000000e+02,1.035000000000000000e+03,8.399999999999999689e-01,9.559615400000000000e+09
2.880000000000000000e+02,8.970000000000000000e+02,4.530000000000000000e+02,9.300000000000000000e+01,1.640000000000000000e+02,1.284000000000000000e+03,1.015000000000000000e+03,1.057000000000000000e+03,8.399999999999999689e-01,9.559630500000000000e+09
3.730000000000000000e+02,8.020000000000000000e+02,4.390000000000000000e+02,1.020000000000000000e+02,1.910000000000000000e+02,1.329000000000000000e+03,1.110000000000000000e+03,1.052000000000000000e+03,8.499999999999999778e-01,9.580923200000000000e+09
