2.000000000000000000e+00,2.000000000000000000e+01,-9.000000000000000000e+00,1.200000000000000000e+01,6.000000000000000000e+00,1.200000000000000000e+01,8.000000000000000000e+00,-1.000000000000000000e+00,2.999999999999999889e-02,1.762520000000000000e+07
0.000000000000000000e+00,-7.000000000000000000e+00,6.000000000000000000e+00,-3.000000000000000000e+00,0.000000000000000000e+00,1.500000000000000000e+01,-3.000000000000000000e+00,1.000000000000000000e+01,2.999999999999999889e-02,1.763610000000000000e+07
-9.000000000000000000e+00,-1.000000000000000000e+01,1.500000000000000000e+01,-1.100000000000000000e+01,-3.000000000000000000e+00,-7.000000000000000000e+00,4.000000000000000000e+00,9.000000000000000000e+00,4.000000000000000083e-02,4.356637000000000000e+08
-1.000000000000000000e+00,2.200000000000000000e+01,3.000000000000000000e+00,4.000000000000000000e+00,2.000000000000000000e+00,1.700000000000000000e+01,1.600000000000000000e+01,-3.200000000000000000e+01,4.000000000000000083e-02,4.356741000000000000e+08
0.000000000000000000e+00,-2.200000000000000000e+01,2.000000000000000000e+00,-4.000000000000000000e+00,-3.000000000000000000e+00,2.000000000000000000e+00,3.000000000000000000e+00,2.400000000000000000e+01,4.000000000000000083e-02,4.356826000000000000e+08
1.000000000000000000e+00,2.400000000000000000e+01,1.700000000000000000e+01,1.200000000000000000e+01,2.000000000000000000e+00,-2.600000000000000000e+01,4.000000000000000000e+00,-2.700000000000000000e+01,4.000000000000000083e-02,4.356905000000000000e+08
-6.000000000000000000e+00,-4.600000000000000000e+01,-4.300000000000000000e+01,-1.600000000000000000e+01,-4.000000000000000000e+00,1.000000000000000000e+01,-1.300000000000000000e+01,-2.000000000000000000e+00,4.000000000000000083e-02,4.356991000000000000e+08
1.000000000000000000e+00,2.000000000000000000e+00,3.500000000000000000e+01,2.000000000000000000e+00,1.000000000000000000e+00,6.000000000000000000e+00,7.000000000000000000e+00,-7.000000000000000000e+00,4.000000000000000083e-02,4.357069000000000000e+08
3.000000000000000000e+00,1.000000000000000000e+01,2.100000000000000000e+01,0.000000000000000000e+00,-1.000000000000000000e+00,7.000000000000000000e+00,-2.000000000000000000e+00,7.000000000000000000e+00,4.000000000000000083e-02,4.357143000000000000e+08
-3.000000000000000000e+00,1.700000000000000000e+01,2.000000000000000000e+01,1.000000000000000000e+00,1.000000000000000000e+00,1.600000000000000000e+01,0.000000000000000000e+00,3.000000000000000000e+00,4.000000000000000083e-02,4.357221000000000000e+08
1.000000000000000000e+00,-9.000000000000000000e+00,-2.700000000000000000e+01,5.000000000000000000e+00,0.000000000000000000e+00,-7.000000000000000000e+00,1.000000000000000000e+00,5.000000000000000000e+00,4.000000000000000083e-02,4.357346000000000000e+08
-4.000000000000000000e+00,4.000000000000000000e+00,-9.000000000000000000e+00,-4.000000000000000000e+00,-2.000000000000000000e+00,-4.000000000000000000e+00,-6.000000000000000000e+00,-8.000000000000000000e+00,4.000000000000000083e-02,4.357424000000000000e+08
1.000000000000000000e+00,0.000000000000000000e+00,-1.200000000000000000e+01,-2.000000000000000000e+00,-1.000000000000000000e+00,0.000000000000000000e+00,-2.000000000000000000e+00,-4.000000000000000000e+00,4.000000000000000083e-02,4.357593000000000000e+08
4.000000000000000000e+00,6.000000000000000000e+00,4.200000000000000000e+01,8.000000000000000000e+00,1.000000000000000000e+00,-5.000000000000000000e+00,-3.000000000000000000e+00,1.000000000000000000e+00,4.000000000000000083e-02,4.357663000000000000e+08
-5.000000000000000000e+00,5.000000000000000000e+00,-6.000000000000000000e+01,-1.100000000000000000e+01,-5.000000000000000000e+00,-5.000000000000000000e+00,-3.000000000000000000e+00,-3.000000000000000000e+00,4.000000000000000083e-02,4.357738000000000000e+08
-7.000000000000000000e+00,-5.400000000000000000e+01,1.800000000000000000e+01,-7.000000000000000000e+00,-3.000000000000000000e+00,0.000000000000000000e+00,-5.000000000000000000e+00,1.600000000000000000e+01,4.000000000000000083e-02,4.357810000000000000e+08
0.000000000000000000e+00,2.000000000000000000e+01,2.400000000000000000e+01,5.000000000000000000e+00,0.000000000000000000e+00,-1.300000000000000000e+01,-7.000000000000000000e+00,-1.200000000000000000e+01,4.000000000000000083e-02,4.357905000000000000e+08
-7.000000000000000000e+00,-1.000000000000000000e+00,-5.700000000000000000e+01,-1.200000000000000000e+01,-5.000000000000000000e+00,-1.100000000000000000e+01,2.000000000000000000e+00,-4.000000000000000000e+00,4.000000000000000083e-02,4.357981000000000000e+08
4.000000000000000000e+00,1.300000000000000000e+01,6.200000000000000000e+01,1.000000000000000000e+01,1.000000000000000000e+00,6.000000000000000000e+00,0.000000000000000000e+00,1.100000000000000000e+01,4.000000000000000083e-02,4.358053000000000000e+08
-4.000000000000000000e+00,5.000000000000000000e+00,-6.800000000000000000e+01,-9.000000000000000000e+00,-1.000000000000000000e+00,-2.000000000000000000e+00,-4.000000000000000000e+00,-5.100000000000000000e+01,4.000000000000000083e-02,4.358124000000000000e+08
2.000000000000000000e+00,1.700000000000000000e+01,2.500000000000000000e+01,3.000000000000000000e+00,2.000000000000000000e+00,-2.000000000000000000e+00,-3.000000000000000000e+00,-2.000000000000000000e+00,4.000000000000000083e-02,4.358196000000000000e+08
5.000000000000000000e+00,-3.700000000000000000e+01,-7.000000000000000000e+00,3.000000000000000000e+00,1.000000000000000000e+00,-2.000000000000000000e+00,1.000000000000000000e+00,-1.000000000000000000e+00,4.000000000000000083e-02,4.358267000000000000e+08
-6.000000000000000000e+00,-1.200000000000000000e+01,4.600000000000000000e+01,-6.000000000000000000e+00,-2.000000000000000000e+00,0.000000000000000000e+00,0.000000000000000000e+00,-3.000000000000000000e+00,4.000000000000000083e-02,4.358337000000000000e+08
1.000000000000000000e+00,2.800000000000000000e+01,-1.300000000000000000e+01,0.000000000000000000e+00,0.000000000000000000e+00,-3.000000000000000000e+00,-5.000000000000000000e+00,1.700000000000000000e+01,4.000000000000000083e-02,4.358408000000000000e+08
-8.000000000000000000e+00,-3.800000000000000000e+01,2.200000000000000000e+01,-1.000000000000000000e+00,-2.000000000000000000e+00,1.000000000000000000e+01,1.100000000000000000e+01,-2.200000000000000000e+01,4.000000000000000083e-02,4.358483000000000000e+08
1.000000000000000000e+00,1.900000000000000000e+01,5.000000000000000000e+01,0.000000000000000000e+00,1.000000000000000000e+00,-2.000000000000000000e+00,-9.000000000000000000e+00,-8.000000000000000000e+00,4.000000000000000083e-02,4.358561000000000000e+08
-1.000000000000000000e+00,-1.700000000000000000e+01,-4.300000000000000000e+01,-8.000000000000000000e+00,-3.000000000000000000e+00,-1.500000000000000000e+01,-8.000000000000000000e+00,9.000000000000000000e+00,4.000000000000000083e-02,4.358639000000000000e+08
-4.000000000000000000e+00,-9.000000000000000000e+00,7.000000000000000000e+00,-8.000000000000000000e+00,-5.000000000000000000e+00,-7.000000000000000000e+00,-2.000000000000000000e+00,1.000000000000000000e+01,4.000000000000000083e-02,4.358732000000000000e+08
-1.000000000000000000e+00,6.000000000000000000e+00,5.000000000000000000e+00,-1.000000000000000000e+00,-1.000000000000000000e+00,-1.000000000000000000e+00,0.000000000000000000e+00,-7.000000000000000000e+00,4.000000000000000083e-02,4.358805000000000000e+08
0.000000000000000000e+00,8.000000000000000000e+00,3.000000000000000000e+00,3.000000000000000000e+00,0.000000000000000000e+00,4.000000000000000000e+00,1.000000000000000000e+00,1.000000000000000000e+01,4.000000000000000083e-02,4.358881000000000000e+08
8.000000000000000000e+00,2.000000000000000000e+01,5.400000000000000000e+01,1.200000000000000000e+01,4.000000000000000000e+00,3.100000000000000000e+01,3.000000000000000000e+00,-1.800000000000000000e+01,4.000000000000000083e-02,4.358966000000000000e+08
-2.000000000000000000e+00,-2.000000000000000000e+00,-3.000000000000000000e+01,-1.000000000000000000e+00,-5.000000000000000000e+00,-4.300000000000000000e+01,-7.000000000000000000e+00,4.000000000000000000e+00,4.000000000000000083e-02,4.359047000000000000e+08
1.000000000000000000e+00,3.000000000000000000e+00,-3.600000000000000000e+01,-3.000000000000000000e+00,-1.000000000000000000e+00,-8.000000000000000000e+00,-3.000000000000000000e+00,-1.000000000000000000e+00,4.000000000000000083e-02,4.359121000000000000e+08
-1.000000000000000000e+00,-7.000000000000000000e+00,-6.000000000000000000e+00,-2.000000000000000000e+00,-1.000000000000000000e+00,-2.000000000000000000e+00,3.000000000000000000e+00,1.700000000000000000e+01,4.000000000000000083e-02,4.359199000000000000e+08
-1.000000000000000000e+00,1.300000000000000000e+01,4.000000000000000000e+01,1.200000000000000000e+01,2.000000000000000000e+00,6.000000000000000000e+00,-8.000000000000000000e+00,-2.200000000000000000e+01,4.000000000000000083e-02,4.359274000000000000e+08
-4.000000000000000000e+00,-2.000000000000000000e+01,-2.900000000000000000e+01,-8.000000000000000000e+00,-2.000000000000000000e+00,8.000000000000000000e+00,-8.000000000000000000e+00,1.400000000000000000e+01,4.000000000000000083e-02,4.359343000000000000e+08
-9.000000000000000000e+00,2.000000000000000000e+00,-4.800000000000000000e+01,-1.800000000000000000e+01,-5.000000000000000000e+00,5.000000000000000000e+00,2.000000000000000000e+00,6.000000000000000000e+00,4.000000000000000083e-02,4.359419000000000000e+08
2.000000000000000000e+00,1.000000000000000000e+00,-1.600000000000000000e+01,-5.000000000000000000e+00,-4.000000000000000000e+00,-1.500000000000000000e+01,-6.000000000000000000e+00,-5.000000000000000000e+00,4.000000000000000083e-02,4.359490000000000000e+08
-1.000000000000000000e+00,7.000000000000000000e+00,1.500000000000000000e+01,8.000000000000000000e+00,4.000000000000000000e+00,1.000000000000000000e+00,7.000000000000000000e+00,-2.000000000000000000e+00,4.000000000000000083e-02,4.359560000000000000e+08
5.000000000000000000e+00,2.000000000000000000e+00,-3.700000000000000000e+01,9.000000000000000000e+00,1.000000000000000000e+00,4.000000000000000000e+00,0.000000000000000000e+00,1.200000000000000000e+01,4.000000000000000083e-02,4.359629000000000000e+08
-2.000000000000000000e+00,-2.000000000000000000e+00,2.100000000000000000e+01,-6.000000000000000000e+00,-2.000000000000000000e+00,-9.000000000000000000e+00,-7.000000000000000000e+00,9.000000000000000000e+00,4.000000000000000083e-02,4.359713000000000000e+08
-1.000000000000000000e+00,-1.300000000000000000e+01,1.400000000000000000e+01,-1.000000000000000000e+00,-1.000000000000000000e+00,5.000000000000000000e+00,1.000000000000000000e+00,-6.000000000000000000e+00,4.000000000000000083e-02,4.359784000000000000e+08
1.000000000000000000e+00,3.000000000000000000e+00,-1.700000000000000000e+01,-3.000000000000000000e+00,-1.000000000000000000e+00,-6.000000000000000000e+00,-5.000000000000000000e+00,8.000000000000000000e+00,4.000000000000000083e-02,4.359854000000000000e+08
-5.000000000000000000e+00,-3.000000000000000000e+00,-1.000000000000000000e+00,-2.000000000000000000e+00,-1.000000000000000000e+00,3.000000000000000000e+00,-1.000000000000000000e+00,-5.000000000000000000e+00,4.000000000000000083e-02,4.359924000000000000e+08
7.000000000000000000e+00,2.200000000000000000e+01,3.100000000000000000e+01,1.200000000000000000e+01,3.000000000000000000e+00,2.000000000000000000e+00,-1.000000000000000000e+00,1.000000000000000000e+00,4.000000000000000083e-02,4.359993000000000000e+08
-9.000000000000000000e+00,-1.600000000000000000e+01,3.000000000000000000e+00,-1.200000000000000000e+01,-6.000000000000000000e+00,-1.000000000000000000e+00,-3.000000000000000000e+00,-8.000000000000000000e+00,4.000000000000000083e-02,4.360063000000000000e+08
-2.000000000000000000e+00,-9.000000000000000000e+00,-6.200000000000000000e+01,-6.000000000000000000e+00,-2.000000000000000000e+00,-1.300000000000000000e+01,2.000000000000000000e+00,2.700000000000000000e+01,4.000000000000000083e-02,4.360132000000000000e+08
-3.000000000000000000e+00,-3.000000000000000000e+00,3.800000000000000000e+01,-9.000000000000000000e+00,-3.000000000000000000e+00,7.000000000000000000e+00,-4.000000000000000000e+00,-4.800000000000000000e+01,4.000000000000000083e-02,4.360203000000000000e+08
1.000000000000000000e+00,-4.000000000000000000e+00,-2.000000000000000000e+00,2.000000000000000000e+00,-1.000000000000000000e+00,-7.000000000000000000e+00,1.100000000000000000e+01,-2.000000000000000000e+00,4.000000000000000083e-02,4.360298000000000000e+08
6.000000000000000000e+00,2.500000000000000000e+01,3.700000000000000000e+01,1.000000000000000000e+01,3.000000000000000000e+00,-2.000000000000000000e+00,-1.200000000000000000e+01,-4.000000000000000000e+00,4.000000000000000083e-02,4.360896000000000000e+08
-8.000000000000000000e+00,-2.600000000000000000e+01,-5.700000000000000000e+01,-1.000000000000000000e+01,-3.000000000000000000e+00,0.000000000000000000e+00,2.000000000000000000e+00,3.000000000000000000e+00,4.000000000000000083e-02,4.360969000000000000e+08
-1.000000000000000000e+00,8.000000000000000000e+00,2.000000000000000000e+00,1.000000000000000000e+00,-2.000000000000000000e+00,1.000000000000000000e+01,-9.000000000000000000e+00,2.300000000000000000e+01,4.000000000000000083e-02,4.361040000000000000e+08
0.000000000000000000e+00,-4.000000000000000000e+00,6.000000000000000000e+00,-2.000000000000000000e+00,-2.000000000000000000e+00,-1.100000000000000000e+01,1.000000000000000000e+00,-1.400000000000000000e+01,4.000000000000000083e-02,4.361113000000000000e+08
-3.000000000000000000e+00,-4.000000000000000000e+00,1.900000000000000000e+01,-2.000000000000000000e+00,-2.000000000000000000e+00,2.000000000000000000e+00,5.000000000000000000e+00,8.000000000000000000e+00,4.000000000000000083e-02,4.361193000000000000e+08
-1.000000000000000000e+00,1.200000000000000000e+01,-1.000000000000000000e+00,5.000000000000000000e+00,2.000000000000000000e+00,4.000000000000000000e+00,-1.100000000000000000e+01,-3.000000000000000000e+01,4.000000000000000083e-02,4.361266000000000000e+08
6.000000000000000000e+00,4.000000000000000000e+00,-2.400000000000000000e+01,4.000000000000000000e+00,0.000000000000000000e+00,-1.100000000000000000e+01,5.000000000000000000e+00,1.700000000000000000e+01,4.000000000000000083e-02,4.361335000000000000e+08
1.000000000000000000e+00,9.000000000000000000e+00,1.300000000000000000e+01,0.000000000000000000e+00,-3.000000000000000000e+00,-7.000000000000000000e+00,-8.000000000000000000e+00,-3.000000000000000000e+00,4.000000000000000083e-02,4.361404000000000000e+08
-1.100000000000000000e+01,-4.500000000000000000e+01,-2.900000000000000000e+01,-1.600000000000000000e+01,-7.000000000000000000e+00,0.000000000000000000e+00,0.000000000000000000e+00,-6.000000000000000000e+00,4.000000000000000083e-02,4.361475000000000000e+08
-1.000000000000000000e+00,5.000000000000000000e+00,-1.600000000000000000e+01,-5.000000000000000000e+00,-1.000000000000000000e+00,-5.000000000000000000e+00,-1.000000000000000000e+00,2.000000000000000000e+00,4.000000000000000083e-02,4.361543000000000000e+08
0.000000000000000000e+00,2.000000000000000000e+00,4.900000000000000000e+01,3.000000000000000000e+00,2.000000000000000000e+00,9.000000000000000000e+00,6.000000000000000000e+00,-1.000000000000000000e+00,4.000000000000000083e-02,4.361611000000000000e+08
1.000000000000000000e+00,1.000000000000000000e+00,8.000000000000000000e+00,-1.000000000000000000e+00,-2.000000000000000000e+00,-3.000000000000000000e+00,-1.300000000000000000e+01,-1.000000000000000000e+00,4.000000000000000083e-02,4.361684000000000000e+08
2.000000000000000000e+00,1.300000000000000000e+01,-2.300000000000000000e+01,9.000000000000000000e+00,2.000000000000000000e+00,1.100000000000000000e+01,6.000000000000000000e+00,-5.000000000000000000e+00,4.000000000000000083e-02,4.361753000000000000e+08
-5.000000000000000000e+00,-8.000000000000000000e+00,-1.500000000000000000e+01,-4.000000000000000000e+00,-4.000000000000000000e+00,-8.000000000000000000e+00,0.000000000000000000e+00,0.000000000000000000e+00,4.000000000000000083e-02,4.361828000000000000e+08
2.000000000000000000e+00,-3.000000000000000000e+00,3.000000000000000000e+00,0.000000000000000000e+00,2.000000000000000000e+00,-1.000000000000000000e+00,1.000000000000000000e+00,0.000000000000000000e+00,4.000000000000000083e-02,4.361897000000000000e+08
-3.000000000000000000e+00,1.500000000000000000e+01,5.000000000000000000e+00,-6.000000000000000000e+00,-2.000000000000000000e+00,1.000000000000000000e+00,-2.000000000000000000e+00,3.000000000000000000e+00,4.000000000000000083e-02,4.361966000000000000e+08
1.000000000000000000e+00,2.000000000000000000e+00,4.000000000000000000e+00,-1.000000000000000000e+00,-1.000000000000000000e+00,-3.000000000000000000e+00,-3.000000000000000000e+00,0.000000000000000000e+00,4.000000000000000083e-02,4.362044000000000000e+08
1.000000000000000000e+00,1.000000000000000000e+00,-2.300000000000000000e+01,0.000000000000000000e+00,0.000000000000000000e+00,2.000000000000000000e+00,1.000000000000000000e+00,-1.000000000000000000e+00,4.000000000000000083e-02,4.362112000000000000e+08
0.000000000000000000e+00,-1.000000000000000000e+00,-2.100000000000000000e+01,-4.000000000000000000e+00,-1.000000000000000000e+00,-4.000000000000000000e+00,4.000000000000000000e+00,3.000000000000000000e+00,4.000000000000000083e-02,4.362193000000000000e+08
2.000000000000000000e+00,5.000000000000000000e+00,-2.300000000000000000e+01,-2.000000000000000000e+00,-2.000000000000000000e+00,5.000000000000000000e+00,-4.000000000000000000e+00,-3.000000000000000000e+00,4.000000000000000083e-02,4.362262000000000000e+08
-1.500000000000000000e+01,-4.500000000000000000e+01,-1.000000000000000000e+01,-1.700000000000000000e+01,-7.000000000000000000e+00,-8.000000000000000000e+00,-3.000000000000000000e+00,-9.000000000000000000e+00,4.000000000000000083e-02,4.362334000000000000e+08
2.000000000000000000e+00,-8.000000000000000000e+00,2.500000000000000000e+01,8.000000000000000000e+00,1.000000000000000000e+00,-2.000000000000000000e+00,0.000000000000000000e+00,0.000000000000000000e+00,4.000000000000000083e-02,4.362408000000000000e+08
4.000000000000000000e+00,5.000000000000000000e+00,9.100000000000000000e+01,1.100000000000000000e+01,3.000000000000000000e+00,6.000000000000000000e+00,3.000000000000000000e+00,5.000000000000000000e+00,4.000000000000000083e-02,4.362477000000000000e+08
-1.100000000000000000e+01,-2.700000000000000000e+01,-4.000000000000000000e+01,-1.400000000000000000e+01,-4.000000000000000000e+00,5.000000000000000000e+00,7.000000000000000000e+00,-6.000000000000000000e+00,4.000000000000000083e-02,4.362550000000000000e+08
5.000000000000000000e+00,3.200000000000000000e+01,-2.200000000000000000e+01,9.000000000000000000e+00,3.000000000000000000e+00,-2.200000000000000000e+01,-2.300000000000000000e+01,-1.200000000000000000e+01,4.000000000000000083e-02,4.362652000000000000e+08
-1.000000000000000000e+00,0.000000000000000000e+00,-5.000000000000000000e+00,-8.000000000000000000e+00,-2.000000000000000000e+00,1.000000000000000000e+00,2.000000000000000000e+01,2.400000000000000000e+01,4.000000000000000083e-02,4.362720000000000000e+08
-1.000000000000000000e+00,-9.000000000000000000e+00,6.000000000000000000e+00,0.000000000000000000e+00,-1.000000000000000000e+00,1.400000000000000000e+01,-1.200000000000000000e+01,-5.400000000000000000e+01,4.000000000000000083e-02,4.362788000000000000e+08
-4.000000000000000000e+00,-2.000000000000000000e+00,1.000000000000000000e+00,3.000000000000000000e+00,0.000000000000000000e+00,-2.500000000000000000e+01,5.000000000000000000e+00,2.200000000000000000e+01,4.000000000000000083e-02,4.362859000000000000e+08
4.000000000000000000e+00,1.400000000000000000e+01,2.200000000000000000e+01,4.000000000000000000e+00,0.000000000000000000e+00,3.000000000000000000e+00,9.000000000000000000e+00,1.300000000000000000e+01,4.000000000000000083e-02,4.362937000000000000e+08
4.000000000000000000e+00,1.400000000000000000e+01,1.700000000000000000e+01,1.000000000000000000e+00,0.000000000000000000e+00,4.000000000000000000e+00,-1.100000000000000000e+01,-1.800000000000000000e+01,4.000000000000000083e-02,4.363007000000000000e+08
-2.000000000000000000e+00,-1.400000000000000000e+01,-1.100000000000000000e+01,-2.000000000000000000e+00,-1.000000000000000000e+00,5.000000000000000000e+00,0.000000000000000000e+00,3.000000000000000000e+00,4.000000000000000083e-02,4.363093000000000000e+08
0.000000000000000000e+00,-8.000000000000000000e+00,8.000000000000000000e+00,3.000000000000000000e+00,1.000000000000000000e+00,9.000000000000000000e+00,0.000000000000000000e+00,1.000000000000000000e+00,4.000000000000000083e-02,4.363163000000000000e+08
-1.000000000000000000e+00,9.000000000000000000e+00,-5.800000000000000000e+01,5.000000000000000000e+00,2.000000000000000000e+00,0.000000000000000000e+00,-1.000000000000000000e+00,-7.000000000000000000e+00,4.000000000000000083e-02,4.363233000000000000e+08
-9.000000000000000000e+00,-5.100000000000000000e+01,-3.400000000000000000e+01,-1.500000000000000000e+01,-6.000000000000000000e+00,-4.000000000000000000e+00,-7.000000000000000000e+00,2.000000000000000000e+00,4.000000000000000083e-02,4.363303000000000000e+08
-4.000000000000000000e+00,1.500000000000000000e+01,-3.700000000000000000e+01,-9.000000000000000000e+00,-4.000000000000000000e+00,-2.000000000000000000e+00,6.000000000000000000e+00,1.000000000000000000e+01,4.000000000000000083e-02,4.363371000000000000e+08
-4.000000000000000000e+00,0.000000000000000000e+00,5.400000000000000000e+01,-3.000000000000000000e+00,-1.000000000000000000e+00,-1.000000000000000000e+00,-9.000000000000000000e+00,-1.600000000000000000e+01,4.000000000000000083e-02,4.363441000000000000e+08
5.000000000000000000e+00,1.700000000000000000e+01,1.200000000000000000e+01,1.200000000000000000e+01,4.000000000000000000e+00,0.000000000000000000e+00,7.000000000000000000e+00,1.400000000000000000e+01,4.000000000000000083e-02,4.363516000000000000e+08
9.000000000000000000e+00,1.900000000000000000e+01,4.600000000000000000e+01,1.400000000000000000e+01,4.000000000000000000e+00,5.000000000000000000e+00,3.000000000000000000e+00,-3.000000000000000000e+00,2.000000000000000111e-01,4.577741000000000000e+08
-1.000000000000000000e+01,-1.300000000000000000e+01,-6.300000000000000000e+01,-1.800000000000000000e+01,-7.000000000000000000e+00,-1.400000000000000000e+01,-5.000000000000000000e+00,9.000000000000000000e+00,2.000000000000000111e-01,4.577849000000000000e+08
-1.000000000000000000e+00,-2.300000000000000000e+01,9.000000000000000000e+00,-1.000000000000000000e+00,-2.000000000000000000e+00,0.000000000000000000e+00,-4.000000000000000000e+00,-2.000000000000000000e+00,2.000000000000000111e-01,4.577928000000000000e+08
-1.000000000000000000e+00,2.100000000000000000e+01,-4.500000000000000000e+01,-4.000000000000000000e+00,-3.000000000000000000e+00,3.000000000000000000e+00,1.000000000000000000e+00,-5.000000000000000000e+00,2.000000000000000111e-01,4.578004000000000000e+08
3.000000000000000000e+00,1.100000000000000000e+01,2.600000000000000000e+01,6.000000000000000000e+00,3.000000000000000000e+00,-1.000000000000000000e+00,-1.000000000000000000e+00,2.000000000000000000e+00,2.000000000000000111e-01,4.578076000000000000e+08
-1.000000000000000000e+00,2.000000000000000000e+00,-3.300000000000000000e+01,-4.000000000000000000e+00,-1.000000000000000000e+00,-3.000000000000000000e+00,0.000000000000000000e+00,4.000000000000000000e+00,2.000000000000000111e-01,4.578147000000000000e+08
2.000000000000000000e+00,6.000000000000000000e+00,4.000000000000000000e+00,3.000000000000000000e+00,1.000000000000000000e+00,3.000000000000000000e+00,-1.000000000000000000e+00,-2.000000000000000000e+00,2.099999999999999922e-01,4.688955000000000000e+08
-1.000000000000000000e+00,-6.000000000000000000e+00,1.000000000000000000e+01,-3.000000000000000000e+00,-3.000000000000000000e+00,3.000000000000000000e+00,2.000000000000000000e+00,-4.000000000000000000e+00,2.099999999999999922e-01,4.689077000000000000e+08
1.000000000000000000e+00,2.000000000000000000e+01,1.900000000000000000e+01,8.000000000000000000e+00,1.000000000000000000e+00,-3.000000000000000000e+00,-3.000000000000000000e+00,-3.000000000000000000e+00,2.200000000000000011e-01,4.853013000000000000e+08
0.000000000000000000e+00,-1.200000000000000000e+01,4.000000000000000000e+01,3.000000000000000000e+00,1.000000000000000000e+00,-4.000000000000000000e+00,0.000000000000000000e+00,1.000000000000000000e+01,2.200000000000000011e-01,4.853116000000000000e+08
1.000000000000000000e+00,-1.000000000000000000e+01,-5.700000000000000000e+01,-5.000000000000000000e+00,-3.000000000000000000e+00,3.000000000000000000e+00,0.000000000000000000e+00,-6.000000000000000000e+00,2.300000000000000100e-01,5.082782000000000000e+08
1.000000000000000000e+00,1.100000000000000000e+01,2.400000000000000000e+01,5.000000000000000000e+00,-1.000000000000000000e+00,1.000000000000000000e+00,1.000000000000000000e+00,-3.000000000000000000e+00,2.300000000000000100e-01,5.082888000000000000e+08
0.000000000000000000e+00,1.000000000000000000e+01,1.100000000000000000e+01,-3.000000000000000000e+00,-2.000000000000000000e+00,-1.100000000000000000e+01,-4.000000000000000000e+00,2.000000000000000000e+00,2.300000000000000100e-01,5.082965000000000000e+08
-6.000000000000000000e+00,-7.000000000000000000e+00,-5.800000000000000000e+01,-1.300000000000000000e+01,-4.000000000000000000e+00,-1.000000000000000000e+00,-2.000000000000000000e+00,0.000000000000000000e+00,2.300000000000000100e-01,5.083047000000000000e+08
1.000000000000000000e+00,2.600000000000000000e+01,3.400000000000000000e+01,1.200000000000000000e+01,2.000000000000000000e+00,1.000000000000000000e+00,-3.000000000000000000e+00,1.000000000000000000e+00,2.300000000000000100e-01,5.083122000000000000e+08
-3.000000000000000000e+00,-1.300000000000000000e+01,3.100000000000000000e+01,-1.800000000000000000e+01,-4.000000000000000000e+00,-2.000000000000000000e+00,-2.000000000000000000e+00,2.200000000000000000e+01,2.300000000000000100e-01,5.083215000000000000e+08
1.000000000000000000e+00,1.600000000000000000e+01,-5.000000000000000000e+00,1.200000000000000000e+01,3.000000000000000000e+00,7.000000000000000000e+00,1.100000000000000000e+01,-2.500000000000000000e+01,2.399999999999999911e-01,5.229896000000000000e+08
-2.000000000000000000e+00,2.000000000000000000e+00,8.000000000000000000e+00,-8.000000000000000000e+00,-4.000000000000000000e+00,-8.000000000000000000e+00,-1.500000000000000000e+01,2.000000000000000000e+00,2.399999999999999911e-01,5.229996000000000000e+08
4.000000000000000000e+00,2.000000000000000000e+01,3.700000000000000000e+01,1.000000000000000000e+01,2.000000000000000000e+00,1.200000000000000000e+01,-8.000000000000000000e+00,-2.000000000000000000e+00,2.500000000000000000e-01,5.450039000000000000e+08
1.000000000000000000e+00,-1.200000000000000000e+01,-2.300000000000000000e+01,-2.000000000000000000e+00,0.000000000000000000e+00,-8.000000000000000000e+00,1.000000000000000000e+00,6.000000000000000000e+00,2.500000000000000000e-01,5.450147000000000000e+08
-6.000000000000000000e+00,-1.400000000000000000e+01,-2.600000000000000000e+01,-2.000000000000000000e+00,-2.000000000000000000e+00,-1.100000000000000000e+01,-5.000000000000000000e+00,1.300000000000000000e+01,2.500000000000000000e-01,5.450283000000000000e+08
-2.000000000000000000e+00,-2.800000000000000000e+01,3.400000000000000000e+01,-1.100000000000000000e+01,-3.000000000000000000e+00,1.000000000000000000e+00,0.000000000000000000e+00,3.000000000000000000e+00,2.500000000000000000e-01,5.450363000000000000e+08
-6.000000000000000000e+00,-9.000000000000000000e+00,-2.600000000000000000e+01,-3.000000000000000000e+00,-5.000000000000000000e+00,-7.000000000000000000e+00,-3.000000000000000000e+00,-7.000000000000000000e+00,2.600000000000000089e-01,5.675213000000000000e+08
4.000000000000000000e+00,1.000000000000000000e+01,4.000000000000000000e+00,5.000000000000000000e+00,0.000000000000000000e+00,-5.000000000000000000e+00,3.000000000000000000e+00,-6.000000000000000000e+00,2.600000000000000089e-01,5.675408000000000000e+08
9.000000000000000000e+00,2.500000000000000000e+01,-5.000000000000000000e+00,1.100000000000000000e+01,3.000000000000000000e+00,4.000000000000000000e+00,0.000000000000000000e+00,8.000000000000000000e+00,2.600000000000000089e-01,5.675575000000000000e+08
6.000000000000000000e+00,-3.000000000000000000e+00,9.600000000000000000e+01,1.900000000000000000e+01,2.000000000000000000e+00,0.000000000000000000e+00,2.000000000000000000e+00,-2.000000000000000000e+00,2.600000000000000089e-01,5.675653000000000000e+08
-2.700000000000000000e+01,-6.400000000000000000e+01,-1.280000000000000000e+02,-5.100000000000000000e+01,-1.400000000000000000e+01,-4.000000000000000000e+00,-1.000000000000000000e+01,-9.000000000000000000e+00,2.600000000000000089e-01,5.675761000000000000e+08
-7.000000000000000000e+00,0.000000000000000000e+00,3.700000000000000000e+01,-1.300000000000000000e+01,-5.000000000000000000e+00,-2.000000000000000000e+00,-2.000000000000000000e+00,-1.100000000000000000e+01,2.600000000000000089e-01,5.675843000000000000e+08
-1.000000000000000000e+00,-2.000000000000000000e+01,1.140000000000000000e+02,-4.000000000000000000e+00,-2.000000000000000000e+00,-5.000000000000000000e+00,-3.000000000000000000e+00,-1.000000000000000000e+00,2.700000000000000178e-01,5.821520000000000000e+08
8.000000000000000000e+00,3.800000000000000000e+01,-9.000000000000000000e+01,1.800000000000000000e+01,9.000000000000000000e+00,5.000000000000000000e+00,6.000000000000000000e+00,8.000000000000000000e+00,2.700000000000000178e-01,5.821624000000000000e+08
5.000000000000000000e+00,7.000000000000000000e+00,-5.500000000000000000e+01,1.600000000000000000e+01,4.000000000000000000e+00,4.000000000000000000e+00,5.000000000000000000e+00,-3.000000000000000000e+00,2.800000000000000266e-01,6.056764000000000000e+08
-8.000000000000000000e+00,-2.200000000000000000e+01,1.900000000000000000e+01,-4.000000000000000000e+00,-4.000000000000000000e+00,-4.000000000000000000e+00,-1.000000000000000000e+00,-7.000000000000000000e+00,2.800000000000000266e-01,6.056881000000000000e+08
-3.000000000000000000e+00,-3.000000000000000000e+00,-6.300000000000000000e+01,-2.300000000000000000e+01,-8.000000000000000000e+00,-7.000000000000000000e+00,-5.000000000000000000e+00,-2.000000000000000000e+00,2.800000000000000266e-01,6.056962000000000000e+08
-5.000000000000000000e+00,2.000000000000000000e+00,-2.900000000000000000e+01,-3.000000000000000000e+00,-4.000000000000000000e+00,-1.000000000000000000e+00,0.000000000000000000e+00,-4.000000000000000000e+00,2.800000000000000266e-01,6.057037000000000000e+08
9.000000000000000000e+00,4.000000000000000000e+00,1.040000000000000000e+02,6.000000000000000000e+00,3.000000000000000000e+00,-3.000000000000000000e+00,1.000000000000000000e+00,3.000000000000000000e+00,2.899999999999999800e-01,6.264997000000000000e+08
-2.000000000000000000e+00,-9.000000000000000000e+00,-2.000000000000000000e+00,7.000000000000000000e+00,3.000000000000000000e+00,5.000000000000000000e+00,1.000000000000000000e+00,1.500000000000000000e+01,2.899999999999999800e-01,6.265166000000000000e+08
0.000000000000000000e+00,2.600000000000000000e+01,-1.000000000000000000e+00,-2.000000000000000000e+00,1.000000000000000000e+00,7.000000000000000000e+00,-8.000000000000000000e+00,-2.300000000000000000e+01,2.899999999999999800e-01,6.265293000000000000e+08
-4.000000000000000000e+00,-3.000000000000000000e+01,-7.500000000000000000e+01,-7.000000000000000000e+00,-3.000000000000000000e+00,-4.000000000000000000e+00,2.000000000000000000e+00,-1.000000000000000000e+00,2.899999999999999800e-01,6.265405000000000000e+08
0.000000000000000000e+00,-2.000000000000000000e+00,-2.400000000000000000e+01,-6.000000000000000000e+00,-3.000000000000000000e+00,6.000000000000000000e+00,9.000000000000000000e+00,-3.000000000000000000e+00,2.899999999999999800e-01,6.265523000000000000e+08
9.000000000000000000e+00,2.300000000000000000e+01,2.900000000000000000e+01,1.600000000000000000e+01,5.000000000000000000e+00,1.600000000000000000e+01,-1.600000000000000000e+01,6.000000000000000000e+00,2.899999999999999800e-01,6.265640000000000000e+08
-8.000000000000000000e+00,-3.300000000000000000e+01,-1.100000000000000000e+01,-5.000000000000000000e+00,-6.000000000000000000e+00,-3.500000000000000000e+01,1.500000000000000000e+01,8.000000000000000000e+00,2.999999999999999889e-01,6.425131000000000000e+08
-7.000000000000000000e+00,3.900000000000000000e+01,3.700000000000000000e+01,-1.200000000000000000e+01,-1.000000000000000000e+00,1.600000000000000000e+01,4.000000000000000000e+00,-1.500000000000000000e+01,2.999999999999999889e-01,6.425245000000000000e+08
2.000000000000000000e+00,-4.200000000000000000e+01,6.900000000000000000e+01,5.000000000000000000e+00,-4.000000000000000000e+00,-1.800000000000000000e+01,6.000000000000000000e+00,2.500000000000000000e+01,3.099999999999999978e-01,6.641573000000000000e+08
-5.000000000000000000e+00,-7.000000000000000000e+00,3.000000000000000000e+00,4.000000000000000000e+00,3.000000000000000000e+00,1.000000000000000000e+01,-3.000000000000000000e+00,-6.900000000000000000e+01,3.099999999999999978e-01,6.641703000000000000e+08
3.000000000000000000e+00,1.300000000000000000e+01,-6.400000000000000000e+01,-9.000000000000000000e+00,-2.000000000000000000e+00,8.000000000000000000e+00,3.000000000000000000e+00,2.000000000000000000e+00,3.099999999999999978e-01,6.641799000000000000e+08
1.000000000000000000e+01,2.100000000000000000e+01,-1.000000000000000000e+00,1.600000000000000000e+01,5.000000000000000000e+00,-1.100000000000000000e+01,-2.000000000000000000e+00,1.500000000000000000e+01,3.099999999999999978e-01,6.642309000000000000e+08
-8.000000000000000000e+00,-6.000000000000000000e+00,8.500000000000000000e+01,-2.000000000000000000e+00,-2.000000000000000000e+00,1.500000000000000000e+01,0.000000000000000000e+00,-2.000000000000000000e+00,3.200000000000000067e-01,6.826908000000000000e+08
-7.000000000000000000e+00,9.000000000000000000e+00,3.900000000000000000e+01,-2.100000000000000000e+01,-1.200000000000000000e+01,-1.100000000000000000e+01,-3.000000000000000000e+00,-4.000000000000000000e+00,3.200000000000000067e-01,6.827030000000000000e+08
-6.000000000000000000e+00,-4.500000000000000000e+01,1.900000000000000000e+01,1.000000000000000000e+00,1.000000000000000000e+00,9.000000000000000000e+00,-7.000000000000000000e+00,1.100000000000000000e+01,3.200000000000000067e-01,6.827434000000000000e+08
3.000000000000000000e+00,6.000000000000000000e+00,0.000000000000000000e+00,4.000000000000000000e+00,2.000000000000000000e+00,7.000000000000000000e+00,3.000000000000000000e+00,1.000000000000000000e+00,3.200000000000000067e-01,6.827691000000000000e+08
8.000000000000000000e+00,3.500000000000000000e+01,3.800000000000000000e+01,5.000000000000000000e+00,3.000000000000000000e+00,-3.000000000000000000e+00,-4.000000000000000000e+00,-3.000000000000000000e+00,3.300000000000000155e-01,7.044854000000000000e+08
-1.000000000000000000e+01,-2.900000000000000000e+01,1.500000000000000000e+01,-1.700000000000000000e+01,-8.000000000000000000e+00,-9.000000000000000000e+00,-3.000000000000000000e+00,5.000000000000000000e+00,3.300000000000000155e-01,7.044975000000000000e+08
-3.000000000000000000e+00,4.000000000000000000e+00,-3.000000000000000000e+00,1.000000000000000000e+00,-3.000000000000000000e+00,2.000000000000000000e+00,0.000000000000000000e+00,-2.300000000000000000e+01,3.300000000000000155e-01,7.045059000000000000e+08
-7.000000000000000000e+00,-1.900000000000000000e+01,-3.400000000000000000e+01,1.000000000000000000e+00,-2.000000000000000000e+00,1.500000000000000000e+01,-6.000000000000000000e+00,1.200000000000000000e+01,3.300000000000000155e-01,7.045133000000000000e+08
3.000000000000000000e+00,-1.000000000000000000e+01,-2.900000000000000000e+01,8.000000000000000000e+00,4.000000000000000000e+00,-8.000000000000000000e+00,-1.000000000000000000e+00,1.400000000000000000e+01,3.300000000000000155e-01,7.045207000000000000e+08
2.000000000000000000e+00,2.100000000000000000e+01,-2.700000000000000000e+01,5.000000000000000000e+00,5.000000000000000000e+00,1.500000000000000000e+01,2.800000000000000000e+01,-4.200000000000000000e+01,3.300000000000000155e-01,7.045577000000000000e+08
1.000000000000000000e+01,2.000000000000000000e+01,7.600000000000000000e+01,5.000000000000000000e+00,0.000000000000000000e+00,3.000000000000000000e+00,1.500000000000000000e+01,8.600000000000000000e+01,3.400000000000000244e-01,7.234650000000000000e+08
7.000000000000000000e+00,0.000000000000000000e+00,1.900000000000000000e+01,9.000000000000000000e+00,-4.000000000000000000e+00,-2.100000000000000000e+01,-3.500000000000000000e+01,-3.900000000000000000e+01,3.400000000000000244e-01,7.235059000000000000e+08
-1.000000000000000000e+01,-5.000000000000000000e+00,-1.000000000000000000e+02,-1.700000000000000000e+01,-6.000000000000000000e+00,-3.800000000000000000e+01,7.400000000000000000e+01,2.800000000000000000e+01,3.499999999999999778e-01,7.438397000000000000e+08
8.000000000000000000e+00,2.000000000000000000e+01,-9.000000000000000000e+00,2.000000000000000000e+00,1.000000000000000000e+00,-9.000000000000000000e+00,2.800000000000000000e+01,9.600000000000000000e+01,3.499999999999999778e-01,7.438528000000000000e+08
-1.400000000000000000e+01,-1.200000000000000000e+01,-1.200000000000000000e+01,0.000000000000000000e+00,1.000000000000000000e+00,1.000000000000000000e+01,4.200000000000000000e+01,-8.200000000000000000e+01,3.499999999999999778e-01,7.438614000000000000e+08
3.000000000000000000e+00,1.000000000000000000e+00,3.500000000000000000e+01,-5.000000000000000000e+00,-4.000000000000000000e+00,4.200000000000000000e+01,1.600000000000000000e+01,0.000000000000000000e+00,3.499999999999999778e-01,7.438702000000000000e+08
-9.000000000000000000e+00,-1.800000000000000000e+01,2.100000000000000000e+01,2.000000000000000000e+00,-1.000000000000000000e+00,-8.000000000000000000e+00,8.000000000000000000e+00,6.500000000000000000e+01,3.599999999999999867e-01,7.628038000000000000e+08
4.000000000000000000e+00,-7.000000000000000000e+00,-3.500000000000000000e+01,-7.000000000000000000e+00,-3.000000000000000000e+00,-1.300000000000000000e+01,1.000000000000000000e+00,1.600000000000000000e+01,3.599999999999999867e-01,7.628158000000000000e+08
1.000000000000000000e+00,-8.000000000000000000e+00,1.000000000000000000e+00,-2.000000000000000000e+00,-3.000000000000000000e+00,-1.700000000000000000e+01,4.300000000000000000e+01,3.900000000000000000e+01,3.599999999999999867e-01,7.628580000000000000e+08
-4.000000000000000000e+00,5.000000000000000000e+00,2.800000000000000000e+01,0.000000000000000000e+00,1.000000000000000000e+00,-1.300000000000000000e+01,1.900000000000000000e+01,-1.100000000000000000e+01,3.599999999999999867e-01,7.628696000000000000e+08
5.000000000000000000e+00,2.400000000000000000e+01,-7.000000000000000000e+00,5.000000000000000000e+00,2.000000000000000000e+00,3.200000000000000000e+01,-2.800000000000000000e+01,-5.700000000000000000e+01,3.699999999999999956e-01,7.846783000000000000e+08
1.400000000000000000e+01,4.500000000000000000e+01,5.000000000000000000e+00,3.700000000000000000e+01,1.300000000000000000e+01,5.000000000000000000e+00,3.000000000000000000e+01,-5.000000000000000000e+00,3.699999999999999956e-01,7.846894000000000000e+08
-1.700000000000000000e+01,-6.900000000000000000e+01,-1.000000000000000000e+01,-2.500000000000000000e+01,-1.200000000000000000e+01,-2.000000000000000000e+00,-7.100000000000000000e+01,4.000000000000000000e+00,3.699999999999999956e-01,7.846988000000000000e+08
-2.000000000000000000e+01,5.000000000000000000e+00,2.100000000000000000e+01,-2.700000000000000000e+01,-8.000000000000000000e+00,-2.400000000000000000e+01,1.000000000000000000e+00,3.100000000000000000e+01,3.699999999999999956e-01,7.847075000000000000e+08
-2.000000000000000000e+00,-1.000000000000000000e+00,-7.000000000000000000e+00,2.000000000000000000e+00,-2.000000000000000000e+00,1.500000000000000000e+01,-1.400000000000000000e+01,-4.700000000000000000e+01,3.800000000000000044e-01,8.032869000000000000e+08
-7.000000000000000000e+00,-2.100000000000000000e+01,2.500000000000000000e+01,-1.000000000000000000e+01,-6.000000000000000000e+00,1.000000000000000000e+00,3.900000000000000000e+01,-1.000000000000000000e+01,3.800000000000000044e-01,8.032978000000000000e+08
1.700000000000000000e+01,3.900000000000000000e+01,5.800000000000000000e+01,2.700000000000000000e+01,1.400000000000000000e+01,1.500000000000000000e+01,6.600000000000000000e+01,1.000000000000000000e+00,3.800000000000000044e-01,8.033063000000000000e+08
5.000000000000000000e+00,0.000000000000000000e+00,7.000000000000000000e+00,1.800000000000000000e+01,7.000000000000000000e+00,6.400000000000000000e+01,-5.400000000000000000e+01,2.000000000000000000e+00,3.800000000000000044e-01,8.033138000000000000e+08
-2.000000000000000000e+00,-3.000000000000000000e+00,-5.400000000000000000e+01,-2.400000000000000000e+01,-1.300000000000000000e+01,-7.000000000000000000e+01,3.500000000000000000e+01,4.400000000000000000e+01,3.900000000000000133e-01,8.252325000000000000e+08
-7.000000000000000000e+00,1.000000000000000000e+01,-1.300000000000000000e+01,-1.000000000000000000e+00,-4.000000000000000000e+00,-1.000000000000000000e+01,1.800000000000000000e+01,-5.900000000000000000e+01,3.900000000000000133e-01,8.252432000000000000e+08
-1.000000000000000000e+01,-1.600000000000000000e+01,-1.700000000000000000e+01,-4.000000000000000000e+00,-5.000000000000000000e+00,-3.400000000000000000e+01,-1.100000000000000000e+01,-8.000000000000000000e+00,3.900000000000000133e-01,8.252515000000000000e+08
-1.000000000000000000e+00,-1.200000000000000000e+01,2.800000000000000000e+01,2.000000000000000000e+00,0.000000000000000000e+00,-1.900000000000000000e+01,6.100000000000000000e+01,7.100000000000000000e+01,3.900000000000000133e-01,8.252622000000000000e+08
2.300000000000000000e+01,1.000000000000000000e+00,1.700000000000000000e+01,1.200000000000000000e+01,9.000000000000000000e+00,6.200000000000000000e+01,3.000000000000000000e+01,1.020000000000000000e+02,3.900000000000000133e-01,8.252700000000000000e+08
-3.000000000000000000e+01,-1.300000000000000000e+01,-3.800000000000000000e+01,-1.200000000000000000e+01,-1.200000000000000000e+01,-2.000000000000000000e+01,-5.000000000000000000e+00,-5.500000000000000000e+01,3.900000000000000133e-01,8.252780000000000000e+08
1.300000000000000000e+01,-1.000000000000000000e+00,-1.000000000000000000e+01,-3.000000000000000000e+00,3.000000000000000000e+00,8.100000000000000000e+01,-4.700000000000000000e+01,5.000000000000000000e+01,4.000000000000000222e-01,8.441235000000000000e+08
-1.900000000000000000e+01,-1.200000000000000000e+01,2.000000000000000000e+00,0.000000000000000000e+00,-8.000000000000000000e+00,-1.060000000000000000e+02,1.300000000000000000e+01,-6.100000000000000000e+01,4.000000000000000222e-01,8.441338000000000000e+08
1.000000000000000000e+00,2.200000000000000000e+01,0.000000000000000000e+00,0.000000000000000000e+00,-2.000000000000000000e+00,1.200000000000000000e+01,4.100000000000000000e+01,-5.400000000000000000e+01,4.099999999999999756e-01,8.629226000000000000e+08
5.000000000000000000e+00,-2.600000000000000000e+01,-1.600000000000000000e+01,-3.000000000000000000e+00,3.000000000000000000e+00,-3.000000000000000000e+00,3.000000000000000000e+00,2.500000000000000000e+01,4.099999999999999756e-01,8.629332000000000000e+08
-2.000000000000000000e+00,2.900000000000000000e+01,-2.200000000000000000e+01,0.000000000000000000e+00,2.000000000000000000e+00,2.100000000000000000e+01,-2.500000000000000000e+01,-4.100000000000000000e+01,4.099999999999999756e-01,8.629417000000000000e+08
2.300000000000000000e+01,4.400000000000000000e+01,5.800000000000000000e+01,2.800000000000000000e+01,1.400000000000000000e+01,4.300000000000000000e+01,-1.200000000000000000e+02,8.000000000000000000e+01,4.099999999999999756e-01,8.629497000000000000e+08
-2.700000000000000000e+01,-7.500000000000000000e+01,-1.000000000000000000e+01,-4.400000000000000000e+01,-2.500000000000000000e+01,-6.100000000000000000e+01,-6.600000000000000000e+01,-1.700000000000000000e+01,4.199999999999999845e-01,8.845371000000000000e+08
0.000000000000000000e+00,-6.000000000000000000e+00,3.400000000000000000e+01,-6.000000000000000000e+00,-1.000000000000000000e+00,1.100000000000000000e+01,-1.500000000000000000e+01,2.700000000000000000e+01,4.199999999999999845e-01,8.845517000000000000e+08
3.000000000000000000e+00,3.600000000000000000e+01,9.100000000000000000e+01,1.000000000000000000e+01,-2.000000000000000000e+00,-2.600000000000000000e+01,-1.300000000000000000e+01,-2.100000000000000000e+01,4.199999999999999845e-01,8.845600000000000000e+08
1.700000000000000000e+01,-6.000000000000000000e+00,-1.100000000000000000e+02,-2.000000000000000000e+00,3.000000000000000000e+00,-1.000000000000000000e+00,2.900000000000000000e+01,-5.000000000000000000e+00,4.199999999999999845e-01,8.845675000000000000e+08
7.000000000000000000e+00,3.500000000000000000e+01,5.400000000000000000e+01,2.000000000000000000e+01,1.300000000000000000e+01,3.900000000000000000e+01,3.200000000000000000e+01,1.700000000000000000e+01,4.299999999999999933e-01,9.050973000000000000e+08
-1.300000000000000000e+01,-4.300000000000000000e+01,2.600000000000000000e+01,-3.600000000000000000e+01,-1.100000000000000000e+01,3.500000000000000000e+01,-7.400000000000000000e+01,4.100000000000000000e+01,4.299999999999999933e-01,9.051092000000000000e+08
-1.600000000000000000e+01,1.000000000000000000e+00,-3.200000000000000000e+01,-8.000000000000000000e+00,-4.000000000000000000e+00,-2.700000000000000000e+01,-1.600000000000000000e+01,-1.600000000000000000e+01,4.299999999999999933e-01,9.051182000000000000e+08
-3.000000000000000000e+00,-1.900000000000000000e+01,5.600000000000000000e+01,4.000000000000000000e+00,-6.000000000000000000e+00,-3.600000000000000000e+01,9.500000000000000000e+01,-3.900000000000000000e+01,4.299999999999999933e-01,9.051281000000000000e+08
3.000000000000000000e+00,3.000000000000000000e+01,-2.900000000000000000e+01,9.000000000000000000e+00,3.000000000000000000e+00,-9.000000000000000000e+00,3.000000000000000000e+00,-3.600000000000000000e+01,4.400000000000000022e-01,9.236729000000000000e+08
5.000000000000000000e+00,8.000000000000000000e+00,4.000000000000000000e+00,1.200000000000000000e+01,8.000000000000000000e+00,5.000000000000000000e+00,7.300000000000000000e+01,-5.600000000000000000e+01,4.400000000000000022e-01,9.236838000000000000e+08
1.400000000000000000e+01,1.100000000000000000e+01,7.000000000000000000e+00,5.000000000000000000e+00,4.000000000000000000e+00,4.500000000000000000e+01,5.200000000000000000e+01,9.800000000000000000e+01,4.500000000000000111e-01,9.437563000000000000e+08
-5.000000000000000000e+00,-3.100000000000000000e+01,-1.500000000000000000e+01,-1.100000000000000000e+01,-1.000000000000000000e+00,7.400000000000000000e+01,-5.800000000000000000e+01,2.700000000000000000e+01,4.500000000000000111e-01,9.437846000000000000e+08
-1.000000000000000000e+00,1.000000000000000000e+01,-7.000000000000000000e+00,4.000000000000000000e+00,0.000000000000000000e+00,-5.500000000000000000e+01,8.000000000000000000e+01,-6.000000000000000000e+01,4.500000000000000111e-01,9.438217000000000000e+08
1.600000000000000000e+01,2.200000000000000000e+01,-2.200000000000000000e+01,7.000000000000000000e+00,1.200000000000000000e+01,1.070000000000000000e+02,-3.600000000000000000e+01,4.600000000000000000e+01,4.500000000000000111e-01,9.438315000000000000e+08
-1.900000000000000000e+01,-5.200000000000000000e+01,-2.700000000000000000e+01,-1.600000000000000000e+01,-2.600000000000000000e+01,-1.270000000000000000e+02,-9.100000000000000000e+01,-3.200000000000000000e+01,4.600000000000000200e-01,9.626188000000000000e+08
-5.000000000000000000e+00,3.000000000000000000e+00,-6.000000000000000000e+00,-4.000000000000000000e+00,3.000000000000000000e+00,5.800000000000000000e+01,2.700000000000000000e+01,2.000000000000000000e+00,4.600000000000000200e-01,9.626318000000000000e+08
-1.100000000000000000e+01,1.500000000000000000e+01,1.300000000000000000e+01,0.000000000000000000e+00,-7.000000000000000000e+00,-2.500000000000000000e+01,-6.300000000000000000e+01,-3.700000000000000000e+01,4.600000000000000200e-01,9.626432000000000000e+08
5.000000000000000000e+00,-8.000000000000000000e+00,-1.100000000000000000e+01,3.000000000000000000e+00,0.000000000000000000e+00,-1.400000000000000000e+01,5.200000000000000000e+01,6.500000000000000000e+01,4.600000000000000200e-01,9.626543000000000000e+08
-1.500000000000000000e+01,3.000000000000000000e+00,-3.100000000000000000e+01,-4.000000000000000000e+00,4.000000000000000000e+00,4.100000000000000000e+01,1.080000000000000000e+02,-4.400000000000000000e+01,4.600000000000000200e-01,9.626655000000000000e+08
5.000000000000000000e+00,-1.400000000000000000e+01,2.000000000000000000e+01,-7.000000000000000000e+00,-6.000000000000000000e+00,-4.000000000000000000e+00,5.300000000000000000e+01,2.600000000000000000e+01,4.600000000000000200e-01,9.626758000000000000e+08
6.000000000000000000e+00,2.400000000000000000e+01,3.800000000000000000e+01,1.300000000000000000e+01,3.000000000000000000e+00,-4.300000000000000000e+01,4.000000000000000000e+00,-1.000000000000000000e+00,4.699999999999999734e-01,9.844700000000000000e+08
3.000000000000000000e+00,-3.900000000000000000e+01,-2.400000000000000000e+01,-4.000000000000000000e+00,-4.000000000000000000e+00,-1.300000000000000000e+01,1.000000000000000000e+00,3.100000000000000000e+01,4.699999999999999734e-01,9.844815000000000000e+08
-1.000000000000000000e+01,-2.300000000000000000e+01,-6.200000000000000000e+01,-1.600000000000000000e+01,-3.000000000000000000e+00,1.800000000000000000e+01,2.500000000000000000e+01,-1.500000000000000000e+01,4.699999999999999734e-01,9.844907000000000000e+08
-5.000000000000000000e+00,1.100000000000000000e+01,1.100000000000000000e+01,-5.000000000000000000e+00,4.000000000000000000e+00,3.700000000000000000e+01,3.700000000000000000e+01,-2.000000000000000000e+01,4.699999999999999734e-01,9.844989000000000000e+08
1.200000000000000000e+01,9.000000000000000000e+00,2.400000000000000000e+01,6.000000000000000000e+00,0.000000000000000000e+00,-3.500000000000000000e+01,8.500000000000000000e+01,3.800000000000000000e+01,4.799999999999999822e-01,1.002847300000000000e+09
-2.000000000000000000e+00,3.500000000000000000e+01,3.700000000000000000e+01,1.400000000000000000e+01,-2.000000000000000000e+00,-6.200000000000000000e+01,-1.280000000000000000e+02,-1.070000000000000000e+02,4.799999999999999822e-01,1.002858300000000000e+09
-4.000000000000000000e+00,-3.800000000000000000e+01,6.800000000000000000e+01,5.000000000000000000e+00,4.000000000000000000e+00,4.200000000000000000e+01,-2.800000000000000000e+01,1.200000000000000000e+01,4.899999999999999911e-01,1.023897700000000000e+09
1.100000000000000000e+01,5.000000000000000000e+00,-2.800000000000000000e+01,-9.000000000000000000e+00,-9.000000000000000000e+00,-5.700000000000000000e+01,8.000000000000000000e+01,-8.000000000000000000e+00,4.899999999999999911e-01,1.023908500000000000e+09
-5.000000000000000000e+00,-2.200000000000000000e+01,-4.800000000000000000e+01,-1.700000000000000000e+01,-3.000000000000000000e+00,7.500000000000000000e+01,-1.100000000000000000e+02,3.400000000000000000e+01,4.899999999999999911e-01,1.023918300000000000e+09
-1.000000000000000000e+00,-5.000000000000000000e+00,6.000000000000000000e+00,2.000000000000000000e+00,1.000000000000000000e+00,-2.500000000000000000e+01,1.020000000000000000e+02,9.200000000000000000e+01,4.899999999999999911e-01,1.023930400000000000e+09
7.000000000000000000e+00,2.200000000000000000e+01,1.900000000000000000e+01,9.000000000000000000e+00,3.000000000000000000e+00,-5.200000000000000000e+01,2.700000000000000000e+01,-2.800000000000000000e+01,4.899999999999999911e-01,1.023938300000000000e+09
-1.800000000000000000e+01,1.100000000000000000e+01,1.200000000000000000e+01,2.000000000000000000e+00,-1.000000000000000000e+00,8.400000000000000000e+01,5.800000000000000000e+01,-4.900000000000000000e+01,4.899999999999999911e-01,1.023946200000000000e+09
2.000000000000000000e+00,-4.400000000000000000e+01,-9.000000000000000000e+00,1.000000000000000000e+00,-7.000000000000000000e+00,-9.000000000000000000e+01,-1.280000000000000000e+02,-4.700000000000000000e+01,5.000000000000000000e-01,1.043599900000000000e+09
1.600000000000000000e+01,-1.000000000000000000e+00,-1.900000000000000000e+01,0.000000000000000000e+00,4.000000000000000000e+00,1.700000000000000000e+01,1.270000000000000000e+02,5.600000000000000000e+01,5.000000000000000000e-01,1.043610600000000000e+09
-4.000000000000000000e+00,8.000000000000000000e+00,-7.000000000000000000e+00,-3.000000000000000000e+00,-5.000000000000000000e+00,4.000000000000000000e+00,5.900000000000000000e+01,-2.200000000000000000e+01,5.000000000000000000e-01,1.043619000000000000e+09
-1.600000000000000000e+01,2.000000000000000000e+00,1.700000000000000000e+01,-2.000000000000000000e+00,-2.000000000000000000e+00,-2.300000000000000000e+01,-1.260000000000000000e+02,-4.500000000000000000e+01,5.000000000000000000e-01,1.043626200000000000e+09
8.000000000000000000e+00,3.200000000000000000e+01,7.000000000000000000e+00,5.000000000000000000e+00,0.000000000000000000e+00,4.800000000000000000e+01,7.900000000000000000e+01,8.700000000000000000e+01,5.100000000000000089e-01,1.065125600000000000e+09
-4.000000000000000000e+01,-8.600000000000000000e+01,-1.700000000000000000e+01,-2.000000000000000000e+00,2.000000000000000000e+00,7.400000000000000000e+01,1.600000000000000000e+01,-1.230000000000000000e+02,5.100000000000000089e-01,1.065138400000000000e+09
-6.000000000000000000e+00,-2.800000000000000000e+01,-9.900000000000000000e+01,-2.800000000000000000e+01,-1.200000000000000000e+01,-7.400000000000000000e+01,-3.700000000000000000e+01,6.000000000000000000e+01,5.100000000000000089e-01,1.065147100000000000e+09
2.400000000000000000e+01,3.700000000000000000e+01,9.600000000000000000e+01,0.000000000000000000e+00,-8.000000000000000000e+00,-9.100000000000000000e+01,-8.800000000000000000e+01,4.000000000000000000e+01,5.100000000000000089e-01,1.065155600000000000e+09
-1.300000000000000000e+01,1.200000000000000000e+01,4.900000000000000000e+01,6.000000000000000000e+00,1.200000000000000000e+01,1.180000000000000000e+02,7.100000000000000000e+01,-2.200000000000000000e+01,5.100000000000000089e-01,1.065218800000000000e+09
1.800000000000000000e+01,3.500000000000000000e+01,-4.800000000000000000e+01,2.000000000000000000e+00,0.000000000000000000e+00,-6.200000000000000000e+01,-7.100000000000000000e+01,-6.000000000000000000e+00,5.100000000000000089e-01,1.065227700000000000e+09
2.400000000000000000e+01,3.700000000000000000e+01,4.100000000000000000e+01,1.300000000000000000e+01,6.000000000000000000e+00,6.600000000000000000e+01,1.100000000000000000e+01,4.000000000000000000e+00,5.200000000000000178e-01,1.084466900000000000e+09
7.000000000000000000e+00,-1.800000000000000000e+01,-6.400000000000000000e+01,-3.000000000000000000e+00,1.000000000000000000e+00,2.300000000000000000e+01,1.270000000000000000e+02,1.140000000000000000e+02,5.200000000000000178e-01,1.084478200000000000e+09
-1.300000000000000000e+01,-6.900000000000000000e+01,-1.000000000000000000e+00,-7.000000000000000000e+00,1.000000000000000000e+00,8.000000000000000000e+00,-1.500000000000000000e+01,-1.900000000000000000e+01,5.300000000000000266e-01,1.102747700000000000e+09
-6.000000000000000000e+00,3.400000000000000000e+01,1.300000000000000000e+01,2.000000000000000000e+00,-3.000000000000000000e+00,-4.600000000000000000e+01,-7.700000000000000000e+01,2.100000000000000000e+01,5.300000000000000266e-01,1.102760400000000000e+09
-2.000000000000000000e+00,4.000000000000000000e+00,-5.000000000000000000e+00,-1.000000000000000000e+00,-9.000000000000000000e+00,-6.900000000000000000e+01,8.000000000000000000e+00,-1.080000000000000000e+02,5.300000000000000266e-01,1.102769200000000000e+09
3.000000000000000000e+00,2.100000000000000000e+01,1.100000000000000000e+01,4.000000000000000000e+00,0.000000000000000000e+00,-8.000000000000000000e+00,1.100000000000000000e+01,-2.000000000000000000e+00,5.300000000000000266e-01,1.102776400000000000e+09
1.100000000000000000e+01,2.100000000000000000e+01,1.000000000000000000e+01,5.000000000000000000e+00,1.100000000000000000e+01,9.000000000000000000e+01,-5.500000000000000000e+01,7.100000000000000000e+01,5.400000000000000355e-01,1.124386900000000000e+09
1.800000000000000000e+01,1.500000000000000000e+01,-3.600000000000000000e+01,-1.000000000000000000e+00,2.000000000000000000e+00,-8.000000000000000000e+00,-9.200000000000000000e+01,6.000000000000000000e+01,5.400000000000000355e-01,1.124397500000000000e+09
1.600000000000000000e+01,1.000000000000000000e+00,2.100000000000000000e+01,7.000000000000000000e+00,5.000000000000000000e+00,-2.800000000000000000e+01,1.050000000000000000e+02,5.000000000000000000e+00,5.400000000000000355e-01,1.124406100000000000e+09
-5.000000000000000000e+00,-1.900000000000000000e+01,5.000000000000000000e+00,-3.000000000000000000e+00,-4.000000000000000000e+00,-3.500000000000000000e+01,5.100000000000000000e+01,6.700000000000000000e+01,5.400000000000000355e-01,1.124414200000000000e+09
-1.200000000000000000e+01,-1.000000000000000000e+01,-4.300000000000000000e+01,-6.000000000000000000e+00,-9.000000000000000000e+00,-2.500000000000000000e+01,1.700000000000000000e+01,-7.200000000000000000e+01,5.500000000000000444e-01,1.143654500000000000e+09
-1.000000000000000000e+00,3.200000000000000000e+01,4.600000000000000000e+01,4.000000000000000000e+00,4.000000000000000000e+00,6.400000000000000000e+01,-2.000000000000000000e+01,-6.000000000000000000e+00,5.500000000000000444e-01,1.143667200000000000e+09
-8.000000000000000000e+00,8.000000000000000000e+00,1.400000000000000000e+01,1.000000000000000000e+00,-2.000000000000000000e+00,-2.700000000000000000e+01,7.300000000000000000e+01,9.000000000000000000e+01,5.500000000000000444e-01,1.143676700000000000e+09
9.000000000000000000e+00,-2.200000000000000000e+01,1.400000000000000000e+01,9.000000000000000000e+00,1.000000000000000000e+01,4.300000000000000000e+01,4.600000000000000000e+01,3.800000000000000000e+01,5.500000000000000444e-01,1.143711600000000000e+09
-8.000000000000000000e+00,-3.000000000000000000e+01,-1.190000000000000000e+02,-2.500000000000000000e+01,-1.200000000000000000e+01,-8.300000000000000000e+01,2.900000000000000000e+01,4.000000000000000000e+00,5.600000000000000533e-01,1.165132200000000000e+09
1.400000000000000000e+01,6.000000000000000000e+00,2.300000000000000000e+01,-7.000000000000000000e+00,2.000000000000000000e+00,9.200000000000000000e+01,1.000000000000000000e+01,3.200000000000000000e+01,5.600000000000000533e-01,1.165144700000000000e+09
1.600000000000000000e+01,2.300000000000000000e+01,4.600000000000000000e+01,1.300000000000000000e+01,4.000000000000000000e+00,-3.500000000000000000e+01,5.800000000000000000e+01,8.100000000000000000e+01,5.600000000000000533e-01,1.165168800000000000e+09
1.100000000000000000e+01,4.400000000000000000e+01,1.900000000000000000e+01,6.000000000000000000e+00,6.000000000000000000e+00,7.900000000000000000e+01,5.300000000000000000e+01,-6.000000000000000000e+01,5.600000000000000533e-01,1.165203000000000000e+09
1.700000000000000000e+01,1.700000000000000000e+01,6.700000000000000000e+01,1.300000000000000000e+01,5.000000000000000000e+00,-4.200000000000000000e+01,-6.300000000000000000e+01,2.400000000000000000e+01,5.699999999999999512e-01,1.184208800000000000e+09
-1.100000000000000000e+01,-5.800000000000000000e+01,-7.400000000000000000e+01,-1.800000000000000000e+01,-9.000000000000000000e+00,-1.100000000000000000e+01,6.600000000000000000e+01,7.000000000000000000e+01,5.699999999999999512e-01,1.184221500000000000e+09
-1.800000000000000000e+01,-3.100000000000000000e+01,-2.900000000000000000e+01,-2.700000000000000000e+01,-8.000000000000000000e+00,-5.000000000000000000e+00,-2.700000000000000000e+01,-2.500000000000000000e+01,5.799999999999999600e-01,1.204669000000000000e+09
1.200000000000000000e+01,-5.000000000000000000e+00,8.000000000000000000e+00,5.000000000000000000e+00,-6.000000000000000000e+00,-5.800000000000000000e+01,-5.000000000000000000e+01,-4.800000000000000000e+01,5.799999999999999600e-01,1.204681200000000000e+09
1.200000000000000000e+01,6.700000000000000000e+01,1.000000000000000000e+02,1.300000000000000000e+01,9.000000000000000000e+00,6.000000000000000000e+00,9.500000000000000000e+01,-5.800000000000000000e+01,5.799999999999999600e-01,1.204689800000000000e+09
1.300000000000000000e+01,1.400000000000000000e+01,-6.900000000000000000e+01,1.100000000000000000e+01,9.000000000000000000e+00,2.400000000000000000e+01,1.260000000000000000e+02,-1.200000000000000000e+01,5.799999999999999600e-01,1.204700300000000000e+09
-2.100000000000000000e+01,-2.000000000000000000e+01,1.000000000000000000e+01,-4.000000000000000000e+00,-7.000000000000000000e+00,3.700000000000000000e+01,-1.500000000000000000e+01,1.090000000000000000e+02,5.799999999999999600e-01,1.204710400000000000e+09
1.000000000000000000e+00,-1.100000000000000000e+01,-8.000000000000000000e+00,-1.000000000000000000e+00,8.000000000000000000e+00,-3.400000000000000000e+01,-5.300000000000000000e+01,-1.500000000000000000e+01,5.799999999999999600e-01,1.204719100000000000e+09
1.000000000000000000e+01,-4.000000000000000000e+01,-2.500000000000000000e+01,-8.000000000000000000e+00,-1.300000000000000000e+01,5.400000000000000000e+01,7.000000000000000000e+00,4.000000000000000000e+01,5.899999999999999689e-01,1.223926900000000000e+09
-8.000000000000000000e+00,1.200000000000000000e+01,5.400000000000000000e+01,5.000000000000000000e+00,0.000000000000000000e+00,-1.600000000000000000e+01,-7.300000000000000000e+01,-1.280000000000000000e+02,5.899999999999999689e-01,1.223937800000000000e+09
-2.000000000000000000e+00,2.800000000000000000e+01,8.000000000000000000e+00,-2.000000000000000000e+00,-7.000000000000000000e+00,1.100000000000000000e+01,-4.800000000000000000e+01,-1.400000000000000000e+01,5.899999999999999689e-01,1.223946300000000000e+09
-1.600000000000000000e+01,-2.100000000000000000e+01,-4.100000000000000000e+01,-5.000000000000000000e+00,-4.000000000000000000e+00,-4.800000000000000000e+01,1.400000000000000000e+01,3.000000000000000000e+01,5.899999999999999689e-01,1.223955900000000000e+09
-1.200000000000000000e+01,0.000000000000000000e+00,-4.100000000000000000e+01,-1.000000000000000000e+01,-8.000000000000000000e+00,-3.700000000000000000e+01,-2.800000000000000000e+01,8.900000000000000000e+01,5.999999999999999778e-01,1.243302700000000000e+09
-2.000000000000000000e+00,-4.200000000000000000e+01,0.000000000000000000e+00,-6.000000000000000000e+00,-5.000000000000000000e+00,-2.900000000000000000e+01,1.270000000000000000e+02,4.300000000000000000e+01,5.999999999999999778e-01,1.243315000000000000e+09
1.000000000000000000e+01,3.700000000000000000e+01,1.100000000000000000e+01,8.000000000000000000e+00,1.600000000000000000e+01,1.250000000000000000e+02,5.400000000000000000e+01,-1.160000000000000000e+02,6.099999999999999867e-01,1.262296300000000000e+09
7.000000000000000000e+00,8.000000000000000000e+00,5.000000000000000000e+00,-3.000000000000000000e+00,-6.000000000000000000e+00,-2.100000000000000000e+01,5.200000000000000000e+01,9.200000000000000000e+01,6.099999999999999867e-01,1.262307500000000000e+09
-1.100000000000000000e+01,-5.100000000000000000e+01,3.000000000000000000e+00,-2.000000000000000000e+00,-9.000000000000000000e+00,-1.060000000000000000e+02,-6.400000000000000000e+01,-8.000000000000000000e+00,6.099999999999999867e-01,1.262316800000000000e+09
8.000000000000000000e+00,3.400000000000000000e+01,-9.000000000000000000e+00,-4.000000000000000000e+00,-7.000000000000000000e+00,2.800000000000000000e+01,-5.700000000000000000e+01,3.300000000000000000e+01,6.099999999999999867e-01,1.262324600000000000e+09
-4.600000000000000000e+01,1.000000000000000000e+00,-8.000000000000000000e+00,-4.000000000000000000e+00,-3.000000000000000000e+00,2.400000000000000000e+01,1.800000000000000000e+01,-1.130000000000000000e+02,6.099999999999999867e-01,1.262331900000000000e+09
-2.400000000000000000e+01,-1.400000000000000000e+01,4.600000000000000000e+01,2.000000000000000000e+00,-1.300000000000000000e+01,-6.800000000000000000e+01,-1.030000000000000000e+02,-2.300000000000000000e+01,6.099999999999999867e-01,1.262339400000000000e+09
3.000000000000000000e+01,2.300000000000000000e+01,-5.800000000000000000e+01,7.000000000000000000e+00,1.900000000000000000e+01,1.270000000000000000e+02,4.200000000000000000e+01,1.100000000000000000e+02,6.199999999999999956e-01,1.284337400000000000e+09
-2.000000000000000000e+00,-4.800000000000000000e+01,-2.700000000000000000e+01,-2.500000000000000000e+01,-1.500000000000000000e+01,-1.280000000000000000e+02,-5.400000000000000000e+01,9.000000000000000000e+00,6.199999999999999956e-01,1.284349500000000000e+09
3.000000000000000000e+00,-6.400000000000000000e+01,-4.800000000000000000e+01,-1.300000000000000000e+01,-1.100000000000000000e+01,-3.100000000000000000e+01,-7.700000000000000000e+01,1.200000000000000000e+02,6.199999999999999956e-01,1.284357800000000000e+09
6.000000000000000000e+00,3.400000000000000000e+01,1.900000000000000000e+01,2.000000000000000000e+00,1.600000000000000000e+01,9.600000000000000000e+01,8.700000000000000000e+01,0.000000000000000000e+00,6.199999999999999956e-01,1.284365600000000000e+09
-2.500000000000000000e+01,5.900000000000000000e+01,4.400000000000000000e+01,2.000000000000000000e+00,-5.000000000000000000e+00,-7.200000000000000000e+01,6.800000000000000000e+01,3.200000000000000000e+01,6.300000000000000044e-01,1.302966900000000000e+09
1.200000000000000000e+01,0.000000000000000000e+00,4.300000000000000000e+01,1.600000000000000000e+01,1.600000000000000000e+01,1.120000000000000000e+02,9.600000000000000000e+01,6.400000000000000000e+01,6.300000000000000044e-01,1.302979100000000000e+09
5.000000000000000000e+00,3.700000000000000000e+01,-1.100000000000000000e+01,1.100000000000000000e+01,9.000000000000000000e+00,8.000000000000000000e+01,-3.300000000000000000e+01,7.100000000000000000e+01,6.400000000000000133e-01,1.324340400000000000e+09
-2.300000000000000000e+01,-8.400000000000000000e+01,-2.300000000000000000e+01,-1.400000000000000000e+01,-1.300000000000000000e+01,-9.600000000000000000e+01,-2.300000000000000000e+01,5.500000000000000000e+01,6.400000000000000133e-01,1.324359200000000000e+09
-2.000000000000000000e+00,3.900000000000000000e+01,4.000000000000000000e+00,2.000000000000000000e+00,1.900000000000000000e+01,9.900000000000000000e+01,-2.900000000000000000e+01,1.000000000000000000e+01,6.400000000000000133e-01,1.324368200000000000e+09
-5.000000000000000000e+00,7.000000000000000000e+00,-1.000000000000000000e+00,-8.000000000000000000e+00,-2.200000000000000000e+01,-1.140000000000000000e+02,8.800000000000000000e+01,-3.700000000000000000e+01,6.400000000000000133e-01,1.324376400000000000e+09
1.200000000000000000e+01,5.300000000000000000e+01,1.600000000000000000e+01,-1.000000000000000000e+00,-8.000000000000000000e+00,-7.400000000000000000e+01,-4.700000000000000000e+01,1.000000000000000000e+00,6.400000000000000133e-01,1.324384900000000000e+09
-4.300000000000000000e+01,-4.800000000000000000e+01,-1.300000000000000000e+01,-5.000000000000000000e+00,-3.000000000000000000e+00,1.200000000000000000e+02,3.600000000000000000e+01,-1.190000000000000000e+02,6.400000000000000133e-01,1.324393100000000000e+09
-3.800000000000000000e+01,-5.700000000000000000e+01,1.000000000000000000e+00,-2.000000000000000000e+00,-1.100000000000000000e+01,-1.020000000000000000e+02,1.170000000000000000e+02,-8.000000000000000000e+00,6.500000000000000222e-01,1.348099000000000000e+09
1.200000000000000000e+01,-9.000000000000000000e+00,-1.000000000000000000e+01,3.000000000000000000e+00,1.100000000000000000e+01,3.500000000000000000e+01,-3.000000000000000000e+01,2.400000000000000000e+01,6.500000000000000222e-01,1.348110300000000000e+09
3.000000000000000000e+00,-3.400000000000000000e+01,9.000000000000000000e+00,-5.000000000000000000e+00,-5.000000000000000000e+00,-3.500000000000000000e+01,-5.300000000000000000e+01,-5.600000000000000000e+01,6.500000000000000222e-01,1.348118200000000000e+09
-1.900000000000000000e+01,6.000000000000000000e+01,-1.500000000000000000e+01,-6.000000000000000000e+00,-6.000000000000000000e+00,1.800000000000000000e+01,-6.000000000000000000e+01,7.400000000000000000e+01,6.500000000000000222e-01,1.348125900000000000e+09
2.500000000000000000e+01,-6.000000000000000000e+00,2.000000000000000000e+01,8.000000000000000000e+00,3.000000000000000000e+00,4.300000000000000000e+01,9.000000000000000000e+01,-3.000000000000000000e+01,6.600000000000000311e-01,1.364466400000000000e+09
-1.200000000000000000e+01,1.100000000000000000e+01,9.000000000000000000e+00,6.000000000000000000e+00,3.000000000000000000e+00,-2.600000000000000000e+01,-1.600000000000000000e+01,-1.090000000000000000e+02,6.600000000000000311e-01,1.364478800000000000e+09
-2.600000000000000000e+01,-2.500000000000000000e+01,-2.500000000000000000e+01,-5.000000000000000000e+00,-2.000000000000000000e+00,4.300000000000000000e+01,4.500000000000000000e+01,9.400000000000000000e+01,6.600000000000000311e-01,1.364487100000000000e+09
7.800000000000000000e+01,-5.000000000000000000e+01,-3.400000000000000000e+01,1.300000000000000000e+01,1.600000000000000000e+01,2.200000000000000000e+01,8.600000000000000000e+01,8.900000000000000000e+01,6.600000000000000311e-01,1.364494700000000000e+09
-4.200000000000000000e+01,-2.400000000000000000e+01,-1.000000000000000000e+02,-2.300000000000000000e+01,-1.300000000000000000e+01,3.400000000000000000e+01,-6.800000000000000000e+01,-7.000000000000000000e+01,6.700000000000000400e-01,1.382946800000000000e+09
-4.000000000000000000e+00,2.800000000000000000e+01,8.900000000000000000e+01,-5.000000000000000000e+00,-9.000000000000000000e+00,4.300000000000000000e+01,7.500000000000000000e+01,9.600000000000000000e+01,6.700000000000000400e-01,1.382959300000000000e+09
5.100000000000000000e+01,-1.000000000000000000e+01,3.800000000000000000e+01,2.100000000000000000e+01,2.000000000000000000e+01,6.600000000000000000e+01,5.500000000000000000e+01,-5.300000000000000000e+01,6.700000000000000400e-01,1.382968100000000000e+09
2.000000000000000000e+00,1.900000000000000000e+01,3.100000000000000000e+01,-2.000000000000000000e+00,-1.000000000000000000e+01,-1.280000000000000000e+02,-6.900000000000000000e+01,-1.500000000000000000e+01,6.700000000000000400e-01,1.382975400000000000e+09
-2.700000000000000000e+01,-1.200000000000000000e+01,1.500000000000000000e+01,-1.000000000000000000e+00,1.000000000000000000e+00,5.000000000000000000e+00,-8.100000000000000000e+01,2.700000000000000000e+01,6.800000000000000488e-01,1.404517600000000000e+09
4.000000000000000000e+00,-2.000000000000000000e+00,-3.000000000000000000e+01,5.000000000000000000e+00,1.200000000000000000e+01,9.400000000000000000e+01,4.900000000000000000e+01,1.700000000000000000e+01,6.800000000000000488e-01,1.404529100000000000e+09
-1.000000000000000000e+00,-2.000000000000000000e+00,-2.800000000000000000e+01,-1.800000000000000000e+01,-1.300000000000000000e+01,5.600000000000000000e+01,7.000000000000000000e+01,4.200000000000000000e+01,6.899999999999999467e-01,1.424949300000000000e+09
3.000000000000000000e+00,-7.000000000000000000e+00,-6.000000000000000000e+00,-1.000000000000000000e+00,4.000000000000000000e+00,-5.000000000000000000e+00,-6.400000000000000000e+01,-1.110000000000000000e+02,6.899999999999999467e-01,1.424965100000000000e+09
4.000000000000000000e+01,2.700000000000000000e+01,5.600000000000000000e+01,1.800000000000000000e+01,5.000000000000000000e+00,-1.210000000000000000e+02,7.300000000000000000e+01,2.800000000000000000e+01,6.899999999999999467e-01,1.424974900000000000e+09
4.400000000000000000e+01,-5.500000000000000000e+01,5.000000000000000000e+00,-6.000000000000000000e+00,-2.200000000000000000e+01,-9.300000000000000000e+01,-7.700000000000000000e+01,1.300000000000000000e+01,6.899999999999999467e-01,1.424983900000000000e+09
-3.000000000000000000e+01,3.800000000000000000e+01,3.100000000000000000e+01,1.300000000000000000e+01,1.800000000000000000e+01,6.700000000000000000e+01,-8.200000000000000000e+01,2.800000000000000000e+01,6.899999999999999467e-01,1.424991800000000000e+09
-9.200000000000000000e+01,-8.800000000000000000e+01,-4.200000000000000000e+01,-1.800000000000000000e+01,-2.200000000000000000e+01,2.000000000000000000e+00,5.100000000000000000e+01,-9.600000000000000000e+01,6.899999999999999467e-01,1.425006900000000000e+09
8.000000000000000000e+00,-1.300000000000000000e+01,-5.000000000000000000e+00,-7.000000000000000000e+00,-1.200000000000000000e+01,-8.600000000000000000e+01,-3.700000000000000000e+01,-6.900000000000000000e+01,6.999999999999999556e-01,1.445220400000000000e+09
-2.800000000000000000e+01,8.000000000000000000e+00,-6.000000000000000000e+00,-6.000000000000000000e+00,-2.000000000000000000e+00,5.800000000000000000e+01,8.300000000000000000e+01,-1.200000000000000000e+02,6.999999999999999556e-01,1.445232700000000000e+09
2.600000000000000000e+01,-6.900000000000000000e+01,-3.000000000000000000e+00,-2.000000000000000000e+00,-1.300000000000000000e+01,-1.280000000000000000e+02,2.300000000000000000e+01,-3.000000000000000000e+01,6.999999999999999556e-01,1.445241000000000000e+09
-2.300000000000000000e+01,-9.000000000000000000e+00,-4.000000000000000000e+00,2.000000000000000000e+00,1.400000000000000000e+01,1.100000000000000000e+02,-1.110000000000000000e+02,-5.800000000000000000e+01,6.999999999999999556e-01,1.445249900000000000e+09
-2.000000000000000000e+01,3.100000000000000000e+01,-2.000000000000000000e+00,-8.000000000000000000e+00,-1.300000000000000000e+01,-4.200000000000000000e+01,-3.500000000000000000e+01,-3.000000000000000000e+00,7.099999999999999645e-01,1.463184400000000000e+09
3.600000000000000000e+01,4.000000000000000000e+00,4.500000000000000000e+01,2.100000000000000000e+01,8.000000000000000000e+00,1.100000000000000000e+01,6.000000000000000000e+00,3.400000000000000000e+01,7.099999999999999645e-01,1.463195900000000000e+09
-4.000000000000000000e+00,-2.000000000000000000e+01,-9.900000000000000000e+01,-3.000000000000000000e+00,2.100000000000000000e+01,7.600000000000000000e+01,2.600000000000000000e+01,-8.800000000000000000e+01,7.199999999999999734e-01,1.489036800000000000e+09
8.000000000000000000e+00,3.800000000000000000e+01,2.300000000000000000e+01,-1.500000000000000000e+01,-2.100000000000000000e+01,-9.400000000000000000e+01,-2.000000000000000000e+01,-4.200000000000000000e+01,7.199999999999999734e-01,1.489048400000000000e+09
-8.000000000000000000e+00,-2.400000000000000000e+01,5.400000000000000000e+01,5.000000000000000000e+00,7.000000000000000000e+00,-2.700000000000000000e+01,4.700000000000000000e+01,6.200000000000000000e+01,7.199999999999999734e-01,1.489057900000000000e+09
2.500000000000000000e+01,8.300000000000000000e+01,3.000000000000000000e+00,9.000000000000000000e+00,1.500000000000000000e+01,9.600000000000000000e+01,2.700000000000000000e+01,1.270000000000000000e+02,7.199999999999999734e-01,1.489066500000000000e+09
2.100000000000000000e+01,-3.800000000000000000e+01,-1.000000000000000000e+00,-3.000000000000000000e+00,-6.000000000000000000e+00,1.500000000000000000e+01,-5.500000000000000000e+01,3.900000000000000000e+01,7.199999999999999734e-01,1.489074200000000000e+09
1.500000000000000000e+01,4.200000000000000000e+01,-3.500000000000000000e+01,1.000000000000000000e+00,1.700000000000000000e+01,5.500000000000000000e+01,1.070000000000000000e+02,2.400000000000000000e+01,7.199999999999999734e-01,1.489081500000000000e+09
9.000000000000000000e+00,-6.000000000000000000e+00,-1.000000000000000000e+00,-1.000000000000000000e+00,-1.300000000000000000e+01,-3.300000000000000000e+01,3.300000000000000000e+01,1.020000000000000000e+02,7.299999999999999822e-01,1.504905500000000000e+09
-4.000000000000000000e+01,4.800000000000000000e+01,1.900000000000000000e+01,-3.000000000000000000e+00,-6.000000000000000000e+00,-6.100000000000000000e+01,-5.900000000000000000e+01,-1.280000000000000000e+02,7.299999999999999822e-01,1.504920400000000000e+09
-9.600000000000000000e+01,-2.600000000000000000e+01,-4.000000000000000000e+00,-1.600000000000000000e+01,-3.900000000000000000e+01,-1.140000000000000000e+02,-7.800000000000000000e+01,5.800000000000000000e+01,7.299999999999999822e-01,1.504931700000000000e+09
7.400000000000000000e+01,4.400000000000000000e+01,1.000000000000000000e+00,1.000000000000000000e+01,1.600000000000000000e+01,1.000000000000000000e+02,5.000000000000000000e+01,7.000000000000000000e+01,7.299999999999999822e-01,1.504943600000000000e+09
-8.700000000000000000e+01,-3.400000000000000000e+01,-1.000000000000000000e+01,-3.200000000000000000e+01,-3.500000000000000000e+01,-4.200000000000000000e+01,6.000000000000000000e+01,-1.040000000000000000e+02,7.399999999999999911e-01,1.523698200000000000e+09
-1.900000000000000000e+01,5.000000000000000000e+00,-1.400000000000000000e+01,1.000000000000000000e+01,3.000000000000000000e+01,9.200000000000000000e+01,3.000000000000000000e+00,-1.000000000000000000e+00,7.399999999999999911e-01,1.523709400000000000e+09
-9.000000000000000000e+00,-2.000000000000000000e+00,2.200000000000000000e+01,-1.500000000000000000e+01,-3.200000000000000000e+01,-1.280000000000000000e+02,1.150000000000000000e+02,7.300000000000000000e+01,7.399999999999999911e-01,1.523718200000000000e+09
-3.200000000000000000e+01,3.400000000000000000e+01,-2.600000000000000000e+01,-9.000000000000000000e+00,-2.800000000000000000e+01,-1.280000000000000000e+02,-7.700000000000000000e+01,7.900000000000000000e+01,7.399999999999999911e-01,1.523735300000000000e+09
3.800000000000000000e+01,-2.700000000000000000e+01,-1.400000000000000000e+01,1.000000000000000000e+01,2.900000000000000000e+01,1.270000000000000000e+02,-5.100000000000000000e+01,2.000000000000000000e+01,7.500000000000000000e-01,1.542177000000000000e+09
4.000000000000000000e+00,-1.000000000000000000e+00,-9.000000000000000000e+00,-5.000000000000000000e+00,-1.700000000000000000e+01,-6.900000000000000000e+01,2.000000000000000000e+00,-2.800000000000000000e+01,7.500000000000000000e-01,1.542187900000000000e+09
-5.000000000000000000e+00,1.900000000000000000e+01,2.100000000000000000e+01,1.000000000000000000e+00,0.000000000000000000e+00,1.270000000000000000e+02,1.800000000000000000e+01,-1.280000000000000000e+02,7.600000000000000089e-01,1.562848200000000000e+09
-4.000000000000000000e+00,3.600000000000000000e+01,1.900000000000000000e+01,-9.000000000000000000e+00,-1.400000000000000000e+01,-6.200000000000000000e+01,1.100000000000000000e+01,-4.000000000000000000e+01,7.600000000000000089e-01,1.562862300000000000e+09
-4.900000000000000000e+01,-6.000000000000000000e+00,-5.800000000000000000e+01,-2.900000000000000000e+01,-3.300000000000000000e+01,1.270000000000000000e+02,-5.100000000000000000e+01,-5.100000000000000000e+01,7.600000000000000089e-01,1.562874200000000000e+09
2.100000000000000000e+01,7.900000000000000000e+01,3.600000000000000000e+01,9.000000000000000000e+00,2.600000000000000000e+01,6.600000000000000000e+01,9.100000000000000000e+01,6.900000000000000000e+01,7.600000000000000089e-01,1.562887800000000000e+09
-1.700000000000000000e+01,5.500000000000000000e+01,2.300000000000000000e+01,5.000000000000000000e+00,3.000000000000000000e+00,-2.200000000000000000e+01,4.600000000000000000e+01,3.000000000000000000e+01,7.700000000000000178e-01,1.585701200000000000e+09
1.800000000000000000e+01,-3.800000000000000000e+01,-3.600000000000000000e+01,-8.000000000000000000e+00,-1.600000000000000000e+01,-1.160000000000000000e+02,6.900000000000000000e+01,5.500000000000000000e+01,7.700000000000000178e-01,1.585712300000000000e+09
2.800000000000000000e+01,5.700000000000000000e+01,1.000000000000000000e+01,-3.000000000000000000e+00,-9.000000000000000000e+00,-6.400000000000000000e+01,-4.500000000000000000e+01,-4.400000000000000000e+01,7.700000000000000178e-01,1.585720600000000000e+09
-6.300000000000000000e+01,-7.100000000000000000e+01,-2.800000000000000000e+01,-1.600000000000000000e+01,-1.700000000000000000e+01,-6.900000000000000000e+01,9.000000000000000000e+00,1.000000000000000000e+00,7.700000000000000178e-01,1.585728500000000000e+09
1.600000000000000000e+01,4.300000000000000000e+01,3.500000000000000000e+01,6.000000000000000000e+00,4.000000000000000000e+00,-5.800000000000000000e+01,8.900000000000000000e+01,-1.140000000000000000e+02,7.700000000000000178e-01,1.585736100000000000e+09
1.400000000000000000e+01,1.200000000000000000e+01,3.400000000000000000e+01,8.000000000000000000e+00,2.300000000000000000e+01,1.270000000000000000e+02,7.800000000000000000e+01,-9.100000000000000000e+01,7.700000000000000178e-01,1.585746500000000000e+09
-7.000000000000000000e+00,-8.000000000000000000e+00,-1.200000000000000000e+01,1.300000000000000000e+01,1.400000000000000000e+01,4.400000000000000000e+01,-2.700000000000000000e+01,-9.100000000000000000e+01,7.800000000000000266e-01,1.604980600000000000e+09
-7.000000000000000000e+00,-1.500000000000000000e+01,-5.200000000000000000e+01,-1.100000000000000000e+01,-1.700000000000000000e+01,-8.900000000000000000e+01,-1.230000000000000000e+02,5.400000000000000000e+01,7.800000000000000266e-01,1.604994000000000000e+09
-1.100000000000000000e+01,-3.300000000000000000e+01,-3.000000000000000000e+01,-1.000000000000000000e+00,1.000000000000000000e+00,-5.400000000000000000e+01,4.400000000000000000e+01,8.000000000000000000e+01,7.800000000000000266e-01,1.605002900000000000e+09
-3.600000000000000000e+01,6.000000000000000000e+01,8.000000000000000000e+00,-8.000000000000000000e+00,-1.000000000000000000e+01,-7.100000000000000000e+01,-2.300000000000000000e+01,-3.400000000000000000e+01,7.800000000000000266e-01,1.605010400000000000e+09
6.300000000000000000e+01,-2.400000000000000000e+01,2.900000000000000000e+01,1.100000000000000000e+01,1.200000000000000000e+01,-6.500000000000000000e+01,-2.300000000000000000e+01,1.100000000000000000e+02,7.900000000000000355e-01,1.623830100000000000e+09
1.000000000000000000e+00,8.000000000000000000e+00,1.900000000000000000e+01,6.000000000000000000e+00,1.000000000000000000e+00,-5.900000000000000000e+01,-5.400000000000000000e+01,6.000000000000000000e+00,7.900000000000000355e-01,1.623841100000000000e+09
4.600000000000000000e+01,-5.000000000000000000e+00,-5.000000000000000000e+00,4.000000000000000000e+00,1.500000000000000000e+01,1.000000000000000000e+01,-1.400000000000000000e+01,-5.900000000000000000e+01,7.900000000000000355e-01,1.623850300000000000e+09
3.000000000000000000e+01,-8.000000000000000000e+00,1.200000000000000000e+01,7.000000000000000000e+00,1.600000000000000000e+01,4.100000000000000000e+01,5.800000000000000000e+01,1.600000000000000000e+01,7.900000000000000355e-01,1.623887300000000000e+09
-3.300000000000000000e+01,-1.100000000000000000e+01,-3.000000000000000000e+01,-2.200000000000000000e+01,-3.100000000000000000e+01,-6.600000000000000000e+01,1.270000000000000000e+02,-3.600000000000000000e+01,8.000000000000000444e-01,1.643813800000000000e+09
1.500000000000000000e+01,-4.200000000000000000e+01,-7.000000000000000000e+00,9.000000000000000000e+00,2.400000000000000000e+01,1.200000000000000000e+02,1.250000000000000000e+02,1.220000000000000000e+02,8.000000000000000444e-01,1.643829800000000000e+09
3.300000000000000000e+01,6.200000000000000000e+01,6.900000000000000000e+01,1.300000000000000000e+01,1.200000000000000000e+01,-1.000000000000000000e+02,1.800000000000000000e+01,-4.900000000000000000e+01,8.000000000000000444e-01,1.643839600000000000e+09
-7.400000000000000000e+01,-9.600000000000000000e+01,-8.600000000000000000e+01,-2.200000000000000000e+01,-3.600000000000000000e+01,-3.200000000000000000e+01,-9.000000000000000000e+00,-1.010000000000000000e+02,8.000000000000000444e-01,1.643848900000000000e+09
2.600000000000000000e+01,4.400000000000000000e+01,0.000000000000000000e+00,0.000000000000000000e+00,7.000000000000000000e+00,1.180000000000000000e+02,8.600000000000000000e+01,-1.100000000000000000e+01,8.100000000000000533e-01,1.663800000000000000e+09
-5.300000000000000000e+01,-4.700000000000000000e+01,-9.000000000000000000e+00,-1.200000000000000000e+01,-1.200000000000000000e+01,6.000000000000000000e+01,2.900000000000000000e+01,-3.500000000000000000e+01,8.100000000000000533e-01,1.663814100000000000e+09
-4.000000000000000000e+00,6.300000000000000000e+01,1.100000000000000000e+01,-7.000000000000000000e+00,6.000000000000000000e+00,1.200000000000000000e+02,9.000000000000000000e+00,1.000000000000000000e+02,8.100000000000000533e-01,1.663823800000000000e+09
2.400000000000000000e+01,6.000000000000000000e+01,5.800000000000000000e+01,1.400000000000000000e+01,1.900000000000000000e+01,1.270000000000000000e+02,3.100000000000000000e+01,7.600000000000000000e+01,8.100000000000000533e-01,1.663831900000000000e+09
1.200000000000000000e+01,1.000000000000000000e+00,5.000000000000000000e+00,2.000000000000000000e+01,2.800000000000000000e+01,8.600000000000000000e+01,8.200000000000000000e+01,9.000000000000000000e+01,8.199999999999999512e-01,1.682728600000000000e+09
-7.500000000000000000e+01,-4.300000000000000000e+01,-3.400000000000000000e+01,-3.600000000000000000e+01,-7.300000000000000000e+01,-1.280000000000000000e+02,-2.100000000000000000e+01,-6.400000000000000000e+01,8.199999999999999512e-01,1.682741200000000000e+09
1.900000000000000000e+01,0.000000000000000000e+00,-1.000000000000000000e+01,1.000000000000000000e+00,5.000000000000000000e+00,1.270000000000000000e+02,-7.800000000000000000e+01,-7.300000000000000000e+01,8.199999999999999512e-01,1.682752600000000000e+09
8.000000000000000000e+00,-2.300000000000000000e+01,-5.000000000000000000e+00,1.000000000000000000e+01,-1.000000000000000000e+00,6.000000000000000000e+01,-3.500000000000000000e+01,2.100000000000000000e+01,8.199999999999999512e-01,1.682764100000000000e+09
1.900000000000000000e+01,-2.300000000000000000e+01,0.000000000000000000e+00,1.000000000000000000e+00,1.000000000000000000e+01,-1.200000000000000000e+01,-4.700000000000000000e+01,6.900000000000000000e+01,8.299999999999999600e-01,1.704900700000000000e+09
2.700000000000000000e+01,2.600000000000000000e+01,1.300000000000000000e+01,-6.000000000000000000e+00,-1.000000000000000000e+00,1.270000000000000000e+02,-1.080000000000000000e+02,2.300000000000000000e+01,8.299999999999999600e-01,1.704911100000000000e+09
5.400000000000000000e+01,-6.700000000000000000e+01,-2.600000000000000000e+01,6.000000000000000000e+00,5.000000000000000000e+00,1.200000000000000000e+01,-2.100000000000000000e+01,1.100000000000000000e+02,8.299999999999999600e-01,1.704919500000000000e+09
-4.700000000000000000e+01,1.900000000000000000e+01,-1.600000000000000000e+01,-4.000000000000000000e+00,-4.000000000000000000e+00,7.000000000000000000e+00,-5.200000000000000000e+01,-1.010000000000000000e+02,8.299999999999999600e-01,1.704928200000000000e+09
3.600000000000000000e+01,1.400000000000000000e+01,2.800000000000000000e+01,8.000000000000000000e+00,9.000000000000000000e+00,8.600000000000000000e+01,-4.000000000000000000e+00,-1.600000000000000000e+01,8.399999999999999689e-01,1.723780600000000000e+09
4.000000000000000000e+00,-2.700000000000000000e+01,2.900000000000000000e+01,-2.000000000000000000e+00,-8.000000000000000000e+00,-8.100000000000000000e+01,-5.000000000000000000e+00,9.000000000000000000e+00,8.399999999999999689e-01,1.723792300000000000e+09
-9.000000000000000000e+01,-6.300000000000000000e+01,-7.100000000000000000e+01,-2.600000000000000000e+01,-3.300000000000000000e+01,-1.020000000000000000e+02,-1.280000000000000000e+02,-1.000000000000000000e+00,8.399999999999999689e-01,1.723839100000000000e+09
3.300000000000000000e+01,-9.900000000000000000e+01,3.100000000000000000e+01,1.200000000000000000e+01,1.900000000000000000e+01,3.500000000000000000e+01,2.800000000000000000e+01,1.270000000000000000e+02,8.399999999999999689e-01,1.723855800000000000e+09
1.400000000000000000e+01,8.400000000000000000e+01,1.400000000000000000e+01,4.000000000000000000e+00,-1.000000000000000000e+00,-7.400000000000000000e+01,1.500000000000000000e+01,-3.400000000000000000e+01,8.499999999999999778e-01,1.745116900000000000e+09
3.800000000000000000e+01,1.060000000000000000e+02,0.000000000000000000e+00,3.000000000000000000e+00,1.900000000000000000e+01,1.050000000000000000e+02,8.600000000000000000e+01,7.800000000000000000e+01,8.499999999999999778e-01,1.745128600000000000e+09
-4.800000000000000000e+01,-2.900000000000000000e+01,2.800000000000000000e+01,1.800000000000000000e+01,7.000000000000000000e+00,-6.900000000000000000e+01,0.000000000000000000e+00,-1.900000000000000000e+01,8.599999999999999867e-01,1.763290000000000000e+09
3.600000000000000000e+01,6.500000000000000000e+01,-1.000000000000000000e+00,2.000000000000000000e+00,3.000000000000000000e+00,-1.080000000000000000e+02,7.500000000000000000e+01,-2.400000000000000000e+01,8.599999999999999867e-01,1.763301000000000000e+09
-5.200000000000000000e+01,-5.200000000000000000e+01,-2.000000000000000000e+01,-7.000000000000000000e+00,-1.100000000000000000e+01,3.900000000000000000e+01,-1.110000000000000000e+02,3.700000000000000000e+01,8.599999999999999867e-01,1.763310600000000000e+09
2.000000000000000000e+01,7.800000000000000000e+01,1.100000000000000000e+01,1.100000000000000000e+01,1.100000000000000000e+01,-1.280000000000000000e+02,-2.200000000000000000e+01,1.500000000000000000e+01,8.599999999999999867e-01,1.763318200000000000e+09
1.400000000000000000e+01,-3.100000000000000000e+01,-6.000000000000000000e+00,-8.000000000000000000e+00,-9.000000000000000000e+00,-4.900000000000000000e+01,-2.100000000000000000e+01,-2.300000000000000000e+01,8.599999999999999867e-01,1.763326800000000000e+09
2.100000000000000000e+01,-4.200000000000000000e+01,1.800000000000000000e+01,3.000000000000000000e+00,1.000000000000000000e+00,1.180000000000000000e+02,1.500000000000000000e+01,-4.200000000000000000e+01,8.599999999999999867e-01,1.763335400000000000e+09
-3.000000000000000000e+00,3.600000000000000000e+01,5.000000000000000000e+00,4.000000000000000000e+00,-4.000000000000000000e+00,-4.100000000000000000e+01,1.100000000000000000e+01,-1.700000000000000000e+01,8.699999999999999956e-01,1.782154400000000000e+09
-3.000000000000000000e+00,-7.900000000000000000e+01,-2.800000000000000000e+01,2.000000000000000000e+00,5.000000000000000000e+00,1.100000000000000000e+02,4.100000000000000000e+01,-2.000000000000000000e+00,8.699999999999999956e-01,1.782166300000000000e+09
-7.400000000000000000e+01,-6.900000000000000000e+01,-5.900000000000000000e+01,-2.300000000000000000e+01,-2.100000000000000000e+01,-3.600000000000000000e+01,-3.900000000000000000e+01,-2.100000000000000000e+01,8.800000000000000044e-01,1.803657500000000000e+09
5.700000000000000000e+01,8.200000000000000000e+01,4.400000000000000000e+01,1.100000000000000000e+01,9.000000000000000000e+00,-3.700000000000000000e+01,7.100000000000000000e+01,-2.800000000000000000e+01,8.800000000000000044e-01,1.803672000000000000e+09
1.600000000000000000e+01,2.500000000000000000e+01,-2.000000000000000000e+00,2.000000000000000000e+00,5.000000000000000000e+00,1.030000000000000000e+02,-8.200000000000000000e+01,-1.060000000000000000e+02,8.800000000000000044e-01,1.803681000000000000e+09
5.000000000000000000e+00,2.700000000000000000e+01,3.700000000000000000e+01,5.000000000000000000e+00,2.000000000000000000e+00,1.080000000000000000e+02,6.400000000000000000e+01,8.600000000000000000e+01,8.800000000000000044e-01,1.803690500000000000e+09
-1.200000000000000000e+01,3.800000000000000000e+01,-5.000000000000000000e+00,3.000000000000000000e+00,9.000000000000000000e+00,4.300000000000000000e+01,-6.000000000000000000e+00,1.400000000000000000e+01,8.900000000000000133e-01,1.822513700000000000e+09
4.200000000000000000e+01,5.900000000000000000e+01,-1.500000000000000000e+01,-1.000000000000000000e+00,0.000000000000000000e+00,-6.000000000000000000e+01,1.100000000000000000e+02,5.700000000000000000e+01,8.900000000000000133e-01,1.822526400000000000e+09
-7.200000000000000000e+01,-6.700000000000000000e+01,-5.000000000000000000e+00,-2.100000000000000000e+01,-4.100000000000000000e+01,-8.500000000000000000e+01,-5.800000000000000000e+01,-7.000000000000000000e+01,8.900000000000000133e-01,1.822535800000000000e+09
6.000000000000000000e+00,1.600000000000000000e+01,0.000000000000000000e+00,-2.000000000000000000e+00,1.000000000000000000e+00,1.700000000000000000e+01,-1.700000000000000000e+01,-9.900000000000000000e+01,8.900000000000000133e-01,1.822543300000000000e+09
6.100000000000000000e+01,5.000000000000000000e+00,2.900000000000000000e+01,1.200000000000000000e+01,5.000000000000000000e+00,5.000000000000000000e+00,1.270000000000000000e+02,8.000000000000000000e+01,9.100000000000000311e-01,1.862367400000000000e+09
-5.300000000000000000e+01,2.900000000000000000e+01,3.300000000000000000e+01,-6.000000000000000000e+00,-5.000000000000000000e+00,8.200000000000000000e+01,-7.900000000000000000e+01,2.800000000000000000e+01,9.100000000000000311e-01,1.862378800000000000e+09
1.200000000000000000e+01,-5.600000000000000000e+01,-5.500000000000000000e+01,-1.000000000000000000e+00,9.000000000000000000e+00,-2.100000000000000000e+01,5.100000000000000000e+01,9.500000000000000000e+01,9.100000000000000311e-01,1.862387200000000000e+09
-2.700000000000000000e+01,-7.600000000000000000e+01,-1.250000000000000000e+02,-2.700000000000000000e+01,-1.100000000000000000e+01,-1.280000000000000000e+02,1.800000000000000000e+01,-1.100000000000000000e+02,9.100000000000000311e-01,1.862419000000000000e+09
1.500000000000000000e+01,5.600000000000000000e+01,7.700000000000000000e+01,2.000000000000000000e+00,1.700000000000000000e+01,9.100000000000000000e+01,1.070000000000000000e+02,2.300000000000000000e+01,9.100000000000000311e-01,1.862449600000000000e+09
-3.200000000000000000e+01,-3.400000000000000000e+01,9.000000000000000000e+00,-6.000000000000000000e+00,-2.000000000000000000e+01,-8.500000000000000000e+01,-1.280000000000000000e+02,-1.040000000000000000e+02,9.100000000000000311e-01,1.862463000000000000e+09
-3.200000000000000000e+01,-2.100000000000000000e+01,5.000000000000000000e+01,1.000000000000000000e+00,7.000000000000000000e+00,1.400000000000000000e+01,-3.000000000000000000e+00,6.100000000000000000e+01,9.100000000000000311e-01,1.862475300000000000e+09
3.300000000000000000e+01,2.400000000000000000e+01,2.300000000000000000e+01,1.100000000000000000e+01,-1.000000000000000000e+00,-5.800000000000000000e+01,-8.600000000000000000e+01,7.800000000000000000e+01,9.100000000000000311e-01,1.862486700000000000e+09
4.700000000000000000e+01,-2.900000000000000000e+01,-3.900000000000000000e+01,4.000000000000000000e+00,7.000000000000000000e+00,-7.000000000000000000e+00,-7.700000000000000000e+01,8.100000000000000000e+01,9.200000000000000400e-01,1.883068300000000000e+09
-2.400000000000000000e+01,-5.300000000000000000e+01,-2.200000000000000000e+01,-9.000000000000000000e+00,0.000000000000000000e+00,8.900000000000000000e+01,7.800000000000000000e+01,1.090000000000000000e+02,9.200000000000000400e-01,1.883079700000000000e+09
1.800000000000000000e+01,1.160000000000000000e+02,3.000000000000000000e+01,1.400000000000000000e+01,2.400000000000000000e+01,0.000000000000000000e+00,7.900000000000000000e+01,5.200000000000000000e+01,9.200000000000000400e-01,1.883089000000000000e+09
-2.000000000000000000e+01,-8.000000000000000000e+00,-1.700000000000000000e+01,4.000000000000000000e+00,-5.000000000000000000e+00,-1.280000000000000000e+02,-3.700000000000000000e+01,-7.300000000000000000e+01,9.200000000000000400e-01,1.883097500000000000e+09
-3.000000000000000000e+00,4.700000000000000000e+01,-1.700000000000000000e+01,-1.000000000000000000e+00,7.000000000000000000e+00,9.100000000000000000e+01,5.700000000000000000e+01,-3.200000000000000000e+01,9.200000000000000400e-01,1.883105700000000000e+09
2.500000000000000000e+01,1.500000000000000000e+01,1.600000000000000000e+01,6.000000000000000000e+00,5.000000000000000000e+00,3.500000000000000000e+01,-4.500000000000000000e+01,6.900000000000000000e+01,9.200000000000000400e-01,1.883113300000000000e+09
-1.300000000000000000e+01,7.900000000000000000e+01,-4.700000000000000000e+01,-8.000000000000000000e+00,-7.000000000000000000e+00,-5.300000000000000000e+01,-3.000000000000000000e+00,-1.170000000000000000e+02,9.300000000000000488e-01,1.902238100000000000e+09
-1.200000000000000000e+01,-1.100000000000000000e+01,2.000000000000000000e+01,-1.000000000000000000e+00,8.000000000000000000e+00,1.270000000000000000e+02,5.100000000000000000e+01,9.700000000000000000e+01,9.300000000000000488e-01,1.902250100000000000e+09
-1.000000000000000000e+01,4.400000000000000000e+01,8.000000000000000000e+00,-6.000000000000000000e+00,-1.600000000000000000e+01,8.000000000000000000e+00,-6.400000000000000000e+01,-5.700000000000000000e+01,9.399999999999999467e-01,1.924631100000000000e+09
0.000000000000000000e+00,-3.000000000000000000e+00,9.000000000000000000e+00,3.000000000000000000e+00,5.000000000000000000e+00,4.100000000000000000e+01,-5.800000000000000000e+01,-1.000000000000000000e+00,9.399999999999999467e-01,1.924642000000000000e+09
-2.500000000000000000e+01,-2.100000000000000000e+01,-2.000000000000000000e+01,3.000000000000000000e+00,1.100000000000000000e+01,-1.700000000000000000e+01,6.800000000000000000e+01,-3.300000000000000000e+01,9.399999999999999467e-01,1.924653400000000000e+09
5.300000000000000000e+01,2.800000000000000000e+01,1.700000000000000000e+01,3.000000000000000000e+00,3.000000000000000000e+00,6.200000000000000000e+01,2.200000000000000000e+01,-9.800000000000000000e+01,9.399999999999999467e-01,1.924661400000000000e+09
-2.000000000000000000e+00,-3.000000000000000000e+01,-1.000000000000000000e+00,1.000000000000000000e+00,5.000000000000000000e+00,-3.500000000000000000e+01,3.100000000000000000e+01,2.100000000000000000e+01,9.499999999999999556e-01,1.943770100000000000e+09
4.000000000000000000e+01,-1.000000000000000000e+01,-9.000000000000000000e+00,2.000000000000000000e+00,-1.000000000000000000e+00,-1.220000000000000000e+02,4.600000000000000000e+01,4.800000000000000000e+01,9.499999999999999556e-01,1.943790100000000000e+09
7.000000000000000000e+00,-3.300000000000000000e+01,3.100000000000000000e+01,-4.000000000000000000e+00,-7.000000000000000000e+00,1.800000000000000000e+01,4.700000000000000000e+01,9.900000000000000000e+01,9.499999999999999556e-01,1.943799300000000000e+09
-2.100000000000000000e+01,-2.700000000000000000e+01,-2.600000000000000000e+01,-1.100000000000000000e+01,-1.800000000000000000e+01,-5.000000000000000000e+01,-6.600000000000000000e+01,-5.700000000000000000e+01,9.499999999999999556e-01,1.943810400000000000e+09
-3.000000000000000000e+00,3.700000000000000000e+01,0.000000000000000000e+00,-2.000000000000000000e+00,-4.000000000000000000e+00,2.900000000000000000e+01,-5.100000000000000000e+01,4.000000000000000000e+01,9.499999999999999556e-01,1.943821200000000000e+09
-1.100000000000000000e+01,1.100000000000000000e+01,9.000000000000000000e+00,-5.000000000000000000e+00,-1.000000000000000000e+00,7.700000000000000000e+01,-3.000000000000000000e+00,-3.400000000000000000e+01,9.499999999999999556e-01,1.943830200000000000e+09
7.700000000000000000e+01,4.500000000000000000e+01,3.300000000000000000e+01,1.100000000000000000e+01,9.000000000000000000e+00,1.270000000000000000e+02,9.700000000000000000e+01,-9.100000000000000000e+01,9.599999999999999645e-01,1.964698000000000000e+09
-5.300000000000000000e+01,-8.700000000000000000e+01,-3.500000000000000000e+01,-3.000000000000000000e+00,-9.000000000000000000e+00,-9.200000000000000000e+01,1.900000000000000000e+01,-1.140000000000000000e+02,9.599999999999999645e-01,1.964709800000000000e+09
2.000000000000000000e+01,2.000000000000000000e+00,-1.700000000000000000e+01,2.000000000000000000e+00,4.000000000000000000e+00,1.270000000000000000e+02,2.600000000000000000e+01,-1.110000000000000000e+02,9.699999999999999734e-01,1.983567600000000000e+09
-2.100000000000000000e+01,-5.500000000000000000e+01,-2.800000000000000000e+01,-1.200000000000000000e+01,8.000000000000000000e+00,1.240000000000000000e+02,-2.300000000000000000e+01,1.500000000000000000e+01,9.699999999999999734e-01,1.983578000000000000e+09
8.000000000000000000e+00,-1.100000000000000000e+01,2.000000000000000000e+00,-8.000000000000000000e+00,-1.100000000000000000e+01,-5.800000000000000000e+01,-4.100000000000000000e+01,-1.300000000000000000e+01,9.699999999999999734e-01,1.983587100000000000e+09
2.500000000000000000e+01,6.400000000000000000e+01,4.100000000000000000e+01,6.000000000000000000e+00,3.000000000000000000e+00,-2.400000000000000000e+01,8.200000000000000000e+01,7.900000000000000000e+01,9.699999999999999734e-01,1.983597500000000000e+09
1.400000000000000000e+01,3.800000000000000000e+01,2.900000000000000000e+01,5.000000000000000000e+00,0.000000000000000000e+00,-7.200000000000000000e+01,-9.000000000000000000e+00,-1.300000000000000000e+01,9.799999999999999822e-01,2.002292800000000000e+09
-5.800000000000000000e+01,-2.200000000000000000e+01,-9.000000000000000000e+00,-5.000000000000000000e+00,-1.000000000000000000e+01,1.100000000000000000e+01,-6.500000000000000000e+01,-9.400000000000000000e+01,9.799999999999999822e-01,2.002306200000000000e+09
2.100000000000000000e+01,-9.000000000000000000e+00,-9.000000000000000000e+00,6.000000000000000000e+00,6.000000000000000000e+00,5.400000000000000000e+01,-7.200000000000000000e+01,3.100000000000000000e+01,9.799999999999999822e-01,2.002316100000000000e+09
-6.000000000000000000e+00,-3.900000000000000000e+01,-5.200000000000000000e+01,-1.200000000000000000e+01,-3.000000000000000000e+00,-1.060000000000000000e+02,1.400000000000000000e+01,4.800000000000000000e+01,9.799999999999999822e-01,2.002327200000000000e+09
-1.700000000000000000e+01,1.800000000000000000e+01,-8.000000000000000000e+00,-8.000000000000000000e+00,-9.000000000000000000e+00,-8.300000000000000000e+01,6.100000000000000000e+01,4.800000000000000000e+01,9.899999999999999911e-01,2.026195100000000000e+09
2.200000000000000000e+01,-1.100000000000000000e+01,5.000000000000000000e+00,-1.000000000000000000e+00,2.000000000000000000e+00,7.800000000000000000e+01,-1.300000000000000000e+01,-4.600000000000000000e+01,9.899999999999999911e-01,2.026205800000000000e+09
2.300000000000000000e+01,8.700000000000000000e+01,4.000000000000000000e+00,2.000000000000000000e+00,0.000000000000000000e+00,-8.000000000000000000e+01,-3.500000000000000000e+01,6.500000000000000000e+01,9.899999999999999911e-01,2.026214400000000000e+09
-1.000000000000000000e+00,-3.800000000000000000e+01,3.400000000000000000e+01,4.000000000000000000e+00,0.000000000000000000e+00,7.600000000000000000e+01,-6.100000000000000000e+01,-5.900000000000000000e+01,9.899999999999999911e-01,2.026223900000000000e+09
1.300000000000000000e+01,5.000000000000000000e+00,-5.800000000000000000e+01,0.000000000000000000e+00,3.000000000000000000e+00,7.500000000000000000e+01,-1.300000000000000000e+01,-1.300000000000000000e+01,9.899999999999999911e-01,2.026231200000000000e+09
3.000000000000000000e+00,1.300000000000000000e+01,3.100000000000000000e+01,5.000000000000000000e+00,8.000000000000000000e+00,3.200000000000000000e+01,6.300000000000000000e+01,6.400000000000000000e+01,9.899999999999999911e-01,2.026239600000000000e+09
4.000000000000000000e+00,-1.100000000000000000e+01,-2.700000000000000000e+01,-1.000000000000000000e+00,-1.000000000000000000e+00,-7.300000000000000000e+01,3.900000000000000000e+01,-4.700000000000000000e+01,9.799999999999999822e-01,2.043551400000000000e+09
1.000000000000000000e+00,1.900000000000000000e+01,-1.900000000000000000e+01,-6.000000000000000000e+00,0.000000000000000000e+00,1.140000000000000000e+02,1.000000000000000000e+00,-6.000000000000000000e+00,9.799999999999999822e-01,2.043562400000000000e+09
1.000000000000000000e+01,-4.900000000000000000e+01,3.900000000000000000e+01,1.000000000000000000e+00,-9.000000000000000000e+00,-1.280000000000000000e+02,7.400000000000000000e+01,-3.000000000000000000e+00,9.699999999999999734e-01,2.062657000000000000e+09
2.100000000000000000e+01,-4.100000000000000000e+01,-8.000000000000000000e+00,0.000000000000000000e+00,-4.000000000000000000e+00,1.200000000000000000e+01,-3.000000000000000000e+01,5.700000000000000000e+01,9.699999999999999734e-01,2.062668300000000000e+09
1.900000000000000000e+01,-1.100000000000000000e+01,2.800000000000000000e+01,-1.000000000000000000e+00,0.000000000000000000e+00,8.000000000000000000e+00,1.900000000000000000e+01,1.500000000000000000e+01,9.699999999999999734e-01,2.062676800000000000e+09
-6.000000000000000000e+00,9.000000000000000000e+00,5.000000000000000000e+00,-2.000000000000000000e+00,-1.000000000000000000e+00,-2.000000000000000000e+00,-3.000000000000000000e+01,4.100000000000000000e+01,9.699999999999999734e-01,2.062684700000000000e+09
-1.200000000000000000e+01,-3.900000000000000000e+01,-5.000000000000000000e+00,-7.000000000000000000e+00,0.000000000000000000e+00,-7.000000000000000000e+00,-3.000000000000000000e+01,-4.600000000000000000e+01,9.699999999999999734e-01,2.062693700000000000e+09
4.000000000000000000e+00,-1.800000000000000000e+01,-3.400000000000000000e+01,-1.000000000000000000e+00,-8.000000000000000000e+00,3.800000000000000000e+01,8.000000000000000000e+00,-8.000000000000000000e+00,9.699999999999999734e-01,2.062703900000000000e+09
-4.000000000000000000e+00,4.200000000000000000e+01,7.200000000000000000e+01,1.300000000000000000e+01,7.000000000000000000e+00,-3.600000000000000000e+01,-2.900000000000000000e+01,-3.700000000000000000e+01,9.599999999999999645e-01,2.084404700000000000e+09
-2.000000000000000000e+00,-1.300000000000000000e+01,2.300000000000000000e+01,-1.000000000000000000e+00,-4.000000000000000000e+00,6.000000000000000000e+00,-4.600000000000000000e+01,-2.000000000000000000e+01,9.599999999999999645e-01,2.084417100000000000e+09
-5.000000000000000000e+00,6.000000000000000000e+00,-6.900000000000000000e+01,-1.000000000000000000e+01,3.000000000000000000e+00,6.900000000000000000e+01,-2.900000000000000000e+01,2.600000000000000000e+01,9.499999999999999556e-01,2.107816200000000000e+09
-1.100000000000000000e+01,-2.200000000000000000e+01,-1.700000000000000000e+01,-1.800000000000000000e+01,-9.000000000000000000e+00,-8.000000000000000000e+01,2.200000000000000000e+01,-3.800000000000000000e+01,9.499999999999999556e-01,2.107829000000000000e+09
-9.000000000000000000e+00,-3.000000000000000000e+00,-2.800000000000000000e+01,-5.000000000000000000e+00,-4.000000000000000000e+00,3.200000000000000000e+01,8.000000000000000000e+00,-4.000000000000000000e+00,9.499999999999999556e-01,2.107837900000000000e+09
-1.400000000000000000e+01,4.700000000000000000e+01,8.200000000000000000e+01,0.000000000000000000e+00,8.000000000000000000e+00,1.100000000000000000e+01,1.700000000000000000e+01,-8.000000000000000000e+00,9.499999999999999556e-01,2.107848400000000000e+09
8.000000000000000000e+00,1.100000000000000000e+01,8.800000000000000000e+01,2.000000000000000000e+01,3.000000000000000000e+00,-5.000000000000000000e+00,0.000000000000000000e+00,1.100000000000000000e+01,9.399999999999999467e-01,2.124184400000000000e+09
-2.000000000000000000e+00,2.100000000000000000e+01,-5.400000000000000000e+01,2.000000000000000000e+00,4.000000000000000000e+00,-8.300000000000000000e+01,3.200000000000000000e+01,1.900000000000000000e+01,9.399999999999999467e-01,2.124195700000000000e+09
-2.000000000000000000e+01,-7.000000000000000000e+01,3.000000000000000000e+00,5.000000000000000000e+00,-2.000000000000000000e+00,4.500000000000000000e+01,5.000000000000000000e+00,-1.400000000000000000e+01,9.399999999999999467e-01,2.124204700000000000e+09
1.000000000000000000e+00,-3.000000000000000000e+00,-1.010000000000000000e+02,-2.000000000000000000e+01,-3.000000000000000000e+00,-2.400000000000000000e+01,-1.700000000000000000e+01,4.000000000000000000e+00,9.399999999999999467e-01,2.124213200000000000e+09
2.000000000000000000e+00,-2.400000000000000000e+01,4.500000000000000000e+01,2.700000000000000000e+01,4.000000000000000000e+00,6.200000000000000000e+01,-2.400000000000000000e+01,2.000000000000000000e+00,9.300000000000000488e-01,2.142745600000000000e+09
-2.200000000000000000e+01,2.400000000000000000e+01,4.200000000000000000e+01,-3.000000000000000000e+00,-8.000000000000000000e+00,2.000000000000000000e+00,6.400000000000000000e+01,-1.600000000000000000e+01,9.300000000000000488e-01,2.142760200000000000e+09
6.000000000000000000e+00,0.000000000000000000e+00,7.000000000000000000e+00,8.000000000000000000e+00,7.000000000000000000e+00,8.500000000000000000e+01,-6.600000000000000000e+01,1.600000000000000000e+01,9.300000000000000488e-01,2.142772200000000000e+09
8.000000000000000000e+00,6.000000000000000000e+00,6.200000000000000000e+01,2.000000000000000000e+00,-7.000000000000000000e+00,-6.900000000000000000e+01,1.700000000000000000e+01,2.000000000000000000e+00,9.300000000000000488e-01,2.142782400000000000e+09
2.300000000000000000e+01,-1.600000000000000000e+01,3.000000000000000000e+01,-1.100000000000000000e+01,2.000000000000000000e+00,6.100000000000000000e+01,1.100000000000000000e+01,0.000000000000000000e+00,9.200000000000000400e-01,2.164859200000000000e+09
-9.000000000000000000e+00,1.800000000000000000e+01,-1.020000000000000000e+02,-1.400000000000000000e+01,-1.300000000000000000e+01,-1.030000000000000000e+02,1.800000000000000000e+01,-1.200000000000000000e+01,9.200000000000000400e-01,2.164871600000000000e+09
-1.900000000000000000e+01,-2.000000000000000000e+00,4.000000000000000000e+00,-2.600000000000000000e+01,-9.000000000000000000e+00,3.600000000000000000e+01,5.000000000000000000e+00,-4.000000000000000000e+00,9.200000000000000400e-01,2.164891500000000000e+09
1.100000000000000000e+01,1.400000000000000000e+01,1.400000000000000000e+01,7.000000000000000000e+00,3.000000000000000000e+00,6.600000000000000000e+01,0.000000000000000000e+00,4.400000000000000000e+01,9.200000000000000400e-01,2.164901800000000000e+09
2.900000000000000000e+01,1.300000000000000000e+01,7.700000000000000000e+01,9.000000000000000000e+00,9.000000000000000000e+00,-3.000000000000000000e+00,0.000000000000000000e+00,6.300000000000000000e+01,9.100000000000000311e-01,2.183809400000000000e+09
9.000000000000000000e+00,-1.400000000000000000e+01,-1.700000000000000000e+01,1.100000000000000000e+01,6.000000000000000000e+00,-7.400000000000000000e+01,5.000000000000000000e+00,3.400000000000000000e+01,9.100000000000000311e-01,2.183820100000000000e+09
0.000000000000000000e+00,-6.200000000000000000e+01,-5.700000000000000000e+01,-1.300000000000000000e+01,-6.000000000000000000e+00,-3.000000000000000000e+01,4.600000000000000000e+01,2.000000000000000000e+00,9.100000000000000311e-01,2.183829000000000000e+09
-2.100000000000000000e+01,-2.000000000000000000e+00,1.000000000000000000e+01,-2.000000000000000000e+00,3.000000000000000000e+00,2.200000000000000000e+01,-2.300000000000000000e+01,-1.800000000000000000e+01,9.100000000000000311e-01,2.183836700000000000e+09
-9.000000000000000000e+00,-9.000000000000000000e+00,-5.700000000000000000e+01,-1.000000000000000000e+01,-2.000000000000000000e+00,-2.800000000000000000e+01,-9.000000000000000000e+00,-1.000000000000000000e+01,9.100000000000000311e-01,2.183844900000000000e+09
-2.000000000000000000e+00,2.000000000000000000e+01,3.700000000000000000e+01,-2.000000000000000000e+00,-1.000000000000000000e+00,3.400000000000000000e+01,3.000000000000000000e+01,-1.600000000000000000e+01,9.100000000000000311e-01,2.183874900000000000e+09
8.000000000000000000e+00,-8.000000000000000000e+00,3.400000000000000000e+01,-3.000000000000000000e+00,-5.000000000000000000e+00,-4.600000000000000000e+01,5.000000000000000000e+00,2.000000000000000000e+00,9.000000000000000222e-01,2.202798100000000000e+09
9.000000000000000000e+00,-6.800000000000000000e+01,1.000000000000000000e+01,-8.000000000000000000e+00,9.000000000000000000e+00,3.600000000000000000e+01,1.200000000000000000e+01,1.000000000000000000e+00,9.000000000000000222e-01,2.202809000000000000e+09
-1.300000000000000000e+01,8.000000000000000000e+00,4.200000000000000000e+01,1.600000000000000000e+01,-5.000000000000000000e+00,-1.000000000000000000e+00,-1.400000000000000000e+01,-1.500000000000000000e+01,8.900000000000000133e-01,2.224413000000000000e+09
-4.900000000000000000e+01,-2.200000000000000000e+01,-9.600000000000000000e+01,-1.200000000000000000e+01,-4.000000000000000000e+00,-9.000000000000000000e+00,-3.000000000000000000e+00,-3.000000000000000000e+00,8.900000000000000133e-01,2.224424300000000000e+09
-6.000000000000000000e+00,-1.800000000000000000e+01,2.400000000000000000e+01,1.400000000000000000e+01,-3.000000000000000000e+00,-4.000000000000000000e+00,-1.900000000000000000e+01,-7.000000000000000000e+00,8.900000000000000133e-01,2.224432900000000000e+09
1.000000000000000000e+00,2.100000000000000000e+01,3.500000000000000000e+01,9.000000000000000000e+00,2.000000000000000000e+00,8.200000000000000000e+01,-1.200000000000000000e+01,-1.600000000000000000e+01,8.900000000000000133e-01,2.224443200000000000e+09
-8.000000000000000000e+00,3.900000000000000000e+01,9.100000000000000000e+01,-1.100000000000000000e+01,0.000000000000000000e+00,-1.030000000000000000e+02,8.000000000000000000e+00,-1.400000000000000000e+01,8.800000000000000044e-01,2.242695000000000000e+09
4.000000000000000000e+00,2.600000000000000000e+01,-1.600000000000000000e+01,5.000000000000000000e+00,1.000000000000000000e+00,-4.300000000000000000e+01,-3.300000000000000000e+01,-4.000000000000000000e+00,8.800000000000000044e-01,2.242704700000000000e+09
4.000000000000000000e+00,1.600000000000000000e+01,-3.000000000000000000e+00,-9.000000000000000000e+00,6.000000000000000000e+00,9.400000000000000000e+01,-1.100000000000000000e+01,8.000000000000000000e+00,8.800000000000000044e-01,2.242712700000000000e+09
-2.000000000000000000e+01,-2.000000000000000000e+00,-1.000000000000000000e+00,9.000000000000000000e+00,-7.000000000000000000e+00,-6.600000000000000000e+01,1.100000000000000000e+01,-1.500000000000000000e+01,8.800000000000000044e-01,2.242720800000000000e+09
-9.000000000000000000e+00,-6.000000000000000000e+00,-9.300000000000000000e+01,-5.000000000000000000e+00,-5.000000000000000000e+00,3.700000000000000000e+01,-1.000000000000000000e+00,-9.000000000000000000e+00,8.800000000000000044e-01,2.242728200000000000e+09
8.000000000000000000e+00,-2.000000000000000000e+00,9.100000000000000000e+01,8.000000000000000000e+00,1.000000000000000000e+00,-2.000000000000000000e+01,-1.100000000000000000e+01,2.000000000000000000e+01,8.800000000000000044e-01,2.242738900000000000e+09
-1.000000000000000000e+00,-4.900000000000000000e+01,-1.000000000000000000e+01,-8.000000000000000000e+00,0.000000000000000000e+00,2.300000000000000000e+01,-2.200000000000000000e+01,-7.000000000000000000e+00,8.699999999999999956e-01,2.262908000000000000e+09
1.000000000000000000e+01,3.000000000000000000e+00,-4.400000000000000000e+01,1.000000000000000000e+00,3.000000000000000000e+00,2.600000000000000000e+01,2.600000000000000000e+01,4.000000000000000000e+00,8.699999999999999956e-01,2.262918900000000000e+09
-8.000000000000000000e+00,0.000000000000000000e+00,2.000000000000000000e+01,4.000000000000000000e+00,-1.000000000000000000e+00,2.000000000000000000e+00,3.700000000000000000e+01,3.000000000000000000e+00,8.599999999999999867e-01,2.284765100000000000e+09
8.000000000000000000e+00,5.000000000000000000e+00,8.000000000000000000e+00,-6.000000000000000000e+00,-1.000000000000000000e+00,-1.400000000000000000e+01,-5.200000000000000000e+01,-2.000000000000000000e+00,8.599999999999999867e-01,2.284778400000000000e+09
-4.000000000000000000e+00,-1.400000000000000000e+01,-9.000000000000000000e+00,8.000000000000000000e+00,1.000000000000000000e+00,-2.100000000000000000e+01,1.400000000000000000e+01,1.000000000000000000e+00,8.599999999999999867e-01,2.284787500000000000e+09
2.400000000000000000e+01,2.100000000000000000e+01,1.300000000000000000e+01,-4.000000000000000000e+00,-9.000000000000000000e+00,1.300000000000000000e+01,-2.300000000000000000e+01,-4.000000000000000000e+00,8.599999999999999867e-01,2.284831900000000000e+09
-8.000000000000000000e+00,-3.100000000000000000e+01,-1.060000000000000000e+02,-1.500000000000000000e+01,-6.000000000000000000e+00,4.000000000000000000e+00,2.800000000000000000e+01,-7.000000000000000000e+00,8.499999999999999778e-01,2.303861700000000000e+09
-8.000000000000000000e+00,-3.100000000000000000e+01,0.000000000000000000e+00,2.000000000000000000e+00,6.000000000000000000e+00,0.000000000000000000e+00,-2.000000000000000000e+01,-1.200000000000000000e+01,8.499999999999999778e-01,2.303874100000000000e+09
2.000000000000000000e+00,4.000000000000000000e+00,2.400000000000000000e+01,-3.000000000000000000e+00,-1.000000000000000000e+00,-1.400000000000000000e+01,4.000000000000000000e+00,1.100000000000000000e+01,8.499999999999999778e-01,2.303882600000000000e+09
1.000000000000000000e+00,1.500000000000000000e+01,-3.000000000000000000e+00,3.000000000000000000e+00,-4.000000000000000000e+00,-1.000000000000000000e+01,1.200000000000000000e+01,-1.200000000000000000e+01,8.499999999999999778e-01,2.303895200000000000e+09
-9.000000000000000000e+00,-1.700000000000000000e+01,1.300000000000000000e+01,-1.300000000000000000e+01,-6.000000000000000000e+00,1.000000000000000000e+00,-3.400000000000000000e+01,-6.000000000000000000e+00,8.499999999999999778e-01,2.303902700000000000e+09
-3.000000000000000000e+00,-1.100000000000000000e+01,-5.300000000000000000e+01,-4.000000000000000000e+00,-7.000000000000000000e+00,-5.000000000000000000e+00,5.000000000000000000e+00,-8.000000000000000000e+00,8.499999999999999778e-01,2.303932700000000000e+09
-1.200000000000000000e+01,-3.600000000000000000e+01,-1.200000000000000000e+02,-2.100000000000000000e+01,-7.000000000000000000e+00,4.700000000000000000e+01,-6.000000000000000000e+00,-6.000000000000000000e+00,8.399999999999999689e-01,2.322619300000000000e+09
4.000000000000000000e+00,2.100000000000000000e+01,8.100000000000000000e+01,5.000000000000000000e+00,-2.000000000000000000e+00,-9.500000000000000000e+01,9.000000000000000000e+00,-1.000000000000000000e+00,8.399999999999999689e-01,2.322630800000000000e+09
1.400000000000000000e+01,2.200000000000000000e+01,-3.200000000000000000e+01,1.700000000000000000e+01,1.200000000000000000e+01,-1.000000000000000000e+00,-4.000000000000000000e+01,2.000000000000000000e+00,8.299999999999999600e-01,2.343986600000000000e+09
-3.000000000000000000e+00,1.500000000000000000e+01,4.900000000000000000e+01,-5.000000000000000000e+00,-2.000000000000000000e+00,3.000000000000000000e+01,9.000000000000000000e+00,-4.000000000000000000e+00,8.299999999999999600e-01,2.344012400000000000e+09
6.000000000000000000e+00,2.300000000000000000e+01,-3.400000000000000000e+01,1.300000000000000000e+01,0.000000000000000000e+00,2.500000000000000000e+01,7.000000000000000000e+00,-1.000000000000000000e+00,8.299999999999999600e-01,2.344047000000000000e+09
2.000000000000000000e+00,5.000000000000000000e+00,-2.500000000000000000e+01,-9.000000000000000000e+00,0.000000000000000000e+00,-1.000000000000000000e+01,2.200000000000000000e+01,-1.000000000000000000e+00,8.299999999999999600e-01,2.344056800000000000e+09
2.400000000000000000e+01,9.000000000000000000e+00,5.100000000000000000e+01,-1.000000000000000000e+01,2.000000000000000000e+00,2.000000000000000000e+01,-1.100000000000000000e+01,9.000000000000000000e+00,8.100000000000000533e-01,2.384628000000000000e+09
1.000000000000000000e+00,-1.000000000000000000e+01,-5.600000000000000000e+01,2.000000000000000000e+00,-7.000000000000000000e+00,-1.050000000000000000e+02,4.100000000000000000e+01,2.300000000000000000e+01,8.100000000000000533e-01,2.384639200000000000e+09
-5.000000000000000000e+00,6.000000000000000000e+00,3.900000000000000000e+01,1.700000000000000000e+01,-1.000000000000000000e+00,4.000000000000000000e+00,1.300000000000000000e+01,1.000000000000000000e+00,8.100000000000000533e-01,2.384647600000000000e+09
-1.000000000000000000e+00,-1.400000000000000000e+01,1.100000000000000000e+01,-4.000000000000000000e+00,1.000000000000000000e+00,2.300000000000000000e+01,-1.700000000000000000e+01,-1.000000000000000000e+00,8.100000000000000533e-01,2.384656100000000000e+09
