3.000000000000000000e+00,8.000000000000000000e+00,6.200000000000000000e+01,1.000000000000000000e+00,-2.000000000000000000e+00,2.000000000000000000e+00,-5.000000000000000000e+00,1.000000000000000000e+00,2.999999999999999889e-02,1.737640000000000000e+07
-4.000000000000000000e+00,1.400000000000000000e+01,-1.000000000000000000e+01,-1.000000000000000000e+00,-3.000000000000000000e+00,-4.000000000000000000e+00,-5.000000000000000000e+00,-2.000000000000000000e+00,2.999999999999999889e-02,1.738740000000000000e+07
-2.000000000000000000e+00,-4.000000000000000000e+00,-1.030000000000000000e+02,-5.000000000000000000e+00,1.000000000000000000e+00,-2.000000000000000000e+00,4.000000000000000000e+00,-4.000000000000000000e+00,2.999999999999999889e-02,1.739580000000000000e+07
-5.000000000000000000e+00,-8.000000000000000000e+00,4.800000000000000000e+01,-9.000000000000000000e+00,-2.000000000000000000e+00,7.000000000000000000e+00,-1.000000000000000000e+00,2.100000000000000000e+01,2.999999999999999889e-02,1.740400000000000000e+07
5.000000000000000000e+00,4.200000000000000000e+01,2.700000000000000000e+01,9.000000000000000000e+00,4.000000000000000000e+00,-1.900000000000000000e+01,-5.000000000000000000e+00,2.000000000000000000e+00,4.000000000000000083e-02,3.232187000000000000e+08
3.000000000000000000e+00,5.000000000000000000e+00,4.700000000000000000e+01,7.000000000000000000e+00,3.000000000000000000e+00,9.000000000000000000e+00,0.000000000000000000e+00,-3.000000000000000000e+00,4.000000000000000083e-02,3.232291000000000000e+08
-4.000000000000000000e+00,-2.800000000000000000e+01,-8.400000000000000000e+01,-1.100000000000000000e+01,-5.000000000000000000e+00,-9.000000000000000000e+00,-1.000000000000000000e+00,-5.000000000000000000e+00,4.000000000000000083e-02,3.232379000000000000e+08
-4.000000000000000000e+00,1.700000000000000000e+01,-2.200000000000000000e+01,-4.000000000000000000e+00,-4.000000000000000000e+00,-1.800000000000000000e+01,1.000000000000000000e+00,-4.000000000000000000e+00,4.000000000000000083e-02,3.232455000000000000e+08
2.000000000000000000e+00,7.000000000000000000e+00,2.200000000000000000e+01,2.000000000000000000e+00,1.000000000000000000e+00,1.500000000000000000e+01,-3.000000000000000000e+00,2.000000000000000000e+00,4.000000000000000083e-02,3.232531000000000000e+08
5.000000000000000000e+00,1.100000000000000000e+01,4.800000000000000000e+01,8.000000000000000000e+00,1.000000000000000000e+00,-1.300000000000000000e+01,-2.000000000000000000e+00,-4.000000000000000000e+00,4.000000000000000083e-02,3.232605000000000000e+08
-9.000000000000000000e+00,-3.400000000000000000e+01,-1.280000000000000000e+02,-2.000000000000000000e+01,-5.000000000000000000e+00,-3.000000000000000000e+00,-3.000000000000000000e+00,-3.000000000000000000e+00,4.000000000000000083e-02,3.232724000000000000e+08
2.000000000000000000e+00,6.000000000000000000e+00,2.100000000000000000e+01,-1.000000000000000000e+00,1.000000000000000000e+00,3.000000000000000000e+00,-1.000000000000000000e+00,1.000000000000000000e+00,4.000000000000000083e-02,3.232797000000000000e+08
-1.000000000000000000e+00,-8.000000000000000000e+00,2.300000000000000000e+01,-1.000000000000000000e+00,-2.000000000000000000e+00,8.000000000000000000e+00,1.400000000000000000e+01,1.000000000000000000e+00,4.000000000000000083e-02,3.232871000000000000e+08
3.000000000000000000e+00,1.000000000000000000e+00,-6.900000000000000000e+01,-3.000000000000000000e+00,-3.000000000000000000e+00,-1.300000000000000000e+01,-4.600000000000000000e+01,-1.000000000000000000e+00,4.000000000000000083e-02,3.232957000000000000e+08
-3.000000000000000000e+00,-1.100000000000000000e+01,2.800000000000000000e+01,-3.000000000000000000e+00,0.000000000000000000e+00,2.000000000000000000e+00,0.000000000000000000e+00,-1.000000000000000000e+00,4.000000000000000083e-02,3.233031000000000000e+08
4.000000000000000000e+00,-1.200000000000000000e+01,1.900000000000000000e+01,2.000000000000000000e+00,-1.000000000000000000e+00,-1.000000000000000000e+00,-2.000000000000000000e+00,1.000000000000000000e+00,4.000000000000000083e-02,3.233106000000000000e+08
-4.000000000000000000e+00,-1.300000000000000000e+01,6.000000000000000000e+00,4.000000000000000000e+00,2.000000000000000000e+00,-2.000000000000000000e+00,2.000000000000000000e+00,1.000000000000000000e+00,4.000000000000000083e-02,3.233192000000000000e+08
0.000000000000000000e+00,2.600000000000000000e+01,1.600000000000000000e+01,0.000000000000000000e+00,2.000000000000000000e+00,2.000000000000000000e+00,2.000000000000000000e+00,3.000000000000000000e+00,4.000000000000000083e-02,3.233270000000000000e+08
2.000000000000000000e+00,-4.000000000000000000e+00,-2.700000000000000000e+01,4.000000000000000000e+00,2.000000000000000000e+00,3.000000000000000000e+00,-1.000000000000000000e+00,-1.000000000000000000e+00,4.000000000000000083e-02,3.233345000000000000e+08
-2.000000000000000000e+00,0.000000000000000000e+00,-1.400000000000000000e+01,-8.000000000000000000e+00,-5.000000000000000000e+00,-6.000000000000000000e+00,-1.000000000000000000e+00,-5.000000000000000000e+00,4.000000000000000083e-02,3.233419000000000000e+08
0.000000000000000000e+00,2.200000000000000000e+01,-5.900000000000000000e+01,-4.000000000000000000e+00,-2.000000000000000000e+00,-8.000000000000000000e+00,-3.000000000000000000e+00,2.000000000000000000e+00,4.000000000000000083e-02,3.233492000000000000e+08
-1.100000000000000000e+01,-3.800000000000000000e+01,-5.900000000000000000e+01,-1.200000000000000000e+01,-9.000000000000000000e+00,-5.000000000000000000e+00,-4.000000000000000000e+00,3.000000000000000000e+00,4.000000000000000083e-02,3.233569000000000000e+08
3.000000000000000000e+00,1.500000000000000000e+01,3.000000000000000000e+00,0.000000000000000000e+00,0.000000000000000000e+00,3.000000000000000000e+00,2.000000000000000000e+00,-6.000000000000000000e+00,4.000000000000000083e-02,3.233644000000000000e+08
0.000000000000000000e+00,-4.400000000000000000e+01,4.900000000000000000e+01,3.000000000000000000e+00,4.000000000000000000e+00,6.000000000000000000e+00,0.000000000000000000e+00,-1.000000000000000000e+00,4.000000000000000083e-02,3.233716000000000000e+08
5.000000000000000000e+00,2.400000000000000000e+01,-3.000000000000000000e+00,1.000000000000000000e+01,3.000000000000000000e+00,1.000000000000000000e+01,3.000000000000000000e+00,0.000000000000000000e+00,4.000000000000000083e-02,3.233791000000000000e+08
-1.000000000000000000e+01,-1.600000000000000000e+01,-1.700000000000000000e+01,-1.700000000000000000e+01,-6.000000000000000000e+00,-1.100000000000000000e+01,-7.000000000000000000e+00,-4.000000000000000000e+00,4.000000000000000083e-02,3.233867000000000000e+08
1.000000000000000000e+00,1.500000000000000000e+01,7.000000000000000000e+01,2.000000000000000000e+00,0.000000000000000000e+00,0.000000000000000000e+00,1.000000000000000000e+00,0.000000000000000000e+00,4.000000000000000083e-02,3.233937000000000000e+08
-2.000000000000000000e+00,7.000000000000000000e+00,5.400000000000000000e+01,-4.000000000000000000e+00,-3.000000000000000000e+00,1.800000000000000000e+01,2.000000000000000000e+00,1.000000000000000000e+00,4.000000000000000083e-02,3.234010000000000000e+08
-3.000000000000000000e+00,8.000000000000000000e+00,6.100000000000000000e+01,4.000000000000000000e+00,2.000000000000000000e+00,-2.000000000000000000e+01,4.000000000000000000e+00,-3.000000000000000000e+00,4.000000000000000083e-02,3.234083000000000000e+08
3.000000000000000000e+00,4.000000000000000000e+00,-1.000000000000000000e+00,-1.000000000000000000e+00,-2.000000000000000000e+00,1.000000000000000000e+00,0.000000000000000000e+00,2.000000000000000000e+00,4.000000000000000083e-02,3.234156000000000000e+08
3.000000000000000000e+00,2.400000000000000000e+01,2.100000000000000000e+01,6.000000000000000000e+00,3.000000000000000000e+00,2.000000000000000000e+00,-4.000000000000000000e+00,0.000000000000000000e+00,4.000000000000000083e-02,3.234233000000000000e+08
0.000000000000000000e+00,-5.000000000000000000e+00,-2.800000000000000000e+01,1.000000000000000000e+00,0.000000000000000000e+00,5.000000000000000000e+00,0.000000000000000000e+00,1.000000000000000000e+00,4.000000000000000083e-02,3.234304000000000000e+08
0.000000000000000000e+00,-7.000000000000000000e+00,0.000000000000000000e+00,-4.000000000000000000e+00,-1.000000000000000000e+00,6.000000000000000000e+00,1.800000000000000000e+01,2.000000000000000000e+00,4.000000000000000083e-02,3.234376000000000000e+08
-3.000000000000000000e+00,2.000000000000000000e+00,2.300000000000000000e+01,-1.000000000000000000e+00,-1.000000000000000000e+00,-8.000000000000000000e+00,-2.600000000000000000e+01,-3.000000000000000000e+00,4.000000000000000083e-02,3.234455000000000000e+08
-2.000000000000000000e+00,-2.000000000000000000e+00,6.000000000000000000e+00,0.000000000000000000e+00,1.000000000000000000e+00,-8.000000000000000000e+00,-1.000000000000000000e+00,-1.000000000000000000e+00,4.000000000000000083e-02,3.234527000000000000e+08
2.000000000000000000e+00,4.000000000000000000e+00,-4.000000000000000000e+01,3.000000000000000000e+00,3.000000000000000000e+00,4.000000000000000000e+00,4.000000000000000000e+00,3.000000000000000000e+00,4.000000000000000083e-02,3.234599000000000000e+08
-3.000000000000000000e+00,-1.800000000000000000e+01,2.000000000000000000e+00,-6.000000000000000000e+00,-3.000000000000000000e+00,6.000000000000000000e+00,-2.000000000000000000e+00,-2.000000000000000000e+00,4.000000000000000083e-02,3.234670000000000000e+08
-3.000000000000000000e+00,-1.000000000000000000e+00,-4.100000000000000000e+01,-7.000000000000000000e+00,-3.000000000000000000e+00,1.200000000000000000e+01,6.000000000000000000e+00,-4.000000000000000000e+00,4.000000000000000083e-02,3.234743000000000000e+08
-1.000000000000000000e+00,-1.000000000000000000e+01,6.300000000000000000e+01,-3.000000000000000000e+00,-4.000000000000000000e+00,-2.000000000000000000e+01,-1.000000000000000000e+00,1.000000000000000000e+00,4.000000000000000083e-02,3.234816000000000000e+08
1.000000000000000000e+00,8.000000000000000000e+00,-4.200000000000000000e+01,-4.000000000000000000e+00,-3.000000000000000000e+00,-1.500000000000000000e+01,0.000000000000000000e+00,-1.000000000000000000e+00,4.000000000000000083e-02,3.234901000000000000e+08
-2.000000000000000000e+00,4.000000000000000000e+00,1.400000000000000000e+01,5.000000000000000000e+00,-1.000000000000000000e+00,2.000000000000000000e+00,-1.000000000000000000e+00,-3.000000000000000000e+00,4.000000000000000083e-02,3.234974000000000000e+08
1.000000000000000000e+01,2.300000000000000000e+01,-8.400000000000000000e+01,7.000000000000000000e+00,3.000000000000000000e+00,6.000000000000000000e+00,3.000000000000000000e+00,2.000000000000000000e+00,4.000000000000000083e-02,3.235047000000000000e+08
-2.700000000000000000e+01,-5.200000000000000000e+01,-1.100000000000000000e+01,-3.400000000000000000e+01,-1.300000000000000000e+01,-6.000000000000000000e+00,-1.400000000000000000e+01,-1.000000000000000000e+01,4.000000000000000083e-02,3.235120000000000000e+08
-4.000000000000000000e+00,-7.000000000000000000e+00,1.100000000000000000e+01,-2.000000000000000000e+00,-3.000000000000000000e+00,3.000000000000000000e+00,-2.000000000000000000e+00,-2.000000000000000000e+00,4.000000000000000083e-02,3.235193000000000000e+08
5.000000000000000000e+00,1.400000000000000000e+01,1.200000000000000000e+01,6.000000000000000000e+00,2.000000000000000000e+00,4.000000000000000000e+00,1.000000000000000000e+00,2.000000000000000000e+00,4.000000000000000083e-02,3.235268000000000000e+08
-3.000000000000000000e+00,-1.700000000000000000e+01,4.900000000000000000e+01,1.200000000000000000e+01,4.000000000000000000e+00,3.000000000000000000e+00,0.000000000000000000e+00,3.000000000000000000e+00,4.000000000000000083e-02,3.235348000000000000e+08
3.000000000000000000e+00,3.400000000000000000e+01,3.000000000000000000e+01,1.100000000000000000e+01,3.000000000000000000e+00,5.000000000000000000e+00,-3.000000000000000000e+00,-1.000000000000000000e+00,4.000000000000000083e-02,3.235419000000000000e+08
7.000000000000000000e+00,4.000000000000000000e+00,5.500000000000000000e+01,1.000000000000000000e+01,2.000000000000000000e+00,-2.000000000000000000e+00,4.000000000000000000e+00,2.000000000000000000e+00,4.000000000000000083e-02,3.235489000000000000e+08
-9.000000000000000000e+00,-4.100000000000000000e+01,-1.280000000000000000e+02,-4.300000000000000000e+01,-1.300000000000000000e+01,-7.000000000000000000e+00,-5.000000000000000000e+00,-8.000000000000000000e+00,4.000000000000000083e-02,3.235570000000000000e+08
3.000000000000000000e+00,1.200000000000000000e+01,5.600000000000000000e+01,8.000000000000000000e+00,1.000000000000000000e+00,-3.000000000000000000e+00,1.000000000000000000e+00,-2.000000000000000000e+00,4.000000000000000083e-02,3.236494000000000000e+08
1.000000000000000000e+00,2.000000000000000000e+00,4.300000000000000000e+01,5.000000000000000000e+00,-1.000000000000000000e+00,-1.000000000000000000e+00,-2.000000000000000000e+00,0.000000000000000000e+00,4.000000000000000083e-02,3.236657000000000000e+08
0.000000000000000000e+00,1.100000000000000000e+01,1.100000000000000000e+01,9.000000000000000000e+00,1.000000000000000000e+00,-1.000000000000000000e+00,-1.000000000000000000e+00,0.000000000000000000e+00,4.000000000000000083e-02,3.236738000000000000e+08
1.000000000000000000e+00,-2.000000000000000000e+00,2.700000000000000000e+01,4.000000000000000000e+00,2.000000000000000000e+00,-5.000000000000000000e+00,-1.000000000000000000e+00,1.000000000000000000e+00,4.000000000000000083e-02,3.236814000000000000e+08
2.000000000000000000e+00,-2.000000000000000000e+00,-9.000000000000000000e+00,2.000000000000000000e+00,0.000000000000000000e+00,1.300000000000000000e+01,-1.000000000000000000e+00,-4.000000000000000000e+00,4.000000000000000083e-02,3.236893000000000000e+08
-3.000000000000000000e+00,-1.600000000000000000e+01,-1.130000000000000000e+02,-1.000000000000000000e+01,0.000000000000000000e+00,-1.000000000000000000e+01,-4.000000000000000000e+00,-7.000000000000000000e+00,4.000000000000000083e-02,3.236975000000000000e+08
-1.200000000000000000e+01,0.000000000000000000e+00,4.000000000000000000e+01,-8.000000000000000000e+00,-6.000000000000000000e+00,1.600000000000000000e+01,7.000000000000000000e+00,-1.200000000000000000e+01,4.000000000000000083e-02,3.237047000000000000e+08
2.000000000000000000e+00,3.000000000000000000e+00,-8.000000000000000000e+00,3.000000000000000000e+00,0.000000000000000000e+00,-1.100000000000000000e+01,-6.000000000000000000e+00,-1.000000000000000000e+00,4.000000000000000083e-02,3.237119000000000000e+08
3.000000000000000000e+00,2.000000000000000000e+01,7.000000000000000000e+01,6.000000000000000000e+00,-1.000000000000000000e+00,-2.200000000000000000e+01,-4.000000000000000000e+00,-2.000000000000000000e+00,4.000000000000000083e-02,3.237194000000000000e+08
6.000000000000000000e+00,7.000000000000000000e+00,5.100000000000000000e+01,1.000000000000000000e+01,5.000000000000000000e+00,7.000000000000000000e+00,3.000000000000000000e+00,1.000000000000000000e+00,4.000000000000000083e-02,3.237271000000000000e+08
-6.000000000000000000e+00,-1.600000000000000000e+01,-1.240000000000000000e+02,-1.700000000000000000e+01,-4.000000000000000000e+00,3.000000000000000000e+00,-4.000000000000000000e+00,-3.000000000000000000e+00,4.000000000000000083e-02,3.237345000000000000e+08
-1.300000000000000000e+01,-3.300000000000000000e+01,-4.200000000000000000e+01,-1.300000000000000000e+01,-5.000000000000000000e+00,3.000000000000000000e+00,-2.000000000000000000e+00,-5.000000000000000000e+00,4.000000000000000083e-02,3.237416000000000000e+08
8.000000000000000000e+00,2.600000000000000000e+01,1.200000000000000000e+01,1.800000000000000000e+01,6.000000000000000000e+00,4.000000000000000000e+00,0.000000000000000000e+00,7.000000000000000000e+00,4.000000000000000083e-02,3.237488000000000000e+08
-1.300000000000000000e+01,-2.200000000000000000e+01,9.100000000000000000e+01,-1.200000000000000000e+01,-7.000000000000000000e+00,-5.000000000000000000e+00,0.000000000000000000e+00,-4.000000000000000000e+00,4.000000000000000083e-02,3.237559000000000000e+08
-1.000000000000000000e+00,1.000000000000000000e+01,3.700000000000000000e+01,4.000000000000000000e+00,0.000000000000000000e+00,3.000000000000000000e+00,-1.000000000000000000e+00,-2.000000000000000000e+00,4.000000000000000083e-02,3.237633000000000000e+08
2.000000000000000000e+00,1.900000000000000000e+01,6.800000000000000000e+01,4.000000000000000000e+00,-3.000000000000000000e+00,-4.000000000000000000e+00,1.000000000000000000e+00,-1.000000000000000000e+00,1.900000000000000022e-01,3.416119000000000000e+08
7.000000000000000000e+00,4.000000000000000000e+00,-1.050000000000000000e+02,8.000000000000000000e+00,8.000000000000000000e+00,2.000000000000000000e+00,2.000000000000000000e+00,3.000000000000000000e+00,1.900000000000000022e-01,3.416236000000000000e+08
-1.600000000000000000e+01,-5.500000000000000000e+01,-1.050000000000000000e+02,-4.000000000000000000e+01,-1.700000000000000000e+01,-1.200000000000000000e+01,-7.000000000000000000e+00,-8.000000000000000000e+00,1.900000000000000022e-01,3.416325000000000000e+08
1.900000000000000000e+01,6.500000000000000000e+01,1.130000000000000000e+02,1.800000000000000000e+01,6.000000000000000000e+00,2.000000000000000000e+00,4.000000000000000000e+00,1.000000000000000000e+01,1.900000000000000022e-01,3.416401000000000000e+08
-8.000000000000000000e+00,-8.000000000000000000e+00,1.170000000000000000e+02,-1.100000000000000000e+01,-3.000000000000000000e+00,-1.000000000000000000e+00,-4.000000000000000000e+00,-5.000000000000000000e+00,2.000000000000000111e-01,3.628101000000000000e+08
1.000000000000000000e+00,1.000000000000000000e+01,7.000000000000000000e+00,5.000000000000000000e+00,1.000000000000000000e+00,0.000000000000000000e+00,0.000000000000000000e+00,1.000000000000000000e+00,2.000000000000000111e-01,3.628208000000000000e+08
3.000000000000000000e+00,1.700000000000000000e+01,3.900000000000000000e+01,1.100000000000000000e+01,4.000000000000000000e+00,2.000000000000000000e+00,1.000000000000000000e+00,1.000000000000000000e+00,2.000000000000000111e-01,3.628330000000000000e+08
5.000000000000000000e+00,1.500000000000000000e+01,2.400000000000000000e+01,1.200000000000000000e+01,2.000000000000000000e+00,2.000000000000000000e+00,3.000000000000000000e+00,1.000000000000000000e+00,2.000000000000000111e-01,3.628408000000000000e+08
-4.000000000000000000e+00,-2.400000000000000000e+01,5.100000000000000000e+01,1.000000000000000000e+00,0.000000000000000000e+00,-1.000000000000000000e+00,1.000000000000000000e+00,-4.000000000000000000e+00,2.000000000000000111e-01,3.628493000000000000e+08
-2.000000000000000000e+00,-2.000000000000000000e+00,-8.100000000000000000e+01,-8.000000000000000000e+00,-4.000000000000000000e+00,-4.000000000000000000e+00,-2.000000000000000000e+00,0.000000000000000000e+00,2.000000000000000111e-01,3.628568000000000000e+08
-3.000000000000000000e+00,0.000000000000000000e+00,1.300000000000000000e+01,-3.000000000000000000e+00,-1.000000000000000000e+00,1.000000000000000000e+00,1.100000000000000000e+01,-1.700000000000000000e+01,2.099999999999999922e-01,3.790204000000000000e+08
6.000000000000000000e+00,1.000000000000000000e+00,8.300000000000000000e+01,7.000000000000000000e+00,3.000000000000000000e+00,-3.000000000000000000e+00,-6.000000000000000000e+00,0.000000000000000000e+00,2.099999999999999922e-01,3.790308000000000000e+08
-2.600000000000000000e+01,-5.300000000000000000e+01,-1.280000000000000000e+02,-4.400000000000000000e+01,-1.900000000000000000e+01,-8.000000000000000000e+00,-4.000000000000000000e+00,-9.000000000000000000e+00,2.200000000000000011e-01,4.025986000000000000e+08
0.000000000000000000e+00,-1.400000000000000000e+01,-6.000000000000000000e+01,-4.000000000000000000e+00,0.000000000000000000e+00,2.000000000000000000e+00,2.000000000000000000e+00,0.000000000000000000e+00,2.200000000000000011e-01,4.026113000000000000e+08
5.000000000000000000e+00,1.000000000000000000e+01,-8.100000000000000000e+01,1.000000000000000000e+01,4.000000000000000000e+00,0.000000000000000000e+00,3.000000000000000000e+00,5.000000000000000000e+00,2.200000000000000011e-01,4.026239000000000000e+08
-2.000000000000000000e+00,-1.600000000000000000e+01,-3.900000000000000000e+01,-5.000000000000000000e+00,-1.000000000000000000e+00,0.000000000000000000e+00,-3.000000000000000000e+00,-4.000000000000000000e+00,2.200000000000000011e-01,4.026407000000000000e+08
-3.000000000000000000e+00,3.000000000000000000e+00,6.700000000000000000e+01,2.000000000000000000e+00,2.000000000000000000e+00,1.000000000000000000e+00,4.000000000000000000e+00,2.000000000000000000e+00,2.300000000000000100e-01,4.232090000000000000e+08
8.000000000000000000e+00,8.000000000000000000e+00,-3.900000000000000000e+01,1.600000000000000000e+01,1.000000000000000000e+00,4.000000000000000000e+00,-1.000000000000000000e+00,2.000000000000000000e+00,2.300000000000000100e-01,4.232205000000000000e+08
1.800000000000000000e+01,7.000000000000000000e+01,1.270000000000000000e+02,3.300000000000000000e+01,1.200000000000000000e+01,-8.000000000000000000e+00,1.000000000000000000e+01,9.000000000000000000e+00,2.300000000000000100e-01,4.232287000000000000e+08
-2.600000000000000000e+01,-8.600000000000000000e+01,-1.280000000000000000e+02,-5.500000000000000000e+01,-1.600000000000000000e+01,-1.200000000000000000e+01,-9.000000000000000000e+00,-1.200000000000000000e+01,2.300000000000000100e-01,4.232366000000000000e+08
-1.800000000000000000e+01,-1.050000000000000000e+02,-4.400000000000000000e+01,-1.600000000000000000e+01,-8.000000000000000000e+00,-6.000000000000000000e+00,-7.000000000000000000e+00,-8.000000000000000000e+00,2.300000000000000100e-01,4.232450000000000000e+08
6.000000000000000000e+00,2.800000000000000000e+01,1.270000000000000000e+02,7.000000000000000000e+00,3.000000000000000000e+00,-3.000000000000000000e+00,-3.000000000000000000e+00,-2.000000000000000000e+00,2.300000000000000100e-01,4.232898000000000000e+08
2.000000000000000000e+00,1.600000000000000000e+01,-4.300000000000000000e+01,1.300000000000000000e+01,5.000000000000000000e+00,2.600000000000000000e+01,-4.000000000000000000e+00,-2.000000000000000000e+00,2.399999999999999911e-01,4.390122000000000000e+08
-1.300000000000000000e+01,-2.400000000000000000e+01,-1.280000000000000000e+02,-3.000000000000000000e+00,-6.000000000000000000e+00,-2.000000000000000000e+01,0.000000000000000000e+00,-8.000000000000000000e+00,2.399999999999999911e-01,4.390232000000000000e+08
2.000000000000000000e+00,1.000000000000000000e+01,2.500000000000000000e+01,-1.300000000000000000e+01,-5.000000000000000000e+00,-4.000000000000000000e+00,-2.000000000000000000e+00,-6.000000000000000000e+00,2.500000000000000000e-01,4.594641000000000000e+08
1.000000000000000000e+00,1.700000000000000000e+01,5.800000000000000000e+01,2.000000000000000000e+01,6.000000000000000000e+00,1.000000000000000000e+01,1.600000000000000000e+01,8.000000000000000000e+00,2.500000000000000000e-01,4.594754000000000000e+08
2.000000000000000000e+00,1.200000000000000000e+01,-8.700000000000000000e+01,-4.000000000000000000e+00,0.000000000000000000e+00,-4.000000000000000000e+00,-1.900000000000000000e+01,-5.000000000000000000e+00,2.500000000000000000e-01,4.594835000000000000e+08
-2.000000000000000000e+00,-1.000000000000000000e+00,5.800000000000000000e+01,0.000000000000000000e+00,-1.000000000000000000e+00,1.200000000000000000e+01,5.000000000000000000e+00,-8.000000000000000000e+00,2.500000000000000000e-01,4.594911000000000000e+08
4.000000000000000000e+00,1.600000000000000000e+01,-1.100000000000000000e+01,-2.000000000000000000e+00,7.000000000000000000e+00,4.400000000000000000e+01,2.000000000000000000e+00,2.200000000000000000e+01,2.600000000000000089e-01,4.813571000000000000e+08
-9.000000000000000000e+00,-4.500000000000000000e+01,-1.280000000000000000e+02,-6.000000000000000000e+00,-5.000000000000000000e+00,4.000000000000000000e+00,-1.600000000000000000e+01,-4.100000000000000000e+01,2.600000000000000089e-01,4.813698000000000000e+08
5.000000000000000000e+00,2.900000000000000000e+01,3.600000000000000000e+01,3.000000000000000000e+00,-8.000000000000000000e+00,-1.090000000000000000e+02,1.000000000000000000e+00,2.200000000000000000e+01,2.600000000000000089e-01,4.813780000000000000e+08
-3.000000000000000000e+00,-2.100000000000000000e+01,-5.800000000000000000e+01,-3.000000000000000000e+00,-1.000000000000000000e+00,-8.000000000000000000e+00,-5.000000000000000000e+00,1.600000000000000000e+01,2.600000000000000089e-01,4.814161000000000000e+08
-2.000000000000000000e+00,2.000000000000000000e+01,4.100000000000000000e+01,-3.000000000000000000e+00,-3.000000000000000000e+00,7.000000000000000000e+00,-2.000000000000000000e+00,-1.000000000000000000e+00,2.700000000000000178e-01,5.026062000000000000e+08
4.000000000000000000e+00,1.400000000000000000e+01,-1.200000000000000000e+01,5.000000000000000000e+00,5.000000000000000000e+00,1.500000000000000000e+01,3.000000000000000000e+00,6.000000000000000000e+00,2.700000000000000178e-01,5.026173000000000000e+08
-2.000000000000000000e+00,-7.000000000000000000e+00,3.700000000000000000e+01,-3.000000000000000000e+00,-1.000000000000000000e+00,1.800000000000000000e+01,-1.000000000000000000e+00,6.000000000000000000e+00,2.700000000000000178e-01,5.026252000000000000e+08
-6.000000000000000000e+00,3.000000000000000000e+01,-6.500000000000000000e+01,4.000000000000000000e+00,-3.000000000000000000e+00,5.000000000000000000e+00,3.700000000000000000e+01,0.000000000000000000e+00,2.700000000000000178e-01,5.026327000000000000e+08
-6.000000000000000000e+00,-2.600000000000000000e+01,-2.000000000000000000e+00,-6.000000000000000000e+00,2.000000000000000000e+00,1.000000000000000000e+01,-1.000000000000000000e+01,5.000000000000000000e+00,2.800000000000000266e-01,5.177221000000000000e+08
6.000000000000000000e+00,2.700000000000000000e+01,3.400000000000000000e+01,4.000000000000000000e+00,5.000000000000000000e+00,6.200000000000000000e+01,2.900000000000000000e+01,-1.600000000000000000e+01,2.800000000000000266e-01,5.177321000000000000e+08
-1.000000000000000000e+00,3.000000000000000000e+01,1.500000000000000000e+01,1.000000000000000000e+00,-8.000000000000000000e+00,-8.600000000000000000e+01,-8.000000000000000000e+00,4.300000000000000000e+01,2.800000000000000266e-01,5.177406000000000000e+08
-5.000000000000000000e+00,-6.300000000000000000e+01,1.600000000000000000e+01,-9.000000000000000000e+00,-7.000000000000000000e+00,-1.100000000000000000e+01,-8.000000000000000000e+00,-1.000000000000000000e+00,2.800000000000000266e-01,5.177487000000000000e+08
-2.000000000000000000e+00,9.000000000000000000e+00,2.600000000000000000e+01,-6.000000000000000000e+00,2.000000000000000000e+00,6.000000000000000000e+00,1.000000000000000000e+01,3.100000000000000000e+01,2.899999999999999800e-01,5.395747000000000000e+08
1.300000000000000000e+01,-6.000000000000000000e+00,-5.300000000000000000e+01,-7.000000000000000000e+00,-2.000000000000000000e+00,4.100000000000000000e+01,6.000000000000000000e+00,-2.900000000000000000e+01,2.899999999999999800e-01,5.395853000000000000e+08
4.000000000000000000e+00,2.900000000000000000e+01,1.700000000000000000e+01,7.000000000000000000e+00,-1.000000000000000000e+00,-1.800000000000000000e+01,-6.000000000000000000e+00,1.000000000000000000e+00,2.899999999999999800e-01,5.395953000000000000e+08
2.100000000000000000e+01,7.000000000000000000e+00,8.000000000000000000e+00,8.000000000000000000e+00,1.000000000000000000e+01,5.400000000000000000e+01,1.140000000000000000e+02,5.500000000000000000e+01,2.899999999999999800e-01,5.396093000000000000e+08
0.000000000000000000e+00,-4.000000000000000000e+00,4.000000000000000000e+00,3.000000000000000000e+00,-4.000000000000000000e+00,-5.300000000000000000e+01,-9.000000000000000000e+00,2.900000000000000000e+01,2.999999999999999889e-01,5.585681000000000000e+08
-6.000000000000000000e+00,-2.000000000000000000e+00,1.000000000000000000e+00,2.000000000000000000e+00,5.000000000000000000e+00,8.000000000000000000e+01,4.100000000000000000e+01,-1.190000000000000000e+02,2.999999999999999889e-01,5.585836000000000000e+08
1.000000000000000000e+01,1.000000000000000000e+00,5.000000000000000000e+00,0.000000000000000000e+00,-3.000000000000000000e+00,2.500000000000000000e+01,1.270000000000000000e+02,1.060000000000000000e+02,2.999999999999999889e-01,5.585991000000000000e+08
-4.000000000000000000e+00,7.000000000000000000e+00,-6.000000000000000000e+00,-3.000000000000000000e+00,-2.000000000000000000e+00,-6.900000000000000000e+01,1.100000000000000000e+01,-4.100000000000000000e+01,2.999999999999999889e-01,5.586096000000000000e+08
-4.000000000000000000e+00,-2.500000000000000000e+01,-2.000000000000000000e+00,4.000000000000000000e+00,9.000000000000000000e+00,-7.000000000000000000e+00,1.180000000000000000e+02,3.300000000000000000e+01,3.099999999999999978e-01,5.790205000000000000e+08
5.000000000000000000e+00,-6.100000000000000000e+01,4.000000000000000000e+00,0.000000000000000000e+00,1.500000000000000000e+01,1.270000000000000000e+02,-1.280000000000000000e+02,-7.700000000000000000e+01,3.099999999999999978e-01,5.790321000000000000e+08
8.000000000000000000e+00,-2.000000000000000000e+00,-6.000000000000000000e+00,-3.000000000000000000e+00,-2.200000000000000000e+01,-1.280000000000000000e+02,1.270000000000000000e+02,-1.280000000000000000e+02,3.099999999999999978e-01,5.790456000000000000e+08
9.000000000000000000e+00,-6.000000000000000000e+00,1.000000000000000000e+00,-7.000000000000000000e+00,-4.000000000000000000e+00,-8.300000000000000000e+01,-1.280000000000000000e+02,5.400000000000000000e+01,3.099999999999999978e-01,5.790556000000000000e+08
6.000000000000000000e+00,5.500000000000000000e+01,1.900000000000000000e+01,2.000000000000000000e+00,6.000000000000000000e+00,1.270000000000000000e+02,-4.100000000000000000e+01,5.700000000000000000e+01,3.200000000000000067e-01,5.984644000000000000e+08
8.000000000000000000e+00,1.000000000000000000e+00,-2.500000000000000000e+01,-4.000000000000000000e+00,-4.000000000000000000e+00,-1.400000000000000000e+01,7.800000000000000000e+01,4.800000000000000000e+01,3.200000000000000067e-01,5.984751000000000000e+08
2.000000000000000000e+00,1.100000000000000000e+01,-2.000000000000000000e+01,2.000000000000000000e+00,-5.000000000000000000e+00,5.000000000000000000e+00,-1.280000000000000000e+02,-4.500000000000000000e+01,3.300000000000000155e-01,6.197380000000000000e+08
1.100000000000000000e+01,2.500000000000000000e+01,-3.300000000000000000e+01,7.000000000000000000e+00,2.000000000000000000e+00,1.600000000000000000e+01,9.900000000000000000e+01,-7.000000000000000000e+00,3.300000000000000155e-01,6.197498000000000000e+08
1.100000000000000000e+01,-1.400000000000000000e+01,7.000000000000000000e+01,1.300000000000000000e+01,2.000000000000000000e+00,-3.500000000000000000e+01,-8.700000000000000000e+01,-5.000000000000000000e+00,3.300000000000000155e-01,6.197584000000000000e+08
-4.000000000000000000e+01,8.000000000000000000e+00,2.000000000000000000e+01,-2.600000000000000000e+01,-2.000000000000000000e+00,8.500000000000000000e+01,4.600000000000000000e+01,5.800000000000000000e+01,3.300000000000000155e-01,6.198097000000000000e+08
-7.000000000000000000e+00,2.000000000000000000e+01,-4.000000000000000000e+00,-9.000000000000000000e+00,0.000000000000000000e+00,2.900000000000000000e+01,5.000000000000000000e+01,-1.280000000000000000e+02,3.300000000000000155e-01,6.198263000000000000e+08
1.900000000000000000e+01,1.900000000000000000e+01,1.190000000000000000e+02,2.000000000000000000e+00,-1.800000000000000000e+01,-1.280000000000000000e+02,5.800000000000000000e+01,0.000000000000000000e+00,3.300000000000000155e-01,6.198378000000000000e+08
6.000000000000000000e+00,1.800000000000000000e+01,2.900000000000000000e+01,2.100000000000000000e+01,1.300000000000000000e+01,8.000000000000000000e+01,1.270000000000000000e+02,-1.280000000000000000e+02,3.499999999999999778e-01,6.582239000000000000e+08
-1.000000000000000000e+01,-4.000000000000000000e+01,-4.700000000000000000e+01,-2.600000000000000000e+01,-1.400000000000000000e+01,-7.000000000000000000e+00,-1.280000000000000000e+02,-1.500000000000000000e+01,3.499999999999999778e-01,6.582383000000000000e+08
-2.500000000000000000e+01,9.000000000000000000e+00,6.100000000000000000e+01,-6.000000000000000000e+00,1.000000000000000000e+00,3.400000000000000000e+01,1.270000000000000000e+02,-4.200000000000000000e+01,3.499999999999999778e-01,6.582471000000000000e+08
1.400000000000000000e+01,-2.900000000000000000e+01,5.800000000000000000e+01,7.000000000000000000e+00,2.000000000000000000e+00,1.400000000000000000e+01,-1.280000000000000000e+02,-1.020000000000000000e+02,3.499999999999999778e-01,6.582547000000000000e+08
-3.900000000000000000e+01,2.800000000000000000e+01,-4.500000000000000000e+01,-9.000000000000000000e+00,-2.000000000000000000e+00,3.300000000000000000e+01,-8.100000000000000000e+01,-1.280000000000000000e+02,3.599999999999999867e-01,6.776424000000000000e+08
1.400000000000000000e+01,3.200000000000000000e+01,1.800000000000000000e+01,9.000000000000000000e+00,1.000000000000000000e+00,-1.150000000000000000e+02,1.270000000000000000e+02,6.700000000000000000e+01,3.599999999999999867e-01,6.776553000000000000e+08
-1.200000000000000000e+01,1.400000000000000000e+01,-1.100000000000000000e+01,-4.000000000000000000e+00,-4.000000000000000000e+00,-4.700000000000000000e+01,-1.280000000000000000e+02,-1.280000000000000000e+02,3.599999999999999867e-01,6.776649000000000000e+08
1.200000000000000000e+01,-1.300000000000000000e+01,1.000000000000000000e+00,8.000000000000000000e+00,1.000000000000000000e+01,1.110000000000000000e+02,1.270000000000000000e+02,1.270000000000000000e+02,3.599999999999999867e-01,6.776762000000000000e+08
-1.500000000000000000e+01,-8.000000000000000000e+00,-2.200000000000000000e+01,-8.000000000000000000e+00,-1.500000000000000000e+01,-3.500000000000000000e+01,-1.230000000000000000e+02,-1.280000000000000000e+02,3.599999999999999867e-01,6.776845000000000000e+08
2.000000000000000000e+01,-7.300000000000000000e+01,-1.900000000000000000e+01,-2.000000000000000000e+00,-2.000000000000000000e+00,-6.800000000000000000e+01,5.000000000000000000e+01,7.100000000000000000e+01,3.599999999999999867e-01,6.776924000000000000e+08
4.000000000000000000e+00,3.000000000000000000e+00,-5.000000000000000000e+00,1.000000000000000000e+00,7.000000000000000000e+00,8.300000000000000000e+01,-3.900000000000000000e+01,2.000000000000000000e+00,3.699999999999999956e-01,6.988514000000000000e+08
-9.000000000000000000e+00,-1.400000000000000000e+01,-1.900000000000000000e+01,-4.000000000000000000e+00,-4.000000000000000000e+00,-6.100000000000000000e+01,-1.280000000000000000e+02,8.000000000000000000e+00,3.699999999999999956e-01,6.988643000000000000e+08
6.000000000000000000e+00,-1.300000000000000000e+01,-6.000000000000000000e+00,-2.000000000000000000e+00,4.000000000000000000e+00,3.300000000000000000e+01,-1.200000000000000000e+01,9.400000000000000000e+01,3.699999999999999956e-01,6.988755000000000000e+08
-5.000000000000000000e+00,2.000000000000000000e+01,4.000000000000000000e+01,1.000000000000000000e+00,4.000000000000000000e+00,5.100000000000000000e+01,1.270000000000000000e+02,-5.800000000000000000e+01,3.699999999999999956e-01,6.988842000000000000e+08
2.700000000000000000e+01,3.600000000000000000e+01,5.300000000000000000e+01,1.500000000000000000e+01,6.000000000000000000e+00,9.000000000000000000e+00,1.270000000000000000e+02,1.270000000000000000e+02,3.800000000000000044e-01,7.196815000000000000e+08
-1.100000000000000000e+01,1.000000000000000000e+01,-9.600000000000000000e+01,-1.000000000000000000e+00,-1.000000000000000000e+01,-1.250000000000000000e+02,-1.280000000000000000e+02,1.060000000000000000e+02,3.800000000000000044e-01,7.197227000000000000e+08
4.000000000000000000e+00,-2.500000000000000000e+01,-9.000000000000000000e+00,-5.000000000000000000e+00,-1.000000000000000000e+00,-2.900000000000000000e+01,1.270000000000000000e+02,-3.300000000000000000e+01,3.800000000000000044e-01,7.197327000000000000e+08
-2.300000000000000000e+01,-5.300000000000000000e+01,-1.090000000000000000e+02,-3.300000000000000000e+01,-1.700000000000000000e+01,5.400000000000000000e+01,-1.280000000000000000e+02,-6.000000000000000000e+00,3.800000000000000044e-01,7.197413000000000000e+08
3.600000000000000000e+01,7.000000000000000000e+00,9.000000000000000000e+00,1.000000000000000000e+00,6.000000000000000000e+00,1.000000000000000000e+01,6.000000000000000000e+00,1.270000000000000000e+02,3.800000000000000044e-01,7.197494000000000000e+08
-1.300000000000000000e+01,2.000000000000000000e+00,1.500000000000000000e+01,0.000000000000000000e+00,-1.000000000000000000e+00,-1.000000000000000000e+01,-5.000000000000000000e+00,1.000000000000000000e+02,3.800000000000000044e-01,7.197577000000000000e+08
-1.400000000000000000e+01,-9.000000000000000000e+00,4.800000000000000000e+01,3.000000000000000000e+00,-3.000000000000000000e+00,-9.500000000000000000e+01,9.000000000000000000e+00,8.700000000000000000e+01,3.900000000000000133e-01,7.382779000000000000e+08
-6.000000000000000000e+00,1.800000000000000000e+01,1.100000000000000000e+01,8.000000000000000000e+00,5.000000000000000000e+00,4.100000000000000000e+01,-1.280000000000000000e+02,-1.120000000000000000e+02,3.900000000000000133e-01,7.382897000000000000e+08
1.000000000000000000e+01,-8.000000000000000000e+00,3.400000000000000000e+01,1.000000000000000000e+01,-5.000000000000000000e+00,-6.300000000000000000e+01,-3.200000000000000000e+01,-1.040000000000000000e+02,3.900000000000000133e-01,7.382978000000000000e+08
-3.000000000000000000e+00,2.500000000000000000e+01,3.300000000000000000e+01,1.000000000000000000e+01,8.000000000000000000e+00,0.000000000000000000e+00,-1.010000000000000000e+02,-1.300000000000000000e+01,3.900000000000000133e-01,7.383059000000000000e+08
5.200000000000000000e+01,2.000000000000000000e+01,-1.200000000000000000e+01,7.000000000000000000e+00,1.700000000000000000e+01,1.270000000000000000e+02,1.270000000000000000e+02,1.270000000000000000e+02,4.000000000000000222e-01,7.594978000000000000e+08
-1.000000000000000000e+00,1.000000000000000000e+01,1.600000000000000000e+01,0.000000000000000000e+00,-1.000000000000000000e+00,-2.000000000000000000e+01,-6.900000000000000000e+01,-1.600000000000000000e+01,4.000000000000000222e-01,7.595125000000000000e+08
7.000000000000000000e+00,3.000000000000000000e+00,0.000000000000000000e+00,5.000000000000000000e+00,-2.000000000000000000e+00,-4.000000000000000000e+00,8.300000000000000000e+01,3.800000000000000000e+01,4.000000000000000222e-01,7.595237000000000000e+08
-1.800000000000000000e+01,-3.000000000000000000e+00,-4.000000000000000000e+00,-1.000000000000000000e+00,-2.000000000000000000e+00,1.600000000000000000e+01,-5.600000000000000000e+01,1.180000000000000000e+02,4.000000000000000222e-01,7.595913000000000000e+08
2.600000000000000000e+01,9.000000000000000000e+00,-5.000000000000000000e+00,-2.000000000000000000e+00,-2.000000000000000000e+00,-3.000000000000000000e+00,-5.600000000000000000e+01,3.900000000000000000e+01,4.099999999999999756e-01,7.778218000000000000e+08
2.000000000000000000e+01,3.000000000000000000e+00,2.000000000000000000e+00,4.000000000000000000e+00,-1.000000000000000000e+00,1.300000000000000000e+01,-1.280000000000000000e+02,1.150000000000000000e+02,4.099999999999999756e-01,7.778328000000000000e+08
-7.000000000000000000e+00,-5.400000000000000000e+01,-4.000000000000000000e+00,2.000000000000000000e+00,-1.000000000000000000e+00,9.000000000000000000e+00,-1.200000000000000000e+01,-3.900000000000000000e+01,4.099999999999999756e-01,7.778517000000000000e+08
-3.600000000000000000e+01,-7.000000000000000000e+00,-1.900000000000000000e+01,-5.000000000000000000e+00,-4.000000000000000000e+00,3.600000000000000000e+01,-1.280000000000000000e+02,-1.280000000000000000e+02,4.099999999999999756e-01,7.778876000000000000e+08
1.800000000000000000e+01,4.200000000000000000e+01,1.030000000000000000e+02,2.000000000000000000e+00,-2.000000000000000000e+00,5.000000000000000000e+00,1.270000000000000000e+02,-1.210000000000000000e+02,4.199999999999999845e-01,7.975964000000000000e+08
-2.000000000000000000e+00,-7.700000000000000000e+01,-5.700000000000000000e+01,-2.000000000000000000e+00,2.000000000000000000e+00,7.300000000000000000e+01,-9.000000000000000000e+01,6.000000000000000000e+00,4.199999999999999845e-01,7.976109000000000000e+08
-1.400000000000000000e+01,0.000000000000000000e+00,1.700000000000000000e+01,-7.000000000000000000e+00,-1.200000000000000000e+01,-1.280000000000000000e+02,-1.280000000000000000e+02,-1.280000000000000000e+02,4.199999999999999845e-01,7.976216000000000000e+08
-1.800000000000000000e+01,1.000000000000000000e+01,8.900000000000000000e+01,-1.000000000000000000e+00,-4.000000000000000000e+00,3.500000000000000000e+01,1.270000000000000000e+02,1.060000000000000000e+02,4.199999999999999845e-01,7.976295000000000000e+08
3.300000000000000000e+01,3.300000000000000000e+01,-1.280000000000000000e+02,-1.300000000000000000e+01,0.000000000000000000e+00,8.000000000000000000e+00,-6.300000000000000000e+01,1.400000000000000000e+01,4.299999999999999933e-01,8.198494000000000000e+08
-8.000000000000000000e+00,2.000000000000000000e+00,1.100000000000000000e+01,-6.000000000000000000e+00,1.100000000000000000e+01,1.170000000000000000e+02,1.900000000000000000e+01,4.300000000000000000e+01,4.299999999999999933e-01,8.198624000000000000e+08
8.000000000000000000e+00,6.400000000000000000e+01,9.500000000000000000e+01,1.300000000000000000e+01,6.000000000000000000e+00,-1.500000000000000000e+01,-8.300000000000000000e+01,4.400000000000000000e+01,4.400000000000000022e-01,8.388458000000000000e+08
1.300000000000000000e+01,5.100000000000000000e+01,8.000000000000000000e+00,6.000000000000000000e+00,-5.000000000000000000e+00,-6.600000000000000000e+01,1.270000000000000000e+02,4.600000000000000000e+01,4.400000000000000022e-01,8.388571000000000000e+08
0.000000000000000000e+00,-2.300000000000000000e+01,-1.000000000000000000e+01,3.000000000000000000e+00,6.000000000000000000e+00,3.400000000000000000e+01,-5.700000000000000000e+01,1.200000000000000000e+01,4.400000000000000022e-01,8.388661000000000000e+08
-3.000000000000000000e+00,2.000000000000000000e+00,2.800000000000000000e+01,-2.000000000000000000e+00,-7.000000000000000000e+00,-8.400000000000000000e+01,1.270000000000000000e+02,7.500000000000000000e+01,4.400000000000000022e-01,8.388763000000000000e+08
-2.000000000000000000e+00,-8.000000000000000000e+00,-5.900000000000000000e+01,-1.000000000000000000e+00,-4.000000000000000000e+00,3.900000000000000000e+01,1.150000000000000000e+02,3.300000000000000000e+01,4.400000000000000022e-01,8.388843000000000000e+08
-2.500000000000000000e+01,-1.600000000000000000e+01,-6.000000000000000000e+00,-1.100000000000000000e+01,-1.500000000000000000e+01,-1.020000000000000000e+02,-8.200000000000000000e+01,3.200000000000000000e+01,4.400000000000000022e-01,8.388932000000000000e+08
4.500000000000000000e+01,-1.200000000000000000e+01,-3.900000000000000000e+01,6.000000000000000000e+00,1.000000000000000000e+01,5.900000000000000000e+01,1.270000000000000000e+02,1.120000000000000000e+02,4.500000000000000111e-01,8.598156000000000000e+08
-3.200000000000000000e+01,1.000000000000000000e+00,6.000000000000000000e+00,-7.000000000000000000e+00,-2.400000000000000000e+01,-5.200000000000000000e+01,-1.280000000000000000e+02,4.900000000000000000e+01,4.500000000000000111e-01,8.598564000000000000e+08
-1.700000000000000000e+01,2.300000000000000000e+01,2.000000000000000000e+01,3.000000000000000000e+00,-4.000000000000000000e+00,-5.000000000000000000e+01,1.000000000000000000e+02,1.270000000000000000e+02,4.500000000000000111e-01,8.598668000000000000e+08
-2.200000000000000000e+01,3.600000000000000000e+01,1.700000000000000000e+01,4.000000000000000000e+00,9.000000000000000000e+00,1.190000000000000000e+02,-1.280000000000000000e+02,0.000000000000000000e+00,4.500000000000000111e-01,8.598748000000000000e+08
5.000000000000000000e+00,-8.900000000000000000e+01,-9.000000000000000000e+00,6.000000000000000000e+00,3.000000000000000000e+00,-1.280000000000000000e+02,1.270000000000000000e+02,2.400000000000000000e+01,4.699999999999999734e-01,8.998379000000000000e+08
-3.900000000000000000e+01,-2.800000000000000000e+01,-1.000000000000000000e+02,-1.400000000000000000e+01,-1.300000000000000000e+01,-4.600000000000000000e+01,1.120000000000000000e+02,-5.400000000000000000e+01,4.699999999999999734e-01,8.998519000000000000e+08
1.300000000000000000e+01,1.300000000000000000e+01,1.200000000000000000e+01,1.000000000000000000e+00,9.000000000000000000e+00,5.100000000000000000e+01,1.270000000000000000e+02,1.270000000000000000e+02,4.699999999999999734e-01,8.998617000000000000e+08
2.900000000000000000e+01,4.600000000000000000e+01,1.700000000000000000e+01,0.000000000000000000e+00,-3.000000000000000000e+00,-4.000000000000000000e+00,-3.000000000000000000e+00,1.270000000000000000e+02,4.699999999999999734e-01,8.999056000000000000e+08
-2.400000000000000000e+01,-9.000000000000000000e+00,1.000000000000000000e+00,-9.000000000000000000e+00,-9.000000000000000000e+00,-5.000000000000000000e+00,1.270000000000000000e+02,-9.600000000000000000e+01,4.699999999999999734e-01,8.999215000000000000e+08
-3.800000000000000000e+01,-1.600000000000000000e+01,1.000000000000000000e+00,2.000000000000000000e+00,8.000000000000000000e+00,3.800000000000000000e+01,1.270000000000000000e+02,1.270000000000000000e+02,4.699999999999999734e-01,8.999301000000000000e+08
-1.500000000000000000e+01,1.400000000000000000e+01,-2.000000000000000000e+00,-9.000000000000000000e+00,-1.300000000000000000e+01,8.100000000000000000e+01,-1.100000000000000000e+02,1.270000000000000000e+02,4.699999999999999734e-01,8.999377000000000000e+08
5.000000000000000000e+00,-1.800000000000000000e+01,-4.600000000000000000e+01,-6.000000000000000000e+00,0.000000000000000000e+00,-1.700000000000000000e+01,8.000000000000000000e+00,1.900000000000000000e+01,4.699999999999999734e-01,8.999452000000000000e+08
2.400000000000000000e+01,3.000000000000000000e+00,-1.700000000000000000e+01,2.000000000000000000e+00,9.000000000000000000e+00,7.000000000000000000e+01,1.270000000000000000e+02,-1.280000000000000000e+02,4.799999999999999822e-01,9.184898000000000000e+08
-1.500000000000000000e+01,-1.100000000000000000e+01,1.100000000000000000e+01,-6.000000000000000000e+00,-8.000000000000000000e+00,2.700000000000000000e+01,-1.280000000000000000e+02,-1.280000000000000000e+02,4.799999999999999822e-01,9.185011000000000000e+08
3.900000000000000000e+01,7.800000000000000000e+01,4.700000000000000000e+01,1.500000000000000000e+01,1.200000000000000000e+01,1.500000000000000000e+01,1.270000000000000000e+02,1.060000000000000000e+02,4.899999999999999911e-01,9.394580000000000000e+08
-5.900000000000000000e+01,-3.900000000000000000e+01,-5.900000000000000000e+01,-1.900000000000000000e+01,-1.000000000000000000e+01,-5.600000000000000000e+01,-1.280000000000000000e+02,-1.280000000000000000e+02,4.899999999999999911e-01,9.394708000000000000e+08
2.500000000000000000e+01,-8.900000000000000000e+01,-1.240000000000000000e+02,-1.300000000000000000e+01,-5.000000000000000000e+00,-3.500000000000000000e+01,1.270000000000000000e+02,6.000000000000000000e+01,4.899999999999999911e-01,9.394814000000000000e+08
-3.100000000000000000e+01,4.200000000000000000e+01,2.600000000000000000e+01,-9.000000000000000000e+00,-1.400000000000000000e+01,2.100000000000000000e+01,1.270000000000000000e+02,-5.600000000000000000e+01,4.899999999999999911e-01,9.394906000000000000e+08
4.000000000000000000e+00,2.100000000000000000e+01,4.000000000000000000e+01,4.000000000000000000e+00,0.000000000000000000e+00,-2.400000000000000000e+01,-1.280000000000000000e+02,-4.000000000000000000e+01,5.000000000000000000e-01,9.582224000000000000e+08
-7.000000000000000000e+00,4.000000000000000000e+00,3.500000000000000000e+01,3.000000000000000000e+00,7.000000000000000000e+00,1.600000000000000000e+01,3.800000000000000000e+01,8.200000000000000000e+01,5.000000000000000000e-01,9.582337000000000000e+08
1.400000000000000000e+01,7.200000000000000000e+01,1.600000000000000000e+01,6.000000000000000000e+00,8.000000000000000000e+00,4.500000000000000000e+01,9.700000000000000000e+01,-1.280000000000000000e+02,5.000000000000000000e-01,9.582728000000000000e+08
1.300000000000000000e+01,-3.000000000000000000e+00,-9.000000000000000000e+00,2.000000000000000000e+00,7.000000000000000000e+00,-2.100000000000000000e+01,-1.280000000000000000e+02,1.100000000000000000e+02,5.000000000000000000e-01,9.582968000000000000e+08
1.000000000000000000e+00,2.800000000000000000e+01,3.500000000000000000e+01,2.000000000000000000e+00,-3.000000000000000000e+00,-8.300000000000000000e+01,1.270000000000000000e+02,6.100000000000000000e+01,5.000000000000000000e-01,9.583057000000000000e+08
-5.000000000000000000e+00,-7.000000000000000000e+00,-2.600000000000000000e+01,-4.000000000000000000e+00,6.000000000000000000e+00,3.500000000000000000e+01,5.500000000000000000e+01,1.270000000000000000e+02,5.000000000000000000e-01,9.583140000000000000e+08
2.700000000000000000e+01,2.900000000000000000e+01,2.900000000000000000e+01,2.000000000000000000e+00,-6.000000000000000000e+00,-1.150000000000000000e+02,-1.280000000000000000e+02,-7.600000000000000000e+01,5.100000000000000089e-01,9.795075000000000000e+08
-4.300000000000000000e+01,-6.900000000000000000e+01,1.000000000000000000e+00,-1.100000000000000000e+01,-1.400000000000000000e+01,4.000000000000000000e+01,1.270000000000000000e+02,-1.190000000000000000e+02,5.100000000000000089e-01,9.795502000000000000e+08
-4.100000000000000000e+01,9.000000000000000000e+00,-1.800000000000000000e+01,-8.000000000000000000e+00,-1.800000000000000000e+01,-8.200000000000000000e+01,1.230000000000000000e+02,-1.280000000000000000e+02,5.200000000000000178e-01,1.000401700000000000e+09
7.000000000000000000e+00,2.400000000000000000e+01,-6.000000000000000000e+00,-5.000000000000000000e+00,-1.100000000000000000e+01,-1.100000000000000000e+01,-1.280000000000000000e+02,-1.280000000000000000e+02,5.200000000000000178e-01,1.000413900000000000e+09
1.100000000000000000e+01,-6.000000000000000000e+01,5.000000000000000000e+00,0.000000000000000000e+00,-5.000000000000000000e+00,1.270000000000000000e+02,1.270000000000000000e+02,8.500000000000000000e+01,5.400000000000000355e-01,1.040188300000000000e+09
2.600000000000000000e+01,-4.500000000000000000e+01,1.500000000000000000e+01,1.200000000000000000e+01,1.900000000000000000e+01,1.150000000000000000e+02,1.270000000000000000e+02,1.270000000000000000e+02,5.400000000000000355e-01,1.040199400000000000e+09
-6.300000000000000000e+01,-5.700000000000000000e+01,3.100000000000000000e+01,-1.200000000000000000e+01,-2.100000000000000000e+01,-1.190000000000000000e+02,-1.280000000000000000e+02,-1.140000000000000000e+02,5.400000000000000355e-01,1.040208700000000000e+09
-4.100000000000000000e+01,7.700000000000000000e+01,-1.600000000000000000e+01,-3.000000000000000000e+00,2.000000000000000000e+00,1.270000000000000000e+02,1.270000000000000000e+02,1.270000000000000000e+02,5.400000000000000355e-01,1.040216700000000000e+09
6.300000000000000000e+01,-7.200000000000000000e+01,-6.100000000000000000e+01,-5.000000000000000000e+00,0.000000000000000000e+00,1.800000000000000000e+01,1.140000000000000000e+02,-1.280000000000000000e+02,5.400000000000000355e-01,1.040246500000000000e+09
-9.000000000000000000e+00,5.800000000000000000e+01,4.200000000000000000e+01,-6.000000000000000000e+00,-1.200000000000000000e+01,-7.900000000000000000e+01,1.100000000000000000e+02,6.300000000000000000e+01,5.400000000000000355e-01,1.040278000000000000e+09
4.000000000000000000e+00,3.000000000000000000e+01,0.000000000000000000e+00,7.000000000000000000e+00,1.700000000000000000e+01,1.270000000000000000e+02,-1.200000000000000000e+01,-1.280000000000000000e+02,5.400000000000000355e-01,1.040287400000000000e+09
3.900000000000000000e+01,4.500000000000000000e+01,8.900000000000000000e+01,1.100000000000000000e+01,5.000000000000000000e+00,-1.280000000000000000e+02,2.600000000000000000e+01,1.270000000000000000e+02,5.400000000000000355e-01,1.040296000000000000e+09
4.700000000000000000e+01,-1.500000000000000000e+01,-1.400000000000000000e+01,1.000000000000000000e+01,1.000000000000000000e+00,-6.900000000000000000e+01,-1.240000000000000000e+02,1.090000000000000000e+02,5.400000000000000355e-01,1.040303800000000000e+09
-2.200000000000000000e+01,-4.300000000000000000e+01,3.900000000000000000e+01,-7.000000000000000000e+00,1.000000000000000000e+00,5.100000000000000000e+01,1.270000000000000000e+02,1.270000000000000000e+02,5.400000000000000355e-01,1.040310900000000000e+09
-2.400000000000000000e+01,2.200000000000000000e+01,-6.000000000000000000e+01,-1.000000000000000000e+01,-4.000000000000000000e+00,4.100000000000000000e+01,1.030000000000000000e+02,1.270000000000000000e+02,5.500000000000000444e-01,1.058078400000000000e+09
-2.000000000000000000e+00,1.300000000000000000e+01,8.000000000000000000e+00,-1.000000000000000000e+00,-6.000000000000000000e+00,-1.280000000000000000e+02,-1.280000000000000000e+02,-1.280000000000000000e+02,5.500000000000000444e-01,1.058127900000000000e+09
-8.300000000000000000e+01,-1.700000000000000000e+01,-5.000000000000000000e+00,-2.100000000000000000e+01,-3.300000000000000000e+01,-1.280000000000000000e+02,-1.280000000000000000e+02,-1.280000000000000000e+02,5.500000000000000444e-01,1.058142000000000000e+09
7.000000000000000000e+00,0.000000000000000000e+00,2.400000000000000000e+01,6.000000000000000000e+00,9.000000000000000000e+00,1.270000000000000000e+02,6.700000000000000000e+01,3.000000000000000000e+01,5.500000000000000444e-01,1.058151100000000000e+09
2.000000000000000000e+01,1.700000000000000000e+01,-1.000000000000000000e+00,-1.200000000000000000e+01,-1.200000000000000000e+01,-2.600000000000000000e+01,-1.100000000000000000e+01,-4.900000000000000000e+01,5.600000000000000533e-01,1.078760300000000000e+09
-3.500000000000000000e+01,-5.100000000000000000e+01,-1.000000000000000000e+00,-7.000000000000000000e+00,-9.000000000000000000e+00,-6.600000000000000000e+01,1.270000000000000000e+02,-1.280000000000000000e+02,5.600000000000000533e-01,1.078771200000000000e+09
-1.500000000000000000e+01,-2.200000000000000000e+01,2.200000000000000000e+01,-7.000000000000000000e+00,-6.000000000000000000e+00,1.190000000000000000e+02,3.400000000000000000e+01,3.800000000000000000e+01,5.600000000000000533e-01,1.078782500000000000e+09
-9.000000000000000000e+00,2.000000000000000000e+01,-5.400000000000000000e+01,-1.000000000000000000e+00,0.000000000000000000e+00,1.270000000000000000e+02,-2.600000000000000000e+01,-1.280000000000000000e+02,5.600000000000000533e-01,1.078793300000000000e+09
-3.000000000000000000e+00,2.600000000000000000e+01,-7.000000000000000000e+00,2.000000000000000000e+00,1.100000000000000000e+01,-1.280000000000000000e+02,1.270000000000000000e+02,-8.000000000000000000e+01,5.600000000000000533e-01,1.078803500000000000e+09
5.600000000000000000e+01,2.500000000000000000e+01,1.600000000000000000e+01,4.000000000000000000e+00,1.600000000000000000e+01,1.600000000000000000e+01,-4.200000000000000000e+01,-1.280000000000000000e+02,5.600000000000000533e-01,1.078812000000000000e+09
6.900000000000000000e+01,2.000000000000000000e+00,3.500000000000000000e+01,8.000000000000000000e+00,-1.000000000000000000e+01,-1.280000000000000000e+02,1.110000000000000000e+02,1.270000000000000000e+02,5.699999999999999512e-01,1.099591100000000000e+09
0.000000000000000000e+00,5.000000000000000000e+00,3.200000000000000000e+01,8.000000000000000000e+00,-2.000000000000000000e+00,1.800000000000000000e+01,1.020000000000000000e+02,-6.400000000000000000e+01,5.699999999999999512e-01,1.099602600000000000e+09
-5.400000000000000000e+01,-1.280000000000000000e+02,-2.000000000000000000e+01,-1.600000000000000000e+01,-5.000000000000000000e+00,3.900000000000000000e+01,-1.900000000000000000e+01,-1.010000000000000000e+02,5.699999999999999512e-01,1.099611600000000000e+09
8.700000000000000000e+01,3.800000000000000000e+01,-4.600000000000000000e+01,-1.000000000000000000e+01,2.000000000000000000e+00,3.800000000000000000e+01,-1.130000000000000000e+02,1.270000000000000000e+02,5.699999999999999512e-01,1.099620800000000000e+09
-3.300000000000000000e+01,-8.100000000000000000e+01,4.200000000000000000e+01,-1.200000000000000000e+01,-2.000000000000000000e+00,1.270000000000000000e+02,-1.280000000000000000e+02,-1.280000000000000000e+02,5.799999999999999600e-01,1.117504900000000000e+09
1.500000000000000000e+01,-1.000000000000000000e+01,3.100000000000000000e+01,8.000000000000000000e+00,3.000000000000000000e+00,1.270000000000000000e+02,-1.280000000000000000e+02,1.270000000000000000e+02,5.799999999999999600e-01,1.117516300000000000e+09
-3.900000000000000000e+01,1.000000000000000000e+00,3.900000000000000000e+01,-8.000000000000000000e+00,-2.200000000000000000e+01,-1.280000000000000000e+02,1.270000000000000000e+02,1.270000000000000000e+02,5.999999999999999778e-01,1.157636200000000000e+09
-1.700000000000000000e+01,-2.300000000000000000e+01,-5.200000000000000000e+01,1.000000000000000000e+00,2.300000000000000000e+01,1.270000000000000000e+02,-1.120000000000000000e+02,1.270000000000000000e+02,5.999999999999999778e-01,1.157647600000000000e+09
-3.900000000000000000e+01,-1.000000000000000000e+00,1.800000000000000000e+01,-1.400000000000000000e+01,-1.600000000000000000e+01,6.000000000000000000e+00,-1.280000000000000000e+02,-1.280000000000000000e+02,5.999999999999999778e-01,1.157656900000000000e+09
4.800000000000000000e+01,6.000000000000000000e+01,3.400000000000000000e+01,1.300000000000000000e+01,9.000000000000000000e+00,1.270000000000000000e+02,-1.040000000000000000e+02,1.270000000000000000e+02,5.999999999999999778e-01,1.157665000000000000e+09
5.100000000000000000e+01,-1.000000000000000000e+01,2.000000000000000000e+00,1.400000000000000000e+01,1.000000000000000000e+01,-4.300000000000000000e+01,-1.280000000000000000e+02,2.000000000000000000e+01,5.999999999999999778e-01,1.157689600000000000e+09
1.600000000000000000e+01,1.600000000000000000e+01,-1.100000000000000000e+01,4.000000000000000000e+00,-8.000000000000000000e+00,-1.280000000000000000e+02,8.800000000000000000e+01,7.000000000000000000e+01,5.999999999999999778e-01,1.157723800000000000e+09
-4.500000000000000000e+01,4.000000000000000000e+00,-2.800000000000000000e+01,-1.900000000000000000e+01,-2.300000000000000000e+01,-1.150000000000000000e+02,1.270000000000000000e+02,1.270000000000000000e+02,5.999999999999999778e-01,1.157733200000000000e+09
-3.000000000000000000e+00,4.300000000000000000e+01,0.000000000000000000e+00,5.000000000000000000e+00,1.800000000000000000e+01,1.270000000000000000e+02,-7.500000000000000000e+01,-1.280000000000000000e+02,5.999999999999999778e-01,1.157740800000000000e+09
-1.000000000000000000e+00,-4.200000000000000000e+01,3.000000000000000000e+00,-4.000000000000000000e+00,-1.200000000000000000e+01,-1.280000000000000000e+02,1.270000000000000000e+02,-1.280000000000000000e+02,5.999999999999999778e-01,1.157748600000000000e+09
7.600000000000000000e+01,5.000000000000000000e+01,2.000000000000000000e+01,1.400000000000000000e+01,2.700000000000000000e+01,1.270000000000000000e+02,1.270000000000000000e+02,1.270000000000000000e+02,5.999999999999999778e-01,1.157756000000000000e+09
1.000000000000000000e+00,-7.000000000000000000e+00,-6.000000000000000000e+00,-1.000000000000000000e+00,9.000000000000000000e+00,1.270000000000000000e+02,-3.600000000000000000e+01,5.900000000000000000e+01,6.099999999999999867e-01,1.178738800000000000e+09
2.500000000000000000e+01,2.800000000000000000e+01,1.400000000000000000e+01,1.600000000000000000e+01,2.600000000000000000e+01,-7.200000000000000000e+01,3.000000000000000000e+00,1.010000000000000000e+02,6.099999999999999867e-01,1.178753800000000000e+09
-4.000000000000000000e+00,2.400000000000000000e+01,-1.400000000000000000e+01,-3.000000000000000000e+00,-3.000000000000000000e+00,-1.280000000000000000e+02,-1.280000000000000000e+02,-1.280000000000000000e+02,6.199999999999999956e-01,1.199125000000000000e+09
-1.200000000000000000e+01,-2.400000000000000000e+01,-9.000000000000000000e+00,0.000000000000000000e+00,-6.000000000000000000e+00,-5.600000000000000000e+01,-2.300000000000000000e+01,-1.280000000000000000e+02,6.199999999999999956e-01,1.199136800000000000e+09
-6.700000000000000000e+01,-6.100000000000000000e+01,-2.400000000000000000e+01,-8.000000000000000000e+00,-5.000000000000000000e+00,1.270000000000000000e+02,1.270000000000000000e+02,3.700000000000000000e+01,6.199999999999999956e-01,1.199146900000000000e+09
-1.000000000000000000e+00,-3.000000000000000000e+00,2.600000000000000000e+01,1.100000000000000000e+01,3.000000000000000000e+01,1.270000000000000000e+02,1.270000000000000000e+02,-1.280000000000000000e+02,6.199999999999999956e-01,1.199183800000000000e+09
-7.100000000000000000e+01,-1.000000000000000000e+00,-1.100000000000000000e+01,-2.000000000000000000e+00,-1.000000000000000000e+01,-1.280000000000000000e+02,-1.280000000000000000e+02,-9.300000000000000000e+01,6.199999999999999956e-01,1.199208200000000000e+09
5.000000000000000000e+00,4.600000000000000000e+01,5.000000000000000000e+00,1.000000000000000000e+00,-2.000000000000000000e+00,9.600000000000000000e+01,-1.280000000000000000e+02,-1.280000000000000000e+02,6.199999999999999956e-01,1.199217900000000000e+09
-1.000000000000000000e+01,-5.000000000000000000e+00,1.000000000000000000e+01,1.000000000000000000e+00,1.100000000000000000e+01,1.210000000000000000e+02,1.270000000000000000e+02,-7.000000000000000000e+01,6.400000000000000133e-01,1.238560200000000000e+09
1.000000000000000000e+01,-7.200000000000000000e+01,4.200000000000000000e+01,0.000000000000000000e+00,-2.000000000000000000e+00,2.000000000000000000e+01,-2.100000000000000000e+01,1.270000000000000000e+02,6.400000000000000133e-01,1.238571600000000000e+09
8.000000000000000000e+00,-9.000000000000000000e+00,-1.130000000000000000e+02,-1.500000000000000000e+01,1.100000000000000000e+01,1.270000000000000000e+02,1.270000000000000000e+02,1.270000000000000000e+02,6.400000000000000133e-01,1.238581300000000000e+09
2.300000000000000000e+01,-4.000000000000000000e+00,3.700000000000000000e+01,1.900000000000000000e+01,2.900000000000000000e+01,1.100000000000000000e+01,-3.400000000000000000e+01,1.270000000000000000e+02,6.400000000000000133e-01,1.238589200000000000e+09
-4.700000000000000000e+01,3.000000000000000000e+00,-4.200000000000000000e+01,3.000000000000000000e+00,-7.000000000000000000e+00,-1.280000000000000000e+02,-1.280000000000000000e+02,-1.280000000000000000e+02,6.400000000000000133e-01,1.238597500000000000e+09
2.800000000000000000e+01,-1.500000000000000000e+01,3.700000000000000000e+01,6.000000000000000000e+00,1.000000000000000000e+01,1.270000000000000000e+02,1.270000000000000000e+02,5.200000000000000000e+01,6.400000000000000133e-01,1.238642300000000000e+09
-7.600000000000000000e+01,-5.000000000000000000e+01,3.000000000000000000e+00,-1.100000000000000000e+01,-2.900000000000000000e+01,-1.280000000000000000e+02,-1.280000000000000000e+02,1.270000000000000000e+02,6.500000000000000222e-01,1.258282000000000000e+09
1.500000000000000000e+01,4.600000000000000000e+01,-2.000000000000000000e+00,3.000000000000000000e+00,-1.000000000000000000e+00,1.270000000000000000e+02,-1.280000000000000000e+02,1.270000000000000000e+02,6.500000000000000222e-01,1.258301200000000000e+09
1.300000000000000000e+01,3.900000000000000000e+01,1.600000000000000000e+01,7.000000000000000000e+00,1.200000000000000000e+01,-5.100000000000000000e+01,-8.600000000000000000e+01,1.270000000000000000e+02,6.500000000000000222e-01,1.258312100000000000e+09
-4.500000000000000000e+01,-1.280000000000000000e+02,-6.500000000000000000e+01,-1.800000000000000000e+01,-1.800000000000000000e+01,5.300000000000000000e+01,-1.280000000000000000e+02,-1.280000000000000000e+02,6.500000000000000222e-01,1.258320200000000000e+09
-3.900000000000000000e+01,5.300000000000000000e+01,-1.100000000000000000e+01,-2.800000000000000000e+01,-4.700000000000000000e+01,-1.280000000000000000e+02,1.270000000000000000e+02,-1.500000000000000000e+01,6.500000000000000222e-01,1.258327700000000000e+09
1.100000000000000000e+01,3.000000000000000000e+01,7.000000000000000000e+00,3.000000000000000000e+00,4.000000000000000000e+00,1.270000000000000000e+02,1.700000000000000000e+01,-1.280000000000000000e+02,6.500000000000000222e-01,1.258335400000000000e+09
-1.400000000000000000e+01,-8.100000000000000000e+01,-1.100000000000000000e+01,-7.000000000000000000e+00,1.000000000000000000e+00,5.400000000000000000e+01,-1.280000000000000000e+02,4.600000000000000000e+01,6.600000000000000311e-01,1.279573600000000000e+09
4.200000000000000000e+01,-2.000000000000000000e+00,6.300000000000000000e+01,5.000000000000000000e+00,3.000000000000000000e+00,1.270000000000000000e+02,1.270000000000000000e+02,1.270000000000000000e+02,6.600000000000000311e-01,1.279595600000000000e+09
4.400000000000000000e+01,-2.100000000000000000e+01,-3.200000000000000000e+01,3.000000000000000000e+00,2.000000000000000000e+00,5.200000000000000000e+01,5.000000000000000000e+01,1.270000000000000000e+02,6.600000000000000311e-01,1.279633000000000000e+09
3.400000000000000000e+01,3.100000000000000000e+01,4.300000000000000000e+01,-4.000000000000000000e+00,4.000000000000000000e+00,-1.900000000000000000e+01,1.270000000000000000e+02,1.270000000000000000e+02,6.600000000000000311e-01,1.279642600000000000e+09
-1.600000000000000000e+01,1.160000000000000000e+02,-2.400000000000000000e+01,2.100000000000000000e+01,2.600000000000000000e+01,-8.000000000000000000e+00,4.400000000000000000e+01,-1.280000000000000000e+02,6.700000000000000400e-01,1.298344300000000000e+09
-3.000000000000000000e+01,-4.100000000000000000e+01,1.000000000000000000e+00,-1.900000000000000000e+01,-3.800000000000000000e+01,-1.280000000000000000e+02,-1.280000000000000000e+02,-1.280000000000000000e+02,6.700000000000000400e-01,1.298356300000000000e+09
-1.100000000000000000e+01,1.270000000000000000e+02,1.500000000000000000e+01,6.000000000000000000e+00,9.000000000000000000e+00,1.270000000000000000e+02,1.270000000000000000e+02,1.270000000000000000e+02,6.800000000000000488e-01,1.319608400000000000e+09
-1.500000000000000000e+01,1.400000000000000000e+01,3.200000000000000000e+01,8.000000000000000000e+00,1.500000000000000000e+01,8.900000000000000000e+01,-1.280000000000000000e+02,1.000000000000000000e+01,6.800000000000000488e-01,1.319638500000000000e+09
3.100000000000000000e+01,1.000000000000000000e+00,1.400000000000000000e+01,3.000000000000000000e+00,5.000000000000000000e+00,1.270000000000000000e+02,1.270000000000000000e+02,-1.280000000000000000e+02,6.800000000000000488e-01,1.319665700000000000e+09
-3.000000000000000000e+00,4.000000000000000000e+00,2.000000000000000000e+00,-1.000000000000000000e+01,-2.900000000000000000e+01,-1.280000000000000000e+02,-1.280000000000000000e+02,1.270000000000000000e+02,6.800000000000000488e-01,1.319674500000000000e+09
-5.000000000000000000e+00,6.200000000000000000e+01,-3.000000000000000000e+01,5.000000000000000000e+00,1.200000000000000000e+01,1.190000000000000000e+02,1.270000000000000000e+02,9.200000000000000000e+01,6.800000000000000488e-01,1.319682600000000000e+09
3.700000000000000000e+01,4.300000000000000000e+01,3.000000000000000000e+00,7.000000000000000000e+00,1.100000000000000000e+01,1.270000000000000000e+02,1.270000000000000000e+02,1.270000000000000000e+02,6.800000000000000488e-01,1.319690300000000000e+09
2.900000000000000000e+01,3.800000000000000000e+01,8.000000000000000000e+00,3.000000000000000000e+00,1.400000000000000000e+01,3.800000000000000000e+01,8.000000000000000000e+00,-7.300000000000000000e+01,6.899999999999999467e-01,1.338255800000000000e+09
3.300000000000000000e+01,6.100000000000000000e+01,2.800000000000000000e+01,4.000000000000000000e+00,1.200000000000000000e+01,1.270000000000000000e+02,-1.280000000000000000e+02,-5.700000000000000000e+01,6.899999999999999467e-01,1.338267700000000000e+09
-4.100000000000000000e+01,-5.300000000000000000e+01,-2.300000000000000000e+01,-1.000000000000000000e+01,-7.000000000000000000e+00,-1.280000000000000000e+02,-1.280000000000000000e+02,-1.280000000000000000e+02,6.899999999999999467e-01,1.338276900000000000e+09
4.500000000000000000e+01,2.400000000000000000e+01,7.000000000000000000e+00,2.000000000000000000e+00,1.800000000000000000e+01,1.270000000000000000e+02,-7.400000000000000000e+01,-7.300000000000000000e+01,6.899999999999999467e-01,1.338316400000000000e+09
-2.300000000000000000e+01,-1.280000000000000000e+02,-4.400000000000000000e+01,-1.100000000000000000e+01,-1.600000000000000000e+01,-1.160000000000000000e+02,-1.280000000000000000e+02,1.270000000000000000e+02,6.999999999999999556e-01,1.359682100000000000e+09
-2.200000000000000000e+01,4.800000000000000000e+01,1.500000000000000000e+01,1.300000000000000000e+01,1.800000000000000000e+01,-1.020000000000000000e+02,1.270000000000000000e+02,8.800000000000000000e+01,6.999999999999999556e-01,1.359694500000000000e+09
2.100000000000000000e+01,1.900000000000000000e+01,6.200000000000000000e+01,8.000000000000000000e+00,0.000000000000000000e+00,-1.280000000000000000e+02,-6.400000000000000000e+01,-1.050000000000000000e+02,6.999999999999999556e-01,1.359702900000000000e+09
4.000000000000000000e+00,1.100000000000000000e+01,-1.900000000000000000e+01,-2.000000000000000000e+00,-2.100000000000000000e+01,-1.280000000000000000e+02,1.270000000000000000e+02,-1.280000000000000000e+02,6.999999999999999556e-01,1.359710500000000000e+09
-6.000000000000000000e+00,-5.400000000000000000e+01,-1.280000000000000000e+02,-2.100000000000000000e+01,-1.600000000000000000e+01,-1.280000000000000000e+02,-1.280000000000000000e+02,-3.900000000000000000e+01,7.099999999999999645e-01,1.378583800000000000e+09
-1.000000000000000000e+01,8.400000000000000000e+01,-3.200000000000000000e+01,-3.000000000000000000e+00,1.400000000000000000e+01,-1.280000000000000000e+02,1.270000000000000000e+02,1.270000000000000000e+02,7.099999999999999645e-01,1.378596400000000000e+09
-2.100000000000000000e+01,-3.500000000000000000e+01,6.500000000000000000e+01,1.000000000000000000e+00,0.000000000000000000e+00,1.300000000000000000e+01,1.270000000000000000e+02,1.270000000000000000e+02,7.099999999999999645e-01,1.378625900000000000e+09
-5.000000000000000000e+01,2.400000000000000000e+01,-4.000000000000000000e+00,-7.000000000000000000e+00,-1.100000000000000000e+01,-1.280000000000000000e+02,1.300000000000000000e+01,-2.500000000000000000e+01,7.099999999999999645e-01,1.378652300000000000e+09
7.300000000000000000e+01,-4.300000000000000000e+01,2.400000000000000000e+01,7.000000000000000000e+00,3.000000000000000000e+00,1.270000000000000000e+02,-1.280000000000000000e+02,5.400000000000000000e+01,7.199999999999999734e-01,1.397561800000000000e+09
5.000000000000000000e+01,7.000000000000000000e+00,1.800000000000000000e+01,3.000000000000000000e+00,-7.000000000000000000e+00,-5.800000000000000000e+01,1.270000000000000000e+02,-1.280000000000000000e+02,7.199999999999999734e-01,1.397574000000000000e+09
-1.300000000000000000e+01,-1.300000000000000000e+01,-2.200000000000000000e+01,-1.100000000000000000e+01,-3.500000000000000000e+01,-1.280000000000000000e+02,1.270000000000000000e+02,1.270000000000000000e+02,7.199999999999999734e-01,1.397775400000000000e+09
-3.700000000000000000e+01,-4.900000000000000000e+01,-1.300000000000000000e+01,-7.000000000000000000e+00,1.000000000000000000e+00,1.190000000000000000e+02,8.100000000000000000e+01,-7.100000000000000000e+01,7.199999999999999734e-01,1.397789300000000000e+09
-4.200000000000000000e+01,5.000000000000000000e+00,-7.000000000000000000e+00,-4.000000000000000000e+00,3.000000000000000000e+00,1.270000000000000000e+02,3.300000000000000000e+01,-2.200000000000000000e+01,7.299999999999999822e-01,1.418926800000000000e+09
-2.600000000000000000e+01,-1.010000000000000000e+02,-1.000000000000000000e+01,-2.000000000000000000e+01,-3.300000000000000000e+01,1.270000000000000000e+02,1.270000000000000000e+02,1.270000000000000000e+02,7.299999999999999822e-01,1.418939200000000000e+09
8.000000000000000000e+00,-6.000000000000000000e+01,-3.600000000000000000e+01,5.000000000000000000e+00,1.700000000000000000e+01,1.270000000000000000e+02,1.270000000000000000e+02,-1.280000000000000000e+02,7.399999999999999911e-01,1.437547300000000000e+09
4.600000000000000000e+01,3.100000000000000000e+01,1.200000000000000000e+01,-3.000000000000000000e+00,-2.400000000000000000e+01,-1.280000000000000000e+02,-1.280000000000000000e+02,-5.500000000000000000e+01,7.399999999999999911e-01,1.437558200000000000e+09
-3.800000000000000000e+01,8.200000000000000000e+01,-8.000000000000000000e+00,-1.000000000000000000e+01,-1.200000000000000000e+01,-1.280000000000000000e+02,1.500000000000000000e+01,-1.280000000000000000e+02,7.399999999999999911e-01,1.437574100000000000e+09
3.900000000000000000e+01,2.300000000000000000e+01,7.700000000000000000e+01,1.900000000000000000e+01,2.100000000000000000e+01,-5.600000000000000000e+01,-1.280000000000000000e+02,1.270000000000000000e+02,7.399999999999999911e-01,1.437611000000000000e+09
2.800000000000000000e+01,-1.280000000000000000e+02,-1.200000000000000000e+01,2.200000000000000000e+01,3.300000000000000000e+01,-1.900000000000000000e+01,-1.700000000000000000e+01,1.270000000000000000e+02,7.500000000000000000e-01,1.459292200000000000e+09
-1.800000000000000000e+01,-4.000000000000000000e+00,-6.700000000000000000e+01,-2.100000000000000000e+01,-6.000000000000000000e+00,-1.180000000000000000e+02,1.190000000000000000e+02,5.400000000000000000e+01,7.500000000000000000e-01,1.459303900000000000e+09
-4.000000000000000000e+00,-7.100000000000000000e+01,1.800000000000000000e+01,-6.000000000000000000e+00,0.000000000000000000e+00,1.270000000000000000e+02,-1.280000000000000000e+02,-1.280000000000000000e+02,7.500000000000000000e-01,1.459313400000000000e+09
-6.500000000000000000e+01,4.000000000000000000e+01,-2.400000000000000000e+01,-1.900000000000000000e+01,-3.700000000000000000e+01,-1.280000000000000000e+02,1.270000000000000000e+02,-5.600000000000000000e+01,7.500000000000000000e-01,1.459323600000000000e+09
-8.600000000000000000e+01,-2.000000000000000000e+00,5.300000000000000000e+01,6.000000000000000000e+00,1.000000000000000000e+01,-7.000000000000000000e+01,1.270000000000000000e+02,-1.280000000000000000e+02,7.500000000000000000e-01,1.459332800000000000e+09
-1.600000000000000000e+01,7.600000000000000000e+01,-3.000000000000000000e+01,-3.000000000000000000e+00,-7.000000000000000000e+00,1.270000000000000000e+02,8.500000000000000000e+01,-3.300000000000000000e+01,7.500000000000000000e-01,1.459340200000000000e+09
0.000000000000000000e+00,2.900000000000000000e+01,-3.200000000000000000e+01,-1.000000000000000000e+00,1.000000000000000000e+01,1.270000000000000000e+02,-1.280000000000000000e+02,4.700000000000000000e+01,7.600000000000000089e-01,1.477761800000000000e+09
-3.700000000000000000e+01,-2.200000000000000000e+01,3.400000000000000000e+01,0.000000000000000000e+00,-1.200000000000000000e+01,-1.280000000000000000e+02,1.270000000000000000e+02,-1.280000000000000000e+02,7.600000000000000089e-01,1.477795900000000000e+09
-2.400000000000000000e+01,-3.400000000000000000e+01,-3.800000000000000000e+01,-1.000000000000000000e+00,-3.000000000000000000e+00,1.270000000000000000e+02,8.400000000000000000e+01,1.270000000000000000e+02,7.700000000000000178e-01,1.499347300000000000e+09
6.000000000000000000e+01,3.400000000000000000e+01,-7.000000000000000000e+00,-1.100000000000000000e+01,-1.400000000000000000e+01,3.700000000000000000e+01,1.270000000000000000e+02,1.270000000000000000e+02,7.700000000000000178e-01,1.499370000000000000e+09
-5.000000000000000000e+00,-1.700000000000000000e+01,1.000000000000000000e+00,-1.000000000000000000e+00,-1.000000000000000000e+00,1.270000000000000000e+02,1.270000000000000000e+02,-1.000000000000000000e+01,7.700000000000000178e-01,1.499382100000000000e+09
1.700000000000000000e+01,-5.500000000000000000e+01,-2.100000000000000000e+01,1.000000000000000000e+00,-2.000000000000000000e+00,-1.280000000000000000e+02,6.000000000000000000e+00,-4.400000000000000000e+01,7.700000000000000178e-01,1.499392600000000000e+09
-1.060000000000000000e+02,3.000000000000000000e+01,-1.200000000000000000e+01,-6.000000000000000000e+00,-5.000000000000000000e+00,-1.280000000000000000e+02,-5.600000000000000000e+01,-1.280000000000000000e+02,7.800000000000000266e-01,1.520645000000000000e+09
4.300000000000000000e+01,3.200000000000000000e+01,1.400000000000000000e+01,8.000000000000000000e+00,1.500000000000000000e+01,5.700000000000000000e+01,1.400000000000000000e+01,7.800000000000000000e+01,7.800000000000000266e-01,1.520663800000000000e+09
4.000000000000000000e+01,7.500000000000000000e+01,4.000000000000000000e+00,-4.000000000000000000e+00,0.000000000000000000e+00,1.270000000000000000e+02,-1.280000000000000000e+02,-1.280000000000000000e+02,7.900000000000000355e-01,1.540109200000000000e+09
-1.900000000000000000e+01,-2.700000000000000000e+01,-1.100000000000000000e+01,8.000000000000000000e+00,3.000000000000000000e+00,-1.280000000000000000e+02,1.270000000000000000e+02,-2.300000000000000000e+01,7.900000000000000355e-01,1.540122200000000000e+09
-4.400000000000000000e+01,5.000000000000000000e+00,2.000000000000000000e+00,2.000000000000000000e+00,9.000000000000000000e+00,5.900000000000000000e+01,-1.280000000000000000e+02,-1.280000000000000000e+02,7.900000000000000355e-01,1.540131500000000000e+09
3.000000000000000000e+00,3.000000000000000000e+01,1.000000000000000000e+01,6.000000000000000000e+00,5.000000000000000000e+00,-2.400000000000000000e+01,1.270000000000000000e+02,2.000000000000000000e+00,7.900000000000000355e-01,1.540142100000000000e+09
-1.100000000000000000e+01,-1.400000000000000000e+01,-9.000000000000000000e+00,-5.000000000000000000e+00,-2.900000000000000000e+01,-1.280000000000000000e+02,1.270000000000000000e+02,1.110000000000000000e+02,7.900000000000000355e-01,1.540153300000000000e+09
-6.400000000000000000e+01,-3.500000000000000000e+01,5.100000000000000000e+01,1.000000000000000000e+00,7.000000000000000000e+00,1.270000000000000000e+02,-5.600000000000000000e+01,7.500000000000000000e+01,7.900000000000000355e-01,1.540161700000000000e+09
7.300000000000000000e+01,1.050000000000000000e+02,-6.800000000000000000e+01,-5.000000000000000000e+00,-2.300000000000000000e+01,-1.280000000000000000e+02,1.270000000000000000e+02,-1.280000000000000000e+02,7.900000000000000355e-01,1.540169700000000000e+09
-8.000000000000000000e+00,6.500000000000000000e+01,-3.000000000000000000e+00,-7.000000000000000000e+00,4.000000000000000000e+00,1.270000000000000000e+02,1.270000000000000000e+02,-1.280000000000000000e+02,7.900000000000000355e-01,1.540177500000000000e+09
8.300000000000000000e+01,-1.280000000000000000e+02,3.400000000000000000e+01,2.100000000000000000e+01,3.400000000000000000e+01,1.270000000000000000e+02,1.270000000000000000e+02,1.270000000000000000e+02,8.000000000000000444e-01,1.558268200000000000e+09
4.900000000000000000e+01,1.900000000000000000e+01,6.200000000000000000e+01,1.000000000000000000e+01,-5.000000000000000000e+00,-1.280000000000000000e+02,-9.000000000000000000e+00,1.270000000000000000e+02,8.000000000000000444e-01,1.558282600000000000e+09
-1.600000000000000000e+01,6.100000000000000000e+01,-1.100000000000000000e+01,-1.100000000000000000e+01,-3.300000000000000000e+01,-1.280000000000000000e+02,-8.200000000000000000e+01,1.270000000000000000e+02,8.100000000000000533e-01,1.579547400000000000e+09
3.500000000000000000e+01,-1.500000000000000000e+01,3.100000000000000000e+01,-3.000000000000000000e+00,4.000000000000000000e+00,-1.280000000000000000e+02,-1.280000000000000000e+02,1.270000000000000000e+02,8.100000000000000533e-01,1.579558700000000000e+09
-8.000000000000000000e+00,3.400000000000000000e+01,-4.100000000000000000e+01,1.000000000000000000e+00,0.000000000000000000e+00,4.400000000000000000e+01,-5.200000000000000000e+01,-1.280000000000000000e+02,8.100000000000000533e-01,1.579566800000000000e+09
-6.400000000000000000e+01,-4.000000000000000000e+00,-9.000000000000000000e+00,-7.000000000000000000e+00,-1.500000000000000000e+01,-1.280000000000000000e+02,-1.280000000000000000e+02,7.400000000000000000e+01,8.100000000000000533e-01,1.579575800000000000e+09
2.800000000000000000e+01,7.700000000000000000e+01,1.700000000000000000e+01,2.000000000000000000e+00,1.100000000000000000e+01,1.270000000000000000e+02,5.900000000000000000e+01,1.260000000000000000e+02,8.100000000000000533e-01,1.579583700000000000e+09
3.300000000000000000e+01,4.500000000000000000e+01,1.800000000000000000e+01,1.200000000000000000e+01,1.000000000000000000e+01,1.080000000000000000e+02,-1.280000000000000000e+02,1.270000000000000000e+02,8.100000000000000533e-01,1.579591100000000000e+09
-5.600000000000000000e+01,0.000000000000000000e+00,6.000000000000000000e+00,2.000000000000000000e+00,-1.300000000000000000e+01,1.270000000000000000e+02,2.300000000000000000e+01,1.270000000000000000e+02,8.199999999999999512e-01,1.598008800000000000e+09
5.000000000000000000e+00,-8.100000000000000000e+01,-5.000000000000000000e+00,-5.000000000000000000e+00,1.000000000000000000e+00,1.270000000000000000e+02,1.270000000000000000e+02,-5.400000000000000000e+01,8.199999999999999512e-01,1.598020600000000000e+09
0.000000000000000000e+00,-1.000000000000000000e+01,2.700000000000000000e+01,3.000000000000000000e+00,-9.000000000000000000e+00,-6.000000000000000000e+00,1.270000000000000000e+02,3.000000000000000000e+01,8.299999999999999600e-01,1.617971800000000000e+09
2.100000000000000000e+01,9.200000000000000000e+01,-5.400000000000000000e+01,-4.000000000000000000e+00,-7.000000000000000000e+00,-1.280000000000000000e+02,1.130000000000000000e+02,1.270000000000000000e+02,8.299999999999999600e-01,1.617983600000000000e+09
2.600000000000000000e+01,6.000000000000000000e+00,-2.200000000000000000e+01,-7.000000000000000000e+00,-1.000000000000000000e+00,1.270000000000000000e+02,-8.400000000000000000e+01,1.270000000000000000e+02,8.299999999999999600e-01,1.618010600000000000e+09
3.400000000000000000e+01,-7.000000000000000000e+00,1.700000000000000000e+01,1.000000000000000000e+01,2.300000000000000000e+01,1.270000000000000000e+02,-1.280000000000000000e+02,-1.280000000000000000e+02,8.299999999999999600e-01,1.618056800000000000e+09
-8.000000000000000000e+00,1.000000000000000000e+00,2.700000000000000000e+01,-4.000000000000000000e+00,-2.300000000000000000e+01,-1.280000000000000000e+02,1.270000000000000000e+02,-2.500000000000000000e+01,8.399999999999999689e-01,1.637887500000000000e+09
3.100000000000000000e+01,-1.400000000000000000e+01,-3.000000000000000000e+00,8.000000000000000000e+00,1.400000000000000000e+01,8.900000000000000000e+01,1.270000000000000000e+02,1.270000000000000000e+02,8.399999999999999689e-01,1.637898400000000000e+09
2.200000000000000000e+01,1.800000000000000000e+01,1.000000000000000000e+01,9.000000000000000000e+00,1.200000000000000000e+01,1.270000000000000000e+02,1.010000000000000000e+02,4.000000000000000000e+01,8.399999999999999689e-01,1.637907000000000000e+09
-3.000000000000000000e+00,-3.600000000000000000e+01,1.200000000000000000e+01,-8.000000000000000000e+00,-2.300000000000000000e+01,-1.280000000000000000e+02,1.270000000000000000e+02,-8.500000000000000000e+01,8.399999999999999689e-01,1.637915500000000000e+09
5.000000000000000000e+00,7.700000000000000000e+01,1.500000000000000000e+01,4.000000000000000000e+00,9.000000000000000000e+00,9.500000000000000000e+01,5.600000000000000000e+01,-3.200000000000000000e+01,8.399999999999999689e-01,1.637923400000000000e+09
-3.000000000000000000e+00,-1.800000000000000000e+01,-2.400000000000000000e+01,-1.300000000000000000e+01,-2.300000000000000000e+01,-1.280000000000000000e+02,-8.000000000000000000e+01,1.270000000000000000e+02,8.399999999999999689e-01,1.637931100000000000e+09
-7.000000000000000000e+00,-3.000000000000000000e+00,-2.200000000000000000e+01,-1.100000000000000000e+01,-1.200000000000000000e+01,1.270000000000000000e+02,1.270000000000000000e+02,-1.120000000000000000e+02,8.499999999999999778e-01,1.657588900000000000e+09
-1.300000000000000000e+01,-4.000000000000000000e+01,4.000000000000000000e+00,3.000000000000000000e+00,-3.000000000000000000e+00,-1.280000000000000000e+02,1.270000000000000000e+02,-1.280000000000000000e+02,8.499999999999999778e-01,1.657603400000000000e+09
-9.000000000000000000e+00,4.800000000000000000e+01,-2.000000000000000000e+00,-7.000000000000000000e+00,-9.000000000000000000e+00,-1.280000000000000000e+02,1.270000000000000000e+02,-6.600000000000000000e+01,8.599999999999999867e-01,1.680513900000000000e+09
4.200000000000000000e+01,4.000000000000000000e+01,1.500000000000000000e+01,1.100000000000000000e+01,1.000000000000000000e+00,-1.280000000000000000e+02,8.000000000000000000e+01,1.270000000000000000e+02,8.599999999999999867e-01,1.680558400000000000e+09
-1.100000000000000000e+01,1.270000000000000000e+02,1.300000000000000000e+01,-2.000000000000000000e+00,-7.000000000000000000e+00,1.270000000000000000e+02,-1.280000000000000000e+02,-5.300000000000000000e+01,8.599999999999999867e-01,1.680573100000000000e+09
4.000000000000000000e+00,3.000000000000000000e+00,1.600000000000000000e+01,-2.000000000000000000e+00,-4.000000000000000000e+00,1.270000000000000000e+02,-1.280000000000000000e+02,-6.200000000000000000e+01,8.599999999999999867e-01,1.680585900000000000e+09
7.400000000000000000e+01,-1.300000000000000000e+01,4.000000000000000000e+01,2.100000000000000000e+01,2.000000000000000000e+01,-1.080000000000000000e+02,7.500000000000000000e+01,1.240000000000000000e+02,8.699999999999999956e-01,1.700041900000000000e+09
3.900000000000000000e+01,-4.800000000000000000e+01,-7.100000000000000000e+01,-1.100000000000000000e+01,2.000000000000000000e+00,1.270000000000000000e+02,1.200000000000000000e+02,1.270000000000000000e+02,8.699999999999999956e-01,1.700052800000000000e+09
1.500000000000000000e+01,-8.500000000000000000e+01,-1.100000000000000000e+01,-1.000000000000000000e+00,-6.000000000000000000e+00,-1.240000000000000000e+02,1.270000000000000000e+02,1.270000000000000000e+02,8.699999999999999956e-01,1.700061400000000000e+09
-8.200000000000000000e+01,-1.600000000000000000e+01,-1.900000000000000000e+01,-1.300000000000000000e+01,-8.000000000000000000e+00,6.300000000000000000e+01,1.270000000000000000e+02,1.270000000000000000e+02,8.699999999999999956e-01,1.700069400000000000e+09
-6.500000000000000000e+01,-5.000000000000000000e+00,4.900000000000000000e+01,1.000000000000000000e+00,-1.900000000000000000e+01,-1.280000000000000000e+02,1.270000000000000000e+02,-1.280000000000000000e+02,8.699999999999999956e-01,1.700078900000000000e+09
2.000000000000000000e+01,1.600000000000000000e+01,-1.500000000000000000e+01,7.000000000000000000e+00,1.600000000000000000e+01,1.270000000000000000e+02,4.300000000000000000e+01,1.090000000000000000e+02,8.699999999999999956e-01,1.700086900000000000e+09
-7.600000000000000000e+01,-3.800000000000000000e+01,9.000000000000000000e+00,-9.000000000000000000e+00,-9.000000000000000000e+00,5.200000000000000000e+01,-1.280000000000000000e+02,1.270000000000000000e+02,8.800000000000000044e-01,1.719468900000000000e+09
-1.100000000000000000e+01,6.500000000000000000e+01,8.000000000000000000e+00,-6.000000000000000000e+00,-2.300000000000000000e+01,-1.280000000000000000e+02,1.270000000000000000e+02,-9.200000000000000000e+01,8.800000000000000044e-01,1.719479800000000000e+09
2.900000000000000000e+01,-5.000000000000000000e+00,1.400000000000000000e+01,-1.000000000000000000e+00,4.000000000000000000e+00,-1.280000000000000000e+02,-1.280000000000000000e+02,-1.280000000000000000e+02,8.800000000000000044e-01,1.719488900000000000e+09
1.000000000000000000e+01,5.400000000000000000e+01,1.900000000000000000e+01,-3.000000000000000000e+00,-5.000000000000000000e+00,1.270000000000000000e+02,-1.280000000000000000e+02,-1.280000000000000000e+02,8.800000000000000044e-01,1.719496400000000000e+09
2.200000000000000000e+01,-3.000000000000000000e+00,-7.000000000000000000e+00,5.000000000000000000e+00,1.000000000000000000e+00,3.400000000000000000e+01,1.270000000000000000e+02,1.270000000000000000e+02,8.900000000000000133e-01,1.739530100000000000e+09
2.100000000000000000e+01,-8.400000000000000000e+01,-1.300000000000000000e+01,1.000000000000000000e+00,1.200000000000000000e+01,1.270000000000000000e+02,-1.280000000000000000e+02,1.700000000000000000e+01,8.900000000000000133e-01,1.739541000000000000e+09
2.000000000000000000e+00,6.200000000000000000e+01,1.000000000000000000e+01,1.200000000000000000e+01,2.500000000000000000e+01,1.270000000000000000e+02,1.270000000000000000e+02,4.400000000000000000e+01,9.000000000000000222e-01,1.759820900000000000e+09
2.400000000000000000e+01,2.700000000000000000e+01,1.700000000000000000e+01,1.100000000000000000e+01,1.900000000000000000e+01,1.270000000000000000e+02,1.270000000000000000e+02,-1.280000000000000000e+02,9.000000000000000222e-01,1.759833600000000000e+09
-8.300000000000000000e+01,-1.280000000000000000e+02,-2.800000000000000000e+01,-1.900000000000000000e+01,-3.000000000000000000e+01,-1.280000000000000000e+02,-1.280000000000000000e+02,-1.280000000000000000e+02,9.000000000000000222e-01,1.759843000000000000e+09
2.300000000000000000e+01,4.200000000000000000e+01,3.000000000000000000e+00,0.000000000000000000e+00,-1.000000000000000000e+00,1.270000000000000000e+02,1.230000000000000000e+02,1.270000000000000000e+02,9.000000000000000222e-01,1.759852100000000000e+09
-3.000000000000000000e+00,6.700000000000000000e+01,1.700000000000000000e+01,6.000000000000000000e+00,2.500000000000000000e+01,1.270000000000000000e+02,-4.900000000000000000e+01,-1.280000000000000000e+02,9.000000000000000222e-01,1.759860400000000000e+09
-8.000000000000000000e+01,-2.800000000000000000e+01,-1.100000000000000000e+01,-7.000000000000000000e+00,-5.000000000000000000e+00,-1.280000000000000000e+02,-7.600000000000000000e+01,-1.280000000000000000e+02,9.000000000000000222e-01,1.759899500000000000e+09
2.400000000000000000e+01,2.400000000000000000e+01,-7.100000000000000000e+01,8.000000000000000000e+00,4.000000000000000000e+00,-1.280000000000000000e+02,7.300000000000000000e+01,8.000000000000000000e+00,9.200000000000000400e-01,1.798140400000000000e+09
-1.000000000000000000e+00,-7.900000000000000000e+01,1.700000000000000000e+01,-1.000000000000000000e+00,2.000000000000000000e+00,1.500000000000000000e+01,5.100000000000000000e+01,-1.050000000000000000e+02,9.200000000000000400e-01,1.798181100000000000e+09
-3.000000000000000000e+01,-7.400000000000000000e+01,0.000000000000000000e+00,-9.000000000000000000e+00,-9.000000000000000000e+00,9.800000000000000000e+01,7.100000000000000000e+01,-1.280000000000000000e+02,9.200000000000000400e-01,1.798191200000000000e+09
-2.600000000000000000e+01,-4.000000000000000000e+00,1.600000000000000000e+01,-5.000000000000000000e+00,-1.000000000000000000e+01,1.270000000000000000e+02,-1.040000000000000000e+02,-1.700000000000000000e+01,9.200000000000000400e-01,1.798200900000000000e+09
-7.000000000000000000e+00,-3.000000000000000000e+01,-2.000000000000000000e+01,-5.000000000000000000e+00,5.000000000000000000e+00,-1.280000000000000000e+02,2.100000000000000000e+01,-7.800000000000000000e+01,9.200000000000000400e-01,1.798209000000000000e+09
8.000000000000000000e+00,2.800000000000000000e+01,1.300000000000000000e+01,-7.000000000000000000e+00,-1.100000000000000000e+01,-1.280000000000000000e+02,-1.300000000000000000e+01,4.000000000000000000e+00,9.200000000000000400e-01,1.798217400000000000e+09
-4.000000000000000000e+01,-2.400000000000000000e+01,-4.500000000000000000e+01,0.000000000000000000e+00,2.000000000000000000e+00,1.270000000000000000e+02,1.080000000000000000e+02,-1.400000000000000000e+01,9.300000000000000488e-01,1.820535500000000000e+09
-3.000000000000000000e+00,6.400000000000000000e+01,2.000000000000000000e+01,7.000000000000000000e+00,9.000000000000000000e+00,1.020000000000000000e+02,1.900000000000000000e+01,-1.280000000000000000e+02,9.300000000000000488e-01,1.820549700000000000e+09
3.700000000000000000e+01,3.400000000000000000e+01,6.600000000000000000e+01,7.000000000000000000e+00,-2.000000000000000000e+00,-1.280000000000000000e+02,1.270000000000000000e+02,1.270000000000000000e+02,9.300000000000000488e-01,1.820559700000000000e+09
6.200000000000000000e+01,4.800000000000000000e+01,-7.700000000000000000e+01,-1.300000000000000000e+01,-3.200000000000000000e+01,-1.280000000000000000e+02,1.270000000000000000e+02,1.270000000000000000e+02,9.300000000000000488e-01,1.820567900000000000e+09
-3.100000000000000000e+01,3.800000000000000000e+01,-3.400000000000000000e+01,-1.600000000000000000e+01,-1.600000000000000000e+01,1.270000000000000000e+02,-1.280000000000000000e+02,1.270000000000000000e+02,9.300000000000000488e-01,1.820577600000000000e+09
-2.100000000000000000e+01,-1.280000000000000000e+02,7.000000000000000000e+00,5.000000000000000000e+00,2.100000000000000000e+01,1.270000000000000000e+02,2.600000000000000000e+01,-1.280000000000000000e+02,9.300000000000000488e-01,1.820585600000000000e+09
3.000000000000000000e+00,1.270000000000000000e+02,1.200000000000000000e+01,4.000000000000000000e+00,8.000000000000000000e+00,1.270000000000000000e+02,1.270000000000000000e+02,-2.000000000000000000e+00,9.399999999999999467e-01,1.839990100000000000e+09
2.400000000000000000e+01,4.700000000000000000e+01,-9.000000000000000000e+00,-2.400000000000000000e+01,-4.600000000000000000e+01,-1.280000000000000000e+02,9.900000000000000000e+01,1.270000000000000000e+02,9.399999999999999467e-01,1.840003800000000000e+09
1.300000000000000000e+01,2.500000000000000000e+01,1.700000000000000000e+01,4.000000000000000000e+00,-1.000000000000000000e+00,-4.000000000000000000e+00,-6.300000000000000000e+01,8.300000000000000000e+01,9.399999999999999467e-01,1.840014900000000000e+09
-7.000000000000000000e+00,-4.100000000000000000e+01,4.000000000000000000e+00,5.000000000000000000e+00,1.000000000000000000e+01,1.270000000000000000e+02,-2.300000000000000000e+01,3.000000000000000000e+00,9.399999999999999467e-01,1.840023700000000000e+09
3.400000000000000000e+01,3.200000000000000000e+01,2.300000000000000000e+01,1.100000000000000000e+01,1.000000000000000000e+01,-1.110000000000000000e+02,1.270000000000000000e+02,1.270000000000000000e+02,9.499999999999999556e-01,1.858908000000000000e+09
5.500000000000000000e+01,-5.000000000000000000e+01,1.000000000000000000e+00,6.000000000000000000e+00,4.000000000000000000e+00,-1.280000000000000000e+02,-3.000000000000000000e+01,-6.900000000000000000e+01,9.499999999999999556e-01,1.858920100000000000e+09
-1.000000000000000000e+00,-5.000000000000000000e+01,-8.000000000000000000e+00,-4.000000000000000000e+00,-2.000000000000000000e+00,-3.200000000000000000e+01,-3.700000000000000000e+01,1.270000000000000000e+02,9.599999999999999645e-01,1.878053500000000000e+09
-4.000000000000000000e+00,4.100000000000000000e+01,1.300000000000000000e+01,6.000000000000000000e+00,4.000000000000000000e+00,1.270000000000000000e+02,5.500000000000000000e+01,-1.400000000000000000e+01,9.599999999999999645e-01,1.878065200000000000e+09
-1.100000000000000000e+01,-9.900000000000000000e+01,2.400000000000000000e+01,9.000000000000000000e+00,1.700000000000000000e+01,1.270000000000000000e+02,3.500000000000000000e+01,-1.190000000000000000e+02,9.599999999999999645e-01,1.878078000000000000e+09
4.000000000000000000e+00,-2.700000000000000000e+01,3.000000000000000000e+00,-3.000000000000000000e+00,-1.000000000000000000e+01,-1.280000000000000000e+02,-6.400000000000000000e+01,9.000000000000000000e+01,9.599999999999999645e-01,1.878085900000000000e+09
8.500000000000000000e+01,1.070000000000000000e+02,3.000000000000000000e+00,1.000000000000000000e+01,1.100000000000000000e+01,1.270000000000000000e+02,1.270000000000000000e+02,1.270000000000000000e+02,9.699999999999999734e-01,1.900518300000000000e+09
5.000000000000000000e+00,-6.500000000000000000e+01,1.800000000000000000e+01,-1.500000000000000000e+01,-4.300000000000000000e+01,-1.280000000000000000e+02,1.110000000000000000e+02,1.270000000000000000e+02,9.699999999999999734e-01,1.900531900000000000e+09
1.200000000000000000e+01,-4.000000000000000000e+00,8.000000000000000000e+00,0.000000000000000000e+00,4.000000000000000000e+00,1.010000000000000000e+02,-2.300000000000000000e+01,-8.000000000000000000e+01,9.699999999999999734e-01,1.900540900000000000e+09
6.000000000000000000e+00,-1.280000000000000000e+02,-3.200000000000000000e+01,5.000000000000000000e+00,8.000000000000000000e+00,-1.280000000000000000e+02,1.200000000000000000e+01,-1.280000000000000000e+02,9.699999999999999734e-01,1.900548800000000000e+09
4.800000000000000000e+01,-1.000000000000000000e+00,-1.000000000000000000e+00,3.000000000000000000e+00,1.400000000000000000e+01,1.270000000000000000e+02,7.800000000000000000e+01,1.270000000000000000e+02,9.799999999999999822e-01,1.918557200000000000e+09
2.800000000000000000e+01,5.200000000000000000e+01,8.200000000000000000e+01,2.400000000000000000e+01,1.600000000000000000e+01,-1.280000000000000000e+02,1.270000000000000000e+02,-1.280000000000000000e+02,9.799999999999999822e-01,1.918568600000000000e+09
7.000000000000000000e+00,8.000000000000000000e+00,-3.200000000000000000e+01,-2.000000000000000000e+00,-5.000000000000000000e+00,-1.280000000000000000e+02,1.270000000000000000e+02,-1.300000000000000000e+01,9.799999999999999822e-01,1.918578700000000000e+09
2.800000000000000000e+01,2.500000000000000000e+01,2.700000000000000000e+01,1.000000000000000000e+00,-3.000000000000000000e+00,9.000000000000000000e+00,9.100000000000000000e+01,1.110000000000000000e+02,9.799999999999999822e-01,1.918588700000000000e+09
2.600000000000000000e+01,0.000000000000000000e+00,2.900000000000000000e+01,7.000000000000000000e+00,6.000000000000000000e+00,-2.800000000000000000e+01,5.800000000000000000e+01,1.270000000000000000e+02,9.899999999999999911e-01,1.939782300000000000e+09
2.800000000000000000e+01,1.800000000000000000e+01,2.500000000000000000e+01,8.000000000000000000e+00,5.000000000000000000e+00,-1.280000000000000000e+02,1.270000000000000000e+02,-4.500000000000000000e+01,9.899999999999999911e-01,1.939795900000000000e+09
-1.080000000000000000e+02,5.000000000000000000e+01,1.500000000000000000e+01,0.000000000000000000e+00,2.000000000000000000e+00,1.500000000000000000e+01,-6.800000000000000000e+01,-1.280000000000000000e+02,9.899999999999999911e-01,1.939806800000000000e+09
3.600000000000000000e+01,-1.200000000000000000e+01,1.800000000000000000e+01,-3.000000000000000000e+00,-1.000000000000000000e+01,-1.280000000000000000e+02,1.270000000000000000e+02,-1.280000000000000000e+02,9.899999999999999911e-01,1.939814800000000000e+09
-6.500000000000000000e+01,9.000000000000000000e+00,-5.800000000000000000e+01,-1.000000000000000000e+01,-1.400000000000000000e+01,5.000000000000000000e+01,-5.000000000000000000e+00,-1.280000000000000000e+02,9.899999999999999911e-01,1.939823300000000000e+09
7.000000000000000000e+00,-9.000000000000000000e+01,1.000000000000000000e+00,5.000000000000000000e+00,7.000000000000000000e+00,1.270000000000000000e+02,-5.600000000000000000e+01,7.700000000000000000e+01,9.899999999999999911e-01,1.939831000000000000e+09
3.600000000000000000e+01,5.100000000000000000e+01,4.000000000000000000e+00,2.000000000000000000e+00,-1.000000000000000000e+00,-1.130000000000000000e+02,-4.000000000000000000e+00,-1.280000000000000000e+02,9.799999999999999822e-01,1.958759700000000000e+09
1.400000000000000000e+01,-4.000000000000000000e+00,1.500000000000000000e+01,5.000000000000000000e+00,2.000000000000000000e+00,6.300000000000000000e+01,1.270000000000000000e+02,-5.900000000000000000e+01,9.799999999999999822e-01,1.958771100000000000e+09
2.400000000000000000e+01,-3.000000000000000000e+00,8.000000000000000000e+00,1.000000000000000000e+00,3.000000000000000000e+00,-5.300000000000000000e+01,-1.280000000000000000e+02,1.270000000000000000e+02,9.699999999999999734e-01,1.979627600000000000e+09
-4.100000000000000000e+01,1.500000000000000000e+01,1.000000000000000000e+01,3.000000000000000000e+00,-1.000000000000000000e+00,1.500000000000000000e+01,-1.500000000000000000e+01,3.100000000000000000e+01,9.699999999999999734e-01,1.979638500000000000e+09
-3.100000000000000000e+01,9.000000000000000000e+00,-1.900000000000000000e+01,-1.900000000000000000e+01,-3.400000000000000000e+01,-1.280000000000000000e+02,-8.200000000000000000e+01,-1.280000000000000000e+02,9.699999999999999734e-01,1.979647200000000000e+09
1.000000000000000000e+00,-6.800000000000000000e+01,-2.000000000000000000e+00,3.000000000000000000e+00,1.000000000000000000e+00,-1.280000000000000000e+02,-2.000000000000000000e+00,-5.500000000000000000e+01,9.699999999999999734e-01,1.979660700000000000e+09
4.000000000000000000e+00,-2.700000000000000000e+01,2.900000000000000000e+01,-1.000000000000000000e+00,-3.000000000000000000e+00,1.800000000000000000e+01,4.600000000000000000e+01,-2.000000000000000000e+01,9.599999999999999645e-01,1.998978500000000000e+09
9.000000000000000000e+00,2.500000000000000000e+01,2.200000000000000000e+01,1.000000000000000000e+00,2.000000000000000000e+00,1.040000000000000000e+02,-4.000000000000000000e+01,-8.000000000000000000e+00,9.599999999999999645e-01,1.998990700000000000e+09
-4.000000000000000000e+00,-3.400000000000000000e+01,-2.700000000000000000e+01,-4.000000000000000000e+00,3.000000000000000000e+00,2.500000000000000000e+01,-7.000000000000000000e+00,-1.500000000000000000e+01,9.499999999999999556e-01,2.019466400000000000e+09
-1.000000000000000000e+00,8.400000000000000000e+01,-3.100000000000000000e+01,-5.000000000000000000e+00,0.000000000000000000e+00,1.270000000000000000e+02,-9.000000000000000000e+00,-6.000000000000000000e+00,9.499999999999999556e-01,2.019478500000000000e+09
-2.000000000000000000e+00,0.000000000000000000e+00,7.600000000000000000e+01,6.000000000000000000e+00,0.000000000000000000e+00,-1.280000000000000000e+02,5.000000000000000000e+01,-1.200000000000000000e+01,9.499999999999999556e-01,2.019487000000000000e+09
5.000000000000000000e+00,-2.000000000000000000e+00,-3.000000000000000000e+00,3.000000000000000000e+00,2.000000000000000000e+00,-5.200000000000000000e+01,-6.000000000000000000e+00,-8.000000000000000000e+00,9.499999999999999556e-01,2.019494500000000000e+09
-2.000000000000000000e+00,-2.100000000000000000e+01,-1.280000000000000000e+02,-1.000000000000000000e+01,-2.000000000000000000e+00,-6.000000000000000000e+00,0.000000000000000000e+00,-4.000000000000000000e+00,9.499999999999999556e-01,2.019502200000000000e+09
-2.000000000000000000e+00,-2.000000000000000000e+00,3.100000000000000000e+01,-1.000000000000000000e+01,-3.000000000000000000e+00,-1.300000000000000000e+01,0.000000000000000000e+00,-6.000000000000000000e+00,9.499999999999999556e-01,2.019511700000000000e+09
1.100000000000000000e+01,3.000000000000000000e+00,7.900000000000000000e+01,3.000000000000000000e+00,0.000000000000000000e+00,6.400000000000000000e+01,6.000000000000000000e+00,6.000000000000000000e+00,9.399999999999999467e-01,2.038284100000000000e+09
-7.000000000000000000e+00,-1.000000000000000000e+00,-3.000000000000000000e+01,7.000000000000000000e+00,-5.000000000000000000e+00,-1.500000000000000000e+01,2.100000000000000000e+01,-1.500000000000000000e+01,9.399999999999999467e-01,2.038296300000000000e+09
5.000000000000000000e+00,4.000000000000000000e+00,5.000000000000000000e+00,-1.000000000000000000e+00,-3.000000000000000000e+00,-2.800000000000000000e+01,-4.800000000000000000e+01,0.000000000000000000e+00,9.300000000000000488e-01,2.059055200000000000e+09
-1.000000000000000000e+00,-3.000000000000000000e+00,3.600000000000000000e+01,-1.000000000000000000e+00,-3.000000000000000000e+00,-1.200000000000000000e+01,-1.500000000000000000e+01,-3.000000000000000000e+00,9.300000000000000488e-01,2.059067900000000000e+09
1.000000000000000000e+00,2.000000000000000000e+01,-6.800000000000000000e+01,-9.000000000000000000e+00,0.000000000000000000e+00,1.200000000000000000e+02,-1.100000000000000000e+01,-1.000000000000000000e+00,9.300000000000000488e-01,2.059078400000000000e+09
1.100000000000000000e+01,3.000000000000000000e+01,1.600000000000000000e+01,8.000000000000000000e+00,-2.000000000000000000e+00,-1.280000000000000000e+02,5.000000000000000000e+00,1.100000000000000000e+01,9.300000000000000488e-01,2.059087600000000000e+09
-2.000000000000000000e+01,-3.400000000000000000e+01,-3.500000000000000000e+01,-5.000000000000000000e+00,-9.000000000000000000e+00,-1.280000000000000000e+02,-6.500000000000000000e+01,-4.500000000000000000e+01,9.300000000000000488e-01,2.059097100000000000e+09
-1.600000000000000000e+01,-1.600000000000000000e+01,1.600000000000000000e+01,-3.000000000000000000e+00,-1.100000000000000000e+01,-1.280000000000000000e+02,1.270000000000000000e+02,-1.280000000000000000e+02,9.300000000000000488e-01,2.059104700000000000e+09
-2.700000000000000000e+01,-2.100000000000000000e+01,1.000000000000000000e+00,-8.000000000000000000e+00,-3.000000000000000000e+00,1.180000000000000000e+02,-1.280000000000000000e+02,-1.280000000000000000e+02,9.200000000000000400e-01,2.077718300000000000e+09
4.600000000000000000e+01,-1.500000000000000000e+01,3.100000000000000000e+01,0.000000000000000000e+00,1.000000000000000000e+00,4.800000000000000000e+01,3.300000000000000000e+01,1.210000000000000000e+02,9.200000000000000400e-01,2.077762100000000000e+09
3.000000000000000000e+01,-9.000000000000000000e+00,2.800000000000000000e+01,0.000000000000000000e+00,-2.000000000000000000e+00,-9.000000000000000000e+00,-3.000000000000000000e+00,1.900000000000000000e+01,9.100000000000000311e-01,2.098965100000000000e+09
5.000000000000000000e+00,-1.700000000000000000e+01,-3.200000000000000000e+01,-9.000000000000000000e+00,0.000000000000000000e+00,1.800000000000000000e+01,1.000000000000000000e+01,5.000000000000000000e+00,9.100000000000000311e-01,2.098977500000000000e+09
-2.000000000000000000e+00,-4.800000000000000000e+01,-1.700000000000000000e+01,-4.000000000000000000e+00,0.000000000000000000e+00,7.000000000000000000e+00,8.000000000000000000e+00,-5.000000000000000000e+00,9.100000000000000311e-01,2.098986900000000000e+09
-1.500000000000000000e+01,3.000000000000000000e+00,-3.400000000000000000e+01,3.000000000000000000e+00,2.000000000000000000e+00,-2.100000000000000000e+01,-3.000000000000000000e+00,-1.300000000000000000e+01,9.100000000000000311e-01,2.098994900000000000e+09
2.000000000000000000e+00,1.400000000000000000e+01,-2.600000000000000000e+01,-3.500000000000000000e+01,-3.000000000000000000e+00,-4.500000000000000000e+01,6.000000000000000000e+00,-7.000000000000000000e+00,9.100000000000000311e-01,2.099002400000000000e+09
1.000000000000000000e+00,-1.000000000000000000e+01,2.300000000000000000e+01,4.200000000000000000e+01,4.000000000000000000e+00,3.000000000000000000e+00,2.000000000000000000e+00,-8.000000000000000000e+00,9.100000000000000311e-01,2.099013700000000000e+09
0.000000000000000000e+00,0.000000000000000000e+00,7.400000000000000000e+01,-6.000000000000000000e+00,-3.000000000000000000e+00,3.100000000000000000e+01,1.000000000000000000e+00,-4.000000000000000000e+00,9.000000000000000222e-01,2.118310000000000000e+09
1.000000000000000000e+00,1.000000000000000000e+00,-1.000000000000000000e+00,-9.000000000000000000e+00,-3.000000000000000000e+00,-4.000000000000000000e+00,0.000000000000000000e+00,-3.000000000000000000e+00,9.000000000000000222e-01,2.118321400000000000e+09
3.000000000000000000e+00,1.000000000000000000e+01,-3.900000000000000000e+01,1.000000000000000000e+00,-1.000000000000000000e+00,-4.200000000000000000e+01,-2.000000000000000000e+00,-1.000000000000000000e+00,9.000000000000000222e-01,2.118330000000000000e+09
4.000000000000000000e+00,-9.000000000000000000e+00,1.800000000000000000e+01,-1.400000000000000000e+01,-1.000000000000000000e+01,-5.200000000000000000e+01,6.000000000000000000e+00,0.000000000000000000e+00,9.000000000000000222e-01,2.118338100000000000e+09
1.300000000000000000e+01,5.500000000000000000e+01,1.270000000000000000e+02,-1.000000000000000000e+00,8.000000000000000000e+00,-6.900000000000000000e+01,5.000000000000000000e+00,2.000000000000000000e+00,8.900000000000000133e-01,2.139705100000000000e+09
-1.600000000000000000e+01,-4.300000000000000000e+01,2.000000000000000000e+01,1.300000000000000000e+01,4.000000000000000000e+00,-9.900000000000000000e+01,-2.000000000000000000e+00,-6.000000000000000000e+00,8.900000000000000133e-01,2.139718600000000000e+09
-2.400000000000000000e+01,-1.300000000000000000e+01,-1.190000000000000000e+02,-2.100000000000000000e+01,1.000000000000000000e+00,1.160000000000000000e+02,1.000000000000000000e+00,2.000000000000000000e+00,8.900000000000000133e-01,2.139727500000000000e+09
1.200000000000000000e+01,2.200000000000000000e+01,-4.500000000000000000e+01,3.000000000000000000e+00,-1.100000000000000000e+01,-1.280000000000000000e+02,2.100000000000000000e+01,-1.000000000000000000e+00,8.900000000000000133e-01,2.139735700000000000e+09
9.000000000000000000e+00,1.600000000000000000e+01,6.800000000000000000e+01,1.300000000000000000e+01,1.100000000000000000e+01,4.300000000000000000e+01,-2.200000000000000000e+01,-3.000000000000000000e+00,8.800000000000000044e-01,2.157796600000000000e+09
3.000000000000000000e+00,-9.000000000000000000e+00,-3.000000000000000000e+01,-2.000000000000000000e+00,-5.000000000000000000e+00,5.700000000000000000e+01,3.600000000000000000e+01,-5.000000000000000000e+00,8.800000000000000044e-01,2.157809100000000000e+09
3.000000000000000000e+00,1.100000000000000000e+01,6.500000000000000000e+01,4.000000000000000000e+00,-3.000000000000000000e+00,-3.500000000000000000e+01,-1.100000000000000000e+01,-4.100000000000000000e+01,8.800000000000000044e-01,2.157821000000000000e+09
-1.000000000000000000e+00,-1.800000000000000000e+01,0.000000000000000000e+00,1.000000000000000000e+00,1.000000000000000000e+00,9.600000000000000000e+01,-6.700000000000000000e+01,1.400000000000000000e+01,8.800000000000000044e-01,2.157843700000000000e+09
5.000000000000000000e+00,-3.700000000000000000e+01,4.000000000000000000e+00,-3.000000000000000000e+00,-1.000000000000000000e+00,4.100000000000000000e+01,-1.600000000000000000e+01,-5.000000000000000000e+00,8.699999999999999956e-01,2.178530700000000000e+09
0.000000000000000000e+00,3.100000000000000000e+01,2.000000000000000000e+00,-5.000000000000000000e+00,-1.000000000000000000e+00,5.300000000000000000e+01,1.400000000000000000e+01,9.000000000000000000e+00,8.699999999999999956e-01,2.178552700000000000e+09
1.800000000000000000e+01,1.800000000000000000e+01,4.000000000000000000e+01,1.000000000000000000e+00,3.000000000000000000e+00,4.900000000000000000e+01,3.000000000000000000e+00,1.000000000000000000e+01,8.699999999999999956e-01,2.178566200000000000e+09
-1.000000000000000000e+01,-1.200000000000000000e+01,-4.500000000000000000e+01,-4.000000000000000000e+00,1.000000000000000000e+00,2.400000000000000000e+01,6.000000000000000000e+00,-5.000000000000000000e+00,8.699999999999999956e-01,2.178576200000000000e+09
-2.000000000000000000e+00,-3.200000000000000000e+01,1.900000000000000000e+01,-6.000000000000000000e+00,-7.000000000000000000e+00,1.100000000000000000e+01,-1.000000000000000000e+00,-1.000000000000000000e+00,8.599999999999999867e-01,2.199222700000000000e+09
1.000000000000000000e+00,2.400000000000000000e+01,4.100000000000000000e+01,-6.000000000000000000e+00,0.000000000000000000e+00,0.000000000000000000e+00,1.000000000000000000e+00,-1.000000000000000000e+00,8.599999999999999867e-01,2.199236600000000000e+09
3.000000000000000000e+00,2.000000000000000000e+00,-2.600000000000000000e+01,0.000000000000000000e+00,1.000000000000000000e+00,-6.000000000000000000e+00,1.000000000000000000e+00,0.000000000000000000e+00,8.599999999999999867e-01,2.199254400000000000e+09
1.000000000000000000e+00,1.500000000000000000e+01,0.000000000000000000e+00,-4.000000000000000000e+00,0.000000000000000000e+00,-1.400000000000000000e+01,-1.000000000000000000e+00,-1.000000000000000000e+00,8.599999999999999867e-01,2.199262600000000000e+09
7.000000000000000000e+00,-1.050000000000000000e+02,-1.070000000000000000e+02,-6.000000000000000000e+00,-4.000000000000000000e+00,-1.700000000000000000e+01,-7.000000000000000000e+00,-5.000000000000000000e+00,8.499999999999999778e-01,2.217802900000000000e+09
-4.300000000000000000e+01,-6.000000000000000000e+00,-1.700000000000000000e+01,-1.100000000000000000e+01,-6.000000000000000000e+00,-4.000000000000000000e+00,-1.000000000000000000e+00,-6.000000000000000000e+00,8.499999999999999778e-01,2.217818200000000000e+09
-7.000000000000000000e+00,9.000000000000000000e+00,6.200000000000000000e+01,-2.000000000000000000e+00,-1.000000000000000000e+00,4.000000000000000000e+00,-6.000000000000000000e+00,-7.000000000000000000e+00,8.499999999999999778e-01,2.217826900000000000e+09
1.900000000000000000e+01,3.900000000000000000e+01,1.140000000000000000e+02,3.100000000000000000e+01,6.000000000000000000e+00,-9.000000000000000000e+00,-1.000000000000000000e+01,4.000000000000000000e+00,8.499999999999999778e-01,2.217834800000000000e+09
5.000000000000000000e+00,2.500000000000000000e+01,3.000000000000000000e+00,-1.000000000000000000e+01,4.000000000000000000e+00,1.000000000000000000e+01,-3.000000000000000000e+00,-2.000000000000000000e+00,8.399999999999999689e-01,2.238996900000000000e+09
-1.400000000000000000e+01,-7.000000000000000000e+00,-3.500000000000000000e+01,-5.000000000000000000e+00,1.000000000000000000e+00,4.300000000000000000e+01,-6.900000000000000000e+01,-1.900000000000000000e+01,8.399999999999999689e-01,2.239013300000000000e+09
0.000000000000000000e+00,-5.000000000000000000e+00,-8.400000000000000000e+01,-2.900000000000000000e+01,-1.200000000000000000e+01,-8.700000000000000000e+01,-1.200000000000000000e+01,4.000000000000000000e+00,8.399999999999999689e-01,2.239040900000000000e+09
1.000000000000000000e+00,6.000000000000000000e+00,7.000000000000000000e+01,2.100000000000000000e+01,8.000000000000000000e+00,-4.400000000000000000e+01,3.600000000000000000e+01,-5.000000000000000000e+00,8.399999999999999689e-01,2.239064000000000000e+09
-1.000000000000000000e+00,3.600000000000000000e+01,-1.300000000000000000e+01,6.000000000000000000e+00,4.000000000000000000e+00,1.200000000000000000e+01,-2.000000000000000000e+00,3.000000000000000000e+00,8.299999999999999600e-01,2.259862500000000000e+09
0.000000000000000000e+00,-3.300000000000000000e+01,-7.900000000000000000e+01,-2.700000000000000000e+01,-1.100000000000000000e+01,2.000000000000000000e+01,-2.800000000000000000e+01,-3.000000000000000000e+00,8.299999999999999600e-01,2.259874900000000000e+09
-8.000000000000000000e+00,-4.000000000000000000e+00,3.900000000000000000e+01,-3.000000000000000000e+00,-9.000000000000000000e+00,-1.700000000000000000e+01,-6.000000000000000000e+00,-2.000000000000000000e+00,8.299999999999999600e-01,2.259883300000000000e+09
1.000000000000000000e+00,-1.300000000000000000e+01,2.900000000000000000e+01,1.200000000000000000e+01,2.000000000000000000e+00,3.600000000000000000e+01,8.000000000000000000e+00,-1.000000000000000000e+00,8.299999999999999600e-01,2.259895200000000000e+09
-1.100000000000000000e+01,-4.700000000000000000e+01,8.300000000000000000e+01,4.000000000000000000e+00,2.000000000000000000e+00,4.200000000000000000e+01,-3.000000000000000000e+00,3.000000000000000000e+00,8.199999999999999512e-01,2.278537900000000000e+09
-1.200000000000000000e+01,3.700000000000000000e+01,-6.800000000000000000e+01,-1.500000000000000000e+01,-8.000000000000000000e+00,8.300000000000000000e+01,-1.700000000000000000e+01,-7.000000000000000000e+00,8.199999999999999512e-01,2.278551900000000000e+09
3.000000000000000000e+00,-1.050000000000000000e+02,3.000000000000000000e+00,-1.600000000000000000e+01,-9.000000000000000000e+00,-1.080000000000000000e+02,-2.700000000000000000e+01,6.000000000000000000e+00,8.199999999999999512e-01,2.278564200000000000e+09
-6.000000000000000000e+00,-8.100000000000000000e+01,-6.000000000000000000e+01,-6.000000000000000000e+00,2.000000000000000000e+00,1.700000000000000000e+01,3.800000000000000000e+01,-4.000000000000000000e+00,8.199999999999999512e-01,2.278573900000000000e+09
-1.300000000000000000e+01,3.900000000000000000e+01,5.000000000000000000e+00,1.000000000000000000e+01,-5.000000000000000000e+00,1.100000000000000000e+01,-4.000000000000000000e+00,-3.000000000000000000e+00,8.100000000000000533e-01,2.299414100000000000e+09
-1.000000000000000000e+01,-2.200000000000000000e+01,-3.300000000000000000e+01,-9.000000000000000000e+00,1.000000000000000000e+00,4.000000000000000000e+00,-1.200000000000000000e+01,-3.000000000000000000e+00,8.100000000000000533e-01,2.299426200000000000e+09
5.600000000000000000e+01,5.700000000000000000e+01,-5.800000000000000000e+01,-1.400000000000000000e+01,-5.000000000000000000e+00,0.000000000000000000e+00,2.000000000000000000e+01,0.000000000000000000e+00,8.100000000000000533e-01,2.299435000000000000e+09
-5.000000000000000000e+00,2.000000000000000000e+01,3.700000000000000000e+01,1.000000000000000000e+01,1.200000000000000000e+01,1.500000000000000000e+01,-1.600000000000000000e+01,-2.000000000000000000e+00,8.100000000000000533e-01,2.299451500000000000e+09
9.000000000000000000e+00,8.000000000000000000e+00,7.600000000000000000e+01,1.400000000000000000e+01,-7.000000000000000000e+00,-4.400000000000000000e+01,1.500000000000000000e+01,5.000000000000000000e+00,8.000000000000000444e-01,2.317664500000000000e+09
-1.600000000000000000e+01,-2.600000000000000000e+01,-1.100000000000000000e+01,1.400000000000000000e+01,7.000000000000000000e+00,-1.200000000000000000e+01,2.000000000000000000e+01,-1.000000000000000000e+00,8.000000000000000444e-01,2.317675400000000000e+09
-2.000000000000000000e+00,-4.000000000000000000e+00,-3.200000000000000000e+01,-1.900000000000000000e+01,1.000000000000000000e+00,-2.300000000000000000e+01,-2.400000000000000000e+01,-4.000000000000000000e+00,8.000000000000000444e-01,2.317684400000000000e+09
3.100000000000000000e+01,-5.000000000000000000e+00,-1.280000000000000000e+02,-2.000000000000000000e+00,4.000000000000000000e+00,5.500000000000000000e+01,2.000000000000000000e+00,-2.000000000000000000e+00,8.000000000000000444e-01,2.317695200000000000e+09
3.000000000000000000e+00,0.000000000000000000e+00,7.200000000000000000e+01,7.000000000000000000e+00,-1.000000000000000000e+00,-2.600000000000000000e+01,-2.900000000000000000e+01,0.000000000000000000e+00,7.900000000000000355e-01,2.339133200000000000e+09
-4.000000000000000000e+00,-4.000000000000000000e+00,-5.900000000000000000e+01,-2.000000000000000000e+01,-1.100000000000000000e+01,8.000000000000000000e+00,-4.000000000000000000e+00,-1.000000000000000000e+00,7.900000000000000355e-01,2.339178100000000000e+09
2.000000000000000000e+01,4.300000000000000000e+01,1.150000000000000000e+02,1.200000000000000000e+01,9.000000000000000000e+00,9.000000000000000000e+00,2.200000000000000000e+01,1.000000000000000000e+01,7.900000000000000355e-01,2.339195300000000000e+09
-2.000000000000000000e+01,-6.400000000000000000e+01,-1.280000000000000000e+02,5.000000000000000000e+00,-3.000000000000000000e+00,-1.100000000000000000e+01,-3.800000000000000000e+01,-1.200000000000000000e+01,7.900000000000000355e-01,2.339203800000000000e+09
-8.000000000000000000e+00,-2.200000000000000000e+01,1.270000000000000000e+02,-1.500000000000000000e+01,-8.000000000000000000e+00,3.000000000000000000e+00,-5.000000000000000000e+00,0.000000000000000000e+00,7.800000000000000266e-01,2.357889900000000000e+09
-5.100000000000000000e+01,2.600000000000000000e+01,-1.280000000000000000e+02,-6.000000000000000000e+00,-3.000000000000000000e+00,1.200000000000000000e+01,3.000000000000000000e+00,-6.000000000000000000e+00,7.800000000000000266e-01,2.357901700000000000e+09
2.000000000000000000e+01,-2.200000000000000000e+01,5.600000000000000000e+01,-5.000000000000000000e+00,4.000000000000000000e+00,7.000000000000000000e+00,1.000000000000000000e+00,6.000000000000000000e+00,7.800000000000000266e-01,2.357910200000000000e+09
7.000000000000000000e+00,-1.100000000000000000e+01,1.700000000000000000e+01,-1.000000000000000000e+00,0.000000000000000000e+00,1.600000000000000000e+01,1.200000000000000000e+01,4.000000000000000000e+00,7.800000000000000266e-01,2.357917800000000000e+09
